##TITLE=No Description
##DATA TYPE=INFRARED SPECTRUM
##XUNITS=1/CM
##YUNITS=Abs
399.264912  	0.505760 
401.193728  	0.514438 
403.122544  	0.513660 
405.051360  	0.509169 
406.980176  	0.509159 
408.908992  	0.503808 
410.837808  	0.508381 
412.766624  	0.504935 
414.695440  	0.497816 
416.624256  	0.497056 
418.553072  	0.500218 
420.481888  	0.481801 
422.410704  	0.487771 
424.339520  	0.485803 
426.268336  	0.495615 
428.197152  	0.495707 
430.125968  	0.485871 
432.054784  	0.480781 
433.983600  	0.479233 
435.912416  	0.467914 
437.841232  	0.467847 
439.770048  	0.472326 
441.698864  	0.471024 
443.627680  	0.466855 
445.556496  	0.471579 
447.485312  	0.474111 
449.414128  	0.476808 
451.342944  	0.475868 
453.271760  	0.470504 
455.200576  	0.469113 
457.129392  	0.472487 
459.058208  	0.465084 
460.987024  	0.471345 
462.915840  	0.482291 
464.844656  	0.487853 
466.773472  	0.484558 
468.702288  	0.485991 
470.631104  	0.484176 
472.559920  	0.491081 
474.488736  	0.484051 
476.417552  	0.475752 
478.346368  	0.472674 
480.275184  	0.478622 
482.204000  	0.481688 
484.132816  	0.482836 
486.061632  	0.478057 
487.990448  	0.480391 
489.919264  	0.479652 
491.848080  	0.477790 
493.776896  	0.472594 
495.705712  	0.469770 
497.634528  	0.468785 
499.563344  	0.470822 
501.492160  	0.469446 
503.420976  	0.470612 
505.349792  	0.466846 
507.278608  	0.465500 
509.207424  	0.463662 
511.136240  	0.464953 
513.065056  	0.468872 
514.993872  	0.475402 
516.922688  	0.478116 
518.851504  	0.479510 
520.780320  	0.477320 
522.709136  	0.477409 
524.637952  	0.475172 
526.566768  	0.474182 
528.495584  	0.471541 
530.424400  	0.467518 
532.353216  	0.462031 
534.282032  	0.456998 
536.210848  	0.449989 
538.139664  	0.444528 
540.068480  	0.438867 
541.997296  	0.434477 
543.926112  	0.430025 
545.854928  	0.426507 
547.783744  	0.423557 
549.712560  	0.421034 
551.641376  	0.416774 
553.570192  	0.411651 
555.499008  	0.407505 
557.427824  	0.405253 
559.356640  	0.401768 
561.285456  	0.397961 
563.214272  	0.394121 
565.143088  	0.391309 
567.071904  	0.385329 
569.000720  	0.379764 
570.929536  	0.375900 
572.858352  	0.374183 
574.787168  	0.371321 
576.715984  	0.368408 
578.644800  	0.365237 
580.573616  	0.361354 
582.502432  	0.356007 
584.431248  	0.350366 
586.360064  	0.344879 
588.288880  	0.341664 
590.217696  	0.339470 
592.146512  	0.337752 
594.075328  	0.336432 
596.004144  	0.335136 
597.932960  	0.333850 
599.861776  	0.332718 
601.790592  	0.331216 
603.719408  	0.330769 
605.648224  	0.329553 
607.577040  	0.328681 
609.505856  	0.327660 
611.434672  	0.326876 
613.363488  	0.325557 
615.292304  	0.325215 
617.221120  	0.323908 
619.149936  	0.322574 
621.078752  	0.320312 
623.007568  	0.319647 
624.936384  	0.319831 
626.865200  	0.319570 
628.794016  	0.318953 
630.722832  	0.319029 
632.651648  	0.319156 
634.580464  	0.320405 
636.509280  	0.321839 
638.438096  	0.321610 
640.366912  	0.321491 
642.295728  	0.320939 
644.224544  	0.318714 
646.153360  	0.315868 
648.082176  	0.311610 
650.010992  	0.307867 
651.939808  	0.303667 
653.868624  	0.300043 
655.797440  	0.295860 
657.726256  	0.292410 
659.655072  	0.288294 
661.583888  	0.283954 
663.512704  	0.279456 
665.441520  	0.274995 
667.370336  	0.270040 
669.299152  	0.265165 
671.227968  	0.261330 
673.156784  	0.258023 
675.085600  	0.255422 
677.014416  	0.253439 
678.943232  	0.251660 
680.872048  	0.250260 
682.800864  	0.249392 
684.729680  	0.248160 
686.658496  	0.246762 
688.587312  	0.246487 
690.516128  	0.244906 
692.444944  	0.243408 
694.373760  	0.243237 
696.302576  	0.242669 
698.231392  	0.240237 
700.160208  	0.238185 
702.089024  	0.236015 
704.017840  	0.233663 
705.946656  	0.231332 
707.875472  	0.229469 
709.804288  	0.227738 
711.733104  	0.226267 
713.661920  	0.224960 
715.590736  	0.224419 
717.519552  	0.225253 
719.448368  	0.226833 
721.377184  	0.229319 
723.306000  	0.231601 
725.234816  	0.233170 
727.163632  	0.232565 
729.092448  	0.229842 
731.021264  	0.226030 
732.950080  	0.222281 
734.878896  	0.218514 
736.807712  	0.214605 
738.736528  	0.211996 
740.665344  	0.210032 
742.594160  	0.208913 
744.522976  	0.207547 
746.451792  	0.207023 
748.380608  	0.206436 
750.309424  	0.205739 
752.238240  	0.204982 
754.167056  	0.205141 
756.095872  	0.204805 
758.024688  	0.204078 
759.953504  	0.204472 
761.882320  	0.206208 
763.811136  	0.208258 
765.739952  	0.207577 
767.668768  	0.204832 
769.597584  	0.202645 
771.526400  	0.203271 
773.455216  	0.206823 
775.384032  	0.213482 
777.312848  	0.222174 
779.241664  	0.228169 
781.170480  	0.228437 
783.099296  	0.223127 
785.028112  	0.216207 
786.956928  	0.209702 
788.885744  	0.204320 
790.814560  	0.200078 
792.743376  	0.198080 
794.672192  	0.198332 
796.601008  	0.197970 
798.529824  	0.194252 
800.458640  	0.189109 
802.387456  	0.185556 
804.316272  	0.183997 
806.245088  	0.183711 
808.173904  	0.184038 
810.102720  	0.184926 
812.031536  	0.186018 
813.960352  	0.187811 
815.889168  	0.190041 
817.817984  	0.192180 
819.746800  	0.194089 
821.675616  	0.196117 
823.604432  	0.198031 
825.533248  	0.199454 
827.462064  	0.200521 
829.390880  	0.200853 
831.319696  	0.201021 
833.248512  	0.199867 
835.177328  	0.197974 
837.106144  	0.195058 
839.034960  	0.191514 
840.963776  	0.187179 
842.892592  	0.182788 
844.821408  	0.178348 
846.750224  	0.174183 
848.679040  	0.171337 
850.607856  	0.169185 
852.536672  	0.167661 
854.465488  	0.166692 
856.394304  	0.166375 
858.323120  	0.165581 
860.251936  	0.164377 
862.180752  	0.162716 
864.109568  	0.160718 
866.038384  	0.158786 
867.967200  	0.156670 
869.896016  	0.154980 
871.824832  	0.153718 
873.753648  	0.153683 
875.682464  	0.154679 
877.611280  	0.157233 
879.540096  	0.160937 
881.468912  	0.165718 
883.397728  	0.169921 
885.326544  	0.173181 
887.255360  	0.175491 
889.184176  	0.175870 
891.112992  	0.175188 
893.041808  	0.173347 
894.970624  	0.169980 
896.899440  	0.165162 
898.828256  	0.159652 
900.757072  	0.154244 
902.685888  	0.149674 
904.614704  	0.147512 
906.543520  	0.148117 
908.472336  	0.151088 
910.401152  	0.155547 
912.329968  	0.160714 
914.258784  	0.165909 
916.187600  	0.170647 
918.116416  	0.174592 
920.045232  	0.177687 
921.974048  	0.179557 
923.902864  	0.180990 
925.831680  	0.182446 
927.760496  	0.184121 
929.689312  	0.186220 
931.618128  	0.188658 
933.546944  	0.190704 
935.475760  	0.191950 
937.404576  	0.192060 
939.333392  	0.191467 
941.262208  	0.191750 
943.191024  	0.194105 
945.119840  	0.199727 
947.048656  	0.209057 
948.977472  	0.221835 
950.906288  	0.237481 
952.835104  	0.255540 
954.763920  	0.275072 
956.692736  	0.293602 
958.621552  	0.309198 
960.550368  	0.319149 
962.479184  	0.323470 
964.408000  	0.320558 
966.336816  	0.311604 
968.265632  	0.297177 
970.194448  	0.279338 
972.123264  	0.259676 
974.052080  	0.239606 
975.980896  	0.220259 
977.909712  	0.202768 
979.838528  	0.187695 
981.767344  	0.175514 
983.696160  	0.167201 
985.624976  	0.162990 
987.553792  	0.163205 
989.482608  	0.167537 
991.411424  	0.175519 
993.340240  	0.186271 
995.269056  	0.198237 
997.197872  	0.210573 
999.126688  	0.222555 
1001.055504  	0.234771 
1002.984320  	0.246424 
1004.913136  	0.257767 
1006.841952  	0.268045 
1008.770768  	0.277033 
1010.699584  	0.283656 
1012.628400  	0.288096 
1014.557216  	0.290462 
1016.486032  	0.291040 
1018.414848  	0.290310 
1020.343664  	0.289299 
1022.272480  	0.288710 
1024.201296  	0.288138 
1026.130112  	0.287425 
1028.058928  	0.288198 
1029.987744  	0.291108 
1031.916560  	0.295236 
1033.845376  	0.300078 
1035.774192  	0.306658 
1037.703008  	0.314995 
1039.631824  	0.326894 
1041.560640  	0.342713 
1043.489456  	0.363712 
1045.418272  	0.386495 
1047.347088  	0.407668 
1049.275904  	0.422622 
1051.204720  	0.430626 
1053.133536  	0.430249 
1055.062352  	0.425417 
1056.991168  	0.418226 
1058.919984  	0.411873 
1060.848800  	0.406090 
1062.777616  	0.400533 
1064.706432  	0.394320 
1066.635248  	0.386900 
1068.564064  	0.377758 
1070.492880  	0.367662 
1072.421696  	0.358472 
1074.350512  	0.353272 
1076.279328  	0.352067 
1078.208144  	0.354822 
1080.136960  	0.357826 
1082.065776  	0.358556 
1083.994592  	0.354510 
1085.923408  	0.346124 
1087.852224  	0.333470 
1089.781040  	0.319397 
1091.709856  	0.304072 
1093.638672  	0.287983 
1095.567488  	0.270378 
1097.496304  	0.253596 
1099.425120  	0.237140 
1101.353936  	0.221797 
1103.282752  	0.207367 
1105.211568  	0.193946 
1107.140384  	0.181600 
1109.069200  	0.170504 
1110.998016  	0.160618 
1112.926832  	0.151399 
1114.855648  	0.142871 
1116.784464  	0.134898 
1118.713280  	0.127106 
1120.642096  	0.119211 
1122.570912  	0.112064 
1124.499728  	0.105812 
1126.428544  	0.100011 
1128.357360  	0.095056 
1130.286176  	0.090924 
1132.214992  	0.087618 
1134.143808  	0.084874 
1136.072624  	0.082710 
1138.001440  	0.080760 
1139.930256  	0.078857 
1141.859072  	0.076737 
1143.787888  	0.074690 
1145.716704  	0.072738 
1147.645520  	0.070853 
1149.574336  	0.069710 
1151.503152  	0.069196 
1153.431968  	0.069659 
1155.360784  	0.070645 
1157.289600  	0.072360 
1159.218416  	0.074623 
1161.147232  	0.077440 
1163.076048  	0.080693 
1165.004864  	0.084088 
1166.933680  	0.087041 
1168.862496  	0.090235 
1170.791312  	0.094016 
1172.720128  	0.097876 
1174.648944  	0.102245 
1176.577760  	0.106734 
1178.506576  	0.111439 
1180.435392  	0.116187 
1182.364208  	0.121220 
1184.293024  	0.126681 
1186.221840  	0.132828 
1188.150656  	0.140112 
1190.079472  	0.148485 
1192.008288  	0.157988 
1193.937104  	0.169026 
1195.865920  	0.181381 
1197.794736  	0.194346 
1199.723552  	0.207493 
1201.652368  	0.220745 
1203.581184  	0.232890 
1205.510000  	0.243735 
1207.438816  	0.252719 
1209.367632  	0.260392 
1211.296448  	0.265630 
1213.225264  	0.269348 
1215.154080  	0.270666 
1217.082896  	0.270451 
1219.011712  	0.268474 
1220.940528  	0.265854 
1222.869344  	0.261885 
1224.798160  	0.257334 
1226.726976  	0.251881 
1228.655792  	0.246092 
1230.584608  	0.239642 
1232.513424  	0.232637 
1234.442240  	0.224856 
1236.371056  	0.216676 
1238.299872  	0.207948 
1240.228688  	0.198832 
1242.157504  	0.189640 
1244.086320  	0.180614 
1246.015136  	0.171561 
1247.943952  	0.162818 
1249.872768  	0.154400 
1251.801584  	0.146463 
1253.730400  	0.138450 
1255.659216  	0.131004 
1257.588032  	0.123908 
1259.516848  	0.117297 
1261.445664  	0.111105 
1263.374480  	0.105758 
1265.303296  	0.101161 
1267.232112  	0.097447 
1269.160928  	0.095024 
1271.089744  	0.093792 
1273.018560  	0.093737 
1274.947376  	0.094469 
1276.876192  	0.095536 
1278.805008  	0.096283 
1280.733824  	0.096037 
1282.662640  	0.094330 
1284.591456  	0.091968 
1286.520272  	0.089770 
1288.449088  	0.088669 
1290.377904  	0.089144 
1292.306720  	0.090356 
1294.235536  	0.090923 
1296.164352  	0.090084 
1298.093168  	0.087683 
1300.021984  	0.084107 
1301.950800  	0.080306 
1303.879616  	0.076516 
1305.808432  	0.072421 
1307.737248  	0.068138 
1309.666064  	0.064040 
1311.594880  	0.060790 
1313.523696  	0.058573 
1315.452512  	0.057134 
1317.381328  	0.056491 
1319.310144  	0.056816 
1321.238960  	0.057734 
1323.167776  	0.059145 
1325.096592  	0.060439 
1327.025408  	0.061241 
1328.954224  	0.061260 
1330.883040  	0.060499 
1332.811856  	0.059181 
1334.740672  	0.057837 
1336.669488  	0.056810 
1338.598304  	0.056372 
1340.527120  	0.056441 
1342.455936  	0.056235 
1344.384752  	0.056169 
1346.313568  	0.056745 
1348.242384  	0.058051 
1350.171200  	0.060113 
1352.100016  	0.062558 
1354.028832  	0.065271 
1355.957648  	0.068183 
1357.886464  	0.070686 
1359.815280  	0.073064 
1361.744096  	0.076036 
1363.672912  	0.079766 
1365.601728  	0.081987 
1367.530544  	0.083776 
1369.459360  	0.085514 
1371.388176  	0.085723 
1373.316992  	0.084628 
1375.245808  	0.082341 
1377.174624  	0.078743 
1379.103440  	0.075219 
1381.032256  	0.071886 
1382.961072  	0.069182 
1384.889888  	0.066891 
1386.818704  	0.065276 
1388.747520  	0.063584 
1390.676336  	0.060946 
1392.605152  	0.058274 
1394.533968  	0.057169 
1396.462784  	0.057667 
1398.391600  	0.057939 
1400.320416  	0.059318 
1402.249232  	0.059577 
1404.178048  	0.060706 
1406.106864  	0.062608 
1408.035680  	0.064187 
1409.964496  	0.066095 
1411.893312  	0.068937 
1413.822128  	0.071406 
1415.750944  	0.073367 
1417.679760  	0.075087 
1419.608576  	0.078086 
1421.537392  	0.077840 
1423.466208  	0.076315 
1425.395024  	0.074541 
1427.323840  	0.071423 
1429.252656  	0.068513 
1431.181472  	0.066749 
1433.110288  	0.065856 
1435.039104  	0.065628 
1436.967920  	0.068701 
1438.896736  	0.070909 
1440.825552  	0.071183 
1442.754368  	0.071759 
1444.683184  	0.071661 
1446.612000  	0.071668 
1448.540816  	0.072390 
1450.469632  	0.072609 
1452.398448  	0.072613 
1454.327264  	0.072308 
1456.256080  	0.072465 
1458.184896  	0.075762 
1460.113712  	0.075193 
1462.042528  	0.073936 
1463.971344  	0.073741 
1465.900160  	0.076241 
1467.828976  	0.077724 
1469.757792  	0.079401 
1471.686608  	0.083548 
1473.615424  	0.093937 
1475.544240  	0.100251 
1477.473056  	0.106775 
1479.401872  	0.110441 
1481.330688  	0.114126 
1483.259504  	0.116526 
1485.188320  	0.117234 
1487.117136  	0.117136 
1489.045952  	0.116877 
1490.974768  	0.115168 
1492.903584  	0.111061 
1494.832400  	0.105220 
1496.761216  	0.098832 
1498.690032  	0.091904 
1500.618848  	0.085425 
1502.547664  	0.079037 
1504.476480  	0.073359 
1506.405296  	0.069549 
1508.334112  	0.068315 
1510.262928  	0.065074 
1512.191744  	0.062972 
1514.120560  	0.061525 
1516.049376  	0.061537 
1517.978192  	0.063960 
1519.907008  	0.064742 
1521.835824  	0.071232 
1523.764640  	0.075985 
1525.693456  	0.078886 
1527.622272  	0.081681 
1529.551088  	0.081593 
1531.479904  	0.079125 
1533.408720  	0.076371 
1535.337536  	0.072402 
1537.266352  	0.067326 
1539.195168  	0.062846 
1541.123984  	0.060860 
1543.052800  	0.058899 
1544.981616  	0.057141 
1546.910432  	0.055846 
1548.839248  	0.054505 
1550.768064  	0.055451 
1552.696880  	0.055133 
1554.625696  	0.056614 
1556.554512  	0.056190 
1558.483328  	0.059503 
1560.412144  	0.070649 
1562.340960  	0.071629 
1564.269776  	0.074671 
1566.198592  	0.080928 
1568.127408  	0.084772 
1570.056224  	0.094957 
1571.985040  	0.101414 
1573.913856  	0.103975 
1575.842672  	0.108133 
1577.771488  	0.113302 
1579.700304  	0.111507 
1581.629120  	0.110063 
1583.557936  	0.109278 
1585.486752  	0.110624 
1587.415568  	0.113749 
1589.344384  	0.119917 
1591.273200  	0.127653 
1593.202016  	0.136811 
1595.130832  	0.146414 
1597.059648  	0.156288 
1598.988464  	0.163638 
1600.917280  	0.170144 
1602.846096  	0.174236 
1604.774912  	0.176655 
1606.703728  	0.175856 
1608.632544  	0.174738 
1610.561360  	0.172017 
1612.490176  	0.169364 
1614.418992  	0.165501 
1616.347808  	0.166492 
1618.276624  	0.170839 
1620.205440  	0.172186 
1622.134256  	0.174945 
1624.063072  	0.185453 
1625.991888  	0.191899 
1627.920704  	0.201195 
1629.849520  	0.211721 
1631.778336  	0.218634 
1633.707152  	0.222711 
1635.635968  	0.234235 
1637.564784  	0.246169 
1639.493600  	0.248228 
1641.422416  	0.249682 
1643.351232  	0.249767 
1645.280048  	0.247570 
1647.208864  	0.251220 
1649.137680  	0.250264 
1651.066496  	0.243017 
1652.995312  	0.240329 
1654.924128  	0.243577 
1656.852944  	0.236719 
1658.781760  	0.231151 
1660.710576  	0.225431 
1662.639392  	0.221029 
1664.568208  	0.216303 
1666.497024  	0.209281 
1668.425840  	0.202671 
1670.354656  	0.197913 
1672.283472  	0.192120 
1674.212288  	0.186319 
1676.141104  	0.183500 
1678.069920  	0.179131 
1679.998736  	0.175576 
1681.927552  	0.172425 
1683.856368  	0.171739 
1685.785184  	0.175059 
1687.714000  	0.171901 
1689.642816  	0.170659 
1691.571632  	0.168958 
1693.500448  	0.165562 
1695.429264  	0.163362 
1697.358080  	0.163079 
1699.286896  	0.159433 
1701.215712  	0.159782 
1703.144528  	0.155460 
1705.073344  	0.151217 
1707.002160  	0.146944 
1708.930976  	0.141226 
1710.859792  	0.134340 
1712.788608  	0.126381 
1714.717424  	0.117382 
1716.646240  	0.107410 
1718.575056  	0.095839 
1720.503872  	0.085002 
1722.432688  	0.075395 
1724.361504  	0.065187 
1726.290320  	0.056453 
1728.219136  	0.048786 
1730.147952  	0.042326 
1732.076768  	0.036527 
1734.005584  	0.033256 
1735.934400  	0.029773 
1737.863216  	0.026509 
1739.792032  	0.024442 
1741.720848  	0.022964 
1743.649664  	0.021061 
1745.578480  	0.019721 
1747.507296  	0.018377 
1749.436112  	0.017763 
1751.364928  	0.017319 
1753.293744  	0.016599 
1755.222560  	0.015241 
1757.151376  	0.015396 
1759.080192  	0.014484 
1761.009008  	0.014073 
1762.937824  	0.014037 
1764.866640  	0.013421 
1766.795456  	0.012370 
1768.724272  	0.012291 
1770.653088  	0.011142 
1772.581904  	0.012096 
1774.510720  	0.012233 
1776.439536  	0.011812 
1778.368352  	0.011046 
1780.297168  	0.010943 
1782.225984  	0.010787 
1784.154800  	0.010723 
1786.083616  	0.010634 
1788.012432  	0.010262 
1789.941248  	0.009637 
1791.870064  	0.010232 
1793.798880  	0.010434 
1795.727696  	0.009963 
1797.656512  	0.009208 
1799.585328  	0.009099 
1801.514144  	0.009558 
1803.442960  	0.009539 
1805.371776  	0.008875 
1807.300592  	0.008817 
1809.229408  	0.008684 
1811.158224  	0.009048 
1813.087040  	0.008886 
1815.015856  	0.008426 
1816.944672  	0.008141 
1818.873488  	0.008575 
1820.802304  	0.008431 
1822.731120  	0.008133 
1824.659936  	0.007932 
1826.588752  	0.008206 
1828.517568  	0.007712 
1830.446384  	0.008638 
1832.375200  	0.008326 
1834.304016  	0.008201 
1836.232832  	0.008243 
1838.161648  	0.008311 
1840.090464  	0.007815 
1842.019280  	0.007489 
1843.948096  	0.008049 
1845.876912  	0.008588 
1847.805728  	0.008227 
1849.734544  	0.008387 
1851.663360  	0.007911 
1853.592176  	0.007779 
1855.520992  	0.007451 
1857.449808  	0.007811 
1859.378624  	0.007774 
1861.307440  	0.008042 
1863.236256  	0.007688 
1865.165072  	0.007063 
1867.093888  	0.006583 
1869.022704  	0.007743 
1870.951520  	0.007972 
1872.880336  	0.007746 
1874.809152  	0.007392 
1876.737968  	0.007541 
1878.666784  	0.007469 
1880.595600  	0.007805 
1882.524416  	0.007502 
1884.453232  	0.007363 
1886.382048  	0.007015 
1888.310864  	0.007312 
1890.239680  	0.007918 
1892.168496  	0.007632 
1894.097312  	0.006786 
1896.026128  	0.007113 
1897.954944  	0.007216 
1899.883760  	0.007422 
1901.812576  	0.007230 
1903.741392  	0.007499 
1905.670208  	0.007736 
1907.599024  	0.008288 
1909.527840  	0.007982 
1911.456656  	0.007884 
1913.385472  	0.007722 
1915.314288  	0.007470 
1917.243104  	0.007169 
1919.171920  	0.007857 
1921.100736  	0.007468 
1923.029552  	0.008169 
1924.958368  	0.007492 
1926.887184  	0.006868 
1928.816000  	0.007180 
1930.744816  	0.007507 
1932.673632  	0.006768 
1934.602448  	0.006778 
1936.531264  	0.006629 
1938.460080  	0.006399 
1940.388896  	0.005928 
1942.317712  	0.007079 
1944.246528  	0.007205 
1946.175344  	0.006978 
1948.104160  	0.006687 
1950.032976  	0.006793 
1951.961792  	0.006314 
1953.890608  	0.006955 
1955.819424  	0.006751 
1957.748240  	0.006502 
1959.677056  	0.005227 
1961.605872  	0.005413 
1963.534688  	0.004776 
1965.463504  	0.005436 
1967.392320  	0.005110 
1969.321136  	0.005392 
1971.249952  	0.005008 
1973.178768  	0.005147 
1975.107584  	0.005104 
1977.036400  	0.006703 
1978.965216  	0.007959 
1980.894032  	0.008040 
1982.822848  	0.006901 
1984.751664  	0.007045 
1986.680480  	0.007506 
1988.609296  	0.008583 
1990.538112  	0.008065 
1992.466928  	0.007777 
1994.395744  	0.007312 
1996.324560  	0.007387 
1998.253376  	0.006991 
2000.182192  	0.006975 
2002.111008  	0.006859 
2004.039824  	0.008099 
2005.968640  	0.008127 
2007.897456  	0.007729 
2009.826272  	0.007505 
2011.755088  	0.008152 
2013.683904  	0.007448 
2015.612720  	0.008318 
2017.541536  	0.009476 
2019.470352  	0.010257 
2021.399168  	0.009768 
2023.327984  	0.010156 
2025.256800  	0.008984 
2027.185616  	0.008586 
2029.114432  	0.009151 
2031.043248  	0.009425 
2032.972064  	0.009633 
2034.900880  	0.011042 
2036.829696  	0.010562 
2038.758512  	0.010851 
2040.687328  	0.009738 
2042.616144  	0.010352 
2044.544960  	0.010008 
2046.473776  	0.009379 
2048.402592  	0.008741 
2050.331408  	0.009556 
2052.260224  	0.008623 
2054.189040  	0.008275 
2056.117856  	0.008837 
2058.046672  	0.009186 
2059.975488  	0.008808 
2061.904304  	0.009308 
2063.833120  	0.009126 
2065.761936  	0.009422 
2067.690752  	0.009202 
2069.619568  	0.009216 
2071.548384  	0.009078 
2073.477200  	0.009070 
2075.406016  	0.008901 
2077.334832  	0.009280 
2079.263648  	0.009148 
2081.192464  	0.009624 
2083.121280  	0.009726 
2085.050096  	0.009655 
2086.978912  	0.009282 
2088.907728  	0.009574 
2090.836544  	0.009274 
2092.765360  	0.009025 
2094.694176  	0.008885 
2096.622992  	0.009742 
2098.551808  	0.010011 
2100.480624  	0.009580 
2102.409440  	0.009207 
2104.338256  	0.009478 
2106.267072  	0.009763 
2108.195888  	0.010304 
2110.124704  	0.009812 
2112.053520  	0.009586 
2113.982336  	0.009847 
2115.911152  	0.010312 
2117.839968  	0.010284 
2119.768784  	0.010171 
2121.697600  	0.009624 
2123.626416  	0.009778 
2125.555232  	0.009459 
2127.484048  	0.009091 
2129.412864  	0.009241 
2131.341680  	0.009223 
2133.270496  	0.008748 
2135.199312  	0.009734 
2137.128128  	0.009803 
2139.056944  	0.009773 
2140.985760  	0.009762 
2142.914576  	0.010235 
2144.843392  	0.010563 
2146.772208  	0.010810 
2148.701024  	0.010582 
2150.629840  	0.010990 
2152.558656  	0.010016 
2154.487472  	0.009876 
2156.416288  	0.010206 
2158.345104  	0.013133 
2160.273920  	0.015001 
2162.202736  	0.014680 
2164.131552  	0.014034 
2166.060368  	0.013613 
2167.989184  	0.012720 
2169.918000  	0.012804 
2171.846816  	0.012795 
2173.775632  	0.012917 
2175.704448  	0.011840 
2177.633264  	0.010944 
2179.562080  	0.009811 
2181.490896  	0.010663 
2183.419712  	0.011606 
2185.348528  	0.011107 
2187.277344  	0.011312 
2189.206160  	0.012102 
2191.134976  	0.012321 
2193.063792  	0.013269 
2194.992608  	0.012407 
2196.921424  	0.012277 
2198.850240  	0.012724 
2200.779056  	0.012739 
2202.707872  	0.012172 
2204.636688  	0.012416 
2206.565504  	0.012334 
2208.494320  	0.012613 
2210.423136  	0.012187 
2212.351952  	0.011881 
2214.280768  	0.012376 
2216.209584  	0.012612 
2218.138400  	0.011658 
2220.067216  	0.011723 
2221.996032  	0.011592 
2223.924848  	0.011254 
2225.853664  	0.010948 
2227.782480  	0.011600 
2229.711296  	0.012095 
2231.640112  	0.011564 
2233.568928  	0.010959 
2235.497744  	0.011292 
2237.426560  	0.011018 
2239.355376  	0.010445 
2241.284192  	0.010167 
2243.213008  	0.010519 
2245.141824  	0.010323 
2247.070640  	0.010942 
2248.999456  	0.010768 
2250.928272  	0.010198 
2252.857088  	0.009942 
2254.785904  	0.010234 
2256.714720  	0.010552 
2258.643536  	0.010402 
2260.572352  	0.010288 
2262.501168  	0.010590 
2264.429984  	0.010416 
2266.358800  	0.010412 
2268.287616  	0.010544 
2270.216432  	0.010903 
2272.145248  	0.010652 
2274.074064  	0.010658 
2276.002880  	0.010849 
2277.931696  	0.010887 
2279.860512  	0.010861 
2281.789328  	0.011238 
2283.718144  	0.011177 
2285.646960  	0.011254 
2287.575776  	0.011168 
2289.504592  	0.011314 
2291.433408  	0.011338 
2293.362224  	0.011368 
2295.291040  	0.011398 
2297.219856  	0.011388 
2299.148672  	0.011381 
2301.077488  	0.011607 
2303.006304  	0.011494 
2304.935120  	0.011276 
2306.863936  	0.011133 
2308.792752  	0.011019 
2310.721568  	0.010999 
2312.650384  	0.011120 
2314.579200  	0.011014 
2316.508016  	0.011104 
2318.436832  	0.010987 
2320.365648  	0.011060 
2322.294464  	0.011117 
2324.223280  	0.011131 
2326.152096  	0.010220 
2328.080912  	0.009805 
2330.009728  	0.009840 
2331.938544  	0.009877 
2333.867360  	0.009554 
2335.796176  	0.009357 
2337.724992  	0.009553 
2339.653808  	0.009477 
2341.582624  	0.009154 
2343.511440  	0.009595 
2345.440256  	0.010315 
2347.369072  	0.010518 
2349.297888  	0.009464 
2351.226704  	0.008608 
2353.155520  	0.008347 
2355.084336  	0.008467 
2357.013152  	0.008400 
2358.941968  	0.008225 
2360.870784  	0.008823 
2362.799600  	0.009726 
2364.728416  	0.009692 
2366.657232  	0.009839 
2368.586048  	0.010574 
2370.514864  	0.010838 
2372.443680  	0.010869 
2374.372496  	0.010967 
2376.301312  	0.011324 
2378.230128  	0.011541 
2380.158944  	0.011495 
2382.087760  	0.011546 
2384.016576  	0.011439 
2385.945392  	0.011256 
2387.874208  	0.011216 
2389.803024  	0.011400 
2391.731840  	0.011465 
2393.660656  	0.011483 
2395.589472  	0.011291 
2397.518288  	0.011374 
2399.447104  	0.011492 
2401.375920  	0.011638 
2403.304736  	0.011702 
2405.233552  	0.011810 
2407.162368  	0.012000 
2409.091184  	0.012138 
2411.020000  	0.011989 
2412.948816  	0.012030 
2414.877632  	0.012288 
2416.806448  	0.012393 
2418.735264  	0.012236 
2420.664080  	0.012339 
2422.592896  	0.012484 
2424.521712  	0.012690 
2426.450528  	0.012824 
2428.379344  	0.012928 
2430.308160  	0.013052 
2432.236976  	0.013012 
2434.165792  	0.012917 
2436.094608  	0.013221 
2438.023424  	0.013284 
2439.952240  	0.013180 
2441.881056  	0.013233 
2443.809872  	0.013365 
2445.738688  	0.013516 
2447.667504  	0.013774 
2449.596320  	0.013915 
2451.525136  	0.013838 
2453.453952  	0.013645 
2455.382768  	0.013813 
2457.311584  	0.013896 
2459.240400  	0.013769 
2461.169216  	0.013593 
2463.098032  	0.013924 
2465.026848  	0.014225 
2466.955664  	0.014303 
2468.884480  	0.014296 
2470.813296  	0.014291 
2472.742112  	0.014280 
2474.670928  	0.014478 
2476.599744  	0.014536 
2478.528560  	0.014791 
2480.457376  	0.014880 
2482.386192  	0.014845 
2484.315008  	0.014856 
2486.243824  	0.014998 
2488.172640  	0.015178 
2490.101456  	0.015414 
2492.030272  	0.015375 
2493.959088  	0.015574 
2495.887904  	0.015830 
2497.816720  	0.015933 
2499.745536  	0.016021 
2501.674352  	0.016379 
2503.603168  	0.016480 
2505.531984  	0.016392 
2507.460800  	0.016311 
2509.389616  	0.016512 
2511.318432  	0.016579 
2513.247248  	0.016484 
2515.176064  	0.016394 
2517.104880  	0.016588 
2519.033696  	0.016932 
2520.962512  	0.017208 
2522.891328  	0.017309 
2524.820144  	0.017342 
2526.748960  	0.017378 
2528.677776  	0.017388 
2530.606592  	0.017408 
2532.535408  	0.017476 
2534.464224  	0.017453 
2536.393040  	0.017589 
2538.321856  	0.017591 
2540.250672  	0.017666 
2542.179488  	0.017875 
2544.108304  	0.018257 
2546.037120  	0.018439 
2547.965936  	0.018589 
2549.894752  	0.018469 
2551.823568  	0.018359 
2553.752384  	0.018249 
2555.681200  	0.018369 
2557.610016  	0.018801 
2559.538832  	0.019192 
2561.467648  	0.019358 
2563.396464  	0.019345 
2565.325280  	0.019315 
2567.254096  	0.019571 
2569.182912  	0.019905 
2571.111728  	0.020072 
2573.040544  	0.020172 
2574.969360  	0.020440 
2576.898176  	0.020716 
2578.826992  	0.020917 
2580.755808  	0.020958 
2582.684624  	0.020958 
2584.613440  	0.020937 
2586.542256  	0.021056 
2588.471072  	0.021299 
2590.399888  	0.021615 
2592.328704  	0.021712 
2594.257520  	0.021868 
2596.186336  	0.022086 
2598.115152  	0.022200 
2600.043968  	0.022202 
2601.972784  	0.022228 
2603.901600  	0.022272 
2605.830416  	0.022487 
2607.759232  	0.022673 
2609.688048  	0.022719 
2611.616864  	0.022832 
2613.545680  	0.023140 
2615.474496  	0.023375 
2617.403312  	0.023536 
2619.332128  	0.023655 
2621.260944  	0.023711 
2623.189760  	0.023870 
2625.118576  	0.024125 
2627.047392  	0.024252 
2628.976208  	0.024447 
2630.905024  	0.024569 
2632.833840  	0.024934 
2634.762656  	0.025212 
2636.691472  	0.025335 
2638.620288  	0.025567 
2640.549104  	0.025816 
2642.477920  	0.026083 
2644.406736  	0.026253 
2646.335552  	0.026449 
2648.264368  	0.026669 
2650.193184  	0.026828 
2652.122000  	0.027100 
2654.050816  	0.027393 
2655.979632  	0.027562 
2657.908448  	0.027665 
2659.837264  	0.027818 
2661.766080  	0.028097 
2663.694896  	0.028215 
2665.623712  	0.028322 
2667.552528  	0.028682 
2669.481344  	0.028946 
2671.410160  	0.029147 
2673.338976  	0.029155 
2675.267792  	0.029249 
2677.196608  	0.029415 
2679.125424  	0.029600 
2681.054240  	0.029840 
2682.983056  	0.029941 
2684.911872  	0.030101 
2686.840688  	0.030328 
2688.769504  	0.030535 
2690.698320  	0.030687 
2692.627136  	0.030909 
2694.555952  	0.031082 
2696.484768  	0.031171 
2698.413584  	0.031345 
2700.342400  	0.031491 
2702.271216  	0.031717 
2704.200032  	0.032007 
2706.128848  	0.032270 
2708.057664  	0.032510 
2709.986480  	0.032680 
2711.915296  	0.032861 
2713.844112  	0.033099 
2715.772928  	0.033294 
2717.701744  	0.033444 
2719.630560  	0.033571 
2721.559376  	0.033788 
2723.488192  	0.033946 
2725.417008  	0.034221 
2727.345824  	0.034481 
2729.274640  	0.034664 
2731.203456  	0.034813 
2733.132272  	0.035073 
2735.061088  	0.035420 
2736.989904  	0.035703 
2738.918720  	0.035879 
2740.847536  	0.035923 
2742.776352  	0.036041 
2744.705168  	0.036232 
2746.633984  	0.036359 
2748.562800  	0.036526 
2750.491616  	0.036732 
2752.420432  	0.036864 
2754.349248  	0.036862 
2756.278064  	0.036919 
2758.206880  	0.037061 
2760.135696  	0.037225 
2762.064512  	0.037268 
2763.993328  	0.037293 
2765.922144  	0.037320 
2767.850960  	0.037385 
2769.779776  	0.037380 
2771.708592  	0.037371 
2773.637408  	0.037403 
2775.566224  	0.037394 
2777.495040  	0.037364 
2779.423856  	0.037400 
2781.352672  	0.037447 
2783.281488  	0.037572 
2785.210304  	0.037601 
2787.139120  	0.037687 
2789.067936  	0.037721 
2790.996752  	0.037734 
2792.925568  	0.037769 
2794.854384  	0.037782 
2796.783200  	0.037742 
2798.712016  	0.037782 
2800.640832  	0.037887 
2802.569648  	0.037981 
2804.498464  	0.038045 
2806.427280  	0.038020 
2808.356096  	0.038064 
2810.284912  	0.038294 
2812.213728  	0.038329 
2814.142544  	0.038321 
2816.071360  	0.038351 
2818.000176  	0.038480 
2819.928992  	0.038540 
2821.857808  	0.038723 
2823.786624  	0.038826 
2825.715440  	0.038755 
2827.644256  	0.038634 
2829.573072  	0.038673 
2831.501888  	0.038743 
2833.430704  	0.038607 
2835.359520  	0.038386 
2837.288336  	0.038289 
2839.217152  	0.038257 
2841.145968  	0.038152 
2843.074784  	0.038115 
2845.003600  	0.038131 
2846.932416  	0.038326 
2848.861232  	0.038521 
2850.790048  	0.038440 
2852.718864  	0.038423 
2854.647680  	0.038345 
2856.576496  	0.038313 
2858.505312  	0.038408 
2860.434128  	0.038445 
2862.362944  	0.038533 
2864.291760  	0.038478 
2866.220576  	0.038447 
2868.149392  	0.038712 
2870.078208  	0.038887 
2872.007024  	0.039126 
2873.935840  	0.039595 
2875.864656  	0.040195 
2877.793472  	0.040793 
2879.722288  	0.041300 
2881.651104  	0.041893 
2883.579920  	0.042334 
2885.508736  	0.042557 
2887.437552  	0.042901 
2889.366368  	0.043054 
2891.295184  	0.042980 
2893.224000  	0.042970 
2895.152816  	0.043044 
2897.081632  	0.042803 
2899.010448  	0.042275 
2900.939264  	0.041976 
2902.868080  	0.042350 
2904.796896  	0.042631 
2906.725712  	0.042841 
2908.654528  	0.043220 
2910.583344  	0.043803 
2912.512160  	0.044633 
2914.440976  	0.045511 
2916.369792  	0.046265 
2918.298608  	0.046894 
2920.227424  	0.047653 
2922.156240  	0.048212 
2924.085056  	0.048726 
2926.013872  	0.049525 
2927.942688  	0.050432 
2929.871504  	0.051281 
2931.800320  	0.052037 
2933.729136  	0.052967 
2935.657952  	0.053822 
2937.586768  	0.054399 
2939.515584  	0.054891 
2941.444400  	0.055459 
2943.373216  	0.055843 
2945.302032  	0.056037 
2947.230848  	0.056101 
2949.159664  	0.056129 
2951.088480  	0.055984 
2953.017296  	0.055698 
2954.946112  	0.055370 
2956.874928  	0.055073 
2958.803744  	0.054491 
2960.732560  	0.053939 
2962.661376  	0.053438 
2964.590192  	0.052897 
2966.519008  	0.052210 
2968.447824  	0.051382 
2970.376640  	0.050529 
2972.305456  	0.049690 
2974.234272  	0.049102 
2976.163088  	0.048652 
2978.091904  	0.048183 
2980.020720  	0.047897 
2981.949536  	0.047851 
2983.878352  	0.047962 
2985.807168  	0.047960 
2987.735984  	0.048102 
2989.664800  	0.048498 
2991.593616  	0.049357 
2993.522432  	0.050105 
2995.451248  	0.050683 
2997.380064  	0.051537 
2999.308880  	0.052254 
3001.237696  	0.052761 
3003.166512  	0.053278 
3005.095328  	0.053783 
3007.024144  	0.054311 
3008.952960  	0.054953 
3010.881776  	0.055409 
3012.810592  	0.055906 
3014.739408  	0.056556 
3016.668224  	0.057075 
3018.597040  	0.057700 
3020.525856  	0.058086 
3022.454672  	0.058533 
3024.383488  	0.059184 
3026.312304  	0.059795 
3028.241120  	0.060064 
3030.169936  	0.060522 
3032.098752  	0.061175 
3034.027568  	0.061610 
3035.956384  	0.062032 
3037.885200  	0.062411 
3039.814016  	0.062856 
3041.742832  	0.063344 
3043.671648  	0.063891 
3045.600464  	0.064754 
3047.529280  	0.065322 
3049.458096  	0.065808 
3051.386912  	0.066382 
3053.315728  	0.066787 
3055.244544  	0.067221 
3057.173360  	0.068104 
3059.102176  	0.068888 
3061.030992  	0.069470 
3062.959808  	0.069865 
3064.888624  	0.070696 
3066.817440  	0.071574 
3068.746256  	0.072360 
3070.675072  	0.073037 
3072.603888  	0.073661 
3074.532704  	0.074344 
3076.461520  	0.075062 
3078.390336  	0.075810 
3080.319152  	0.076570 
3082.247968  	0.077186 
3084.176784  	0.077769 
3086.105600  	0.078561 
3088.034416  	0.079453 
3089.963232  	0.080143 
3091.892048  	0.080632 
3093.820864  	0.081336 
3095.749680  	0.082332 
3097.678496  	0.083245 
3099.607312  	0.083888 
3101.536128  	0.084462 
3103.464944  	0.085115 
3105.393760  	0.085776 
3107.322576  	0.086361 
3109.251392  	0.086927 
3111.180208  	0.087609 
3113.109024  	0.087951 
3115.037840  	0.088197 
3116.966656  	0.088708 
3118.895472  	0.089204 
3120.824288  	0.089450 
3122.753104  	0.089960 
3124.681920  	0.090529 
3126.610736  	0.090950 
3128.539552  	0.091325 
3130.468368  	0.091507 
3132.397184  	0.091879 
3134.326000  	0.092239 
3136.254816  	0.092404 
3138.183632  	0.092730 
3140.112448  	0.093222 
3142.041264  	0.093524 
3143.970080  	0.093747 
3145.898896  	0.094152 
3147.827712  	0.094544 
3149.756528  	0.094897 
3151.685344  	0.095196 
3153.614160  	0.095543 
3155.542976  	0.095955 
3157.471792  	0.096480 
3159.400608  	0.096777 
3161.329424  	0.096996 
3163.258240  	0.097269 
3165.187056  	0.097650 
3167.115872  	0.098035 
3169.044688  	0.098496 
3170.973504  	0.098841 
3172.902320  	0.098923 
3174.831136  	0.098599 
3176.759952  	0.098702 
3178.688768  	0.099207 
3180.617584  	0.099394 
3182.546400  	0.099303 
3184.475216  	0.099135 
3186.404032  	0.099019 
3188.332848  	0.098951 
3190.261664  	0.098701 
3192.190480  	0.098519 
3194.119296  	0.098270 
3196.048112  	0.097903 
3197.976928  	0.097651 
3199.905744  	0.097409 
3201.834560  	0.097034 
3203.763376  	0.096825 
3205.692192  	0.096485 
3207.621008  	0.095765 
3209.549824  	0.095274 
3211.478640  	0.094811 
3213.407456  	0.094534 
3215.336272  	0.094551 
3217.265088  	0.094017 
3219.193904  	0.093698 
3221.122720  	0.093681 
3223.051536  	0.093478 
3224.980352  	0.093148 
3226.909168  	0.092591 
3228.837984  	0.091993 
3230.766800  	0.091940 
3232.695616  	0.091700 
3234.624432  	0.091141 
3236.553248  	0.091001 
3238.482064  	0.090881 
3240.410880  	0.090841 
3242.339696  	0.090889 
3244.268512  	0.090809 
3246.197328  	0.091222 
3248.126144  	0.091155 
3250.054960  	0.091092 
3251.983776  	0.091038 
3253.912592  	0.091180 
3255.841408  	0.091467 
3257.770224  	0.091674 
3259.699040  	0.091718 
3261.627856  	0.091816 
3263.556672  	0.092045 
3265.485488  	0.092481 
3267.414304  	0.092689 
3269.343120  	0.092632 
3271.271936  	0.092571 
3273.200752  	0.092687 
3275.129568  	0.092971 
3277.058384  	0.093207 
3278.987200  	0.093243 
3280.916016  	0.093460 
3282.844832  	0.093673 
3284.773648  	0.093678 
3286.702464  	0.093619 
3288.631280  	0.093758 
3290.560096  	0.093897 
3292.488912  	0.094418 
3294.417728  	0.094907 
3296.346544  	0.094896 
3298.275360  	0.095262 
3300.204176  	0.095605 
3302.132992  	0.096072 
3304.061808  	0.096495 
3305.990624  	0.096514 
3307.919440  	0.096609 
3309.848256  	0.096975 
3311.777072  	0.097328 
3313.705888  	0.097594 
3315.634704  	0.097749 
3317.563520  	0.098060 
3319.492336  	0.098348 
3321.421152  	0.098499 
3323.349968  	0.098632 
3325.278784  	0.098613 
3327.207600  	0.098905 
3329.136416  	0.099175 
3331.065232  	0.099101 
3332.994048  	0.099134 
3334.922864  	0.099324 
3336.851680  	0.099536 
3338.780496  	0.099400 
3340.709312  	0.098904 
3342.638128  	0.098616 
3344.566944  	0.098167 
3346.495760  	0.097757 
3348.424576  	0.097490 
3350.353392  	0.097449 
3352.282208  	0.097122 
3354.211024  	0.096508 
3356.139840  	0.096173 
3358.068656  	0.095654 
3359.997472  	0.094948 
3361.926288  	0.094716 
3363.855104  	0.094669 
3365.783920  	0.094478 
3367.712736  	0.093776 
3369.641552  	0.093380 
3371.570368  	0.093318 
3373.499184  	0.092678 
3375.428000  	0.091876 
3377.356816  	0.091790 
3379.285632  	0.091760 
3381.214448  	0.091457 
3383.143264  	0.090970 
3385.072080  	0.090708 
3387.000896  	0.090186 
3388.929712  	0.089624 
3390.858528  	0.089025 
3392.787344  	0.088929 
3394.716160  	0.088520 
3396.644976  	0.087959 
3398.573792  	0.087821 
3400.502608  	0.087390 
3402.431424  	0.086972 
3404.360240  	0.086676 
3406.289056  	0.086212 
3408.217872  	0.085514 
3410.146688  	0.084966 
3412.075504  	0.084538 
3414.004320  	0.084207 
3415.933136  	0.083597 
3417.861952  	0.082673 
3419.790768  	0.082302 
3421.719584  	0.082283 
3423.648400  	0.081698 
3425.577216  	0.080980 
3427.506032  	0.080632 
3429.434848  	0.080172 
3431.363664  	0.079702 
3433.292480  	0.079439 
3435.221296  	0.078874 
3437.150112  	0.077964 
3439.078928  	0.077294 
3441.007744  	0.076842 
3442.936560  	0.076556 
3444.865376  	0.075720 
3446.794192  	0.075392 
3448.723008  	0.075415 
3450.651824  	0.074291 
3452.580640  	0.073510 
3454.509456  	0.073076 
3456.438272  	0.072380 
3458.367088  	0.071409 
3460.295904  	0.070717 
3462.224720  	0.070430 
3464.153536  	0.069834 
3466.082352  	0.068856 
3468.011168  	0.067985 
3469.939984  	0.067119 
3471.868800  	0.066246 
3473.797616  	0.065672 
3475.726432  	0.065053 
3477.655248  	0.064033 
3479.584064  	0.062839 
3481.512880  	0.062290 
3483.441696  	0.062158 
3485.370512  	0.061011 
3487.299328  	0.060097 
3489.228144  	0.059640 
3491.156960  	0.058643 
3493.085776  	0.057535 
3495.014592  	0.056859 
3496.943408  	0.056390 
3498.872224  	0.055290 
3500.801040  	0.053947 
3502.729856  	0.054110 
3504.658672  	0.054416 
3506.587488  	0.053026 
3508.516304  	0.051940 
3510.445120  	0.052054 
3512.373936  	0.051445 
3514.302752  	0.050263 
3516.231568  	0.049334 
3518.160384  	0.048712 
3520.089200  	0.047891 
3522.018016  	0.047039 
3523.946832  	0.046923 
3525.875648  	0.046188 
3527.804464  	0.045774 
3529.733280  	0.045719 
3531.662096  	0.045040 
3533.590912  	0.043894 
3535.519728  	0.043191 
3537.448544  	0.043121 
3539.377360  	0.042170 
3541.306176  	0.041120 
3543.234992  	0.040403 
3545.163808  	0.040610 
3547.092624  	0.040995 
3549.021440  	0.039729 
3550.950256  	0.038187 
3552.879072  	0.038457 
3554.807888  	0.038030 
3556.736704  	0.036906 
3558.665520  	0.036031 
3560.594336  	0.035215 
3562.523152  	0.034274 
3564.451968  	0.033060 
3566.380784  	0.033701 
3568.309600  	0.035730 
3570.238416  	0.034119 
3572.167232  	0.032056 
3574.096048  	0.031009 
3576.024864  	0.030370 
3577.953680  	0.029727 
3579.882496  	0.029017 
3581.811312  	0.028342 
3583.740128  	0.026896 
3585.668944  	0.025656 
3587.597760  	0.027364 
3589.526576  	0.027380 
3591.455392  	0.024539 
3593.384208  	0.023248 
3595.313024  	0.023494 
3597.241840  	0.022811 
3599.170656  	0.021620 
3601.099472  	0.021570 
3603.028288  	0.020706 
3604.957104  	0.018845 
3606.885920  	0.017960 
3608.814736  	0.018611 
3610.743552  	0.017341 
3612.672368  	0.016315 
3614.601184  	0.016113 
3616.530000  	0.014038 
3618.458816  	0.013547 
3620.387632  	0.014959 
3622.316448  	0.013832 
3624.245264  	0.011483 
3626.174080  	0.008696 
3628.102896  	0.008750 
3630.031712  	0.012291 
3631.960528  	0.009601 
3633.889344  	0.008550 
3635.818160  	0.008154 
3637.746976  	0.006950 
3639.675792  	0.006086 
3641.604608  	0.005151 
3643.533424  	0.004048 
3645.462240  	0.001951 
3647.391056  	0.001500 
3649.319872  	0.003577 
3651.248688  	0.004872 
3653.177504  	0.001899 
3655.106320  	0.000482 
3657.035136  	0.001668 
3658.963952  	0.000896 
3660.892768  	0.000100 
3662.821584  	-0.000666 
3664.750400  	-0.001373 
3666.679216  	-0.002435 
3668.608032  	-0.003246 
3670.536848  	-0.001003 
3672.465664  	-0.002543 
3674.394480  	-0.003873 
3676.323296  	-0.000091 
3678.252112  	-0.001375 
3680.180928  	-0.002034 
3682.109744  	-0.002399 
3684.038560  	-0.002926 
3685.967376  	-0.003987 
3687.896192  	-0.003886 
3689.825008  	-0.001834 
3691.753824  	-0.001201 
3693.682640  	-0.002076 
3695.611456  	-0.002672 
3697.540272  	-0.002811 
3699.469088  	-0.003274 
3701.397904  	-0.002500 
3703.326720  	-0.001899 
3705.255536  	-0.002558 
3707.184352  	-0.003456 
3709.113168  	-0.003688 
3711.041984  	-0.002314 
3712.970800  	-0.000604 
3714.899616  	-0.001541 
3716.828432  	-0.002676 
3718.757248  	-0.002647 
3720.686064  	-0.003017 
3722.614880  	-0.003203 
3724.543696  	-0.003072 
3726.472512  	-0.002206 
3728.401328  	-0.002454 
3730.330144  	-0.003857 
3732.258960  	-0.003489 
3734.187776  	-0.002523 
3736.116592  	-0.000437 
3738.045408  	-0.000948 
3739.974224  	-0.002551 
3741.903040  	-0.004226 
3743.831856  	-0.003457 
3745.760672  	-0.001243 
3747.689488  	-0.003660 
3749.618304  	-0.003425 
3751.547120  	-0.000860 
3753.475936  	-0.000710 
3755.404752  	-0.002341 
3757.333568  	-0.002787 
3759.262384  	-0.002108 
3761.191200  	-0.001743 
3763.120016  	-0.003088 
3765.048832  	-0.002717 
3766.977648  	-0.002422 
3768.906464  	-0.002495 
3770.835280  	-0.001410 
3772.764096  	-0.001934 
3774.692912  	-0.002567 
3776.621728  	-0.003198 
3778.550544  	-0.002826 
3780.479360  	-0.001746 
3782.408176  	-0.002586 
3784.336992  	-0.002482 
3786.265808  	-0.002062 
3788.194624  	-0.002325 
3790.123440  	-0.002624 
3792.052256  	-0.002922 
3793.981072  	-0.003541 
3795.909888  	-0.003210 
3797.838704  	-0.003056 
3799.767520  	-0.003789 
3801.696336  	-0.001705 
3803.625152  	-0.002056 
3805.553968  	-0.003228 
3807.482784  	-0.001507 
3809.411600  	-0.001990 
3811.340416  	-0.002741 
3813.269232  	-0.003665 
3815.198048  	-0.003418 
3817.126864  	-0.002170 
3819.055680  	-0.003767 
3820.984496  	-0.001749 
3822.913312  	-0.000897 
3824.842128  	-0.002737 
3826.770944  	-0.002576 
3828.699760  	-0.002824 
3830.628576  	-0.003073 
3832.557392  	-0.002751 
3834.486208  	-0.003296 
3836.415024  	-0.003399 
3838.343840  	-0.002304 
3840.272656  	-0.001750 
3842.201472  	-0.002072 
3844.130288  	-0.001687 
3846.059104  	-0.002157 
3847.987920  	-0.003319 
3849.916736  	-0.004712 
3851.845552  	-0.004969 
3853.774368  	-0.000441 
3855.703184  	-0.000521 
3857.632000  	-0.002150 
3859.560816  	-0.003150 
3861.489632  	-0.003335 
3863.418448  	-0.002716 
3865.347264  	-0.001604 
3867.276080  	-0.003075 
3869.204896  	-0.003109 
3871.133712  	-0.001816 
3873.062528  	-0.002697 
3874.991344  	-0.001803 
3876.920160  	-0.002821 
3878.848976  	-0.003436 
3880.777792  	-0.002154 
3882.706608  	-0.002517 
3884.635424  	-0.002670 
3886.564240  	-0.001331 
3888.493056  	-0.002856 
3890.421872  	-0.002994 
3892.350688  	-0.001761 
3894.279504  	-0.002118 
3896.208320  	-0.003226 
3898.137136  	-0.003567 
3900.065952  	-0.002847 
3901.994768  	-0.002440 
3903.923584  	-0.001506 
3905.852400  	-0.001190 
3907.781216  	-0.002173 
3909.710032  	-0.002746 
3911.638848  	-0.002643 
3913.567664  	-0.002716 
3915.496480  	-0.002559 
3917.425296  	-0.001869 
3919.354112  	-0.002207 
3921.282928  	-0.002630 
3923.211744  	-0.002709 
3925.140560  	-0.002057 
3927.069376  	-0.002510 
3928.998192  	-0.002910 
3930.927008  	-0.002416 
3932.855824  	-0.001700 
3934.784640  	-0.002045 
3936.713456  	-0.002495 
3938.642272  	-0.002530 
3940.571088  	-0.002674 
3942.499904  	-0.001999 
3944.428720  	-0.001904 
3946.357536  	-0.002518 
3948.286352  	-0.002418 
3950.215168  	-0.002129 
3952.143984  	-0.002239 
3954.072800  	-0.002447 
3956.001616  	-0.002535 
3957.930432  	-0.002401 
3959.859248  	-0.002367 
3961.788064  	-0.002190 
3963.716880  	-0.002000 
3965.645696  	-0.002185 
3967.574512  	-0.002442 
3969.503328  	-0.002472 
3971.432144  	-0.002486 
3973.360960  	-0.002454 
3975.289776  	-0.002299 
3977.218592  	-0.002373 
3979.147408  	-0.002415 
3981.076224  	-0.002382 
3983.005040  	-0.002320 
3984.933856  	-0.002408 
3986.862672  	-0.002517 
3988.791488  	-0.002555 
3990.720304  	-0.002576 
3992.649120  	-0.002597 
3994.577936  	-0.002558 
3996.506752  	-0.002531 
3998.435568  	-0.002428 
4000.364384  	-0.002396 