##TITLE=No Description
##DATA TYPE=INFRARED SPECTRUM
##XUNITS=1/CM
##YUNITS=Abs
399.264912  	0.287223 
401.193728  	0.284157 
403.122544  	0.289416 
405.051360  	0.292241 
406.980176  	0.295322 
408.908992  	0.292028 
410.837808  	0.293807 
412.766624  	0.291916 
414.695440  	0.297062 
416.624256  	0.299274 
418.553072  	0.297682 
420.481888  	0.293459 
422.410704  	0.293422 
424.339520  	0.292242 
426.268336  	0.292993 
428.197152  	0.290369 
430.125968  	0.290975 
432.054784  	0.288852 
433.983600  	0.286843 
435.912416  	0.285891 
437.841232  	0.287059 
439.770048  	0.289205 
441.698864  	0.291030 
443.627680  	0.288290 
445.556496  	0.286928 
447.485312  	0.285326 
449.414128  	0.285604 
451.342944  	0.285447 
453.271760  	0.287217 
455.200576  	0.288430 
457.129392  	0.291971 
459.058208  	0.295032 
460.987024  	0.296602 
462.915840  	0.298612 
464.844656  	0.300576 
466.773472  	0.299554 
468.702288  	0.299979 
470.631104  	0.301049 
472.559920  	0.300995 
474.488736  	0.301708 
476.417552  	0.306020 
478.346368  	0.307530 
480.275184  	0.307798 
482.204000  	0.308309 
484.132816  	0.309004 
486.061632  	0.309021 
487.990448  	0.311631 
489.919264  	0.313586 
491.848080  	0.315521 
493.776896  	0.315409 
495.705712  	0.315341 
497.634528  	0.316099 
499.563344  	0.318422 
501.492160  	0.319673 
503.420976  	0.321341 
505.349792  	0.321244 
507.278608  	0.323552 
509.207424  	0.324628 
511.136240  	0.327855 
513.065056  	0.330409 
514.993872  	0.334465 
516.922688  	0.338680 
518.851504  	0.342696 
520.780320  	0.342586 
522.709136  	0.343285 
524.637952  	0.345848 
526.566768  	0.348667 
528.495584  	0.350139 
530.424400  	0.350548 
532.353216  	0.348153 
534.282032  	0.345946 
536.210848  	0.343032 
538.139664  	0.340335 
540.068480  	0.337232 
541.997296  	0.334161 
543.926112  	0.330638 
545.854928  	0.328850 
547.783744  	0.325908 
549.712560  	0.322871 
551.641376  	0.320165 
553.570192  	0.319938 
555.499008  	0.318834 
557.427824  	0.316651 
559.356640  	0.314261 
561.285456  	0.311570 
563.214272  	0.308228 
565.143088  	0.305991 
567.071904  	0.302994 
569.000720  	0.300642 
570.929536  	0.298588 
572.858352  	0.297428 
574.787168  	0.295819 
576.715984  	0.293522 
578.644800  	0.290814 
580.573616  	0.289102 
582.502432  	0.285831 
584.431248  	0.282597 
586.360064  	0.279581 
588.288880  	0.277859 
590.217696  	0.276463 
592.146512  	0.275227 
594.075328  	0.273533 
596.004144  	0.272534 
597.932960  	0.271002 
599.861776  	0.269570 
601.790592  	0.268144 
603.719408  	0.267851 
605.648224  	0.267526 
607.577040  	0.267481 
609.505856  	0.266876 
611.434672  	0.266261 
613.363488  	0.265766 
615.292304  	0.265363 
617.221120  	0.264522 
619.149936  	0.264162 
621.078752  	0.263311 
623.007568  	0.262539 
624.936384  	0.261626 
626.865200  	0.261239 
628.794016  	0.261212 
630.722832  	0.261724 
632.651648  	0.262185 
634.580464  	0.262645 
636.509280  	0.263582 
638.438096  	0.265401 
640.366912  	0.266252 
642.295728  	0.265840 
644.224544  	0.264655 
646.153360  	0.262907 
648.082176  	0.259925 
650.010992  	0.257316 
651.939808  	0.255000 
653.868624  	0.252652 
655.797440  	0.249567 
657.726256  	0.246371 
659.655072  	0.243515 
661.583888  	0.239917 
663.512704  	0.236667 
665.441520  	0.234763 
667.370336  	0.229362 
669.299152  	0.222374 
671.227968  	0.221762 
673.156784  	0.220291 
675.085600  	0.218366 
677.014416  	0.216458 
678.943232  	0.215009 
680.872048  	0.214015 
682.800864  	0.212972 
684.729680  	0.211899 
686.658496  	0.211078 
688.587312  	0.210580 
690.516128  	0.209316 
692.444944  	0.208307 
694.373760  	0.207939 
696.302576  	0.206963 
698.231392  	0.205071 
700.160208  	0.203405 
702.089024  	0.202263 
704.017840  	0.200712 
705.946656  	0.198857 
707.875472  	0.196964 
709.804288  	0.195326 
711.733104  	0.194016 
713.661920  	0.192518 
715.590736  	0.191450 
717.519552  	0.191360 
719.448368  	0.191928 
721.377184  	0.192968 
723.306000  	0.194451 
725.234816  	0.195733 
727.163632  	0.196246 
729.092448  	0.195284 
731.021264  	0.192991 
732.950080  	0.190197 
734.878896  	0.187307 
736.807712  	0.184570 
738.736528  	0.182630 
740.665344  	0.180683 
742.594160  	0.179446 
744.522976  	0.178752 
746.451792  	0.177766 
748.380608  	0.176469 
750.309424  	0.175652 
752.238240  	0.175312 
754.167056  	0.174897 
756.095872  	0.174030 
758.024688  	0.173415 
759.953504  	0.173458 
761.882320  	0.174632 
763.811136  	0.176173 
765.739952  	0.176233 
767.668768  	0.174701 
769.597584  	0.172943 
771.526400  	0.172587 
773.455216  	0.174626 
775.384032  	0.178953 
777.312848  	0.184688 
779.241664  	0.189766 
781.170480  	0.191601 
783.099296  	0.189609 
785.028112  	0.185181 
786.956928  	0.179688 
788.885744  	0.175218 
790.814560  	0.172041 
792.743376  	0.169814 
794.672192  	0.169081 
796.601008  	0.168752 
798.529824  	0.166603 
800.458640  	0.162624 
802.387456  	0.159408 
804.316272  	0.157848 
806.245088  	0.156947 
808.173904  	0.156437 
810.102720  	0.156544 
812.031536  	0.157006 
813.960352  	0.157724 
815.889168  	0.158477 
817.817984  	0.159034 
819.746800  	0.159945 
821.675616  	0.160758 
823.604432  	0.160867 
825.533248  	0.160649 
827.462064  	0.160565 
829.390880  	0.160280 
831.319696  	0.159344 
833.248512  	0.157796 
835.177328  	0.155843 
837.106144  	0.153716 
839.034960  	0.151006 
840.963776  	0.147815 
842.892592  	0.144569 
844.821408  	0.141579 
846.750224  	0.139112 
848.679040  	0.136843 
850.607856  	0.134942 
852.536672  	0.133278 
854.465488  	0.131784 
856.394304  	0.130678 
858.323120  	0.129369 
860.251936  	0.127527 
862.180752  	0.125476 
864.109568  	0.123164 
866.038384  	0.121074 
867.967200  	0.119304 
869.896016  	0.117760 
871.824832  	0.116939 
873.753648  	0.116880 
875.682464  	0.117356 
877.611280  	0.117712 
879.540096  	0.118678 
881.468912  	0.120500 
883.397728  	0.121691 
885.326544  	0.122855 
887.255360  	0.123364 
889.184176  	0.122125 
891.112992  	0.120298 
893.041808  	0.119043 
894.970624  	0.117163 
896.899440  	0.114217 
898.828256  	0.110585 
900.757072  	0.107061 
902.685888  	0.104366 
904.614704  	0.102879 
906.543520  	0.102940 
908.472336  	0.104503 
910.401152  	0.107133 
912.329968  	0.110141 
914.258784  	0.113327 
916.187600  	0.116500 
918.116416  	0.119190 
920.045232  	0.121134 
921.974048  	0.122263 
923.902864  	0.122703 
925.831680  	0.122496 
927.760496  	0.122405 
929.689312  	0.122886 
931.618128  	0.123793 
933.546944  	0.124540 
935.475760  	0.125118 
937.404576  	0.125400 
939.333392  	0.125288 
941.262208  	0.125622 
943.191024  	0.127378 
945.119840  	0.131064 
947.048656  	0.136728 
948.977472  	0.143888 
950.906288  	0.152433 
952.835104  	0.161919 
954.763920  	0.172008 
956.692736  	0.181660 
958.621552  	0.190025 
960.550368  	0.195920 
962.479184  	0.199168 
964.408000  	0.198800 
966.336816  	0.194974 
968.265632  	0.188006 
970.194448  	0.178338 
972.123264  	0.166881 
974.052080  	0.154460 
975.980896  	0.142331 
977.909712  	0.130933 
979.838528  	0.120609 
981.767344  	0.112159 
983.696160  	0.105692 
985.624976  	0.101479 
987.553792  	0.099800 
989.482608  	0.100718 
991.411424  	0.103594 
993.340240  	0.108250 
995.269056  	0.114259 
997.197872  	0.120644 
999.126688  	0.127071 
1001.055504  	0.133663 
1002.984320  	0.140051 
1004.913136  	0.146182 
1006.841952  	0.151985 
1008.770768  	0.156783 
1010.699584  	0.160375 
1012.628400  	0.162473 
1014.557216  	0.163043 
1016.486032  	0.162888 
1018.414848  	0.162602 
1020.343664  	0.162145 
1022.272480  	0.161386 
1024.201296  	0.160018 
1026.130112  	0.156633 
1028.058928  	0.155175 
1029.987744  	0.157881 
1031.916560  	0.159362 
1033.845376  	0.159794 
1035.774192  	0.160360 
1037.703008  	0.162299 
1039.631824  	0.167591 
1041.560640  	0.174868 
1043.489456  	0.184527 
1045.418272  	0.196698 
1047.347088  	0.210956 
1049.275904  	0.224726 
1051.204720  	0.236573 
1053.133536  	0.245222 
1055.062352  	0.250060 
1056.991168  	0.251245 
1058.919984  	0.253101 
1060.848800  	0.254721 
1062.777616  	0.252656 
1064.706432  	0.246431 
1066.635248  	0.240854 
1068.564064  	0.239211 
1070.492880  	0.235037 
1072.421696  	0.228054 
1074.350512  	0.222840 
1076.279328  	0.220414 
1078.208144  	0.221583 
1080.136960  	0.225152 
1082.065776  	0.229730 
1083.994592  	0.233120 
1085.923408  	0.234563 
1087.852224  	0.233324 
1089.781040  	0.230316 
1091.709856  	0.226314 
1093.638672  	0.220010 
1095.567488  	0.210671 
1097.496304  	0.199926 
1099.425120  	0.188442 
1101.353936  	0.176711 
1103.282752  	0.165267 
1105.211568  	0.154274 
1107.140384  	0.143580 
1109.069200  	0.133222 
1110.998016  	0.123669 
1112.926832  	0.115044 
1114.855648  	0.107126 
1116.784464  	0.099564 
1118.713280  	0.092285 
1120.642096  	0.085641 
1122.570912  	0.079357 
1124.499728  	0.073420 
1126.428544  	0.068110 
1128.357360  	0.063367 
1130.286176  	0.059373 
1132.214992  	0.055714 
1134.143808  	0.052695 
1136.072624  	0.050127 
1138.001440  	0.047946 
1139.930256  	0.045477 
1141.859072  	0.042898 
1143.787888  	0.040420 
1145.716704  	0.038249 
1147.645520  	0.036005 
1149.574336  	0.034255 
1151.503152  	0.032944 
1153.431968  	0.032341 
1155.360784  	0.032343 
1157.289600  	0.033125 
1159.218416  	0.034376 
1161.147232  	0.036189 
1163.076048  	0.038193 
1165.004864  	0.040429 
1166.933680  	0.042713 
1168.862496  	0.045105 
1170.791312  	0.047429 
1172.720128  	0.050216 
1174.648944  	0.052823 
1176.577760  	0.055531 
1178.506576  	0.058071 
1180.435392  	0.060711 
1182.364208  	0.063343 
1184.293024  	0.066272 
1186.221840  	0.069310 
1188.150656  	0.072956 
1190.079472  	0.077214 
1192.008288  	0.082462 
1193.937104  	0.088587 
1195.865920  	0.095478 
1197.794736  	0.103211 
1199.723552  	0.111883 
1201.652368  	0.120669 
1203.581184  	0.129529 
1205.510000  	0.138253 
1207.438816  	0.146550 
1209.367632  	0.154537 
1211.296448  	0.161469 
1213.225264  	0.167229 
1215.154080  	0.171656 
1217.082896  	0.175007 
1219.011712  	0.177307 
1220.940528  	0.179140 
1222.869344  	0.180236 
1224.798160  	0.180615 
1226.726976  	0.180346 
1228.655792  	0.179608 
1230.584608  	0.178249 
1232.513424  	0.176315 
1234.442240  	0.173959 
1236.371056  	0.170936 
1238.299872  	0.166595 
1240.228688  	0.160048 
1242.157504  	0.153468 
1244.086320  	0.147871 
1246.015136  	0.140919 
1247.943952  	0.133082 
1249.872768  	0.125218 
1251.801584  	0.118454 
1253.730400  	0.111667 
1255.659216  	0.104971 
1257.588032  	0.098630 
1259.516848  	0.092777 
1261.445664  	0.087356 
1263.374480  	0.082385 
1265.303296  	0.078224 
1267.232112  	0.074838 
1269.160928  	0.072266 
1271.089744  	0.070361 
1273.018560  	0.069292 
1274.947376  	0.069001 
1276.876192  	0.069143 
1278.805008  	0.068906 
1280.733824  	0.067792 
1282.662640  	0.065910 
1284.591456  	0.063654 
1286.520272  	0.061458 
1288.449088  	0.059887 
1290.377904  	0.059058 
1292.306720  	0.059016 
1294.235536  	0.058855 
1296.164352  	0.057810 
1298.093168  	0.055580 
1300.021984  	0.052749 
1301.950800  	0.049847 
1303.879616  	0.047066 
1305.808432  	0.044076 
1307.737248  	0.041219 
1309.666064  	0.038584 
1311.594880  	0.036479 
1313.523696  	0.034781 
1315.452512  	0.033815 
1317.381328  	0.033259 
1319.310144  	0.033205 
1321.238960  	0.033467 
1323.167776  	0.034230 
1325.096592  	0.035010 
1327.025408  	0.035572 
1328.954224  	0.035711 
1330.883040  	0.035401 
1332.811856  	0.034618 
1334.740672  	0.034047 
1336.669488  	0.033646 
1338.598304  	0.033140 
1340.527120  	0.031947 
1342.455936  	0.031198 
1344.384752  	0.030919 
1346.313568  	0.031058 
1348.242384  	0.031651 
1350.171200  	0.032750 
1352.100016  	0.034259 
1354.028832  	0.036085 
1355.957648  	0.037737 
1357.886464  	0.039610 
1359.815280  	0.041613 
1361.744096  	0.043413 
1363.672912  	0.044517 
1365.601728  	0.045876 
1367.530544  	0.047010 
1369.459360  	0.047153 
1371.388176  	0.046863 
1373.316992  	0.045468 
1375.245808  	0.042360 
1377.174624  	0.039963 
1379.103440  	0.037263 
1381.032256  	0.034655 
1382.961072  	0.032634 
1384.889888  	0.031880 
1386.818704  	0.030885 
1388.747520  	0.029267 
1390.676336  	0.027427 
1392.605152  	0.024456 
1394.533968  	0.022339 
1396.462784  	0.024813 
1398.391600  	0.026134 
1400.320416  	0.025725 
1402.249232  	0.026103 
1404.178048  	0.026459 
1406.106864  	0.027075 
1408.035680  	0.029068 
1409.964496  	0.031475 
1411.893312  	0.034254 
1413.822128  	0.037220 
1415.750944  	0.040448 
1417.679760  	0.042421 
1419.608576  	0.042237 
1421.537392  	0.042881 
1423.466208  	0.042923 
1425.395024  	0.041307 
1427.323840  	0.040437 
1429.252656  	0.038310 
1431.181472  	0.036601 
1433.110288  	0.036520 
1435.039104  	0.037230 
1436.967920  	0.036139 
1438.896736  	0.036764 
1440.825552  	0.037904 
1442.754368  	0.038469 
1444.683184  	0.038644 
1446.612000  	0.038436 
1448.540816  	0.037215 
1450.469632  	0.037720 
1452.398448  	0.038477 
1454.327264  	0.039623 
1456.256080  	0.039336 
1458.184896  	0.036914 
1460.113712  	0.038299 
1462.042528  	0.040198 
1463.971344  	0.040318 
1465.900160  	0.040665 
1467.828976  	0.043328 
1469.757792  	0.046811 
1471.686608  	0.049855 
1473.615424  	0.054667 
1475.544240  	0.060267 
1477.473056  	0.065306 
1479.401872  	0.069070 
1481.330688  	0.071790 
1483.259504  	0.073508 
1485.188320  	0.074876 
1487.117136  	0.074515 
1489.045952  	0.072954 
1490.974768  	0.069591 
1492.903584  	0.068154 
1494.832400  	0.065768 
1496.761216  	0.059855 
1498.690032  	0.054340 
1500.618848  	0.050718 
1502.547664  	0.047812 
1504.476480  	0.045139 
1506.405296  	0.038653 
1508.334112  	0.033969 
1510.262928  	0.034622 
1512.191744  	0.033777 
1514.120560  	0.033176 
1516.049376  	0.032507 
1517.978192  	0.031862 
1519.907008  	0.033618 
1521.835824  	0.033835 
1523.764640  	0.037439 
1525.693456  	0.040944 
1527.622272  	0.042805 
1529.551088  	0.044059 
1531.479904  	0.044495 
1533.408720  	0.041012 
1535.337536  	0.038295 
1537.266352  	0.037991 
1539.195168  	0.032483 
1541.123984  	0.025162 
1543.052800  	0.025782 
1544.981616  	0.025423 
1546.910432  	0.025493 
1548.839248  	0.025893 
1550.768064  	0.025590 
1552.696880  	0.026170 
1554.625696  	0.026854 
1556.554512  	0.027924 
1558.483328  	0.026847 
1560.412144  	0.028602 
1562.340960  	0.035405 
1564.269776  	0.039467 
1566.198592  	0.044323 
1568.127408  	0.048580 
1570.056224  	0.053112 
1571.985040  	0.059285 
1573.913856  	0.064224 
1575.842672  	0.065408 
1577.771488  	0.067183 
1579.700304  	0.068990 
1581.629120  	0.068936 
1583.557936  	0.068352 
1585.486752  	0.069086 
1587.415568  	0.071230 
1589.344384  	0.075195 
1591.273200  	0.080507 
1593.202016  	0.087141 
1595.130832  	0.093930 
1597.059648  	0.101059 
1598.988464  	0.107147 
1600.917280  	0.112414 
1602.846096  	0.115603 
1604.774912  	0.117737 
1606.703728  	0.117844 
1608.632544  	0.116972 
1610.561360  	0.115209 
1612.490176  	0.114219 
1614.418992  	0.112843 
1616.347808  	0.110644 
1618.276624  	0.111276 
1620.205440  	0.115633 
1622.134256  	0.118746 
1624.063072  	0.123902 
1625.991888  	0.130532 
1627.920704  	0.138117 
1629.849520  	0.147038 
1631.778336  	0.155969 
1633.707152  	0.162589 
1635.635968  	0.169691 
1637.564784  	0.178629 
1639.493600  	0.186143 
1641.422416  	0.191255 
1643.351232  	0.195442 
1645.280048  	0.196403 
1647.208864  	0.195810 
1649.137680  	0.197107 
1651.066496  	0.198298 
1652.995312  	0.191726 
1654.924128  	0.189707 
1656.852944  	0.190444 
1658.781760  	0.188772 
1660.710576  	0.185517 
1662.639392  	0.180608 
1664.568208  	0.176780 
1666.497024  	0.174994 
1668.425840  	0.170164 
1670.354656  	0.163627 
1672.283472  	0.161016 
1674.212288  	0.158705 
1676.141104  	0.154159 
1678.069920  	0.153489 
1679.998736  	0.152652 
1681.927552  	0.152010 
1683.856368  	0.147747 
1685.785184  	0.146370 
1687.714000  	0.148210 
1689.642816  	0.147662 
1691.571632  	0.146401 
1693.500448  	0.145742 
1695.429264  	0.141806 
1697.358080  	0.138470 
1699.286896  	0.136189 
1701.215712  	0.129747 
1703.144528  	0.129186 
1705.073344  	0.125246 
1707.002160  	0.119206 
1708.930976  	0.115191 
1710.859792  	0.109780 
1712.788608  	0.103614 
1714.717424  	0.095842 
1716.646240  	0.085772 
1718.575056  	0.073036 
1720.503872  	0.066297 
1722.432688  	0.060547 
1724.361504  	0.052281 
1726.290320  	0.045564 
1728.219136  	0.039803 
1730.147952  	0.034364 
1732.076768  	0.030272 
1734.005584  	0.023560 
1735.934400  	0.018518 
1737.863216  	0.019149 
1739.792032  	0.015826 
1741.720848  	0.014242 
1743.649664  	0.013289 
1745.578480  	0.012593 
1747.507296  	0.011099 
1749.436112  	0.009869 
1751.364928  	0.008291 
1753.293744  	0.008070 
1755.222560  	0.008370 
1757.151376  	0.007306 
1759.080192  	0.006960 
1761.009008  	0.006634 
1762.937824  	0.004891 
1764.866640  	0.005591 
1766.795456  	0.005981 
1768.724272  	0.005374 
1770.653088  	0.004315 
1772.581904  	0.002030 
1774.510720  	0.002299 
1776.439536  	0.003584 
1778.368352  	0.003945 
1780.297168  	0.003695 
1782.225984  	0.003166 
1784.154800  	0.003403 
1786.083616  	0.002721 
1788.012432  	0.003291 
1789.941248  	0.003718 
1791.870064  	0.002290 
1793.798880  	0.000745 
1795.727696  	0.002219 
1797.656512  	0.002372 
1799.585328  	0.002282 
1801.514144  	0.001790 
1803.442960  	0.001910 
1805.371776  	0.001894 
1807.300592  	0.002145 
1809.229408  	0.001596 
1811.158224  	0.001234 
1813.087040  	0.001031 
1815.015856  	0.001513 
1816.944672  	0.001407 
1818.873488  	0.001504 
1820.802304  	0.001375 
1822.731120  	0.001926 
1824.659936  	0.001236 
1826.588752  	0.000926 
1828.517568  	0.000809 
1830.446384  	-0.000008 
1832.375200  	0.000353 
1834.304016  	0.001074 
1836.232832  	0.001076 
1838.161648  	0.001222 
1840.090464  	0.000967 
1842.019280  	0.001589 
1843.948096  	0.000520 
1845.876912  	0.000258 
1847.805728  	0.000731 
1849.734544  	0.000858 
1851.663360  	0.000765 
1853.592176  	0.000754 
1855.520992  	0.000652 
1857.449808  	0.000931 
1859.378624  	0.000782 
1861.307440  	0.000693 
1863.236256  	0.000508 
1865.165072  	0.001114 
1867.093888  	0.001143 
1869.022704  	0.000251 
1870.951520  	-0.000258 
1872.880336  	0.000475 
1874.809152  	0.000308 
1876.737968  	0.000392 
1878.666784  	-0.000067 
1880.595600  	0.000324 
1882.524416  	0.000129 
1884.453232  	0.000360 
1886.382048  	0.000433 
1888.310864  	0.000638 
1890.239680  	-0.000125 
1892.168496  	0.000366 
1894.097312  	0.000314 
1896.026128  	0.000211 
1897.954944  	0.000197 
1899.883760  	0.000582 
1901.812576  	0.000154 
1903.741392  	-0.000090 
1905.670208  	-0.000344 
1907.599024  	0.000291 
1909.527840  	0.000346 
1911.456656  	0.000755 
1913.385472  	0.000562 
1915.314288  	0.000874 
1917.243104  	0.000494 
1919.171920  	0.000256 
1921.100736  	0.000277 
1923.029552  	0.000438 
1924.958368  	-0.000147 
1926.887184  	-0.000234 
1928.816000  	-0.000340 
1930.744816  	0.000309 
1932.673632  	0.000438 
1934.602448  	0.000501 
1936.531264  	0.000558 
1938.460080  	0.001114 
1940.388896  	0.001031 
1942.317712  	0.000759 
1944.246528  	0.000109 
1946.175344  	0.001074 
1948.104160  	0.000824 
1950.032976  	0.000835 
1951.961792  	0.000336 
1953.890608  	0.000651 
1955.819424  	0.000379 
1957.748240  	0.001029 
1959.677056  	-0.000148 
1961.605872  	0.000212 
1963.534688  	0.000309 
1965.463504  	0.000685 
1967.392320  	-0.000486 
1969.321136  	-0.000227 
1971.249952  	0.000377 
1973.178768  	0.001538 
1975.107584  	0.000942 
1977.036400  	0.002159 
1978.965216  	0.002912 
1980.894032  	0.002850 
1982.822848  	0.001331 
1984.751664  	0.001321 
1986.680480  	0.000473 
1988.609296  	0.000790 
1990.538112  	0.000230 
1992.466928  	0.001113 
1994.395744  	0.001360 
1996.324560  	0.001546 
1998.253376  	0.000574 
2000.182192  	0.000357 
2002.111008  	0.000804 
2004.039824  	0.001840 
2005.968640  	0.000832 
2007.897456  	0.001159 
2009.826272  	0.001233 
2011.755088  	0.001950 
2013.683904  	0.001159 
2015.612720  	0.001557 
2017.541536  	0.000860 
2019.470352  	0.001353 
2021.399168  	0.000208 
2023.327984  	-0.000205 
2025.256800  	-0.000112 
2027.185616  	0.000936 
2029.114432  	0.001539 
2031.043248  	0.002561 
2032.972064  	0.002460 
2034.900880  	0.002783 
2036.829696  	0.001423 
2038.758512  	0.002122 
2040.687328  	0.001832 
2042.616144  	0.002097 
2044.544960  	0.001448 
2046.473776  	0.001709 
2048.402592  	0.001613 
2050.331408  	0.001970 
2052.260224  	0.001157 
2054.189040  	0.000736 
2056.117856  	0.000780 
2058.046672  	0.001127 
2059.975488  	0.000800 
2061.904304  	0.000892 
2063.833120  	0.000806 
2065.761936  	0.000823 
2067.690752  	0.000346 
2069.619568  	0.000778 
2071.548384  	0.000960 
2073.477200  	0.001183 
2075.406016  	0.001691 
2077.334832  	0.001746 
2079.263648  	0.001122 
2081.192464  	0.001085 
2083.121280  	0.001190 
2085.050096  	0.001013 
2086.978912  	0.000971 
2088.907728  	0.001580 
2090.836544  	0.001404 
2092.765360  	0.001635 
2094.694176  	0.001723 
2096.622992  	0.001609 
2098.551808  	0.001403 
2100.480624  	0.001769 
2102.409440  	0.001662 
2104.338256  	0.001553 
2106.267072  	0.001745 
2108.195888  	0.002230 
2110.124704  	0.001912 
2112.053520  	0.001929 
2113.982336  	0.001932 
2115.911152  	0.002154 
2117.839968  	0.001777 
2119.768784  	0.001604 
2121.697600  	0.001346 
2123.626416  	0.001483 
2125.555232  	0.001239 
2127.484048  	0.001525 
2129.412864  	0.001088 
2131.341680  	0.001036 
2133.270496  	0.000997 
2135.199312  	0.001515 
2137.128128  	0.001680 
2139.056944  	0.002456 
2140.985760  	0.002262 
2142.914576  	0.001924 
2144.843392  	0.002060 
2146.772208  	0.002370 
2148.701024  	0.001691 
2150.629840  	0.002619 
2152.558656  	0.002624 
2154.487472  	0.002706 
2156.416288  	0.002400 
2158.345104  	0.003223 
2160.273920  	0.005610 
2162.202736  	0.006506 
2164.131552  	0.005183 
2166.060368  	0.005029 
2167.989184  	0.005095 
2169.918000  	0.005670 
2171.846816  	0.003982 
2173.775632  	0.003756 
2175.704448  	0.003771 
2177.633264  	0.003617 
2179.562080  	0.002727 
2181.490896  	0.004073 
2183.419712  	0.002914 
2185.348528  	0.002306 
2187.277344  	0.002786 
2189.206160  	0.002618 
2191.134976  	0.002366 
2193.063792  	0.003383 
2194.992608  	0.002899 
2196.921424  	0.002998 
2198.850240  	0.003359 
2200.779056  	0.003312 
2202.707872  	0.002809 
2204.636688  	0.002927 
2206.565504  	0.002930 
2208.494320  	0.002814 
2210.423136  	0.002443 
2212.351952  	0.002363 
2214.280768  	0.002324 
2216.209584  	0.002766 
2218.138400  	0.002470 
2220.067216  	0.002648 
2221.996032  	0.002699 
2223.924848  	0.002963 
2225.853664  	0.003107 
2227.782480  	0.002742 
2229.711296  	0.001581 
2231.640112  	0.001258 
2233.568928  	0.001243 
2235.497744  	0.001881 
2237.426560  	0.001548 
2239.355376  	0.001707 
2241.284192  	0.001911 
2243.213008  	0.001776 
2245.141824  	0.001399 
2247.070640  	0.001568 
2248.999456  	0.001423 
2250.928272  	0.001234 
2252.857088  	0.000892 
2254.785904  	0.000939 
2256.714720  	0.000772 
2258.643536  	0.000516 
2260.572352  	0.000151 
2262.501168  	0.000167 
2264.429984  	0.000408 
2266.358800  	0.000897 
2268.287616  	0.000949 
2270.216432  	0.001246 
2272.145248  	0.001325 
2274.074064  	0.000949 
2276.002880  	0.000810 
2277.931696  	0.001130 
2279.860512  	0.001259 
2281.789328  	0.001344 
2283.718144  	0.001144 
2285.646960  	0.001244 
2287.575776  	0.001423 
2289.504592  	0.001289 
2291.433408  	0.001008 
2293.362224  	0.001066 
2295.291040  	0.001259 
2297.219856  	0.001652 
2299.148672  	0.001570 
2301.077488  	0.001437 
2303.006304  	0.001237 
2304.935120  	0.001375 
2306.863936  	0.001340 
2308.792752  	0.001428 
2310.721568  	0.001185 
2312.650384  	0.000843 
2314.579200  	0.000343 
2316.508016  	-0.000304 
2318.436832  	-0.000962 
2320.365648  	-0.001515 
2322.294464  	-0.002215 
2324.223280  	-0.003034 
2326.152096  	-0.004152 
2328.080912  	-0.005310 
2330.009728  	-0.006595 
2331.938544  	-0.007772 
2333.867360  	-0.008265 
2335.796176  	-0.008674 
2337.724992  	-0.009531 
2339.653808  	-0.009819 
2341.582624  	-0.010084 
2343.511440  	-0.009939 
2345.440256  	-0.008991 
2347.369072  	-0.005988 
2349.297888  	-0.003247 
2351.226704  	-0.003787 
2353.155520  	-0.007010 
2355.084336  	-0.009892 
2357.013152  	-0.011984 
2358.941968  	-0.013296 
2360.870784  	-0.014317 
2362.799600  	-0.014116 
2364.728416  	-0.013856 
2366.657232  	-0.012352 
2368.586048  	-0.010073 
2370.514864  	-0.008174 
2372.443680  	-0.006570 
2374.372496  	-0.004806 
2376.301312  	-0.003110 
2378.230128  	-0.001503 
2380.158944  	-0.000538 
2382.087760  	0.000144 
2384.016576  	0.000417 
2385.945392  	0.000662 
2387.874208  	0.000627 
2389.803024  	0.000442 
2391.731840  	0.000272 
2393.660656  	0.000288 
2395.589472  	0.000450 
2397.518288  	0.000743 
2399.447104  	0.000694 
2401.375920  	0.000554 
2403.304736  	0.000441 
2405.233552  	0.000560 
2407.162368  	0.000369 
2409.091184  	0.000502 
2411.020000  	0.000607 
2412.948816  	0.000553 
2414.877632  	0.000644 
2416.806448  	0.000833 
2418.735264  	0.000813 
2420.664080  	0.000703 
2422.592896  	0.000616 
2424.521712  	0.000665 
2426.450528  	0.000496 
2428.379344  	0.000599 
2430.308160  	0.000737 
2432.236976  	0.000859 
2434.165792  	0.000893 
2436.094608  	0.000896 
2438.023424  	0.001022 
2439.952240  	0.001167 
2441.881056  	0.001111 
2443.809872  	0.001056 
2445.738688  	0.001115 
2447.667504  	0.001270 
2449.596320  	0.001191 
2451.525136  	0.001375 
2453.453952  	0.001343 
2455.382768  	0.001189 
2457.311584  	0.001095 
2459.240400  	0.001094 
2461.169216  	0.001055 
2463.098032  	0.001050 
2465.026848  	0.001148 
2466.955664  	0.001128 
2468.884480  	0.000934 
2470.813296  	0.000980 
2472.742112  	0.001053 
2474.670928  	0.001020 
2476.599744  	0.001061 
2478.528560  	0.001327 
2480.457376  	0.001185 
2482.386192  	0.001106 
2484.315008  	0.001321 
2486.243824  	0.001374 
2488.172640  	0.001350 
2490.101456  	0.001637 
2492.030272  	0.001700 
2493.959088  	0.001728 
2495.887904  	0.001757 
2497.816720  	0.001648 
2499.745536  	0.001704 
2501.674352  	0.001837 
2503.603168  	0.002098 
2505.531984  	0.002081 
2507.460800  	0.001756 
2509.389616  	0.001798 
2511.318432  	0.001945 
2513.247248  	0.002137 
2515.176064  	0.002168 
2517.104880  	0.002178 
2519.033696  	0.002088 
2520.962512  	0.002264 
2522.891328  	0.002408 
2524.820144  	0.002231 
2526.748960  	0.002328 
2528.677776  	0.002622 
2530.606592  	0.002531 
2532.535408  	0.002574 
2534.464224  	0.002631 
2536.393040  	0.002615 
2538.321856  	0.002665 
2540.250672  	0.002844 
2542.179488  	0.002827 
2544.108304  	0.002987 
2546.037120  	0.002939 
2547.965936  	0.003000 
2549.894752  	0.003051 
2551.823568  	0.003046 
2553.752384  	0.003056 
2555.681200  	0.003322 
2557.610016  	0.003297 
2559.538832  	0.003256 
2561.467648  	0.003461 
2563.396464  	0.003681 
2565.325280  	0.003670 
2567.254096  	0.003704 
2569.182912  	0.003669 
2571.111728  	0.003667 
2573.040544  	0.003773 
2574.969360  	0.003916 
2576.898176  	0.004107 
2578.826992  	0.004067 
2580.755808  	0.004053 
2582.684624  	0.004319 
2584.613440  	0.004381 
2586.542256  	0.004301 
2588.471072  	0.004205 
2590.399888  	0.004429 
2592.328704  	0.004628 
2594.257520  	0.004541 
2596.186336  	0.004582 
2598.115152  	0.004743 
2600.043968  	0.004788 
2601.972784  	0.005000 
2603.901600  	0.005019 
2605.830416  	0.004987 
2607.759232  	0.005146 
2609.688048  	0.005285 
2611.616864  	0.005338 
2613.545680  	0.005488 
2615.474496  	0.005622 
2617.403312  	0.005668 
2619.332128  	0.005708 
2621.260944  	0.005759 
2623.189760  	0.005723 
2625.118576  	0.005829 
2627.047392  	0.005935 
2628.976208  	0.005976 
2630.905024  	0.006081 
2632.833840  	0.006169 
2634.762656  	0.006222 
2636.691472  	0.006310 
2638.620288  	0.006322 
2640.549104  	0.006514 
2642.477920  	0.006676 
2644.406736  	0.006846 
2646.335552  	0.006947 
2648.264368  	0.007069 
2650.193184  	0.007131 
2652.122000  	0.007189 
2654.050816  	0.007305 
2655.979632  	0.007436 
2657.908448  	0.007596 
2659.837264  	0.007753 
2661.766080  	0.007791 
2663.694896  	0.007901 
2665.623712  	0.007952 
2667.552528  	0.008036 
2669.481344  	0.008143 
2671.410160  	0.008283 
2673.338976  	0.008373 
2675.267792  	0.008523 
2677.196608  	0.008698 
2679.125424  	0.008801 
2681.054240  	0.008973 
2682.983056  	0.009112 
2684.911872  	0.009019 
2686.840688  	0.009122 
2688.769504  	0.009161 
2690.698320  	0.009198 
2692.627136  	0.009315 
2694.555952  	0.009521 
2696.484768  	0.009620 
2698.413584  	0.009686 
2700.342400  	0.009759 
2702.271216  	0.009946 
2704.200032  	0.010136 
2706.128848  	0.010227 
2708.057664  	0.010249 
2709.986480  	0.010378 
2711.915296  	0.010512 
2713.844112  	0.010668 
2715.772928  	0.010703 
2717.701744  	0.010803 
2719.630560  	0.011062 
2721.559376  	0.011167 
2723.488192  	0.011189 
2725.417008  	0.011353 
2727.345824  	0.011538 
2729.274640  	0.011612 
2731.203456  	0.011773 
2733.132272  	0.011955 
2735.061088  	0.012019 
2736.989904  	0.012101 
2738.918720  	0.012120 
2740.847536  	0.012114 
2742.776352  	0.012137 
2744.705168  	0.012294 
2746.633984  	0.012414 
2748.562800  	0.012438 
2750.491616  	0.012489 
2752.420432  	0.012622 
2754.349248  	0.012501 
2756.278064  	0.012476 
2758.206880  	0.012494 
2760.135696  	0.012575 
2762.064512  	0.012692 
2763.993328  	0.012765 
2765.922144  	0.012822 
2767.850960  	0.012861 
2769.779776  	0.012863 
2771.708592  	0.012918 
2773.637408  	0.012810 
2775.566224  	0.012736 
2777.495040  	0.012733 
2779.423856  	0.012855 
2781.352672  	0.012985 
2783.281488  	0.012919 
2785.210304  	0.012875 
2787.139120  	0.012981 
2789.067936  	0.012991 
2790.996752  	0.012961 
2792.925568  	0.012910 
2794.854384  	0.012868 
2796.783200  	0.012815 
2798.712016  	0.012806 
2800.640832  	0.012778 
2802.569648  	0.012889 
2804.498464  	0.013070 
2806.427280  	0.013060 
2808.356096  	0.013021 
2810.284912  	0.013176 
2812.213728  	0.013173 
2814.142544  	0.013029 
2816.071360  	0.013038 
2818.000176  	0.012957 
2819.928992  	0.012866 
2821.857808  	0.012835 
2823.786624  	0.012668 
2825.715440  	0.012581 
2827.644256  	0.012471 
2829.573072  	0.012311 
2831.501888  	0.012010 
2833.430704  	0.011752 
2835.359520  	0.011504 
2837.288336  	0.011249 
2839.217152  	0.010903 
2841.145968  	0.010533 
2843.074784  	0.010178 
2845.003600  	0.009763 
2846.932416  	0.009566 
2848.861232  	0.009447 
2850.790048  	0.008983 
2852.718864  	0.008299 
2854.647680  	0.007644 
2856.576496  	0.007021 
2858.505312  	0.006439 
2860.434128  	0.005862 
2862.362944  	0.005124 
2864.291760  	0.004321 
2866.220576  	0.003732 
2868.149392  	0.003432 
2870.078208  	0.003271 
2872.007024  	0.003270 
2873.935840  	0.003309 
2875.864656  	0.003319 
2877.793472  	0.003193 
2879.722288  	0.002981 
2881.651104  	0.002623 
2883.579920  	0.002401 
2885.508736  	0.002594 
2887.437552  	0.002841 
2889.366368  	0.002871 
2891.295184  	0.002685 
2893.224000  	0.002409 
2895.152816  	0.002355 
2897.081632  	0.002092 
2899.010448  	0.000426 
2900.939264  	-0.001073 
2902.868080  	0.000256 
2904.796896  	0.001645 
2906.725712  	0.002127 
2908.654528  	0.002723 
2910.583344  	0.003308 
2912.512160  	0.004031 
2914.440976  	0.005210 
2916.369792  	0.006085 
2918.298608  	0.006530 
2920.227424  	0.006894 
2922.156240  	0.007514 
2924.085056  	0.008248 
2926.013872  	0.009115 
2927.942688  	0.010151 
2929.871504  	0.011150 
2931.800320  	0.011924 
2933.729136  	0.012602 
2935.657952  	0.013175 
2937.586768  	0.013888 
2939.515584  	0.014478 
2941.444400  	0.014725 
2943.373216  	0.014761 
2945.302032  	0.014980 
2947.230848  	0.015127 
2949.159664  	0.014851 
2951.088480  	0.014364 
2953.017296  	0.013827 
2954.946112  	0.013147 
2956.874928  	0.012439 
2958.803744  	0.011734 
2960.732560  	0.011200 
2962.661376  	0.010610 
2964.590192  	0.009621 
2966.519008  	0.008341 
2968.447824  	0.007320 
2970.376640  	0.006465 
2972.305456  	0.005841 
2974.234272  	0.006068 
2976.163088  	0.006406 
2978.091904  	0.006422 
2980.020720  	0.006526 
2981.949536  	0.006739 
2983.878352  	0.006516 
2985.807168  	0.005575 
2987.735984  	0.004640 
2989.664800  	0.005061 
2991.593616  	0.008194 
2993.522432  	0.010332 
2995.451248  	0.010840 
2997.380064  	0.011572 
2999.308880  	0.012757 
3001.237696  	0.014162 
3003.166512  	0.015652 
3005.095328  	0.016922 
3007.024144  	0.018239 
3008.952960  	0.019836 
3010.881776  	0.021466 
3012.810592  	0.022858 
3014.739408  	0.024021 
3016.668224  	0.025186 
3018.597040  	0.026505 
3020.525856  	0.027750 
3022.454672  	0.028837 
3024.383488  	0.029932 
3026.312304  	0.030874 
3028.241120  	0.031800 
3030.169936  	0.032696 
3032.098752  	0.033462 
3034.027568  	0.034224 
3035.956384  	0.035020 
3037.885200  	0.036010 
3039.814016  	0.036761 
3041.742832  	0.037295 
3043.671648  	0.037780 
3045.600464  	0.038411 
3047.529280  	0.038868 
3049.458096  	0.039377 
3051.386912  	0.040113 
3053.315728  	0.040783 
3055.244544  	0.041327 
3057.173360  	0.041976 
3059.102176  	0.042561 
3061.030992  	0.043225 
3062.959808  	0.043962 
3064.888624  	0.044653 
3066.817440  	0.045315 
3068.746256  	0.046206 
3070.675072  	0.046949 
3072.603888  	0.047525 
3074.532704  	0.048180 
3076.461520  	0.048851 
3078.390336  	0.049481 
3080.319152  	0.050124 
3082.247968  	0.050848 
3084.176784  	0.051638 
3086.105600  	0.052535 
3088.034416  	0.053298 
3089.963232  	0.054022 
3091.892048  	0.054655 
3093.820864  	0.055275 
3095.749680  	0.055826 
3097.678496  	0.056693 
3099.607312  	0.057656 
3101.536128  	0.058465 
3103.464944  	0.059381 
3105.393760  	0.060122 
3107.322576  	0.060770 
3109.251392  	0.061589 
3111.180208  	0.062317 
3113.109024  	0.062977 
3115.037840  	0.063633 
3116.966656  	0.064349 
3118.895472  	0.064984 
3120.824288  	0.065489 
3122.753104  	0.066163 
3124.681920  	0.066744 
3126.610736  	0.067259 
3128.539552  	0.068026 
3130.468368  	0.068709 
3132.397184  	0.069129 
3134.326000  	0.069675 
3136.254816  	0.070302 
3138.183632  	0.071041 
3140.112448  	0.071600 
3142.041264  	0.071961 
3143.970080  	0.072486 
3145.898896  	0.073078 
3147.827712  	0.073784 
3149.756528  	0.074390 
3151.685344  	0.074884 
3153.614160  	0.075399 
3155.542976  	0.076040 
3157.471792  	0.076812 
3159.400608  	0.077592 
3161.329424  	0.078121 
3163.258240  	0.078412 
3165.187056  	0.078911 
3167.115872  	0.079666 
3169.044688  	0.080232 
3170.973504  	0.080544 
3172.902320  	0.080949 
3174.831136  	0.081472 
3176.759952  	0.082163 
3178.688768  	0.082569 
3180.617584  	0.082779 
3182.546400  	0.083202 
3184.475216  	0.083643 
3186.404032  	0.083715 
3188.332848  	0.083833 
3190.261664  	0.084152 
3192.190480  	0.084421 
3194.119296  	0.084447 
3196.048112  	0.084553 
3197.976928  	0.084372 
3199.905744  	0.084310 
3201.834560  	0.084324 
3203.763376  	0.084427 
3205.692192  	0.084384 
3207.621008  	0.084166 
3209.549824  	0.084225 
3211.478640  	0.084312 
3213.407456  	0.084178 
3215.336272  	0.083943 
3217.265088  	0.083844 
3219.193904  	0.083620 
3221.122720  	0.083346 
3223.051536  	0.083279 
3224.980352  	0.083332 
3226.909168  	0.083223 
3228.837984  	0.082966 
3230.766800  	0.082833 
3232.695616  	0.082845 
3234.624432  	0.082694 
3236.553248  	0.082520 
3238.482064  	0.082610 
3240.410880  	0.082787 
3242.339696  	0.082913 
3244.268512  	0.082629 
3246.197328  	0.082632 
3248.126144  	0.083011 
3250.054960  	0.083089 
3251.983776  	0.083214 
3253.912592  	0.083507 
3255.841408  	0.083778 
3257.770224  	0.084029 
3259.699040  	0.084361 
3261.627856  	0.084557 
3263.556672  	0.084640 
3265.485488  	0.084716 
3267.414304  	0.084950 
3269.343120  	0.085375 
3271.271936  	0.085725 
3273.200752  	0.085835 
3275.129568  	0.085917 
3277.058384  	0.086069 
3278.987200  	0.086253 
3280.916016  	0.086523 
3282.844832  	0.086733 
3284.773648  	0.087027 
3286.702464  	0.087309 
3288.631280  	0.087466 
3290.560096  	0.087778 
3292.488912  	0.088155 
3294.417728  	0.088506 
3296.346544  	0.088912 
3298.275360  	0.089199 
3300.204176  	0.089686 
3302.132992  	0.090102 
3304.061808  	0.090333 
3305.990624  	0.090622 
3307.919440  	0.090906 
3309.848256  	0.091117 
3311.777072  	0.091439 
3313.705888  	0.091906 
3315.634704  	0.092456 
3317.563520  	0.092743 
3319.492336  	0.092948 
3321.421152  	0.093108 
3323.349968  	0.093283 
3325.278784  	0.093566 
3327.207600  	0.093789 
3329.136416  	0.093799 
3331.065232  	0.094023 
3332.994048  	0.094273 
3334.922864  	0.094463 
3336.851680  	0.094392 
3338.780496  	0.094099 
3340.709312  	0.094043 
3342.638128  	0.094121 
3344.566944  	0.093831 
3346.495760  	0.093685 
3348.424576  	0.093463 
3350.353392  	0.093095 
3352.282208  	0.092877 
3354.211024  	0.092703 
3356.139840  	0.092417 
3358.068656  	0.092145 
3359.997472  	0.091680 
3361.926288  	0.091383 
3363.855104  	0.091189 
3365.783920  	0.090677 
3367.712736  	0.090053 
3369.641552  	0.089768 
3371.570368  	0.089532 
3373.499184  	0.089081 
3375.428000  	0.088647 
3377.356816  	0.088310 
3379.285632  	0.087978 
3381.214448  	0.087702 
3383.143264  	0.087360 
3385.072080  	0.086772 
3387.000896  	0.086331 
3388.929712  	0.086022 
3390.858528  	0.085727 
3392.787344  	0.085349 
3394.716160  	0.084931 
3396.644976  	0.084511 
3398.573792  	0.084210 
3400.502608  	0.083897 
3402.431424  	0.083249 
3404.360240  	0.082843 
3406.289056  	0.082351 
3408.217872  	0.081829 
3410.146688  	0.081295 
3412.075504  	0.080913 
3414.004320  	0.080407 
3415.933136  	0.080108 
3417.861952  	0.079642 
3419.790768  	0.079075 
3421.719584  	0.078595 
3423.648400  	0.078344 
3425.577216  	0.077651 
3427.506032  	0.076915 
3429.434848  	0.076461 
3431.363664  	0.076059 
3433.292480  	0.075561 
3435.221296  	0.074890 
3437.150112  	0.074242 
3439.078928  	0.073797 
3441.007744  	0.073302 
3442.936560  	0.072743 
3444.865376  	0.072304 
3446.794192  	0.071444 
3448.723008  	0.070547 
3450.651824  	0.070169 
3452.580640  	0.069533 
3454.509456  	0.068920 
3456.438272  	0.068304 
3458.367088  	0.067719 
3460.295904  	0.067063 
3462.224720  	0.066290 
3464.153536  	0.065521 
3466.082352  	0.064952 
3468.011168  	0.064074 
3469.939984  	0.063287 
3471.868800  	0.062724 
3473.797616  	0.062120 
3475.726432  	0.061154 
3477.655248  	0.060370 
3479.584064  	0.059894 
3481.512880  	0.058995 
3483.441696  	0.057808 
3485.370512  	0.057274 
3487.299328  	0.056380 
3489.228144  	0.055668 
3491.156960  	0.054999 
3493.085776  	0.054209 
3495.014592  	0.053458 
3496.943408  	0.052713 
3498.872224  	0.052104 
3500.801040  	0.051703 
3502.729856  	0.050688 
3504.658672  	0.049656 
3506.587488  	0.049649 
3508.516304  	0.049100 
3510.445120  	0.047973 
3512.373936  	0.047392 
3514.302752  	0.046790 
3516.231568  	0.046392 
3518.160384  	0.045736 
3520.089200  	0.045105 
3522.018016  	0.044858 
3523.946832  	0.044146 
3525.875648  	0.043229 
3527.804464  	0.042274 
3529.733280  	0.041554 
3531.662096  	0.041306 
3533.590912  	0.040960 
3535.519728  	0.040489 
3537.448544  	0.039856 
3539.377360  	0.039380 
3541.306176  	0.038865 
3543.234992  	0.038544 
3545.163808  	0.037843 
3547.092624  	0.036721 
3549.021440  	0.036116 
3550.950256  	0.035761 
3552.879072  	0.034530 
3554.807888  	0.034007 
3556.736704  	0.033794 
3558.665520  	0.033444 
3560.594336  	0.032899 
3562.523152  	0.032390 
3564.451968  	0.032433 
3566.380784  	0.031308 
3568.309600  	0.028377 
3570.238416  	0.028423 
3572.167232  	0.029207 
3574.096048  	0.028510 
3576.024864  	0.027477 
3577.953680  	0.026958 
3579.882496  	0.026225 
3581.811312  	0.025534 
3583.740128  	0.025476 
3585.668944  	0.025599 
3587.597760  	0.023052 
3589.526576  	0.021273 
3591.455392  	0.022067 
3593.384208  	0.021675 
3595.313024  	0.020171 
3597.241840  	0.019341 
3599.170656  	0.018658 
3601.099472  	0.017237 
3603.028288  	0.016898 
3604.957104  	0.017453 
3606.885920  	0.016767 
3608.814736  	0.014573 
3610.743552  	0.014487 
3612.672368  	0.013867 
3614.601184  	0.012132 
3616.530000  	0.012648 
3618.458816  	0.010691 
3620.387632  	0.007721 
3622.316448  	0.008179 
3624.245264  	0.008877 
3626.174080  	0.009573 
3628.102896  	0.007608 
3630.031712  	0.001623 
3631.960528  	0.003590 
3633.889344  	0.003660 
3635.818160  	0.002879 
3637.746976  	0.002431 
3639.675792  	0.001894 
3641.604608  	0.001512 
3643.533424  	0.001471 
3645.462240  	0.002112 
3647.391056  	-0.000116 
3649.319872  	-0.005611 
3651.248688  	-0.009011 
3653.177504  	-0.005651 
3655.106320  	-0.004581 
3657.035136  	-0.008350 
3658.963952  	-0.008309 
3660.892768  	-0.007701 
3662.821584  	-0.007744 
3664.750400  	-0.007618 
3666.679216  	-0.006760 
3668.608032  	-0.007657 
3670.536848  	-0.012156 
3672.465664  	-0.010349 
3674.394480  	-0.009431 
3676.323296  	-0.016378 
3678.252112  	-0.013216 
3680.180928  	-0.011068 
3682.109744  	-0.010330 
3684.038560  	-0.009997 
3685.967376  	-0.008783 
3687.896192  	-0.010458 
3689.825008  	-0.014653 
3691.753824  	-0.014301 
3693.682640  	-0.011958 
3695.611456  	-0.010427 
3697.540272  	-0.009617 
3699.469088  	-0.008261 
3701.397904  	-0.009262 
3703.326720  	-0.009976 
3705.255536  	-0.008026 
3707.184352  	-0.006574 
3709.113168  	-0.007037 
3711.041984  	-0.009901 
3712.970800  	-0.011227 
3714.899616  	-0.008575 
3716.828432  	-0.006602 
3718.757248  	-0.006733 
3720.686064  	-0.007046 
3722.614880  	-0.007808 
3724.543696  	-0.007634 
3726.472512  	-0.008341 
3728.401328  	-0.008004 
3730.330144  	-0.006324 
3732.258960  	-0.007293 
3734.187776  	-0.007912 
3736.116592  	-0.010780 
3738.045408  	-0.010611 
3739.974224  	-0.007644 
3741.903040  	-0.004956 
3743.831856  	-0.006683 
3745.760672  	-0.011609 
3747.689488  	-0.007395 
3749.618304  	-0.008400 
3751.547120  	-0.012189 
3753.475936  	-0.011763 
3755.404752  	-0.008203 
3757.333568  	-0.007285 
3759.262384  	-0.008397 
3761.191200  	-0.008877 
3763.120016  	-0.006411 
3765.048832  	-0.006808 
3766.977648  	-0.007357 
3768.906464  	-0.007442 
3770.835280  	-0.009546 
3772.764096  	-0.008107 
3774.692912  	-0.006586 
3776.621728  	-0.005744 
3778.550544  	-0.006676 
3780.479360  	-0.008894 
3782.408176  	-0.007273 
3784.336992  	-0.007238 
3786.265808  	-0.007757 
3788.194624  	-0.007251 
3790.123440  	-0.007089 
3792.052256  	-0.006803 
3793.981072  	-0.005939 
3795.909888  	-0.006866 
3797.838704  	-0.007416 
3799.767520  	-0.006029 
3801.696336  	-0.010682 
3803.625152  	-0.010272 
3805.553968  	-0.007058 
3807.482784  	-0.009741 
3809.411600  	-0.008678 
3811.340416  	-0.006715 
3813.269232  	-0.005279 
3815.198048  	-0.006805 
3817.126864  	-0.009980 
3819.055680  	-0.006836 
3820.984496  	-0.009802 
3822.913312  	-0.011269 
3824.842128  	-0.007408 
3826.770944  	-0.007893 
3828.699760  	-0.007362 
3830.628576  	-0.006539 
3832.557392  	-0.007472 
3834.486208  	-0.006805 
3836.415024  	-0.007034 
3838.343840  	-0.009569 
3840.272656  	-0.010344 
3842.201472  	-0.008811 
3844.130288  	-0.008650 
3846.059104  	-0.007648 
3847.987920  	-0.005931 
3849.916736  	-0.004647 
3851.845552  	-0.004833 
3853.774368  	-0.013239 
3855.703184  	-0.013202 
3857.632000  	-0.009127 
3859.560816  	-0.006676 
3861.489632  	-0.006278 
3863.418448  	-0.007228 
3865.347264  	-0.008608 
3867.276080  	-0.006415 
3869.204896  	-0.006791 
3871.133712  	-0.009831 
3873.062528  	-0.008010 
3874.991344  	-0.009195 
3876.920160  	-0.006921 
3878.848976  	-0.005135 
3880.777792  	-0.007603 
3882.706608  	-0.007138 
3884.635424  	-0.006271 
3886.564240  	-0.009158 
3888.493056  	-0.006905 
3890.421872  	-0.006222 
3892.350688  	-0.008727 
3894.279504  	-0.007837 
3896.208320  	-0.005777 
3898.137136  	-0.005068 
3900.065952  	-0.006179 
3901.994768  	-0.006666 
3903.923584  	-0.008314 
3905.852400  	-0.009360 
3907.781216  	-0.007841 
3909.710032  	-0.006757 
3911.638848  	-0.006595 
3913.567664  	-0.006191 
3915.496480  	-0.005789 
3917.425296  	-0.006972 
3919.354112  	-0.007458 
3921.282928  	-0.007046 
3923.211744  	-0.006278 
3925.140560  	-0.007105 
3927.069376  	-0.006910 
3928.998192  	-0.006108 
3930.927008  	-0.006209 
3932.855824  	-0.007017 
3934.784640  	-0.007087 
3936.713456  	-0.006565 
3938.642272  	-0.006223 
3940.571088  	-0.005557 
3942.499904  	-0.006173 
3944.428720  	-0.006924 
3946.357536  	-0.006073 
3948.286352  	-0.006156 
3950.215168  	-0.006838 
3952.143984  	-0.006916 
3954.072800  	-0.006662 
3956.001616  	-0.006449 
3957.930432  	-0.006446 
3959.859248  	-0.006380 
3961.788064  	-0.006595 
3963.716880  	-0.006941 
3965.645696  	-0.006778 
3967.574512  	-0.006596 
3969.503328  	-0.006576 
3971.432144  	-0.006639 
3973.360960  	-0.006698 
3975.289776  	-0.006905 
3977.218592  	-0.006837 
3979.147408  	-0.006763 
3981.076224  	-0.006731 
3983.005040  	-0.006668 
3984.933856  	-0.006619 
3986.862672  	-0.006585 
3988.791488  	-0.006439 
3990.720304  	-0.006425 
3992.649120  	-0.006428 
3994.577936  	-0.006457 
3996.506752  	-0.006486 
3998.435568  	-0.006479 
4000.364384  	-0.006379 