##TITLE=No Description
##DATA TYPE=INFRARED SPECTRUM
##XUNITS=1/CM
##YUNITS=Abs
399.264912  	0.497139 
401.193728  	0.492666 
403.122544  	0.505696 
405.051360  	0.508840 
406.980176  	0.514761 
408.908992  	0.507769 
410.837808  	0.518527 
412.766624  	0.528388 
414.695440  	0.530201 
416.624256  	0.522475 
418.553072  	0.520984 
420.481888  	0.501008 
422.410704  	0.497973 
424.339520  	0.499296 
426.268336  	0.505331 
428.197152  	0.497186 
430.125968  	0.493071 
432.054784  	0.489652 
433.983600  	0.491768 
435.912416  	0.488693 
437.841232  	0.484521 
439.770048  	0.481889 
441.698864  	0.482211 
443.627680  	0.479469 
445.556496  	0.476940 
447.485312  	0.477085 
449.414128  	0.481229 
451.342944  	0.484060 
453.271760  	0.484349 
455.200576  	0.479633 
457.129392  	0.489666 
459.058208  	0.492099 
460.987024  	0.490876 
462.915840  	0.489775 
464.844656  	0.490641 
466.773472  	0.490381 
468.702288  	0.493334 
470.631104  	0.491842 
472.559920  	0.492949 
474.488736  	0.492051 
476.417552  	0.491822 
478.346368  	0.489841 
480.275184  	0.493111 
482.204000  	0.491194 
484.132816  	0.493434 
486.061632  	0.493585 
487.990448  	0.494218 
489.919264  	0.492877 
491.848080  	0.492068 
493.776896  	0.488066 
495.705712  	0.485973 
497.634528  	0.483642 
499.563344  	0.483559 
501.492160  	0.483290 
503.420976  	0.483089 
505.349792  	0.480964 
507.278608  	0.481550 
509.207424  	0.479103 
511.136240  	0.482790 
513.065056  	0.485707 
514.993872  	0.488566 
516.922688  	0.490181 
518.851504  	0.493893 
520.780320  	0.494631 
522.709136  	0.495167 
524.637952  	0.494186 
526.566768  	0.493043 
528.495584  	0.488533 
530.424400  	0.483801 
532.353216  	0.479132 
534.282032  	0.474748 
536.210848  	0.468088 
538.139664  	0.462230 
540.068480  	0.456193 
541.997296  	0.451124 
543.926112  	0.444889 
545.854928  	0.440413 
547.783744  	0.436902 
549.712560  	0.432660 
551.641376  	0.427711 
553.570192  	0.423955 
555.499008  	0.419216 
557.427824  	0.415535 
559.356640  	0.412035 
561.285456  	0.408034 
563.214272  	0.403668 
565.143088  	0.400171 
567.071904  	0.395256 
569.000720  	0.391467 
570.929536  	0.387285 
572.858352  	0.384434 
574.787168  	0.381294 
576.715984  	0.379494 
578.644800  	0.375082 
580.573616  	0.369687 
582.502432  	0.364190 
584.431248  	0.359306 
586.360064  	0.353938 
588.288880  	0.351689 
590.217696  	0.350390 
592.146512  	0.348203 
594.075328  	0.346227 
596.004144  	0.344348 
597.932960  	0.342162 
599.861776  	0.341329 
601.790592  	0.340124 
603.719408  	0.338906 
605.648224  	0.338384 
607.577040  	0.338153 
609.505856  	0.336902 
611.434672  	0.335393 
613.363488  	0.333053 
615.292304  	0.332724 
617.221120  	0.332177 
619.149936  	0.330600 
621.078752  	0.328933 
623.007568  	0.329246 
624.936384  	0.328999 
626.865200  	0.327910 
628.794016  	0.327456 
630.722832  	0.327814 
632.651648  	0.327623 
634.580464  	0.328322 
636.509280  	0.329965 
638.438096  	0.330823 
640.366912  	0.330614 
642.295728  	0.329495 
644.224544  	0.327471 
646.153360  	0.325503 
648.082176  	0.322236 
650.010992  	0.318148 
651.939808  	0.313183 
653.868624  	0.309336 
655.797440  	0.305081 
657.726256  	0.301200 
659.655072  	0.296473 
661.583888  	0.291748 
663.512704  	0.286894 
665.441520  	0.282045 
667.370336  	0.278493 
669.299152  	0.273702 
671.227968  	0.268271 
673.156784  	0.264429 
675.085600  	0.262586 
677.014416  	0.260872 
678.943232  	0.258653 
680.872048  	0.257006 
682.800864  	0.256021 
684.729680  	0.255271 
686.658496  	0.253993 
688.587312  	0.252801 
690.516128  	0.251187 
692.444944  	0.250119 
694.373760  	0.249361 
696.302576  	0.248373 
698.231392  	0.246544 
700.160208  	0.244715 
702.089024  	0.242229 
704.017840  	0.239837 
705.946656  	0.237506 
707.875472  	0.235300 
709.804288  	0.233289 
711.733104  	0.232151 
713.661920  	0.231096 
715.590736  	0.229931 
717.519552  	0.230458 
719.448368  	0.232213 
721.377184  	0.234771 
723.306000  	0.237635 
725.234816  	0.239446 
727.163632  	0.239027 
729.092448  	0.236574 
731.021264  	0.232590 
732.950080  	0.227937 
734.878896  	0.224260 
736.807712  	0.220900 
738.736528  	0.217887 
740.665344  	0.215693 
742.594160  	0.214832 
744.522976  	0.213870 
746.451792  	0.212936 
748.380608  	0.211910 
750.309424  	0.211196 
752.238240  	0.210556 
754.167056  	0.210500 
756.095872  	0.210295 
758.024688  	0.209977 
759.953504  	0.210652 
761.882320  	0.212640 
763.811136  	0.214890 
765.739952  	0.214352 
767.668768  	0.212212 
769.597584  	0.210764 
771.526400  	0.211508 
773.455216  	0.215005 
775.384032  	0.221913 
777.312848  	0.231121 
779.241664  	0.238052 
781.170480  	0.239257 
783.099296  	0.234602 
785.028112  	0.227720 
786.956928  	0.220559 
788.885744  	0.214815 
790.814560  	0.210235 
792.743376  	0.207993 
794.672192  	0.207593 
796.601008  	0.206944 
798.529824  	0.203642 
800.458640  	0.198316 
802.387456  	0.194085 
804.316272  	0.192687 
806.245088  	0.192805 
808.173904  	0.193321 
810.102720  	0.194299 
812.031536  	0.195545 
813.960352  	0.197226 
815.889168  	0.199485 
817.817984  	0.201806 
819.746800  	0.203723 
821.675616  	0.205528 
823.604432  	0.207514 
825.533248  	0.209142 
827.462064  	0.210051 
829.390880  	0.210007 
831.319696  	0.209488 
833.248512  	0.207845 
835.177328  	0.206073 
837.106144  	0.203289 
839.034960  	0.199593 
840.963776  	0.195194 
842.892592  	0.190824 
844.821408  	0.186250 
846.750224  	0.181890 
848.679040  	0.178639 
850.607856  	0.176493 
852.536672  	0.175298 
854.465488  	0.174293 
856.394304  	0.173335 
858.323120  	0.172141 
860.251936  	0.170922 
862.180752  	0.169474 
864.109568  	0.167200 
866.038384  	0.164956 
867.967200  	0.163014 
869.896016  	0.161191 
871.824832  	0.159961 
873.753648  	0.160058 
875.682464  	0.161179 
877.611280  	0.163472 
879.540096  	0.167211 
881.468912  	0.172012 
883.397728  	0.176217 
885.326544  	0.179391 
887.255360  	0.181360 
889.184176  	0.181464 
891.112992  	0.180328 
893.041808  	0.178264 
894.970624  	0.174828 
896.899440  	0.170184 
898.828256  	0.164823 
900.757072  	0.159297 
902.685888  	0.154608 
904.614704  	0.152628 
906.543520  	0.153505 
908.472336  	0.156642 
910.401152  	0.161331 
912.329968  	0.166851 
914.258784  	0.172671 
916.187600  	0.177999 
918.116416  	0.182436 
920.045232  	0.186058 
921.974048  	0.188354 
923.902864  	0.189891 
925.831680  	0.191121 
927.760496  	0.192768 
929.689312  	0.194878 
931.618128  	0.197372 
933.546944  	0.199531 
935.475760  	0.200957 
937.404576  	0.201473 
939.333392  	0.201493 
941.262208  	0.202311 
943.191024  	0.205304 
945.119840  	0.211857 
947.048656  	0.222261 
948.977472  	0.235963 
950.906288  	0.252421 
952.835104  	0.271072 
954.763920  	0.291147 
956.692736  	0.309928 
958.621552  	0.325329 
960.550368  	0.334813 
962.479184  	0.338610 
964.408000  	0.335370 
966.336816  	0.325720 
968.265632  	0.310650 
970.194448  	0.292436 
972.123264  	0.272006 
974.052080  	0.251020 
975.980896  	0.231030 
977.909712  	0.213063 
979.838528  	0.197674 
981.767344  	0.185304 
983.696160  	0.176860 
985.624976  	0.172819 
987.553792  	0.173514 
989.482608  	0.178732 
991.411424  	0.187731 
993.340240  	0.199777 
995.269056  	0.213236 
997.197872  	0.227045 
999.126688  	0.240669 
1001.055504  	0.254134 
1002.984320  	0.266867 
1004.913136  	0.279074 
1006.841952  	0.289894 
1008.770768  	0.299038 
1010.699584  	0.305641 
1012.628400  	0.310030 
1014.557216  	0.311995 
1016.486032  	0.312544 
1018.414848  	0.312077 
1020.343664  	0.311281 
1022.272480  	0.310386 
1024.201296  	0.309880 
1026.130112  	0.309019 
1028.058928  	0.309718 
1029.987744  	0.312747 
1031.916560  	0.316951 
1033.845376  	0.321984 
1035.774192  	0.328701 
1037.703008  	0.337314 
1039.631824  	0.349504 
1041.560640  	0.366024 
1043.489456  	0.387719 
1045.418272  	0.411399 
1047.347088  	0.434226 
1049.275904  	0.451410 
1051.204720  	0.461790 
1053.133536  	0.463247 
1055.062352  	0.459298 
1056.991168  	0.453027 
1058.919984  	0.446582 
1060.848800  	0.439445 
1062.777616  	0.432200 
1064.706432  	0.423468 
1066.635248  	0.413718 
1068.564064  	0.403002 
1070.492880  	0.391819 
1072.421696  	0.381396 
1074.350512  	0.374954 
1076.279328  	0.372332 
1078.208144  	0.373802 
1080.136960  	0.375838 
1082.065776  	0.375884 
1083.994592  	0.371135 
1085.923408  	0.361825 
1087.852224  	0.348911 
1089.781040  	0.335102 
1091.709856  	0.319298 
1093.638672  	0.302534 
1095.567488  	0.284852 
1097.496304  	0.267562 
1099.425120  	0.250597 
1101.353936  	0.234790 
1103.282752  	0.219606 
1105.211568  	0.205447 
1107.140384  	0.192522 
1109.069200  	0.180491 
1110.998016  	0.169460 
1112.926832  	0.159552 
1114.855648  	0.150315 
1116.784464  	0.141537 
1118.713280  	0.133197 
1120.642096  	0.125136 
1122.570912  	0.117508 
1124.499728  	0.110600 
1126.428544  	0.104490 
1128.357360  	0.099329 
1130.286176  	0.094746 
1132.214992  	0.091008 
1134.143808  	0.088123 
1136.072624  	0.085447 
1138.001440  	0.083004 
1139.930256  	0.080822 
1141.859072  	0.078429 
1143.787888  	0.075946 
1145.716704  	0.073795 
1147.645520  	0.072041 
1149.574336  	0.070832 
1151.503152  	0.070342 
1153.431968  	0.070991 
1155.360784  	0.071916 
1157.289600  	0.073571 
1159.218416  	0.075994 
1161.147232  	0.079059 
1163.076048  	0.082397 
1165.004864  	0.085955 
1166.933680  	0.089369 
1168.862496  	0.093028 
1170.791312  	0.096864 
1172.720128  	0.101117 
1174.648944  	0.105879 
1176.577760  	0.110612 
1178.506576  	0.115277 
1180.435392  	0.120044 
1182.364208  	0.125319 
1184.293024  	0.131327 
1186.221840  	0.137820 
1188.150656  	0.145375 
1190.079472  	0.154295 
1192.008288  	0.164540 
1193.937104  	0.176165 
1195.865920  	0.189047 
1197.794736  	0.203127 
1199.723552  	0.217311 
1201.652368  	0.231203 
1203.581184  	0.244245 
1205.510000  	0.255995 
1207.438816  	0.265908 
1209.367632  	0.274636 
1211.296448  	0.280952 
1213.225264  	0.285296 
1215.154080  	0.286781 
1217.082896  	0.286713 
1219.011712  	0.284918 
1220.940528  	0.282251 
1222.869344  	0.278357 
1224.798160  	0.273866 
1226.726976  	0.268173 
1228.655792  	0.262253 
1230.584608  	0.255533 
1232.513424  	0.248076 
1234.442240  	0.239993 
1236.371056  	0.231380 
1238.299872  	0.221931 
1240.228688  	0.212038 
1242.157504  	0.202203 
1244.086320  	0.192722 
1246.015136  	0.183099 
1247.943952  	0.173549 
1249.872768  	0.164320 
1251.801584  	0.155834 
1253.730400  	0.147365 
1255.659216  	0.139177 
1257.588032  	0.131367 
1259.516848  	0.124161 
1261.445664  	0.117568 
1263.374480  	0.111742 
1265.303296  	0.106834 
1267.232112  	0.102927 
1269.160928  	0.100259 
1271.089744  	0.098741 
1273.018560  	0.098467 
1274.947376  	0.099285 
1276.876192  	0.100446 
1278.805008  	0.101008 
1280.733824  	0.100485 
1282.662640  	0.098531 
1284.591456  	0.096049 
1286.520272  	0.093775 
1288.449088  	0.092472 
1290.377904  	0.092583 
1292.306720  	0.093521 
1294.235536  	0.093926 
1296.164352  	0.092990 
1298.093168  	0.090354 
1300.021984  	0.086544 
1301.950800  	0.082434 
1303.879616  	0.078390 
1305.808432  	0.074133 
1307.737248  	0.069787 
1309.666064  	0.065787 
1311.594880  	0.062630 
1313.523696  	0.060326 
1315.452512  	0.058971 
1317.381328  	0.058431 
1319.310144  	0.058873 
1321.238960  	0.059794 
1323.167776  	0.061113 
1325.096592  	0.062356 
1327.025408  	0.063312 
1328.954224  	0.063393 
1330.883040  	0.062682 
1332.811856  	0.061449 
1334.740672  	0.060108 
1336.669488  	0.059115 
1338.598304  	0.058597 
1340.527120  	0.058180 
1342.455936  	0.057765 
1344.384752  	0.057741 
1346.313568  	0.058457 
1348.242384  	0.060011 
1350.171200  	0.062397 
1352.100016  	0.065110 
1354.028832  	0.068037 
1355.957648  	0.071141 
1357.886464  	0.074048 
1359.815280  	0.076877 
1361.744096  	0.080109 
1363.672912  	0.083822 
1365.601728  	0.086220 
1367.530544  	0.088049 
1369.459360  	0.089617 
1371.388176  	0.089703 
1373.316992  	0.088397 
1375.245808  	0.085732 
1377.174624  	0.082093 
1379.103440  	0.078266 
1381.032256  	0.074621 
1382.961072  	0.071659 
1384.889888  	0.069230 
1386.818704  	0.067319 
1388.747520  	0.065112 
1390.676336  	0.062446 
1392.605152  	0.059928 
1394.533968  	0.058744 
1396.462784  	0.059273 
1398.391600  	0.059720 
1400.320416  	0.060943 
1402.249232  	0.061516 
1404.178048  	0.062973 
1406.106864  	0.064982 
1408.035680  	0.066903 
1409.964496  	0.069157 
1411.893312  	0.072246 
1413.822128  	0.075058 
1415.750944  	0.077420 
1417.679760  	0.079170 
1419.608576  	0.081170 
1421.537392  	0.080902 
1423.466208  	0.079472 
1425.395024  	0.077367 
1427.323840  	0.074481 
1429.252656  	0.071355 
1431.181472  	0.069240 
1433.110288  	0.068327 
1435.039104  	0.068376 
1436.967920  	0.070733 
1438.896736  	0.072755 
1440.825552  	0.073307 
1442.754368  	0.074004 
1444.683184  	0.073918 
1446.612000  	0.073786 
1448.540816  	0.074180 
1450.469632  	0.074579 
1452.398448  	0.074797 
1454.327264  	0.074851 
1456.256080  	0.074900 
1458.184896  	0.076899 
1460.113712  	0.077010 
1462.042528  	0.076659 
1463.971344  	0.076920 
1465.900160  	0.079493 
1467.828976  	0.081606 
1469.757792  	0.084360 
1471.686608  	0.089260 
1473.615424  	0.099639 
1475.544240  	0.106692 
1477.473056  	0.113855 
1479.401872  	0.118096 
1481.330688  	0.121769 
1483.259504  	0.123946 
1485.188320  	0.124733 
1487.117136  	0.124239 
1489.045952  	0.123225 
1490.974768  	0.120068 
1492.903584  	0.115903 
1494.832400  	0.110315 
1496.761216  	0.103189 
1498.690032  	0.095418 
1500.618848  	0.088736 
1502.547664  	0.082463 
1504.476480  	0.077042 
1506.405296  	0.072386 
1508.334112  	0.069582 
1510.262928  	0.066806 
1512.191744  	0.064857 
1514.120560  	0.063576 
1516.049376  	0.063485 
1517.978192  	0.065474 
1519.907008  	0.066870 
1521.835824  	0.072854 
1523.764640  	0.077950 
1525.693456  	0.081570 
1527.622272  	0.084498 
1529.551088  	0.084778 
1531.479904  	0.082746 
1533.408720  	0.079420 
1535.337536  	0.075280 
1537.266352  	0.070914 
1539.195168  	0.065996 
1541.123984  	0.061902 
1543.052800  	0.060036 
1544.981616  	0.058357 
1546.910432  	0.057157 
1548.839248  	0.056157 
1550.768064  	0.056976 
1552.696880  	0.056848 
1554.625696  	0.058417 
1556.554512  	0.058291 
1558.483328  	0.061351 
1560.412144  	0.071706 
1562.340960  	0.074377 
1564.269776  	0.078406 
1566.198592  	0.085483 
1568.127408  	0.090416 
1570.056224  	0.100806 
1571.985040  	0.108128 
1573.913856  	0.112146 
1575.842672  	0.116153 
1577.771488  	0.120356 
1579.700304  	0.119092 
1581.629120  	0.117722 
1583.557936  	0.116907 
1585.486752  	0.118381 
1587.415568  	0.121927 
1589.344384  	0.128874 
1591.273200  	0.137442 
1593.202016  	0.147510 
1595.130832  	0.157894 
1597.059648  	0.168775 
1598.988464  	0.176860 
1600.917280  	0.183639 
1602.846096  	0.187654 
1604.774912  	0.189953 
1606.703728  	0.188978 
1608.632544  	0.187386 
1610.561360  	0.184142 
1612.490176  	0.181630 
1614.418992  	0.178316 
1616.347808  	0.178872 
1618.276624  	0.182968 
1620.205440  	0.185874 
1622.134256  	0.189665 
1624.063072  	0.200443 
1625.991888  	0.208174 
1627.920704  	0.218515 
1629.849520  	0.230112 
1631.778336  	0.239044 
1633.707152  	0.244915 
1635.635968  	0.255983 
1637.564784  	0.266791 
1639.493600  	0.270312 
1641.422416  	0.272500 
1643.351232  	0.273504 
1645.280048  	0.271676 
1647.208864  	0.272613 
1649.137680  	0.270858 
1651.066496  	0.265595 
1652.995312  	0.259866 
1654.924128  	0.259317 
1656.852944  	0.254246 
1658.781760  	0.248987 
1660.710576  	0.242889 
1662.639392  	0.237052 
1664.568208  	0.231138 
1666.497024  	0.224802 
1668.425840  	0.217796 
1670.354656  	0.211495 
1672.283472  	0.205592 
1674.212288  	0.200066 
1676.141104  	0.195891 
1678.069920  	0.192267 
1679.998736  	0.189165 
1681.927552  	0.186361 
1683.856368  	0.184951 
1685.785184  	0.186341 
1687.714000  	0.184096 
1689.642816  	0.182613 
1691.571632  	0.180538 
1693.500448  	0.177558 
1695.429264  	0.174644 
1697.358080  	0.172829 
1699.286896  	0.169359 
1701.215712  	0.166825 
1703.144528  	0.162770 
1705.073344  	0.157949 
1707.002160  	0.152057 
1708.930976  	0.145713 
1710.859792  	0.138093 
1712.788608  	0.129725 
1714.717424  	0.120263 
1716.646240  	0.109170 
1718.575056  	0.096250 
1720.503872  	0.085570 
1722.432688  	0.075995 
1724.361504  	0.065302 
1726.290320  	0.056484 
1728.219136  	0.048682 
1730.147952  	0.041861 
1732.076768  	0.036012 
1734.005584  	0.032015 
1735.934400  	0.028143 
1737.863216  	0.025628 
1739.792032  	0.023097 
1741.720848  	0.021341 
1743.649664  	0.019559 
1745.578480  	0.018151 
1747.507296  	0.016680 
1749.436112  	0.015973 
1751.364928  	0.015378 
1753.293744  	0.014847 
1755.222560  	0.013736 
1757.151376  	0.013550 
1759.080192  	0.012642 
1761.009008  	0.012305 
1762.937824  	0.011990 
1764.866640  	0.011459 
1766.795456  	0.010609 
1768.724272  	0.010488 
1770.653088  	0.009406 
1772.581904  	0.009933 
1774.510720  	0.009900 
1776.439536  	0.009670 
1778.368352  	0.009050 
1780.297168  	0.008970 
1782.225984  	0.008773 
1784.154800  	0.008860 
1786.083616  	0.008518 
1788.012432  	0.008211 
1789.941248  	0.007745 
1791.870064  	0.008104 
1793.798880  	0.007966 
1795.727696  	0.007750 
1797.656512  	0.007132 
1799.585328  	0.006996 
1801.514144  	0.007166 
1803.442960  	0.007304 
1805.371776  	0.006833 
1807.300592  	0.006821 
1809.229408  	0.006423 
1811.158224  	0.006510 
1813.087040  	0.006299 
1815.015856  	0.006185 
1816.944672  	0.005997 
1818.873488  	0.006358 
1820.802304  	0.006243 
1822.731120  	0.006069 
1824.659936  	0.005759 
1826.588752  	0.005973 
1828.517568  	0.005551 
1830.446384  	0.006420 
1832.375200  	0.006312 
1834.304016  	0.006269 
1836.232832  	0.006091 
1838.161648  	0.005987 
1840.090464  	0.005692 
1842.019280  	0.005768 
1843.948096  	0.005874 
1845.876912  	0.006325 
1847.805728  	0.006085 
1849.734544  	0.006324 
1851.663360  	0.005884 
1853.592176  	0.005916 
1855.520992  	0.005628 
1857.449808  	0.005785 
1859.378624  	0.005833 
1861.307440  	0.006302 
1863.236256  	0.005849 
1865.165072  	0.005576 
1867.093888  	0.005262 
1869.022704  	0.005938 
1870.951520  	0.005744 
1872.880336  	0.005504 
1874.809152  	0.004947 
1876.737968  	0.005154 
1878.666784  	0.005336 
1880.595600  	0.005705 
1882.524416  	0.005566 
1884.453232  	0.005679 
1886.382048  	0.005204 
1888.310864  	0.005493 
1890.239680  	0.005685 
1892.168496  	0.005426 
1894.097312  	0.005037 
1896.026128  	0.005364 
1897.954944  	0.005207 
1899.883760  	0.005268 
1901.812576  	0.005017 
1903.741392  	0.005298 
1905.670208  	0.005116 
1907.599024  	0.005598 
1909.527840  	0.005772 
1911.456656  	0.005836 
1913.385472  	0.005311 
1915.314288  	0.005390 
1917.243104  	0.005081 
1919.171920  	0.005584 
1921.100736  	0.005157 
1923.029552  	0.005435 
1924.958368  	0.004548 
1926.887184  	0.004274 
1928.816000  	0.004707 
1930.744816  	0.005351 
1932.673632  	0.004943 
1934.602448  	0.004639 
1936.531264  	0.004264 
1938.460080  	0.004215 
1940.388896  	0.003534 
1942.317712  	0.003958 
1944.246528  	0.003650 
1946.175344  	0.004370 
1948.104160  	0.004761 
1950.032976  	0.004119 
1951.961792  	0.003243 
1953.890608  	0.004298 
1955.819424  	0.003990 
1957.748240  	0.003868 
1959.677056  	0.003057 
1961.605872  	0.003680 
1963.534688  	0.002950 
1965.463504  	0.003105 
1967.392320  	0.002094 
1969.321136  	0.003292 
1971.249952  	0.003149 
1973.178768  	0.002538 
1975.107584  	0.002221 
1977.036400  	0.002849 
1978.965216  	0.003479 
1980.894032  	0.004766 
1982.822848  	0.004325 
1984.751664  	0.004683 
1986.680480  	0.004244 
1988.609296  	0.004510 
1990.538112  	0.003913 
1992.466928  	0.003865 
1994.395744  	0.003936 
1996.324560  	0.004809 
1998.253376  	0.004545 
2000.182192  	0.004081 
2002.111008  	0.003477 
2004.039824  	0.004327 
2005.968640  	0.004042 
2007.897456  	0.004712 
2009.826272  	0.004972 
2011.755088  	0.004888 
2013.683904  	0.003822 
2015.612720  	0.003707 
2017.541536  	0.004930 
2019.470352  	0.006653 
2021.399168  	0.006220 
2023.327984  	0.006105 
2025.256800  	0.004389 
2027.185616  	0.005101 
2029.114432  	0.005395 
2031.043248  	0.005838 
2032.972064  	0.006750 
2034.900880  	0.008416 
2036.829696  	0.007536 
2038.758512  	0.007300 
2040.687328  	0.007154 
2042.616144  	0.008092 
2044.544960  	0.007462 
2046.473776  	0.006957 
2048.402592  	0.006630 
2050.331408  	0.006813 
2052.260224  	0.005815 
2054.189040  	0.005312 
2056.117856  	0.005561 
2058.046672  	0.006985 
2059.975488  	0.006662 
2061.904304  	0.006510 
2063.833120  	0.006430 
2065.761936  	0.006658 
2067.690752  	0.006240 
2069.619568  	0.006545 
2071.548384  	0.006402 
2073.477200  	0.006881 
2075.406016  	0.007418 
2077.334832  	0.007717 
2079.263648  	0.007643 
2081.192464  	0.008225 
2083.121280  	0.007922 
2085.050096  	0.007738 
2086.978912  	0.007375 
2088.907728  	0.007699 
2090.836544  	0.007390 
2092.765360  	0.007387 
2094.694176  	0.007243 
2096.622992  	0.007722 
2098.551808  	0.007785 
2100.480624  	0.007506 
2102.409440  	0.007373 
2104.338256  	0.008016 
2106.267072  	0.008180 
2108.195888  	0.008380 
2110.124704  	0.007753 
2112.053520  	0.007824 
2113.982336  	0.008199 
2115.911152  	0.008261 
2117.839968  	0.008153 
2119.768784  	0.007685 
2121.697600  	0.006920 
2123.626416  	0.007628 
2125.555232  	0.007431 
2127.484048  	0.006875 
2129.412864  	0.006668 
2131.341680  	0.006743 
2133.270496  	0.006381 
2135.199312  	0.007175 
2137.128128  	0.006876 
2139.056944  	0.006627 
2140.985760  	0.006873 
2142.914576  	0.007376 
2144.843392  	0.007608 
2146.772208  	0.008357 
2148.701024  	0.008173 
2150.629840  	0.008211 
2152.558656  	0.007545 
2154.487472  	0.007458 
2156.416288  	0.007928 
2158.345104  	0.011414 
2160.273920  	0.012629 
2162.202736  	0.012375 
2164.131552  	0.012133 
2166.060368  	0.012702 
2167.989184  	0.011687 
2169.918000  	0.012091 
2171.846816  	0.011869 
2173.775632  	0.010552 
2175.704448  	0.009437 
2177.633264  	0.009874 
2179.562080  	0.009734 
2181.490896  	0.009866 
2183.419712  	0.009800 
2185.348528  	0.009942 
2187.277344  	0.010340 
2189.206160  	0.011051 
2191.134976  	0.011235 
2193.063792  	0.011588 
2194.992608  	0.010546 
2196.921424  	0.010119 
2198.850240  	0.010040 
2200.779056  	0.010661 
2202.707872  	0.010474 
2204.636688  	0.010134 
2206.565504  	0.010408 
2208.494320  	0.011175 
2210.423136  	0.010362 
2212.351952  	0.009782 
2214.280768  	0.009428 
2216.209584  	0.009253 
2218.138400  	0.008711 
2220.067216  	0.009035 
2221.996032  	0.009166 
2223.924848  	0.009335 
2225.853664  	0.008556 
2227.782480  	0.008485 
2229.711296  	0.008603 
2231.640112  	0.008133 
2233.568928  	0.007939 
2235.497744  	0.008665 
2237.426560  	0.008640 
2239.355376  	0.008298 
2241.284192  	0.007854 
2243.213008  	0.007869 
2245.141824  	0.007916 
2247.070640  	0.008729 
2248.999456  	0.008208 
2250.928272  	0.007984 
2252.857088  	0.007842 
2254.785904  	0.008045 
2256.714720  	0.008266 
2258.643536  	0.007865 
2260.572352  	0.007642 
2262.501168  	0.008259 
2264.429984  	0.008532 
2266.358800  	0.008541 
2268.287616  	0.008605 
2270.216432  	0.008709 
2272.145248  	0.008606 
2274.074064  	0.009031 
2276.002880  	0.009093 
2277.931696  	0.009116 
2279.860512  	0.009066 
2281.789328  	0.009415 
2283.718144  	0.009408 
2285.646960  	0.009416 
2287.575776  	0.009203 
2289.504592  	0.009228 
2291.433408  	0.009309 
2293.362224  	0.009586 
2295.291040  	0.009742 
2297.219856  	0.009904 
2299.148672  	0.009916 
2301.077488  	0.010229 
2303.006304  	0.010443 
2304.935120  	0.010606 
2306.863936  	0.010792 
2308.792752  	0.011216 
2310.721568  	0.011551 
2312.650384  	0.011792 
2314.579200  	0.011507 
2316.508016  	0.011517 
2318.436832  	0.011960 
2320.365648  	0.012629 
2322.294464  	0.013053 
2324.223280  	0.012985 
2326.152096  	0.011823 
2328.080912  	0.011629 
2330.009728  	0.011814 
2331.938544  	0.011767 
2333.867360  	0.011394 
2335.796176  	0.011252 
2337.724992  	0.011314 
2339.653808  	0.011495 
2341.582624  	0.011737 
2343.511440  	0.012121 
2345.440256  	0.012416 
2347.369072  	0.012125 
2349.297888  	0.011525 
2351.226704  	0.011521 
2353.155520  	0.011564 
2355.084336  	0.011832 
2357.013152  	0.011939 
2358.941968  	0.012183 
2360.870784  	0.013046 
2362.799600  	0.013971 
2364.728416  	0.013515 
2366.657232  	0.012976 
2368.586048  	0.013016 
2370.514864  	0.012875 
2372.443680  	0.012304 
2374.372496  	0.011920 
2376.301312  	0.011711 
2378.230128  	0.011384 
2380.158944  	0.010809 
2382.087760  	0.010322 
2384.016576  	0.009673 
2385.945392  	0.009274 
2387.874208  	0.009175 
2389.803024  	0.009222 
2391.731840  	0.009153 
2393.660656  	0.008997 
2395.589472  	0.008838 
2397.518288  	0.008886 
2399.447104  	0.009049 
2401.375920  	0.009384 
2403.304736  	0.009496 
2405.233552  	0.009536 
2407.162368  	0.009585 
2409.091184  	0.009723 
2411.020000  	0.009772 
2412.948816  	0.009816 
2414.877632  	0.009899 
2416.806448  	0.009965 
2418.735264  	0.009866 
2420.664080  	0.009931 
2422.592896  	0.010111 
2424.521712  	0.010356 
2426.450528  	0.010484 
2428.379344  	0.010576 
2430.308160  	0.010767 
2432.236976  	0.010928 
2434.165792  	0.010912 
2436.094608  	0.011091 
2438.023424  	0.010925 
2439.952240  	0.010842 
2441.881056  	0.011211 
2443.809872  	0.011442 
2445.738688  	0.011393 
2447.667504  	0.011760 
2449.596320  	0.011924 
2451.525136  	0.011913 
2453.453952  	0.011947 
2455.382768  	0.012145 
2457.311584  	0.012119 
2459.240400  	0.011951 
2461.169216  	0.011849 
2463.098032  	0.012101 
2465.026848  	0.012284 
2466.955664  	0.012286 
2468.884480  	0.012457 
2470.813296  	0.012622 
2472.742112  	0.012545 
2474.670928  	0.012762 
2476.599744  	0.012889 
2478.528560  	0.013096 
2480.457376  	0.013136 
2482.386192  	0.013040 
2484.315008  	0.012898 
2486.243824  	0.013200 
2488.172640  	0.013548 
2490.101456  	0.013856 
2492.030272  	0.013830 
2493.959088  	0.013677 
2495.887904  	0.013799 
2497.816720  	0.014163 
2499.745536  	0.014242 
2501.674352  	0.014271 
2503.603168  	0.014269 
2505.531984  	0.014174 
2507.460800  	0.014086 
2509.389616  	0.014262 
2511.318432  	0.014327 
2513.247248  	0.014430 
2515.176064  	0.014504 
2517.104880  	0.014871 
2519.033696  	0.015160 
2520.962512  	0.015005 
2522.891328  	0.014869 
2524.820144  	0.015235 
2526.748960  	0.015232 
2528.677776  	0.015234 
2530.606592  	0.015555 
2532.535408  	0.015717 
2534.464224  	0.015484 
2536.393040  	0.015536 
2538.321856  	0.015750 
2540.250672  	0.015743 
2542.179488  	0.015695 
2544.108304  	0.016001 
2546.037120  	0.016310 
2547.965936  	0.016547 
2549.894752  	0.016440 
2551.823568  	0.016477 
2553.752384  	0.016514 
2555.681200  	0.016605 
2557.610016  	0.016910 
2559.538832  	0.017003 
2561.467648  	0.016997 
2563.396464  	0.017053 
2565.325280  	0.017288 
2567.254096  	0.017752 
2569.182912  	0.018005 
2571.111728  	0.018153 
2573.040544  	0.018235 
2574.969360  	0.018468 
2576.898176  	0.018794 
2578.826992  	0.018900 
2580.755808  	0.018712 
2582.684624  	0.018804 
2584.613440  	0.019002 
2586.542256  	0.019143 
2588.471072  	0.019296 
2590.399888  	0.019480 
2592.328704  	0.019502 
2594.257520  	0.019864 
2596.186336  	0.020187 
2598.115152  	0.020178 
2600.043968  	0.019995 
2601.972784  	0.020060 
2603.901600  	0.020304 
2605.830416  	0.020615 
2607.759232  	0.020886 
2609.688048  	0.020885 
2611.616864  	0.020862 
2613.545680  	0.021123 
2615.474496  	0.021396 
2617.403312  	0.021522 
2619.332128  	0.021736 
2621.260944  	0.021821 
2623.189760  	0.021904 
2625.118576  	0.022142 
2627.047392  	0.022414 
2628.976208  	0.022627 
2630.905024  	0.022713 
2632.833840  	0.023120 
2634.762656  	0.023476 
2636.691472  	0.023627 
2638.620288  	0.023844 
2640.549104  	0.023972 
2642.477920  	0.024176 
2644.406736  	0.024511 
2646.335552  	0.024810 
2648.264368  	0.025054 
2650.193184  	0.025229 
2652.122000  	0.025422 
2654.050816  	0.025609 
2655.979632  	0.025876 
2657.908448  	0.026097 
2659.837264  	0.026260 
2661.766080  	0.026506 
2663.694896  	0.026607 
2665.623712  	0.026628 
2667.552528  	0.026931 
2669.481344  	0.027196 
2671.410160  	0.027466 
2673.338976  	0.027656 
2675.267792  	0.027790 
2677.196608  	0.028022 
2679.125424  	0.028223 
2681.054240  	0.028322 
2682.983056  	0.028471 
2684.911872  	0.028672 
2686.840688  	0.028837 
2688.769504  	0.029024 
2690.698320  	0.029260 
2692.627136  	0.029413 
2694.555952  	0.029642 
2696.484768  	0.029940 
2698.413584  	0.030150 
2700.342400  	0.030139 
2702.271216  	0.030389 
2704.200032  	0.030702 
2706.128848  	0.030909 
2708.057664  	0.031162 
2709.986480  	0.031419 
2711.915296  	0.031588 
2713.844112  	0.031858 
2715.772928  	0.032084 
2717.701744  	0.032202 
2719.630560  	0.032351 
2721.559376  	0.032609 
2723.488192  	0.032790 
2725.417008  	0.033041 
2727.345824  	0.033345 
2729.274640  	0.033500 
2731.203456  	0.033703 
2733.132272  	0.034086 
2735.061088  	0.034352 
2736.989904  	0.034514 
2738.918720  	0.034746 
2740.847536  	0.034963 
2742.776352  	0.035110 
2744.705168  	0.035200 
2746.633984  	0.035335 
2748.562800  	0.035564 
2750.491616  	0.035872 
2752.420432  	0.036036 
2754.349248  	0.036026 
2756.278064  	0.036026 
2758.206880  	0.036014 
2760.135696  	0.036068 
2762.064512  	0.036244 
2763.993328  	0.036355 
2765.922144  	0.036353 
2767.850960  	0.036490 
2769.779776  	0.036607 
2771.708592  	0.036608 
2773.637408  	0.036611 
2775.566224  	0.036590 
2777.495040  	0.036599 
2779.423856  	0.036664 
2781.352672  	0.036704 
2783.281488  	0.036810 
2785.210304  	0.036877 
2787.139120  	0.036935 
2789.067936  	0.037021 
2790.996752  	0.036999 
2792.925568  	0.036952 
2794.854384  	0.036940 
2796.783200  	0.036994 
2798.712016  	0.037224 
2800.640832  	0.037415 
2802.569648  	0.037564 
2804.498464  	0.037597 
2806.427280  	0.037646 
2808.356096  	0.037729 
2810.284912  	0.037802 
2812.213728  	0.037799 
2814.142544  	0.037947 
2816.071360  	0.038013 
2818.000176  	0.038161 
2819.928992  	0.038249 
2821.857808  	0.038388 
2823.786624  	0.038489 
2825.715440  	0.038490 
2827.644256  	0.038441 
2829.573072  	0.038382 
2831.501888  	0.038317 
2833.430704  	0.038255 
2835.359520  	0.038099 
2837.288336  	0.037923 
2839.217152  	0.037822 
2841.145968  	0.037796 
2843.074784  	0.037792 
2845.003600  	0.037752 
2846.932416  	0.037840 
2848.861232  	0.038057 
2850.790048  	0.038118 
2852.718864  	0.038017 
2854.647680  	0.037959 
2856.576496  	0.037935 
2858.505312  	0.037898 
2860.434128  	0.037926 
2862.362944  	0.037997 
2864.291760  	0.038054 
2866.220576  	0.038098 
2868.149392  	0.038354 
2870.078208  	0.038634 
2872.007024  	0.038978 
2873.935840  	0.039494 
2875.864656  	0.040050 
2877.793472  	0.040684 
2879.722288  	0.041200 
2881.651104  	0.041822 
2883.579920  	0.042386 
2885.508736  	0.042661 
2887.437552  	0.042975 
2889.366368  	0.043111 
2891.295184  	0.043111 
2893.224000  	0.043113 
2895.152816  	0.043113 
2897.081632  	0.042815 
2899.010448  	0.042465 
2900.939264  	0.042228 
2902.868080  	0.042485 
2904.796896  	0.042813 
2906.725712  	0.042977 
2908.654528  	0.043275 
2910.583344  	0.043849 
2912.512160  	0.044771 
2914.440976  	0.045733 
2916.369792  	0.046591 
2918.298608  	0.047287 
2920.227424  	0.047868 
2922.156240  	0.048601 
2924.085056  	0.049374 
2926.013872  	0.050183 
2927.942688  	0.051111 
2929.871504  	0.052121 
2931.800320  	0.052940 
2933.729136  	0.053862 
2935.657952  	0.054727 
2937.586768  	0.055325 
2939.515584  	0.055911 
2941.444400  	0.056428 
2943.373216  	0.056813 
2945.302032  	0.056901 
2947.230848  	0.056989 
2949.159664  	0.057043 
2951.088480  	0.056837 
2953.017296  	0.056584 
2954.946112  	0.056310 
2956.874928  	0.055962 
2958.803744  	0.055411 
2960.732560  	0.054820 
2962.661376  	0.054108 
2964.590192  	0.053532 
2966.519008  	0.052773 
2968.447824  	0.051882 
2970.376640  	0.051002 
2972.305456  	0.050399 
2974.234272  	0.049886 
2976.163088  	0.049272 
2978.091904  	0.048753 
2980.020720  	0.048426 
2981.949536  	0.048333 
2983.878352  	0.048379 
2985.807168  	0.048445 
2987.735984  	0.048490 
2989.664800  	0.048950 
2991.593616  	0.050009 
2993.522432  	0.050705 
2995.451248  	0.051256 
2997.380064  	0.052096 
2999.308880  	0.052758 
3001.237696  	0.053262 
3003.166512  	0.053876 
3005.095328  	0.054399 
3007.024144  	0.054875 
3008.952960  	0.055578 
3010.881776  	0.056262 
3012.810592  	0.056798 
3014.739408  	0.057418 
3016.668224  	0.057913 
3018.597040  	0.058376 
3020.525856  	0.058872 
3022.454672  	0.059541 
3024.383488  	0.060137 
3026.312304  	0.060592 
3028.241120  	0.061167 
3030.169936  	0.061754 
3032.098752  	0.062261 
3034.027568  	0.062801 
3035.956384  	0.063191 
3037.885200  	0.063662 
3039.814016  	0.064232 
3041.742832  	0.064707 
3043.671648  	0.065240 
3045.600464  	0.066101 
3047.529280  	0.066685 
3049.458096  	0.067109 
3051.386912  	0.067684 
3053.315728  	0.068145 
3055.244544  	0.068493 
3057.173360  	0.069248 
3059.102176  	0.070107 
3061.030992  	0.070970 
3062.959808  	0.071571 
3064.888624  	0.072292 
3066.817440  	0.073227 
3068.746256  	0.074047 
3070.675072  	0.074740 
3072.603888  	0.075513 
3074.532704  	0.076264 
3076.461520  	0.076930 
3078.390336  	0.077598 
3080.319152  	0.078428 
3082.247968  	0.079192 
3084.176784  	0.079803 
3086.105600  	0.080481 
3088.034416  	0.081295 
3089.963232  	0.082071 
3091.892048  	0.082862 
3093.820864  	0.083529 
3095.749680  	0.084294 
3097.678496  	0.085005 
3099.607312  	0.085868 
3101.536128  	0.086747 
3103.464944  	0.087466 
3105.393760  	0.088172 
3107.322576  	0.088730 
3109.251392  	0.089327 
3111.180208  	0.090024 
3113.109024  	0.090502 
3115.037840  	0.090875 
3116.966656  	0.091289 
3118.895472  	0.091881 
3120.824288  	0.092305 
3122.753104  	0.092671 
3124.681920  	0.092902 
3126.610736  	0.093343 
3128.539552  	0.094065 
3130.468368  	0.094421 
3132.397184  	0.094576 
3134.326000  	0.094815 
3136.254816  	0.095022 
3138.183632  	0.095400 
3140.112448  	0.095782 
3142.041264  	0.096170 
3143.970080  	0.096606 
3145.898896  	0.097031 
3147.827712  	0.097585 
3149.756528  	0.098105 
3151.685344  	0.098404 
3153.614160  	0.098698 
3155.542976  	0.098968 
3157.471792  	0.099336 
3159.400608  	0.099759 
3161.329424  	0.100244 
3163.258240  	0.100564 
3165.187056  	0.100771 
3167.115872  	0.101112 
3169.044688  	0.101636 
3170.973504  	0.102120 
3172.902320  	0.102091 
3174.831136  	0.101846 
3176.759952  	0.102098 
3178.688768  	0.102513 
3180.617584  	0.102549 
3182.546400  	0.102259 
3184.475216  	0.102145 
3186.404032  	0.102139 
3188.332848  	0.102036 
3190.261664  	0.101813 
3192.190480  	0.101703 
3194.119296  	0.101463 
3196.048112  	0.101067 
3197.976928  	0.100829 
3199.905744  	0.100568 
3201.834560  	0.100075 
3203.763376  	0.099712 
3205.692192  	0.099320 
3207.621008  	0.098863 
3209.549824  	0.098590 
3211.478640  	0.098318 
3213.407456  	0.097893 
3215.336272  	0.097671 
3217.265088  	0.097146 
3219.193904  	0.096926 
3221.122720  	0.096869 
3223.051536  	0.096523 
3224.980352  	0.095942 
3226.909168  	0.095307 
3228.837984  	0.094792 
3230.766800  	0.094626 
3232.695616  	0.094279 
3234.624432  	0.093834 
3236.553248  	0.093498 
3238.482064  	0.093564 
3240.410880  	0.093735 
3242.339696  	0.093573 
3244.268512  	0.093547 
3246.197328  	0.093799 
3248.126144  	0.093638 
3250.054960  	0.093685 
3251.983776  	0.093715 
3253.912592  	0.093846 
3255.841408  	0.094087 
3257.770224  	0.094339 
3259.699040  	0.094657 
3261.627856  	0.094884 
3263.556672  	0.094744 
3265.485488  	0.094773 
3267.414304  	0.095041 
3269.343120  	0.095298 
3271.271936  	0.095256 
3273.200752  	0.095287 
3275.129568  	0.095711 
3277.058384  	0.095997 
3278.987200  	0.096094 
3280.916016  	0.096228 
3282.844832  	0.096391 
3284.773648  	0.096367 
3286.702464  	0.096197 
3288.631280  	0.096484 
3290.560096  	0.097061 
3292.488912  	0.097516 
3294.417728  	0.097668 
3296.346544  	0.097847 
3298.275360  	0.098348 
3300.204176  	0.098697 
3302.132992  	0.099155 
3304.061808  	0.099535 
3305.990624  	0.099566 
3307.919440  	0.099693 
3309.848256  	0.100091 
3311.777072  	0.100611 
3313.705888  	0.100872 
3315.634704  	0.100977 
3317.563520  	0.101295 
3319.492336  	0.101624 
3321.421152  	0.101878 
3323.349968  	0.102071 
3325.278784  	0.102205 
3327.207600  	0.102495 
3329.136416  	0.102565 
3331.065232  	0.102520 
3332.994048  	0.102453 
3334.922864  	0.102565 
3336.851680  	0.102681 
3338.780496  	0.102420 
3340.709312  	0.102105 
3342.638128  	0.102040 
3344.566944  	0.101708 
3346.495760  	0.101229 
3348.424576  	0.100769 
3350.353392  	0.100663 
3352.282208  	0.100286 
3354.211024  	0.099613 
3356.139840  	0.099152 
3358.068656  	0.098906 
3359.997472  	0.098357 
3361.926288  	0.097845 
3363.855104  	0.097268 
3365.783920  	0.097188 
3367.712736  	0.096822 
3369.641552  	0.096191 
3371.570368  	0.095834 
3373.499184  	0.095357 
3375.428000  	0.094781 
3377.356816  	0.094368 
3379.285632  	0.094059 
3381.214448  	0.093671 
3383.143264  	0.093262 
3385.072080  	0.092970 
3387.000896  	0.092520 
3388.929712  	0.091853 
3390.858528  	0.091041 
3392.787344  	0.090639 
3394.716160  	0.090357 
3396.644976  	0.090136 
3398.573792  	0.089941 
3400.502608  	0.089373 
3402.431424  	0.088866 
3404.360240  	0.088330 
3406.289056  	0.087769 
3408.217872  	0.087362 
3410.146688  	0.086789 
3412.075504  	0.086214 
3414.004320  	0.085701 
3415.933136  	0.085336 
3417.861952  	0.084789 
3419.790768  	0.084443 
3421.719584  	0.084316 
3423.648400  	0.083704 
3425.577216  	0.082842 
3427.506032  	0.082240 
3429.434848  	0.081671 
3431.363664  	0.081078 
3433.292480  	0.080523 
3435.221296  	0.079889 
3437.150112  	0.079222 
3439.078928  	0.078664 
3441.007744  	0.078009 
3442.936560  	0.077570 
3444.865376  	0.076973 
3446.794192  	0.076526 
3448.723008  	0.076347 
3450.651824  	0.075115 
3452.580640  	0.074032 
3454.509456  	0.073552 
3456.438272  	0.072964 
3458.367088  	0.072041 
3460.295904  	0.071329 
3462.224720  	0.070867 
3464.153536  	0.070089 
3466.082352  	0.069258 
3468.011168  	0.068529 
3469.939984  	0.067587 
3471.868800  	0.066453 
3473.797616  	0.065471 
3475.726432  	0.064986 
3477.655248  	0.064289 
3479.584064  	0.063342 
3481.512880  	0.062669 
3483.441696  	0.061989 
3485.370512  	0.060882 
3487.299328  	0.060158 
3489.228144  	0.059773 
3491.156960  	0.058726 
3493.085776  	0.057408 
3495.014592  	0.056522 
3496.943408  	0.056094 
3498.872224  	0.055082 
3500.801040  	0.053742 
3502.729856  	0.053547 
3504.658672  	0.053655 
3506.587488  	0.052464 
3508.516304  	0.051449 
3510.445120  	0.051113 
3512.373936  	0.050289 
3514.302752  	0.049340 
3516.231568  	0.048610 
3518.160384  	0.047975 
3520.089200  	0.046983 
3522.018016  	0.045801 
3523.946832  	0.045640 
3525.875648  	0.045198 
3527.804464  	0.044627 
3529.733280  	0.044382 
3531.662096  	0.043932 
3533.590912  	0.042839 
3535.519728  	0.042177 
3537.448544  	0.042056 
3539.377360  	0.041210 
3541.306176  	0.040137 
3543.234992  	0.039341 
3545.163808  	0.039231 
3547.092624  	0.039448 
3549.021440  	0.038457 
3550.950256  	0.037122 
3552.879072  	0.037253 
3554.807888  	0.036746 
3556.736704  	0.035667 
3558.665520  	0.034933 
3560.594336  	0.034197 
3562.523152  	0.032979 
3564.451968  	0.031724 
3566.380784  	0.032160 
3568.309600  	0.033342 
3570.238416  	0.031812 
3572.167232  	0.030199 
3574.096048  	0.029399 
3576.024864  	0.028850 
3577.953680  	0.028294 
3579.882496  	0.027582 
3581.811312  	0.026605 
3583.740128  	0.025134 
3585.668944  	0.024041 
3587.597760  	0.024960 
3589.526576  	0.024764 
3591.455392  	0.022362 
3593.384208  	0.021422 
3595.313024  	0.021687 
3597.241840  	0.020845 
3599.170656  	0.019610 
3601.099472  	0.019350 
3603.028288  	0.018479 
3604.957104  	0.016784 
3606.885920  	0.015736 
3608.814736  	0.015875 
3610.743552  	0.014471 
3612.672368  	0.013470 
3614.601184  	0.013072 
3616.530000  	0.011260 
3618.458816  	0.010743 
3620.387632  	0.011392 
3622.316448  	0.010260 
3624.245264  	0.008435 
3626.174080  	0.006089 
3628.102896  	0.005858 
3630.031712  	0.007901 
3631.960528  	0.006207 
3633.889344  	0.005542 
3635.818160  	0.004663 
3637.746976  	0.003366 
3639.675792  	0.002468 
3641.604608  	0.001530 
3643.533424  	0.000519 
3645.462240  	-0.001197 
3647.391056  	-0.002220 
3649.319872  	-0.001286 
3651.248688  	-0.000032 
3653.177504  	-0.002240 
3655.106320  	-0.003314 
3657.035136  	-0.002620 
3658.963952  	-0.003163 
3660.892768  	-0.003801 
3662.821584  	-0.004590 
3664.750400  	-0.005309 
3666.679216  	-0.006227 
3668.608032  	-0.006862 
3670.536848  	-0.005399 
3672.465664  	-0.006881 
3674.394480  	-0.007584 
3676.323296  	-0.005218 
3678.252112  	-0.006088 
3680.180928  	-0.006179 
3682.109744  	-0.006387 
3684.038560  	-0.006845 
3685.967376  	-0.007748 
3687.896192  	-0.007997 
3689.825008  	-0.007163 
3691.753824  	-0.006519 
3693.682640  	-0.006542 
3695.611456  	-0.006553 
3697.540272  	-0.006475 
3699.469088  	-0.007031 
3701.397904  	-0.006639 
3703.326720  	-0.006122 
3705.255536  	-0.006519 
3707.184352  	-0.006984 
3709.113168  	-0.007356 
3711.041984  	-0.006708 
3712.970800  	-0.005596 
3714.899616  	-0.006153 
3716.828432  	-0.006713 
3718.757248  	-0.006447 
3720.686064  	-0.006582 
3722.614880  	-0.006617 
3724.543696  	-0.006526 
3726.472512  	-0.006225 
3728.401328  	-0.006637 
3730.330144  	-0.007520 
3732.258960  	-0.007412 
3734.187776  	-0.006655 
3736.116592  	-0.005257 
3738.045408  	-0.005864 
3739.974224  	-0.006694 
3741.903040  	-0.007790 
3743.831856  	-0.007076 
3745.760672  	-0.006289 
3747.689488  	-0.007864 
3749.618304  	-0.007320 
3751.547120  	-0.005846 
3753.475936  	-0.006041 
3755.404752  	-0.007140 
3757.333568  	-0.007072 
3759.262384  	-0.006206 
3761.191200  	-0.005973 
3763.120016  	-0.006739 
3765.048832  	-0.006354 
3766.977648  	-0.006541 
3768.906464  	-0.006596 
3770.835280  	-0.005818 
3772.764096  	-0.006214 
3774.692912  	-0.006706 
3776.621728  	-0.007226 
3778.550544  	-0.006958 
3780.479360  	-0.006197 
3782.408176  	-0.006654 
3784.336992  	-0.006432 
3786.265808  	-0.006069 
3788.194624  	-0.006235 
3790.123440  	-0.006532 
3792.052256  	-0.006800 
3793.981072  	-0.007160 
3795.909888  	-0.006763 
3797.838704  	-0.006898 
3799.767520  	-0.007385 
3801.696336  	-0.005901 
3803.625152  	-0.006650 
3805.553968  	-0.007321 
3807.482784  	-0.006194 
3809.411600  	-0.006570 
3811.340416  	-0.006875 
3813.269232  	-0.007579 
3815.198048  	-0.007454 
3817.126864  	-0.006937 
3819.055680  	-0.008026 
3820.984496  	-0.006359 
3822.913312  	-0.005982 
3824.842128  	-0.007000 
3826.770944  	-0.006900 
3828.699760  	-0.007295 
3830.628576  	-0.007423 
3832.557392  	-0.007395 
3834.486208  	-0.007696 
3836.415024  	-0.007620 
3838.343840  	-0.006934 
3840.272656  	-0.006650 
3842.201472  	-0.006664 
3844.130288  	-0.006250 
3846.059104  	-0.006682 
3847.987920  	-0.007496 
3849.916736  	-0.008481 
3851.845552  	-0.008549 
3853.774368  	-0.005771 
3855.703184  	-0.006112 
3857.632000  	-0.006701 
3859.560816  	-0.007165 
3861.489632  	-0.007209 
3863.418448  	-0.006811 
3865.347264  	-0.005957 
3867.276080  	-0.007214 
3869.204896  	-0.007107 
3871.133712  	-0.006415 
3873.062528  	-0.006996 
3874.991344  	-0.006467 
3876.920160  	-0.007305 
3878.848976  	-0.007305 
3880.777792  	-0.006511 
3882.706608  	-0.007164 
3884.635424  	-0.006933 
3886.564240  	-0.005895 
3888.493056  	-0.007112 
3890.421872  	-0.007038 
3892.350688  	-0.006436 
3894.279504  	-0.006932 
3896.208320  	-0.007544 
3898.137136  	-0.007492 
3900.065952  	-0.007055 
3901.994768  	-0.006929 
3903.923584  	-0.006238 
3905.852400  	-0.006092 
3907.781216  	-0.006665 
3909.710032  	-0.006921 
3911.638848  	-0.006854 
3913.567664  	-0.006947 
3915.496480  	-0.006903 
3917.425296  	-0.006434 
3919.354112  	-0.006584 
3921.282928  	-0.006952 
3923.211744  	-0.006915 
3925.140560  	-0.006384 
3927.069376  	-0.006770 
3928.998192  	-0.007048 
3930.927008  	-0.006845 
3932.855824  	-0.006392 
3934.784640  	-0.006516 
3936.713456  	-0.006646 
3938.642272  	-0.006747 
3940.571088  	-0.006963 
3942.499904  	-0.006352 
3944.428720  	-0.006407 
3946.357536  	-0.006933 
3948.286352  	-0.006750 
3950.215168  	-0.006541 
3952.143984  	-0.006755 
3954.072800  	-0.006879 
3956.001616  	-0.006821 
3957.930432  	-0.006712 
3959.859248  	-0.006705 
3961.788064  	-0.006489 
3963.716880  	-0.006325 
3965.645696  	-0.006538 
3967.574512  	-0.006848 
3969.503328  	-0.006820 
3971.432144  	-0.006711 
3973.360960  	-0.006627 
3975.289776  	-0.006559 
3977.218592  	-0.006570 
3979.147408  	-0.006548 
3981.076224  	-0.006691 
3983.005040  	-0.006665 
3984.933856  	-0.006554 
3986.862672  	-0.006784 
3988.791488  	-0.006887 
3990.720304  	-0.006885 
3992.649120  	-0.006837 
3994.577936  	-0.006702 
3996.506752  	-0.006785 
3998.435568  	-0.006899 
4000.364384  	-0.006952 