##TITLE=No Description
##DATA TYPE=INFRARED SPECTRUM
##XUNITS=1/CM
##YUNITS=Abs
399.264912  	0.523401 
401.193728  	0.517018 
403.122544  	0.528231 
405.051360  	0.524837 
406.980176  	0.521457 
408.908992  	0.520797 
410.837808  	0.534117 
412.766624  	0.521881 
414.695440  	0.507985 
416.624256  	0.500482 
418.553072  	0.499395 
420.481888  	0.510357 
422.410704  	0.521225 
424.339520  	0.502404 
426.268336  	0.512992 
428.197152  	0.518633 
430.125968  	0.505551 
432.054784  	0.494100 
433.983600  	0.495307 
435.912416  	0.492698 
437.841232  	0.495766 
439.770048  	0.493481 
441.698864  	0.492100 
443.627680  	0.488852 
445.556496  	0.486084 
447.485312  	0.482599 
449.414128  	0.486476 
451.342944  	0.488973 
453.271760  	0.488934 
455.200576  	0.487065 
457.129392  	0.497191 
459.058208  	0.495108 
460.987024  	0.491705 
462.915840  	0.491068 
464.844656  	0.494988 
466.773472  	0.495351 
468.702288  	0.499371 
470.631104  	0.496169 
472.559920  	0.494059 
474.488736  	0.490552 
476.417552  	0.491806 
478.346368  	0.489650 
480.275184  	0.493641 
482.204000  	0.494756 
484.132816  	0.497820 
486.061632  	0.496567 
487.990448  	0.495128 
489.919264  	0.493003 
491.848080  	0.496002 
493.776896  	0.494591 
495.705712  	0.491102 
497.634528  	0.487273 
499.563344  	0.485821 
501.492160  	0.481111 
503.420976  	0.477120 
505.349792  	0.474947 
507.278608  	0.479607 
509.207424  	0.483316 
511.136240  	0.486546 
513.065056  	0.484938 
514.993872  	0.487690 
516.922688  	0.490570 
518.851504  	0.494423 
520.780320  	0.493054 
522.709136  	0.494256 
524.637952  	0.493161 
526.566768  	0.492126 
528.495584  	0.489083 
530.424400  	0.484565 
532.353216  	0.478806 
534.282032  	0.472490 
536.210848  	0.464855 
538.139664  	0.458404 
540.068480  	0.451741 
541.997296  	0.446225 
543.926112  	0.441341 
545.854928  	0.440586 
547.783744  	0.438593 
549.712560  	0.436047 
551.641376  	0.432070 
553.570192  	0.429532 
555.499008  	0.425242 
557.427824  	0.423444 
559.356640  	0.419892 
561.285456  	0.416085 
563.214272  	0.412048 
565.143088  	0.408650 
567.071904  	0.403810 
569.000720  	0.399593 
570.929536  	0.395102 
572.858352  	0.392498 
574.787168  	0.389192 
576.715984  	0.386469 
578.644800  	0.383277 
580.573616  	0.378706 
582.502432  	0.372301 
584.431248  	0.366361 
586.360064  	0.361199 
588.288880  	0.358648 
590.217696  	0.356890 
592.146512  	0.354950 
594.075328  	0.353735 
596.004144  	0.352738 
597.932960  	0.352034 
599.861776  	0.350236 
601.790592  	0.347543 
603.719408  	0.347266 
605.648224  	0.347024 
607.577040  	0.345911 
609.505856  	0.344437 
611.434672  	0.343632 
613.363488  	0.341711 
615.292304  	0.340866 
617.221120  	0.339359 
619.149936  	0.338338 
621.078752  	0.337251 
623.007568  	0.337623 
624.936384  	0.337793 
626.865200  	0.336990 
628.794016  	0.336539 
630.722832  	0.336453 
632.651648  	0.336600 
634.580464  	0.337700 
636.509280  	0.338923 
638.438096  	0.339094 
640.366912  	0.339555 
642.295728  	0.338735 
644.224544  	0.335806 
646.153360  	0.332314 
648.082176  	0.327588 
650.010992  	0.323739 
651.939808  	0.320136 
653.868624  	0.317301 
655.797440  	0.312966 
657.726256  	0.309507 
659.655072  	0.305611 
661.583888  	0.301602 
663.512704  	0.296908 
665.441520  	0.291710 
667.370336  	0.285872 
669.299152  	0.280355 
671.227968  	0.276342 
673.156784  	0.272986 
675.085600  	0.269881 
677.014416  	0.267277 
678.943232  	0.265780 
680.872048  	0.264730 
682.800864  	0.262749 
684.729680  	0.261478 
686.658496  	0.260515 
688.587312  	0.259744 
690.516128  	0.258331 
692.444944  	0.257395 
694.373760  	0.257260 
696.302576  	0.256915 
698.231392  	0.254896 
700.160208  	0.252651 
702.089024  	0.250150 
704.017840  	0.247789 
705.946656  	0.245086 
707.875472  	0.243020 
709.804288  	0.241433 
711.733104  	0.240362 
713.661920  	0.238930 
715.590736  	0.238120 
717.519552  	0.238554 
719.448368  	0.239930 
721.377184  	0.242073 
723.306000  	0.244175 
725.234816  	0.245346 
727.163632  	0.244290 
729.092448  	0.240821 
731.021264  	0.236197 
732.950080  	0.232070 
734.878896  	0.228759 
736.807712  	0.225611 
738.736528  	0.223101 
740.665344  	0.220660 
742.594160  	0.219508 
744.522976  	0.218558 
746.451792  	0.218072 
748.380608  	0.216688 
750.309424  	0.215803 
752.238240  	0.215321 
754.167056  	0.215499 
756.095872  	0.214939 
758.024688  	0.214132 
759.953504  	0.214726 
761.882320  	0.216392 
763.811136  	0.217941 
765.739952  	0.216005 
767.668768  	0.212040 
769.597584  	0.208866 
771.526400  	0.208881 
773.455216  	0.212183 
775.384032  	0.218858 
777.312848  	0.227856 
779.241664  	0.233036 
781.170480  	0.231373 
783.099296  	0.224307 
785.028112  	0.216798 
786.956928  	0.210181 
788.885744  	0.204497 
790.814560  	0.200165 
792.743376  	0.198911 
794.672192  	0.198893 
796.601008  	0.197577 
798.529824  	0.193702 
800.458640  	0.188932 
802.387456  	0.185719 
804.316272  	0.184678 
806.245088  	0.184219 
808.173904  	0.184205 
810.102720  	0.184678 
812.031536  	0.185498 
813.960352  	0.187046 
815.889168  	0.189279 
817.817984  	0.191478 
819.746800  	0.193822 
821.675616  	0.196770 
823.604432  	0.199216 
825.533248  	0.201203 
827.462064  	0.203032 
829.390880  	0.204057 
831.319696  	0.204591 
833.248512  	0.203506 
835.177328  	0.201476 
837.106144  	0.198354 
839.034960  	0.194480 
840.963776  	0.189634 
842.892592  	0.184706 
844.821408  	0.179450 
846.750224  	0.174748 
848.679040  	0.171385 
850.607856  	0.168944 
852.536672  	0.167740 
854.465488  	0.166932 
856.394304  	0.166606 
858.323120  	0.166169 
860.251936  	0.165283 
862.180752  	0.163866 
864.109568  	0.161956 
866.038384  	0.160169 
867.967200  	0.158228 
869.896016  	0.156757 
871.824832  	0.155824 
873.753648  	0.156238 
875.682464  	0.157706 
877.611280  	0.160840 
879.540096  	0.165288 
881.468912  	0.170618 
883.397728  	0.175734 
885.326544  	0.180044 
887.255360  	0.182942 
889.184176  	0.184062 
891.112992  	0.183592 
893.041808  	0.181978 
894.970624  	0.178702 
896.899440  	0.173570 
898.828256  	0.167129 
900.757072  	0.160758 
902.685888  	0.155201 
904.614704  	0.152412 
906.543520  	0.153179 
908.472336  	0.156460 
910.401152  	0.160687 
912.329968  	0.165276 
914.258784  	0.169795 
916.187600  	0.173556 
918.116416  	0.176682 
920.045232  	0.179304 
921.974048  	0.181280 
923.902864  	0.183245 
925.831680  	0.185086 
927.760496  	0.187377 
929.689312  	0.190052 
931.618128  	0.192802 
933.546944  	0.194595 
935.475760  	0.195232 
937.404576  	0.194755 
939.333392  	0.193353 
941.262208  	0.192174 
943.191024  	0.193154 
945.119840  	0.197592 
947.048656  	0.205777 
948.977472  	0.218418 
950.906288  	0.235253 
952.835104  	0.255712 
954.763920  	0.278376 
956.692736  	0.300531 
958.621552  	0.319704 
960.550368  	0.332094 
962.479184  	0.337672 
964.408000  	0.335468 
966.336816  	0.326353 
968.265632  	0.310286 
970.194448  	0.290266 
972.123264  	0.268303 
974.052080  	0.246308 
975.980896  	0.225097 
977.909712  	0.205753 
979.838528  	0.188928 
981.767344  	0.175293 
983.696160  	0.165258 
985.624976  	0.159035 
987.553792  	0.157566 
989.482608  	0.160448 
991.411424  	0.167035 
993.340240  	0.176431 
995.269056  	0.187099 
997.197872  	0.198297 
999.126688  	0.209219 
1001.055504  	0.220600 
1002.984320  	0.232097 
1004.913136  	0.243657 
1006.841952  	0.254705 
1008.770768  	0.264927 
1010.699584  	0.273128 
1012.628400  	0.279048 
1014.557216  	0.282401 
1016.486032  	0.283688 
1018.414848  	0.283205 
1020.343664  	0.282226 
1022.272480  	0.281304 
1024.201296  	0.281239 
1026.130112  	0.281090 
1028.058928  	0.282342 
1029.987744  	0.285845 
1031.916560  	0.291067 
1033.845376  	0.297259 
1035.774192  	0.305385 
1037.703008  	0.316277 
1039.631824  	0.331007 
1041.560640  	0.350547 
1043.489456  	0.375665 
1045.418272  	0.401836 
1047.347088  	0.424426 
1049.275904  	0.436984 
1051.204720  	0.439581 
1053.133536  	0.434084 
1055.062352  	0.425428 
1056.991168  	0.415589 
1058.919984  	0.408431 
1060.848800  	0.403231 
1062.777616  	0.399793 
1064.706432  	0.395492 
1066.635248  	0.390543 
1068.564064  	0.383407 
1070.492880  	0.374854 
1072.421696  	0.366300 
1074.350512  	0.362067 
1076.279328  	0.363291 
1078.208144  	0.369685 
1080.136960  	0.376558 
1082.065776  	0.380028 
1083.994592  	0.376039 
1085.923408  	0.365854 
1087.852224  	0.350564 
1089.781040  	0.333395 
1091.709856  	0.314772 
1093.638672  	0.295703 
1095.567488  	0.275931 
1097.496304  	0.257301 
1099.425120  	0.239057 
1101.353936  	0.222168 
1103.282752  	0.206674 
1105.211568  	0.193077 
1107.140384  	0.180900 
1109.069200  	0.170203 
1110.998016  	0.160532 
1112.926832  	0.151446 
1114.855648  	0.142905 
1116.784464  	0.134941 
1118.713280  	0.127107 
1120.642096  	0.119124 
1122.570912  	0.111851 
1124.499728  	0.105595 
1126.428544  	0.100102 
1128.357360  	0.095474 
1130.286176  	0.091653 
1132.214992  	0.088891 
1134.143808  	0.086666 
1136.072624  	0.084871 
1138.001440  	0.083282 
1139.930256  	0.082084 
1141.859072  	0.080553 
1143.787888  	0.078535 
1145.716704  	0.076575 
1147.645520  	0.074939 
1149.574336  	0.073873 
1151.503152  	0.073506 
1153.431968  	0.073928 
1155.360784  	0.074729 
1157.289600  	0.076287 
1159.218416  	0.078360 
1161.147232  	0.081132 
1163.076048  	0.084250 
1165.004864  	0.087090 
1166.933680  	0.089829 
1168.862496  	0.092729 
1170.791312  	0.096137 
1172.720128  	0.099781 
1174.648944  	0.104067 
1176.577760  	0.108820 
1178.506576  	0.113438 
1180.435392  	0.117950 
1182.364208  	0.122800 
1184.293024  	0.128172 
1186.221840  	0.134195 
1188.150656  	0.141384 
1190.079472  	0.149789 
1192.008288  	0.159556 
1193.937104  	0.170356 
1195.865920  	0.182233 
1197.794736  	0.195513 
1199.723552  	0.208972 
1201.652368  	0.222399 
1203.581184  	0.234878 
1205.510000  	0.245954 
1207.438816  	0.255457 
1209.367632  	0.263405 
1211.296448  	0.268705 
1213.225264  	0.272266 
1215.154080  	0.273511 
1217.082896  	0.273346 
1219.011712  	0.271312 
1220.940528  	0.268887 
1222.869344  	0.264950 
1224.798160  	0.260277 
1226.726976  	0.254396 
1228.655792  	0.248381 
1230.584608  	0.241481 
1232.513424  	0.234014 
1234.442240  	0.225670 
1236.371056  	0.217173 
1238.299872  	0.208383 
1240.228688  	0.199008 
1242.157504  	0.189686 
1244.086320  	0.180712 
1246.015136  	0.171595 
1247.943952  	0.162770 
1249.872768  	0.154494 
1251.801584  	0.146712 
1253.730400  	0.138854 
1255.659216  	0.131590 
1257.588032  	0.124837 
1259.516848  	0.118525 
1261.445664  	0.112476 
1263.374480  	0.107136 
1265.303296  	0.102692 
1267.232112  	0.099199 
1269.160928  	0.096688 
1271.089744  	0.095290 
1273.018560  	0.095039 
1274.947376  	0.095763 
1276.876192  	0.097099 
1278.805008  	0.098256 
1280.733824  	0.098367 
1282.662640  	0.096948 
1284.591456  	0.094792 
1286.520272  	0.092816 
1288.449088  	0.091942 
1290.377904  	0.092759 
1292.306720  	0.094727 
1294.235536  	0.096171 
1296.164352  	0.095939 
1298.093168  	0.093759 
1300.021984  	0.090215 
1301.950800  	0.086404 
1303.879616  	0.082432 
1305.808432  	0.077885 
1307.737248  	0.072826 
1309.666064  	0.068079 
1311.594880  	0.064196 
1313.523696  	0.061561 
1315.452512  	0.059891 
1317.381328  	0.059125 
1319.310144  	0.059434 
1321.238960  	0.060202 
1323.167776  	0.061412 
1325.096592  	0.062758 
1327.025408  	0.063654 
1328.954224  	0.063679 
1330.883040  	0.062723 
1332.811856  	0.061168 
1334.740672  	0.059614 
1336.669488  	0.058554 
1338.598304  	0.058481 
1340.527120  	0.059117 
1342.455936  	0.059121 
1344.384752  	0.059252 
1346.313568  	0.059799 
1348.242384  	0.060882 
1350.171200  	0.062559 
1352.100016  	0.064517 
1354.028832  	0.066711 
1355.957648  	0.069301 
1357.886464  	0.071426 
1359.815280  	0.073385 
1361.744096  	0.076294 
1363.672912  	0.080375 
1365.601728  	0.082654 
1367.530544  	0.084675 
1369.459360  	0.087220 
1371.388176  	0.088023 
1373.316992  	0.087444 
1375.245808  	0.085919 
1377.174624  	0.082476 
1379.103440  	0.078946 
1381.032256  	0.075575 
1382.961072  	0.072989 
1384.889888  	0.070751 
1386.818704  	0.069643 
1388.747520  	0.068381 
1390.676336  	0.065589 
1392.605152  	0.062554 
1394.533968  	0.061580 
1396.462784  	0.062096 
1398.391600  	0.062142 
1400.320416  	0.063236 
1402.249232  	0.062727 
1404.178048  	0.063318 
1406.106864  	0.064843 
1408.035680  	0.065805 
1409.964496  	0.067160 
1411.893312  	0.069732 
1413.822128  	0.072044 
1415.750944  	0.073835 
1417.679760  	0.075753 
1419.608576  	0.079563 
1421.537392  	0.079550 
1423.466208  	0.078455 
1425.395024  	0.077241 
1427.323840  	0.074012 
1429.252656  	0.071181 
1431.181472  	0.069387 
1433.110288  	0.068090 
1435.039104  	0.067826 
1436.967920  	0.072357 
1438.896736  	0.075124 
1440.825552  	0.075686 
1442.754368  	0.076783 
1444.683184  	0.077016 
1446.612000  	0.077064 
1448.540816  	0.078201 
1450.469632  	0.078314 
1452.398448  	0.078027 
1454.327264  	0.077264 
1456.256080  	0.077370 
1458.184896  	0.080946 
1460.113712  	0.079668 
1462.042528  	0.077437 
1463.971344  	0.076738 
1465.900160  	0.078323 
1467.828976  	0.077976 
1469.757792  	0.077911 
1471.686608  	0.081029 
1473.615424  	0.090344 
1475.544240  	0.095856 
1477.473056  	0.102297 
1479.401872  	0.106252 
1481.330688  	0.110736 
1483.259504  	0.114241 
1485.188320  	0.116044 
1487.117136  	0.117396 
1489.045952  	0.118979 
1490.974768  	0.118670 
1492.903584  	0.114736 
1494.832400  	0.108935 
1496.761216  	0.102778 
1498.690032  	0.095414 
1500.618848  	0.088340 
1502.547664  	0.081160 
1504.476480  	0.074870 
1506.405296  	0.072123 
1508.334112  	0.072081 
1510.262928  	0.068269 
1512.191744  	0.066082 
1514.120560  	0.064532 
1516.049376  	0.064604 
1517.978192  	0.067285 
1519.907008  	0.067909 
1521.835824  	0.075382 
1523.764640  	0.079772 
1525.693456  	0.082520 
1527.622272  	0.085318 
1529.551088  	0.084622 
1531.479904  	0.081139 
1533.408720  	0.078261 
1535.337536  	0.074009 
1537.266352  	0.068086 
1539.195168  	0.064446 
1541.123984  	0.064367 
1543.052800  	0.062155 
1544.981616  	0.060540 
1546.910432  	0.058979 
1548.839248  	0.057410 
1550.768064  	0.058504 
1552.696880  	0.057750 
1554.625696  	0.058994 
1556.554512  	0.058055 
1558.483328  	0.062195 
1560.412144  	0.073538 
1562.340960  	0.072337 
1564.269776  	0.074219 
1566.198592  	0.079254 
1568.127408  	0.082181 
1570.056224  	0.091628 
1571.985040  	0.097034 
1573.913856  	0.099066 
1575.842672  	0.103842 
1577.771488  	0.109088 
1579.700304  	0.107255 
1581.629120  	0.106224 
1583.557936  	0.105458 
1585.486752  	0.106591 
1587.415568  	0.109360 
1589.344384  	0.114907 
1591.273200  	0.121891 
1593.202016  	0.130592 
1595.130832  	0.139883 
1597.059648  	0.149669 
1598.988464  	0.157508 
1600.917280  	0.164909 
1602.846096  	0.170205 
1604.774912  	0.173760 
1606.703728  	0.174006 
1608.632544  	0.173370 
1610.561360  	0.170654 
1612.490176  	0.167816 
1614.418992  	0.163858 
1616.347808  	0.164638 
1618.276624  	0.167498 
1620.205440  	0.167763 
1622.134256  	0.169770 
1624.063072  	0.178900 
1625.991888  	0.184150 
1627.920704  	0.192450 
1629.849520  	0.201837 
1631.778336  	0.208659 
1633.707152  	0.213560 
1635.635968  	0.225559 
1637.564784  	0.236143 
1639.493600  	0.238485 
1641.422416  	0.240581 
1643.351232  	0.241821 
1645.280048  	0.241438 
1647.208864  	0.245742 
1649.137680  	0.244744 
1651.066496  	0.239700 
1652.995312  	0.240021 
1654.924128  	0.242506 
1656.852944  	0.236391 
1658.781760  	0.231946 
1660.710576  	0.227339 
1662.639392  	0.223540 
1664.568208  	0.218333 
1666.497024  	0.211434 
1668.425840  	0.204916 
1670.354656  	0.199650 
1672.283472  	0.193146 
1674.212288  	0.186738 
1676.141104  	0.182626 
1678.069920  	0.177657 
1679.998736  	0.173602 
1681.927552  	0.170056 
1683.856368  	0.170175 
1685.785184  	0.173242 
1687.714000  	0.170153 
1689.642816  	0.169756 
1691.571632  	0.168804 
1693.500448  	0.166235 
1695.429264  	0.165633 
1697.358080  	0.166839 
1699.286896  	0.164733 
1701.215712  	0.168136 
1703.144528  	0.165129 
1705.073344  	0.163041 
1707.002160  	0.160824 
1708.930976  	0.156268 
1710.859792  	0.150057 
1712.788608  	0.142609 
1714.717424  	0.133348 
1716.646240  	0.123135 
1718.575056  	0.110722 
1720.503872  	0.097916 
1722.432688  	0.086531 
1724.361504  	0.075018 
1726.290320  	0.064998 
1728.219136  	0.056163 
1730.147952  	0.048894 
1732.076768  	0.042294 
1734.005584  	0.039737 
1735.934400  	0.036460 
1737.863216  	0.032118 
1739.792032  	0.030205 
1741.720848  	0.028453 
1743.649664  	0.026497 
1745.578480  	0.024829 
1747.507296  	0.023188 
1749.436112  	0.022872 
1751.364928  	0.023015 
1753.293744  	0.021999 
1755.222560  	0.020073 
1757.151376  	0.020619 
1759.080192  	0.019461 
1761.009008  	0.018967 
1762.937824  	0.019463 
1764.866640  	0.018214 
1766.795456  	0.016810 
1768.724272  	0.016926 
1770.653088  	0.015596 
1772.581904  	0.017505 
1774.510720  	0.017538 
1776.439536  	0.016705 
1778.368352  	0.015702 
1780.297168  	0.015723 
1782.225984  	0.015565 
1784.154800  	0.015368 
1786.083616  	0.015505 
1788.012432  	0.014723 
1789.941248  	0.013806 
1791.870064  	0.015188 
1793.798880  	0.016009 
1795.727696  	0.014933 
1797.656512  	0.013837 
1799.585328  	0.013673 
1801.514144  	0.014401 
1803.442960  	0.014214 
1805.371776  	0.013479 
1807.300592  	0.013270 
1809.229408  	0.013173 
1811.158224  	0.013620 
1813.087040  	0.013427 
1815.015856  	0.012848 
1816.944672  	0.012765 
1818.873488  	0.012982 
1820.802304  	0.012683 
1822.731120  	0.012445 
1824.659936  	0.012820 
1826.588752  	0.012920 
1828.517568  	0.011916 
1830.446384  	0.013497 
1832.375200  	0.013379 
1834.304016  	0.013035 
1836.232832  	0.012945 
1838.161648  	0.012648 
1840.090464  	0.012168 
1842.019280  	0.011675 
1843.948096  	0.012671 
1845.876912  	0.013786 
1847.805728  	0.013066 
1849.734544  	0.013030 
1851.663360  	0.012457 
1853.592176  	0.012426 
1855.520992  	0.012032 
1857.449808  	0.012389 
1859.378624  	0.012628 
1861.307440  	0.012916 
1863.236256  	0.012294 
1865.165072  	0.011619 
1867.093888  	0.011262 
1869.022704  	0.012859 
1870.951520  	0.013092 
1872.880336  	0.012659 
1874.809152  	0.012242 
1876.737968  	0.012126 
1878.666784  	0.012104 
1880.595600  	0.012399 
1882.524416  	0.012279 
1884.453232  	0.012312 
1886.382048  	0.011854 
1888.310864  	0.011945 
1890.239680  	0.012756 
1892.168496  	0.012599 
1894.097312  	0.011899 
1896.026128  	0.012309 
1897.954944  	0.012081 
1899.883760  	0.012035 
1901.812576  	0.011887 
1903.741392  	0.012244 
1905.670208  	0.012131 
1907.599024  	0.012162 
1909.527840  	0.012415 
1911.456656  	0.012691 
1913.385472  	0.012536 
1915.314288  	0.012163 
1917.243104  	0.012002 
1919.171920  	0.013073 
1921.100736  	0.012535 
1923.029552  	0.013060 
1924.958368  	0.012344 
1926.887184  	0.011387 
1928.816000  	0.011483 
1930.744816  	0.012149 
1932.673632  	0.012114 
1934.602448  	0.012218 
1936.531264  	0.011896 
1938.460080  	0.011687 
1940.388896  	0.010954 
1942.317712  	0.011940 
1944.246528  	0.012052 
1946.175344  	0.012064 
1948.104160  	0.011813 
1950.032976  	0.011494 
1951.961792  	0.011592 
1953.890608  	0.012331 
1955.819424  	0.011519 
1957.748240  	0.010677 
1959.677056  	0.009741 
1961.605872  	0.010497 
1963.534688  	0.010968 
1965.463504  	0.011543 
1967.392320  	0.011114 
1969.321136  	0.011503 
1971.249952  	0.010140 
1973.178768  	0.010436 
1975.107584  	0.011435 
1977.036400  	0.012014 
1978.965216  	0.013069 
1980.894032  	0.014018 
1982.822848  	0.012868 
1984.751664  	0.012688 
1986.680480  	0.012157 
1988.609296  	0.012741 
1990.538112  	0.012069 
1992.466928  	0.012290 
1994.395744  	0.011779 
1996.324560  	0.011932 
1998.253376  	0.011448 
2000.182192  	0.011544 
2002.111008  	0.011561 
2004.039824  	0.011637 
2005.968640  	0.011216 
2007.897456  	0.011603 
2009.826272  	0.011851 
2011.755088  	0.012016 
2013.683904  	0.011657 
2015.612720  	0.012140 
2017.541536  	0.012927 
2019.470352  	0.014496 
2021.399168  	0.014280 
2023.327984  	0.014099 
2025.256800  	0.013448 
2027.185616  	0.013214 
2029.114432  	0.012949 
2031.043248  	0.013372 
2032.972064  	0.013763 
2034.900880  	0.015338 
2036.829696  	0.015136 
2038.758512  	0.015619 
2040.687328  	0.015548 
2042.616144  	0.015839 
2044.544960  	0.014167 
2046.473776  	0.013528 
2048.402592  	0.013679 
2050.331408  	0.014466 
2052.260224  	0.013559 
2054.189040  	0.012942 
2056.117856  	0.013149 
2058.046672  	0.013671 
2059.975488  	0.013395 
2061.904304  	0.013473 
2063.833120  	0.013446 
2065.761936  	0.013860 
2067.690752  	0.014169 
2069.619568  	0.014453 
2071.548384  	0.013517 
2073.477200  	0.013264 
2075.406016  	0.013576 
2077.334832  	0.014429 
2079.263648  	0.014430 
2081.192464  	0.014337 
2083.121280  	0.013803 
2085.050096  	0.013766 
2086.978912  	0.013780 
2088.907728  	0.014304 
2090.836544  	0.013913 
2092.765360  	0.013473 
2094.694176  	0.013677 
2096.622992  	0.014267 
2098.551808  	0.014607 
2100.480624  	0.014572 
2102.409440  	0.014332 
2104.338256  	0.014497 
2106.267072  	0.014647 
2108.195888  	0.014712 
2110.124704  	0.014308 
2112.053520  	0.013985 
2113.982336  	0.014203 
2115.911152  	0.015008 
2117.839968  	0.014990 
2119.768784  	0.014650 
2121.697600  	0.013552 
2123.626416  	0.013528 
2125.555232  	0.013510 
2127.484048  	0.013383 
2129.412864  	0.013469 
2131.341680  	0.013633 
2133.270496  	0.013090 
2135.199312  	0.013861 
2137.128128  	0.014549 
2139.056944  	0.014306 
2140.985760  	0.013509 
2142.914576  	0.013524 
2144.843392  	0.013954 
2146.772208  	0.014754 
2148.701024  	0.015282 
2150.629840  	0.015882 
2152.558656  	0.014932 
2154.487472  	0.014173 
2156.416288  	0.014485 
2158.345104  	0.017182 
2160.273920  	0.018705 
2162.202736  	0.019574 
2164.131552  	0.019035 
2166.060368  	0.018563 
2167.989184  	0.017734 
2169.918000  	0.017119 
2171.846816  	0.016957 
2173.775632  	0.016353 
2175.704448  	0.015007 
2177.633264  	0.014755 
2179.562080  	0.013981 
2181.490896  	0.013882 
2183.419712  	0.014661 
2185.348528  	0.015115 
2187.277344  	0.015051 
2189.206160  	0.016014 
2191.134976  	0.017273 
2193.063792  	0.018040 
2194.992608  	0.016433 
2196.921424  	0.015957 
2198.850240  	0.016044 
2200.779056  	0.016139 
2202.707872  	0.015351 
2204.636688  	0.015053 
2206.565504  	0.015378 
2208.494320  	0.015846 
2210.423136  	0.015649 
2212.351952  	0.015555 
2214.280768  	0.016002 
2216.209584  	0.016409 
2218.138400  	0.015731 
2220.067216  	0.015620 
2221.996032  	0.015676 
2223.924848  	0.016180 
2225.853664  	0.015413 
2227.782480  	0.014779 
2229.711296  	0.014936 
2231.640112  	0.014364 
2233.568928  	0.014539 
2235.497744  	0.015481 
2237.426560  	0.015348 
2239.355376  	0.015074 
2241.284192  	0.015123 
2243.213008  	0.015231 
2245.141824  	0.015267 
2247.070640  	0.015858 
2248.999456  	0.015177 
2250.928272  	0.014619 
2252.857088  	0.014914 
2254.785904  	0.015714 
2256.714720  	0.015353 
2258.643536  	0.014707 
2260.572352  	0.014660 
2262.501168  	0.014956 
2264.429984  	0.014981 
2266.358800  	0.015188 
2268.287616  	0.015599 
2270.216432  	0.015682 
2272.145248  	0.015592 
2274.074064  	0.015698 
2276.002880  	0.015676 
2277.931696  	0.015871 
2279.860512  	0.016096 
2281.789328  	0.016535 
2283.718144  	0.016610 
2285.646960  	0.016950 
2287.575776  	0.016975 
2289.504592  	0.016661 
2291.433408  	0.016304 
2293.362224  	0.016386 
2295.291040  	0.016499 
2297.219856  	0.016495 
2299.148672  	0.016351 
2301.077488  	0.016541 
2303.006304  	0.016417 
2304.935120  	0.016269 
2306.863936  	0.016345 
2308.792752  	0.016447 
2310.721568  	0.016376 
2312.650384  	0.016426 
2314.579200  	0.016170 
2316.508016  	0.016020 
2318.436832  	0.016050 
2320.365648  	0.016606 
2322.294464  	0.016964 
2324.223280  	0.016794 
2326.152096  	0.015539 
2328.080912  	0.015054 
2330.009728  	0.015305 
2331.938544  	0.015479 
2333.867360  	0.015030 
2335.796176  	0.014660 
2337.724992  	0.014803 
2339.653808  	0.014806 
2341.582624  	0.014910 
2343.511440  	0.015718 
2345.440256  	0.016773 
2347.369072  	0.016671 
2349.297888  	0.014886 
2351.226704  	0.013979 
2353.155520  	0.014023 
2355.084336  	0.013961 
2357.013152  	0.014327 
2358.941968  	0.014822 
2360.870784  	0.015560 
2362.799600  	0.016133 
2364.728416  	0.016429 
2366.657232  	0.016743 
2368.586048  	0.016688 
2370.514864  	0.016753 
2372.443680  	0.017050 
2374.372496  	0.017292 
2376.301312  	0.017254 
2378.230128  	0.017421 
2380.158944  	0.017446 
2382.087760  	0.017203 
2384.016576  	0.016935 
2385.945392  	0.016669 
2387.874208  	0.016591 
2389.803024  	0.016674 
2391.731840  	0.016701 
2393.660656  	0.016632 
2395.589472  	0.016636 
2397.518288  	0.016779 
2399.447104  	0.016790 
2401.375920  	0.017016 
2403.304736  	0.017087 
2405.233552  	0.017156 
2407.162368  	0.017323 
2409.091184  	0.017423 
2411.020000  	0.017412 
2412.948816  	0.017416 
2414.877632  	0.017603 
2416.806448  	0.017849 
2418.735264  	0.017890 
2420.664080  	0.017874 
2422.592896  	0.017867 
2424.521712  	0.018032 
2426.450528  	0.018150 
2428.379344  	0.018280 
2430.308160  	0.018535 
2432.236976  	0.018619 
2434.165792  	0.018584 
2436.094608  	0.018681 
2438.023424  	0.018743 
2439.952240  	0.018695 
2441.881056  	0.018876 
2443.809872  	0.019103 
2445.738688  	0.019118 
2447.667504  	0.019376 
2449.596320  	0.019485 
2451.525136  	0.019497 
2453.453952  	0.019372 
2455.382768  	0.019472 
2457.311584  	0.019536 
2459.240400  	0.019280 
2461.169216  	0.019250 
2463.098032  	0.019478 
2465.026848  	0.019646 
2466.955664  	0.019811 
2468.884480  	0.020035 
2470.813296  	0.020273 
2472.742112  	0.020423 
2474.670928  	0.020449 
2476.599744  	0.020235 
2478.528560  	0.020408 
2480.457376  	0.020542 
2482.386192  	0.020497 
2484.315008  	0.020658 
2486.243824  	0.020798 
2488.172640  	0.021021 
2490.101456  	0.021270 
2492.030272  	0.021274 
2493.959088  	0.021117 
2495.887904  	0.021135 
2497.816720  	0.021561 
2499.745536  	0.021858 
2501.674352  	0.021983 
2503.603168  	0.021870 
2505.531984  	0.021996 
2507.460800  	0.022123 
2509.389616  	0.022373 
2511.318432  	0.022380 
2513.247248  	0.022256 
2515.176064  	0.022488 
2517.104880  	0.022774 
2519.033696  	0.023056 
2520.962512  	0.023146 
2522.891328  	0.023146 
2524.820144  	0.023303 
2526.748960  	0.023285 
2528.677776  	0.023326 
2530.606592  	0.023298 
2532.535408  	0.023448 
2534.464224  	0.023462 
2536.393040  	0.023401 
2538.321856  	0.023576 
2540.250672  	0.023701 
2542.179488  	0.023704 
2544.108304  	0.023892 
2546.037120  	0.024148 
2547.965936  	0.024434 
2549.894752  	0.024386 
2551.823568  	0.024305 
2553.752384  	0.024318 
2555.681200  	0.024528 
2557.610016  	0.024857 
2559.538832  	0.025111 
2561.467648  	0.025354 
2563.396464  	0.025543 
2565.325280  	0.025499 
2567.254096  	0.025634 
2569.182912  	0.025930 
2571.111728  	0.026169 
2573.040544  	0.026375 
2574.969360  	0.026613 
2576.898176  	0.026941 
2578.826992  	0.027159 
2580.755808  	0.026979 
2582.684624  	0.027023 
2584.613440  	0.027234 
2586.542256  	0.027448 
2588.471072  	0.027483 
2590.399888  	0.027590 
2592.328704  	0.027771 
2594.257520  	0.027973 
2596.186336  	0.028157 
2598.115152  	0.028423 
2600.043968  	0.028549 
2601.972784  	0.028538 
2603.901600  	0.028683 
2605.830416  	0.028900 
2607.759232  	0.029077 
2609.688048  	0.029132 
2611.616864  	0.029212 
2613.545680  	0.029535 
2615.474496  	0.029818 
2617.403312  	0.030014 
2619.332128  	0.030373 
2621.260944  	0.030593 
2623.189760  	0.030494 
2625.118576  	0.030519 
2627.047392  	0.030794 
2628.976208  	0.031095 
2630.905024  	0.031328 
2632.833840  	0.031593 
2634.762656  	0.031795 
2636.691472  	0.032024 
2638.620288  	0.032379 
2640.549104  	0.032586 
2642.477920  	0.032836 
2644.406736  	0.033072 
2646.335552  	0.033283 
2648.264368  	0.033431 
2650.193184  	0.033621 
2652.122000  	0.033877 
2654.050816  	0.034120 
2655.979632  	0.034335 
2657.908448  	0.034534 
2659.837264  	0.034731 
2661.766080  	0.034938 
2663.694896  	0.034987 
2665.623712  	0.035069 
2667.552528  	0.035459 
2669.481344  	0.035795 
2671.410160  	0.035947 
2673.338976  	0.036082 
2675.267792  	0.036255 
2677.196608  	0.036422 
2679.125424  	0.036572 
2681.054240  	0.036759 
2682.983056  	0.036863 
2684.911872  	0.037055 
2686.840688  	0.037336 
2688.769504  	0.037644 
2690.698320  	0.037824 
2692.627136  	0.037990 
2694.555952  	0.038178 
2696.484768  	0.038331 
2698.413584  	0.038528 
2700.342400  	0.038644 
2702.271216  	0.038839 
2704.200032  	0.039113 
2706.128848  	0.039331 
2708.057664  	0.039439 
2709.986480  	0.039583 
2711.915296  	0.039807 
2713.844112  	0.040047 
2715.772928  	0.040215 
2717.701744  	0.040368 
2719.630560  	0.040506 
2721.559376  	0.040721 
2723.488192  	0.040966 
2725.417008  	0.041220 
2727.345824  	0.041393 
2729.274640  	0.041555 
2731.203456  	0.041797 
2733.132272  	0.042097 
2735.061088  	0.042314 
2736.989904  	0.042558 
2738.918720  	0.042768 
2740.847536  	0.042893 
2742.776352  	0.043135 
2744.705168  	0.043307 
2746.633984  	0.043316 
2748.562800  	0.043443 
2750.491616  	0.043721 
2752.420432  	0.043956 
2754.349248  	0.043954 
2756.278064  	0.043900 
2758.206880  	0.043894 
2760.135696  	0.043911 
2762.064512  	0.043998 
2763.993328  	0.044167 
2765.922144  	0.044098 
2767.850960  	0.044083 
2769.779776  	0.044157 
2771.708592  	0.044162 
2773.637408  	0.044030 
2775.566224  	0.043907 
2777.495040  	0.043890 
2779.423856  	0.043895 
2781.352672  	0.043792 
2783.281488  	0.043643 
2785.210304  	0.043673 
2787.139120  	0.043743 
2789.067936  	0.043700 
2790.996752  	0.043575 
2792.925568  	0.043523 
2794.854384  	0.043513 
2796.783200  	0.043431 
2798.712016  	0.043447 
2800.640832  	0.043553 
2802.569648  	0.043523 
2804.498464  	0.043473 
2806.427280  	0.043508 
2808.356096  	0.043520 
2810.284912  	0.043548 
2812.213728  	0.043412 
2814.142544  	0.043392 
2816.071360  	0.043431 
2818.000176  	0.043523 
2819.928992  	0.043569 
2821.857808  	0.043699 
2823.786624  	0.043789 
2825.715440  	0.043765 
2827.644256  	0.043719 
2829.573072  	0.043652 
2831.501888  	0.043551 
2833.430704  	0.043327 
2835.359520  	0.043171 
2837.288336  	0.043201 
2839.217152  	0.043315 
2841.145968  	0.043292 
2843.074784  	0.043209 
2845.003600  	0.043269 
2846.932416  	0.043514 
2848.861232  	0.043734 
2850.790048  	0.043752 
2852.718864  	0.043726 
2854.647680  	0.043690 
2856.576496  	0.043649 
2858.505312  	0.043623 
2860.434128  	0.043667 
2862.362944  	0.043776 
2864.291760  	0.043804 
2866.220576  	0.043869 
2868.149392  	0.044006 
2870.078208  	0.044093 
2872.007024  	0.044310 
2873.935840  	0.044789 
2875.864656  	0.045267 
2877.793472  	0.045701 
2879.722288  	0.046149 
2881.651104  	0.046662 
2883.579920  	0.046962 
2885.508736  	0.047183 
2887.437552  	0.047535 
2889.366368  	0.047612 
2891.295184  	0.047649 
2893.224000  	0.047587 
2895.152816  	0.047504 
2897.081632  	0.047324 
2899.010448  	0.046983 
2900.939264  	0.046820 
2902.868080  	0.047162 
2904.796896  	0.047419 
2906.725712  	0.047632 
2908.654528  	0.048010 
2910.583344  	0.048626 
2912.512160  	0.049471 
2914.440976  	0.050359 
2916.369792  	0.051115 
2918.298608  	0.051779 
2920.227424  	0.052319 
2922.156240  	0.052817 
2924.085056  	0.053309 
2926.013872  	0.053973 
2927.942688  	0.054724 
2929.871504  	0.055653 
2931.800320  	0.056482 
2933.729136  	0.057356 
2935.657952  	0.058160 
2937.586768  	0.058866 
2939.515584  	0.059470 
2941.444400  	0.059968 
2943.373216  	0.060415 
2945.302032  	0.060761 
2947.230848  	0.060923 
2949.159664  	0.061102 
2951.088480  	0.061002 
2953.017296  	0.060793 
2954.946112  	0.060549 
2956.874928  	0.060135 
2958.803744  	0.059669 
2960.732560  	0.059279 
2962.661376  	0.058711 
2964.590192  	0.058173 
2966.519008  	0.057520 
2968.447824  	0.056649 
2970.376640  	0.055850 
2972.305456  	0.055239 
2974.234272  	0.054749 
2976.163088  	0.054192 
2978.091904  	0.053671 
2980.020720  	0.053309 
2981.949536  	0.053218 
2983.878352  	0.053269 
2985.807168  	0.053173 
2987.735984  	0.053280 
2989.664800  	0.053842 
2991.593616  	0.054823 
2993.522432  	0.055479 
2995.451248  	0.055967 
2997.380064  	0.056668 
2999.308880  	0.057273 
3001.237696  	0.057756 
3003.166512  	0.058224 
3005.095328  	0.058832 
3007.024144  	0.059426 
3008.952960  	0.059999 
3010.881776  	0.060631 
3012.810592  	0.061193 
3014.739408  	0.061680 
3016.668224  	0.062240 
3018.597040  	0.062844 
3020.525856  	0.063365 
3022.454672  	0.064018 
3024.383488  	0.064595 
3026.312304  	0.065184 
3028.241120  	0.065665 
3030.169936  	0.066178 
3032.098752  	0.066828 
3034.027568  	0.067334 
3035.956384  	0.067836 
3037.885200  	0.068294 
3039.814016  	0.068915 
3041.742832  	0.069613 
3043.671648  	0.070204 
3045.600464  	0.071008 
3047.529280  	0.071627 
3049.458096  	0.072099 
3051.386912  	0.072608 
3053.315728  	0.072985 
3055.244544  	0.073624 
3057.173360  	0.074744 
3059.102176  	0.075592 
3061.030992  	0.076299 
3062.959808  	0.077032 
3064.888624  	0.077877 
3066.817440  	0.078788 
3068.746256  	0.079655 
3070.675072  	0.080395 
3072.603888  	0.081177 
3074.532704  	0.081922 
3076.461520  	0.082688 
3078.390336  	0.083461 
3080.319152  	0.084346 
3082.247968  	0.085235 
3084.176784  	0.085970 
3086.105600  	0.086657 
3088.034416  	0.087532 
3089.963232  	0.088360 
3091.892048  	0.089140 
3093.820864  	0.090080 
3095.749680  	0.091039 
3097.678496  	0.091723 
3099.607312  	0.092619 
3101.536128  	0.093696 
3103.464944  	0.094601 
3105.393760  	0.095340 
3107.322576  	0.095870 
3109.251392  	0.096549 
3111.180208  	0.097248 
3113.109024  	0.097483 
3115.037840  	0.097874 
3116.966656  	0.098594 
3118.895472  	0.099418 
3120.824288  	0.099920 
3122.753104  	0.100361 
3124.681920  	0.100745 
3126.610736  	0.101265 
3128.539552  	0.101699 
3130.468368  	0.101747 
3132.397184  	0.102376 
3134.326000  	0.102934 
3136.254816  	0.103121 
3138.183632  	0.103425 
3140.112448  	0.104003 
3142.041264  	0.104399 
3143.970080  	0.104744 
3145.898896  	0.105243 
3147.827712  	0.105716 
3149.756528  	0.106106 
3151.685344  	0.106671 
3153.614160  	0.107246 
3155.542976  	0.107714 
3157.471792  	0.108093 
3159.400608  	0.108580 
3161.329424  	0.108963 
3163.258240  	0.109218 
3165.187056  	0.109556 
3167.115872  	0.109953 
3169.044688  	0.110449 
3170.973504  	0.110844 
3172.902320  	0.110917 
3174.831136  	0.110655 
3176.759952  	0.110604 
3178.688768  	0.111114 
3180.617584  	0.111290 
3182.546400  	0.111018 
3184.475216  	0.111011 
3186.404032  	0.111133 
3188.332848  	0.111016 
3190.261664  	0.110656 
3192.190480  	0.110371 
3194.119296  	0.109936 
3196.048112  	0.109510 
3197.976928  	0.109178 
3199.905744  	0.108931 
3201.834560  	0.108583 
3203.763376  	0.108266 
3205.692192  	0.107761 
3207.621008  	0.107153 
3209.549824  	0.106932 
3211.478640  	0.106608 
3213.407456  	0.106241 
3215.336272  	0.105948 
3217.265088  	0.105484 
3219.193904  	0.105414 
3221.122720  	0.105100 
3223.051536  	0.104585 
3224.980352  	0.104163 
3226.909168  	0.103709 
3228.837984  	0.103472 
3230.766800  	0.103406 
3232.695616  	0.103147 
3234.624432  	0.102856 
3236.553248  	0.102749 
3238.482064  	0.102763 
3240.410880  	0.102919 
3242.339696  	0.103071 
3244.268512  	0.103351 
3246.197328  	0.103569 
3248.126144  	0.103420 
3250.054960  	0.103451 
3251.983776  	0.103341 
3253.912592  	0.103621 
3255.841408  	0.104019 
3257.770224  	0.104284 
3259.699040  	0.104501 
3261.627856  	0.104534 
3263.556672  	0.104550 
3265.485488  	0.104913 
3267.414304  	0.105134 
3269.343120  	0.105341 
3271.271936  	0.105401 
3273.200752  	0.105553 
3275.129568  	0.105890 
3277.058384  	0.106128 
3278.987200  	0.106341 
3280.916016  	0.106359 
3282.844832  	0.106347 
3284.773648  	0.106439 
3286.702464  	0.106460 
3288.631280  	0.106631 
3290.560096  	0.106905 
3292.488912  	0.107388 
3294.417728  	0.107662 
3296.346544  	0.107960 
3298.275360  	0.108350 
3300.204176  	0.108524 
3302.132992  	0.108839 
3304.061808  	0.109083 
3305.990624  	0.109183 
3307.919440  	0.109404 
3309.848256  	0.109712 
3311.777072  	0.110111 
3313.705888  	0.110486 
3315.634704  	0.110536 
3317.563520  	0.110937 
3319.492336  	0.111437 
3321.421152  	0.111408 
3323.349968  	0.111206 
3325.278784  	0.111387 
3327.207600  	0.111638 
3329.136416  	0.111517 
3331.065232  	0.111433 
3332.994048  	0.111492 
3334.922864  	0.111666 
3336.851680  	0.111896 
3338.780496  	0.111633 
3340.709312  	0.111124 
3342.638128  	0.110854 
3344.566944  	0.110466 
3346.495760  	0.110076 
3348.424576  	0.109697 
3350.353392  	0.109575 
3352.282208  	0.109231 
3354.211024  	0.108768 
3356.139840  	0.108498 
3358.068656  	0.108241 
3359.997472  	0.107677 
3361.926288  	0.107363 
3363.855104  	0.107188 
3365.783920  	0.107101 
3367.712736  	0.106663 
3369.641552  	0.106118 
3371.570368  	0.105920 
3373.499184  	0.105631 
3375.428000  	0.105101 
3377.356816  	0.104883 
3379.285632  	0.104776 
3381.214448  	0.104375 
3383.143264  	0.103829 
3385.072080  	0.103735 
3387.000896  	0.103281 
3388.929712  	0.102569 
3390.858528  	0.101699 
3392.787344  	0.101675 
3394.716160  	0.101459 
3396.644976  	0.100895 
3398.573792  	0.100664 
3400.502608  	0.100266 
3402.431424  	0.099862 
3404.360240  	0.099440 
3406.289056  	0.098637 
3408.217872  	0.098044 
3410.146688  	0.097635 
3412.075504  	0.097177 
3414.004320  	0.096729 
3415.933136  	0.096251 
3417.861952  	0.095432 
3419.790768  	0.095043 
3421.719584  	0.094898 
3423.648400  	0.094310 
3425.577216  	0.093591 
3427.506032  	0.092990 
3429.434848  	0.092344 
3431.363664  	0.091800 
3433.292480  	0.091321 
3435.221296  	0.090760 
3437.150112  	0.090004 
3439.078928  	0.089375 
3441.007744  	0.088829 
3442.936560  	0.088510 
3444.865376  	0.087554 
3446.794192  	0.087220 
3448.723008  	0.087236 
3450.651824  	0.085897 
3452.580640  	0.084995 
3454.509456  	0.084489 
3456.438272  	0.083663 
3458.367088  	0.082710 
3460.295904  	0.082254 
3462.224720  	0.082008 
3464.153536  	0.081036 
3466.082352  	0.079935 
3468.011168  	0.079294 
3469.939984  	0.078456 
3471.868800  	0.077380 
3473.797616  	0.076556 
3475.726432  	0.076027 
3477.655248  	0.075065 
3479.584064  	0.073971 
3481.512880  	0.073648 
3483.441696  	0.073043 
3485.370512  	0.071713 
3487.299328  	0.070922 
3489.228144  	0.070354 
3491.156960  	0.069190 
3493.085776  	0.067959 
3495.014592  	0.067277 
3496.943408  	0.066988 
3498.872224  	0.065910 
3500.801040  	0.064399 
3502.729856  	0.064334 
3504.658672  	0.064660 
3506.587488  	0.063314 
3508.516304  	0.062175 
3510.445120  	0.062096 
3512.373936  	0.061116 
3514.302752  	0.059941 
3516.231568  	0.059137 
3518.160384  	0.058461 
3520.089200  	0.057435 
3522.018016  	0.056406 
3523.946832  	0.056373 
3525.875648  	0.055705 
3527.804464  	0.055448 
3529.733280  	0.055351 
3531.662096  	0.054445 
3533.590912  	0.052810 
3535.519728  	0.052070 
3537.448544  	0.052198 
3539.377360  	0.051126 
3541.306176  	0.049872 
3543.234992  	0.048852 
3545.163808  	0.049174 
3547.092624  	0.049757 
3549.021440  	0.048302 
3550.950256  	0.046566 
3552.879072  	0.046763 
3554.807888  	0.046061 
3556.736704  	0.044766 
3558.665520  	0.043855 
3560.594336  	0.043360 
3562.523152  	0.042096 
3564.451968  	0.040002 
3566.380784  	0.040921 
3568.309600  	0.044173 
3570.238416  	0.042068 
3572.167232  	0.039444 
3574.096048  	0.038377 
3576.024864  	0.037767 
3577.953680  	0.037046 
3579.882496  	0.036329 
3581.811312  	0.035341 
3583.740128  	0.033379 
3585.668944  	0.032007 
3587.597760  	0.034886 
3589.526576  	0.035423 
3591.455392  	0.031662 
3593.384208  	0.030212 
3595.313024  	0.030689 
3597.241840  	0.029808 
3599.170656  	0.028446 
3601.099472  	0.028629 
3603.028288  	0.027559 
3604.957104  	0.025109 
3606.885920  	0.024393 
3608.814736  	0.025924 
3610.743552  	0.024170 
3612.672368  	0.023042 
3614.601184  	0.023058 
3616.530000  	0.020357 
3618.458816  	0.020389 
3620.387632  	0.022616 
3622.316448  	0.020826 
3624.245264  	0.017560 
3626.174080  	0.013729 
3628.102896  	0.014284 
3630.031712  	0.020533 
3631.960528  	0.016645 
3633.889344  	0.015158 
3635.818160  	0.014443 
3637.746976  	0.012996 
3639.675792  	0.012168 
3641.604608  	0.011233 
3643.533424  	0.009530 
3645.462240  	0.006194 
3647.391056  	0.006021 
3649.319872  	0.010469 
3651.248688  	0.013730 
3653.177504  	0.008914 
3655.106320  	0.006289 
3657.035136  	0.008393 
3658.963952  	0.007128 
3660.892768  	0.005883 
3662.821584  	0.005093 
3664.750400  	0.004106 
3666.679216  	0.002069 
3668.608032  	0.001395 
3670.536848  	0.006177 
3672.465664  	0.002945 
3674.394480  	0.000676 
3676.323296  	0.008193 
3678.252112  	0.005742 
3680.180928  	0.004443 
3682.109744  	0.003225 
3684.038560  	0.001988 
3685.967376  	0.000082 
3687.896192  	0.000605 
3689.825008  	0.004686 
3691.753824  	0.005640 
3693.682640  	0.003920 
3695.611456  	0.002649 
3697.540272  	0.002351 
3699.469088  	0.001117 
3701.397904  	0.002386 
3703.326720  	0.003833 
3705.255536  	0.002353 
3707.184352  	0.000797 
3709.113168  	0.000364 
3711.041984  	0.003172 
3712.970800  	0.006208 
3714.899616  	0.004140 
3716.828432  	0.002127 
3718.757248  	0.002226 
3720.686064  	0.001805 
3722.614880  	0.001977 
3724.543696  	0.002183 
3726.472512  	0.003488 
3728.401328  	0.002838 
3730.330144  	0.000035 
3732.258960  	0.000440 
3734.187776  	0.001793 
3736.116592  	0.006026 
3738.045408  	0.005320 
3739.974224  	0.002455 
3741.903040  	-0.000448 
3743.831856  	0.001276 
3745.760672  	0.005870 
3747.689488  	0.000879 
3749.618304  	0.001353 
3751.547120  	0.006242 
3753.475936  	0.006427 
3755.404752  	0.002787 
3757.333568  	0.002020 
3759.262384  	0.003588 
3761.191200  	0.004505 
3763.120016  	0.001916 
3765.048832  	0.002355 
3766.977648  	0.002803 
3768.906464  	0.002728 
3770.835280  	0.005019 
3772.764096  	0.003726 
3774.692912  	0.002318 
3776.621728  	0.001381 
3778.550544  	0.002009 
3780.479360  	0.004303 
3782.408176  	0.002797 
3784.336992  	0.002860 
3786.265808  	0.003688 
3788.194624  	0.003177 
3790.123440  	0.002721 
3792.052256  	0.002201 
3793.981072  	0.000984 
3795.909888  	0.001738 
3797.838704  	0.001990 
3799.767520  	0.000009 
3801.696336  	0.004733 
3803.625152  	0.004387 
3805.553968  	0.001414 
3807.482784  	0.004809 
3809.411600  	0.004094 
3811.340416  	0.002258 
3813.269232  	0.000132 
3815.198048  	0.000592 
3817.126864  	0.003483 
3819.055680  	0.000408 
3820.984496  	0.004406 
3822.913312  	0.006513 
3824.842128  	0.002589 
3826.770944  	0.002930 
3828.699760  	0.002431 
3830.628576  	0.001500 
3832.557392  	0.002202 
3834.486208  	0.001326 
3836.415024  	0.001075 
3838.343840  	0.003192 
3840.272656  	0.004669 
3842.201472  	0.003837 
3844.130288  	0.003941 
3846.059104  	0.002915 
3847.987920  	0.000839 
3849.916736  	-0.001325 
3851.845552  	-0.001889 
3853.774368  	0.006961 
3855.703184  	0.007207 
3857.632000  	0.004089 
3859.560816  	0.001847 
3861.489632  	0.001169 
3863.418448  	0.002293 
3865.347264  	0.004253 
3867.276080  	0.001452 
3869.204896  	0.001696 
3871.133712  	0.004958 
3873.062528  	0.002900 
3874.991344  	0.004575 
3876.920160  	0.002455 
3878.848976  	0.000993 
3880.777792  	0.003605 
3882.706608  	0.002581 
3884.635424  	0.001941 
3886.564240  	0.005238 
3888.493056  	0.002305 
3890.421872  	0.001778 
3892.350688  	0.004366 
3894.279504  	0.003449 
3896.208320  	0.001170 
3898.137136  	0.000690 
3900.065952  	0.002383 
3901.994768  	0.002951 
3903.923584  	0.004617 
3905.852400  	0.005608 
3907.781216  	0.003920 
3909.710032  	0.002646 
3911.638848  	0.002481 
3913.567664  	0.002171 
3915.496480  	0.002092 
3917.425296  	0.003324 
3919.354112  	0.003390 
3921.282928  	0.002860 
3923.211744  	0.002193 
3925.140560  	0.003441 
3927.069376  	0.002929 
3928.998192  	0.002020 
3930.927008  	0.002726 
3932.855824  	0.003890 
3934.784640  	0.003385 
3936.713456  	0.002633 
3938.642272  	0.002447 
3940.571088  	0.002042 
3942.499904  	0.003262 
3944.428720  	0.003591 
3946.357536  	0.002333 
3948.286352  	0.002643 
3950.215168  	0.003289 
3952.143984  	0.002991 
3954.072800  	0.002694 
3956.001616  	0.002596 
3957.930432  	0.002752 
3959.859248  	0.002709 
3961.788064  	0.003018 
3963.716880  	0.003351 
3965.645696  	0.003001 
3967.574512  	0.002717 
3969.503328  	0.002746 
3971.432144  	0.002703 
3973.360960  	0.002669 
3975.289776  	0.002955 
3977.218592  	0.003059 
3979.147408  	0.002915 
3981.076224  	0.002769 
3983.005040  	0.002950 
3984.933856  	0.002998 
3986.862672  	0.002748 
3988.791488  	0.002468 
3990.720304  	0.002631 
3992.649120  	0.002807 
3994.577936  	0.002983 
3996.506752  	0.002928 
3998.435568  	0.002917 
4000.364384  	0.003017 