##TITLE=No Description
##DATA TYPE=INFRARED SPECTRUM
##XUNITS=1/CM
##YUNITS=Abs
399.264912  	0.530797 
401.193728  	0.518681 
403.122544  	0.516488 
405.051360  	0.518423 
406.980176  	0.525588 
408.908992  	0.518298 
410.837808  	0.517352 
412.766624  	0.507615 
414.695440  	0.507945 
416.624256  	0.517567 
418.553072  	0.517831 
420.481888  	0.501993 
422.410704  	0.510182 
424.339520  	0.506839 
426.268336  	0.504955 
428.197152  	0.501748 
430.125968  	0.496433 
432.054784  	0.483952 
433.983600  	0.480709 
435.912416  	0.478974 
437.841232  	0.483769 
439.770048  	0.483932 
441.698864  	0.487063 
443.627680  	0.483729 
445.556496  	0.475630 
447.485312  	0.474413 
449.414128  	0.476678 
451.342944  	0.477123 
453.271760  	0.481229 
455.200576  	0.476719 
457.129392  	0.479833 
459.058208  	0.489759 
460.987024  	0.498440 
462.915840  	0.490519 
464.844656  	0.485022 
466.773472  	0.489025 
468.702288  	0.491356 
470.631104  	0.483445 
472.559920  	0.484886 
474.488736  	0.488653 
476.417552  	0.491200 
478.346368  	0.488548 
480.275184  	0.491622 
482.204000  	0.491890 
484.132816  	0.490989 
486.061632  	0.487585 
487.990448  	0.491054 
489.919264  	0.491084 
491.848080  	0.491139 
493.776896  	0.488633 
495.705712  	0.482438 
497.634528  	0.479748 
499.563344  	0.483550 
501.492160  	0.485709 
503.420976  	0.484946 
505.349792  	0.481040 
507.278608  	0.483003 
509.207424  	0.484355 
511.136240  	0.487626 
513.065056  	0.489936 
514.993872  	0.490639 
516.922688  	0.491456 
518.851504  	0.495167 
520.780320  	0.495087 
522.709136  	0.495655 
524.637952  	0.495269 
526.566768  	0.493853 
528.495584  	0.489509 
530.424400  	0.486162 
532.353216  	0.481905 
534.282032  	0.476976 
536.210848  	0.467586 
538.139664  	0.460629 
540.068480  	0.455468 
541.997296  	0.449469 
543.926112  	0.442902 
545.854928  	0.439612 
547.783744  	0.434173 
549.712560  	0.429216 
551.641376  	0.425865 
553.570192  	0.424114 
555.499008  	0.420563 
557.427824  	0.417706 
559.356640  	0.413928 
561.285456  	0.409583 
563.214272  	0.404386 
565.143088  	0.400750 
567.071904  	0.396431 
569.000720  	0.391582 
570.929536  	0.386917 
572.858352  	0.384439 
574.787168  	0.382024 
576.715984  	0.379517 
578.644800  	0.374781 
580.573616  	0.370323 
582.502432  	0.365110 
584.431248  	0.358350 
586.360064  	0.353216 
588.288880  	0.351423 
590.217696  	0.349552 
592.146512  	0.347512 
594.075328  	0.345862 
596.004144  	0.344203 
597.932960  	0.342399 
599.861776  	0.340062 
601.790592  	0.338601 
603.719408  	0.338825 
605.648224  	0.338485 
607.577040  	0.337969 
609.505856  	0.336617 
611.434672  	0.335188 
613.363488  	0.333879 
615.292304  	0.333465 
617.221120  	0.331786 
619.149936  	0.330084 
621.078752  	0.328603 
623.007568  	0.328357 
624.936384  	0.328173 
626.865200  	0.327319 
628.794016  	0.327114 
630.722832  	0.327498 
632.651648  	0.327541 
634.580464  	0.328140 
636.509280  	0.329564 
638.438096  	0.330672 
640.366912  	0.330833 
642.295728  	0.329631 
644.224544  	0.327862 
646.153360  	0.326195 
648.082176  	0.321981 
650.010992  	0.317360 
651.939808  	0.313205 
653.868624  	0.309155 
655.797440  	0.304343 
657.726256  	0.300253 
659.655072  	0.295588 
661.583888  	0.290773 
663.512704  	0.285718 
665.441520  	0.281238 
667.370336  	0.277717 
669.299152  	0.273414 
671.227968  	0.268419 
673.156784  	0.264290 
675.085600  	0.261652 
677.014416  	0.260659 
678.943232  	0.259333 
680.872048  	0.257513 
682.800864  	0.255803 
684.729680  	0.254581 
686.658496  	0.253589 
688.587312  	0.252692 
690.516128  	0.251054 
692.444944  	0.250102 
694.373760  	0.249088 
696.302576  	0.248079 
698.231392  	0.246182 
700.160208  	0.243915 
702.089024  	0.241716 
704.017840  	0.239395 
705.946656  	0.236410 
707.875472  	0.234612 
709.804288  	0.233025 
711.733104  	0.231401 
713.661920  	0.229839 
715.590736  	0.229289 
717.519552  	0.230455 
719.448368  	0.232347 
721.377184  	0.234441 
723.306000  	0.236408 
725.234816  	0.238427 
727.163632  	0.238425 
729.092448  	0.236050 
731.021264  	0.231957 
732.950080  	0.227568 
734.878896  	0.223709 
736.807712  	0.220292 
738.736528  	0.217627 
740.665344  	0.215384 
742.594160  	0.214489 
744.522976  	0.213504 
746.451792  	0.212628 
748.380608  	0.211586 
750.309424  	0.210877 
752.238240  	0.210080 
754.167056  	0.210252 
756.095872  	0.209984 
758.024688  	0.209357 
759.953504  	0.210001 
761.882320  	0.211904 
763.811136  	0.213901 
765.739952  	0.213813 
767.668768  	0.212308 
769.597584  	0.210886 
771.526400  	0.211873 
773.455216  	0.215808 
775.384032  	0.222658 
777.312848  	0.231539 
779.241664  	0.238556 
781.170480  	0.240216 
783.099296  	0.235704 
785.028112  	0.228453 
786.956928  	0.221299 
788.885744  	0.215513 
790.814560  	0.210900 
792.743376  	0.208458 
794.672192  	0.208174 
796.601008  	0.207844 
798.529824  	0.204422 
800.458640  	0.199294 
802.387456  	0.195066 
804.316272  	0.193256 
806.245088  	0.193144 
808.173904  	0.193738 
810.102720  	0.194909 
812.031536  	0.196138 
813.960352  	0.197741 
815.889168  	0.199768 
817.817984  	0.201937 
819.746800  	0.203951 
821.675616  	0.205900 
823.604432  	0.208005 
825.533248  	0.209370 
827.462064  	0.209876 
829.390880  	0.209524 
831.319696  	0.209484 
833.248512  	0.208406 
835.177328  	0.206196 
837.106144  	0.203104 
839.034960  	0.199721 
840.963776  	0.195188 
842.892592  	0.190583 
844.821408  	0.186273 
846.750224  	0.182028 
848.679040  	0.178655 
850.607856  	0.176503 
852.536672  	0.175277 
854.465488  	0.174167 
856.394304  	0.173193 
858.323120  	0.172126 
860.251936  	0.171025 
862.180752  	0.169494 
864.109568  	0.167379 
866.038384  	0.165039 
867.967200  	0.162568 
869.896016  	0.160510 
871.824832  	0.159382 
873.753648  	0.159470 
875.682464  	0.160368 
877.611280  	0.162850 
879.540096  	0.166539 
881.468912  	0.171041 
883.397728  	0.175195 
885.326544  	0.178147 
887.255360  	0.179807 
889.184176  	0.179887 
891.112992  	0.178674 
893.041808  	0.176759 
894.970624  	0.173463 
896.899440  	0.168933 
898.828256  	0.163575 
900.757072  	0.158051 
902.685888  	0.153412 
904.614704  	0.151300 
906.543520  	0.152099 
908.472336  	0.155186 
910.401152  	0.159966 
912.329968  	0.165653 
914.258784  	0.171554 
916.187600  	0.177138 
918.116416  	0.181746 
920.045232  	0.185308 
921.974048  	0.187799 
923.902864  	0.189387 
925.831680  	0.190412 
927.760496  	0.191735 
929.689312  	0.193873 
931.618128  	0.196398 
933.546944  	0.198621 
935.475760  	0.200458 
937.404576  	0.201263 
939.333392  	0.201387 
941.262208  	0.202301 
943.191024  	0.205444 
945.119840  	0.212137 
947.048656  	0.222730 
948.977472  	0.236751 
950.906288  	0.253300 
952.835104  	0.271962 
954.763920  	0.291756 
956.692736  	0.310445 
958.621552  	0.326091 
960.550368  	0.335897 
962.479184  	0.339733 
964.408000  	0.336415 
966.336816  	0.326673 
968.265632  	0.311234 
970.194448  	0.292617 
972.123264  	0.272056 
974.052080  	0.251144 
975.980896  	0.231001 
977.909712  	0.212862 
979.838528  	0.197331 
981.767344  	0.185138 
983.696160  	0.176908 
985.624976  	0.172813 
987.553792  	0.173675 
989.482608  	0.179104 
991.411424  	0.188198 
993.340240  	0.200557 
995.269056  	0.214154 
997.197872  	0.228409 
999.126688  	0.242284 
1001.055504  	0.255856 
1002.984320  	0.268991 
1004.913136  	0.281504 
1006.841952  	0.292511 
1008.770768  	0.302221 
1010.699584  	0.309148 
1012.628400  	0.313087 
1014.557216  	0.314632 
1016.486032  	0.315149 
1018.414848  	0.314716 
1020.343664  	0.313914 
1022.272480  	0.313066 
1024.201296  	0.312546 
1026.130112  	0.311863 
1028.058928  	0.312584 
1029.987744  	0.315320 
1031.916560  	0.319567 
1033.845376  	0.324709 
1035.774192  	0.331545 
1037.703008  	0.340222 
1039.631824  	0.352720 
1041.560640  	0.369078 
1043.489456  	0.390389 
1045.418272  	0.414961 
1047.347088  	0.439197 
1049.275904  	0.457787 
1051.204720  	0.468785 
1053.133536  	0.470984 
1055.062352  	0.468087 
1056.991168  	0.461728 
1058.919984  	0.455468 
1060.848800  	0.448689 
1062.777616  	0.441171 
1064.706432  	0.431384 
1066.635248  	0.421044 
1068.564064  	0.409536 
1070.492880  	0.397831 
1072.421696  	0.387325 
1074.350512  	0.380564 
1076.279328  	0.377467 
1078.208144  	0.378032 
1080.136960  	0.379164 
1082.065776  	0.378448 
1083.994592  	0.373238 
1085.923408  	0.364176 
1087.852224  	0.351794 
1089.781040  	0.337767 
1091.709856  	0.322074 
1093.638672  	0.305542 
1095.567488  	0.287752 
1097.496304  	0.270284 
1099.425120  	0.253261 
1101.353936  	0.237341 
1103.282752  	0.221782 
1105.211568  	0.207308 
1107.140384  	0.193855 
1109.069200  	0.181571 
1110.998016  	0.170656 
1112.926832  	0.160606 
1114.855648  	0.151039 
1116.784464  	0.142229 
1118.713280  	0.133798 
1120.642096  	0.125452 
1122.570912  	0.117702 
1124.499728  	0.110681 
1126.428544  	0.104561 
1128.357360  	0.099297 
1130.286176  	0.094677 
1132.214992  	0.090806 
1134.143808  	0.087659 
1136.072624  	0.084841 
1138.001440  	0.082524 
1139.930256  	0.080390 
1141.859072  	0.077838 
1143.787888  	0.075194 
1145.716704  	0.072920 
1147.645520  	0.071283 
1149.574336  	0.070254 
1151.503152  	0.069747 
1153.431968  	0.070180 
1155.360784  	0.070887 
1157.289600  	0.072418 
1159.218416  	0.074848 
1161.147232  	0.078119 
1163.076048  	0.081697 
1165.004864  	0.085173 
1166.933680  	0.088410 
1168.862496  	0.092002 
1170.791312  	0.095901 
1172.720128  	0.100080 
1174.648944  	0.104733 
1176.577760  	0.109493 
1178.506576  	0.114314 
1180.435392  	0.119298 
1182.364208  	0.124547 
1184.293024  	0.130353 
1186.221840  	0.136810 
1188.150656  	0.144355 
1190.079472  	0.152988 
1192.008288  	0.163266 
1193.937104  	0.175191 
1195.865920  	0.188162 
1197.794736  	0.202117 
1199.723552  	0.216420 
1201.652368  	0.230730 
1203.581184  	0.244159 
1205.510000  	0.256352 
1207.438816  	0.266828 
1209.367632  	0.275927 
1211.296448  	0.282375 
1213.225264  	0.286917 
1215.154080  	0.288710 
1217.082896  	0.288872 
1219.011712  	0.287247 
1220.940528  	0.284825 
1222.869344  	0.281204 
1224.798160  	0.276907 
1226.726976  	0.271310 
1228.655792  	0.265239 
1230.584608  	0.258443 
1232.513424  	0.250953 
1234.442240  	0.242777 
1236.371056  	0.234241 
1238.299872  	0.224958 
1240.228688  	0.214825 
1242.157504  	0.204702 
1244.086320  	0.195096 
1246.015136  	0.185298 
1247.943952  	0.175664 
1249.872768  	0.166387 
1251.801584  	0.157538 
1253.730400  	0.148757 
1255.659216  	0.140455 
1257.588032  	0.132528 
1259.516848  	0.125104 
1261.445664  	0.118350 
1263.374480  	0.112315 
1265.303296  	0.107280 
1267.232112  	0.103280 
1269.160928  	0.100542 
1271.089744  	0.099063 
1273.018560  	0.098808 
1274.947376  	0.099528 
1276.876192  	0.100723 
1278.805008  	0.101412 
1280.733824  	0.100797 
1282.662640  	0.098719 
1284.591456  	0.096131 
1286.520272  	0.093798 
1288.449088  	0.092442 
1290.377904  	0.092503 
1292.306720  	0.093450 
1294.235536  	0.093882 
1296.164352  	0.092823 
1298.093168  	0.089980 
1300.021984  	0.086111 
1301.950800  	0.082006 
1303.879616  	0.077975 
1305.808432  	0.073678 
1307.737248  	0.069304 
1309.666064  	0.065389 
1311.594880  	0.062341 
1313.523696  	0.060048 
1315.452512  	0.058605 
1317.381328  	0.058025 
1319.310144  	0.058341 
1321.238960  	0.059278 
1323.167776  	0.060800 
1325.096592  	0.062088 
1327.025408  	0.063046 
1328.954224  	0.063119 
1330.883040  	0.062404 
1332.811856  	0.061128 
1334.740672  	0.059845 
1336.669488  	0.058891 
1338.598304  	0.058305 
1340.527120  	0.057782 
1342.455936  	0.057341 
1344.384752  	0.057289 
1346.313568  	0.058006 
1348.242384  	0.059518 
1350.171200  	0.061843 
1352.100016  	0.064663 
1354.028832  	0.067728 
1355.957648  	0.070902 
1357.886464  	0.073815 
1359.815280  	0.076681 
1361.744096  	0.080001 
1363.672912  	0.083656 
1365.601728  	0.086136 
1367.530544  	0.088056 
1369.459360  	0.089575 
1371.388176  	0.089717 
1373.316992  	0.088388 
1375.245808  	0.085455 
1377.174624  	0.081652 
1379.103440  	0.077786 
1381.032256  	0.074160 
1382.961072  	0.071098 
1384.889888  	0.068578 
1386.818704  	0.066516 
1388.747520  	0.064341 
1390.676336  	0.061850 
1392.605152  	0.059428 
1394.533968  	0.058096 
1396.462784  	0.058549 
1398.391600  	0.058991 
1400.320416  	0.060237 
1402.249232  	0.061039 
1404.178048  	0.062433 
1406.106864  	0.064361 
1408.035680  	0.066350 
1409.964496  	0.068770 
1411.893312  	0.072028 
1413.822128  	0.074859 
1415.750944  	0.077411 
1417.679760  	0.079205 
1419.608576  	0.080693 
1421.537392  	0.080297 
1423.466208  	0.078926 
1425.395024  	0.076659 
1427.323840  	0.073851 
1429.252656  	0.070650 
1431.181472  	0.068527 
1433.110288  	0.067767 
1435.039104  	0.067914 
1436.967920  	0.069951 
1438.896736  	0.071843 
1440.825552  	0.072541 
1442.754368  	0.073206 
1444.683184  	0.073183 
1446.612000  	0.073129 
1448.540816  	0.073348 
1450.469632  	0.073695 
1452.398448  	0.073969 
1454.327264  	0.074201 
1456.256080  	0.073928 
1458.184896  	0.075695 
1460.113712  	0.076158 
1462.042528  	0.076025 
1463.971344  	0.076293 
1465.900160  	0.078821 
1467.828976  	0.081183 
1469.757792  	0.084276 
1471.686608  	0.089212 
1473.615424  	0.099443 
1475.544240  	0.106802 
1477.473056  	0.114006 
1479.401872  	0.118539 
1481.330688  	0.122244 
1483.259504  	0.124343 
1485.188320  	0.125037 
1487.117136  	0.124415 
1489.045952  	0.123365 
1490.974768  	0.119856 
1492.903584  	0.115868 
1494.832400  	0.110506 
1496.761216  	0.102970 
1498.690032  	0.094970 
1500.618848  	0.088292 
1502.547664  	0.082092 
1504.476480  	0.076701 
1506.405296  	0.071412 
1508.334112  	0.068650 
1510.262928  	0.066229 
1512.191744  	0.064289 
1514.120560  	0.063082 
1516.049376  	0.063045 
1517.978192  	0.064795 
1519.907008  	0.066199 
1521.835824  	0.072038 
1523.764640  	0.077107 
1525.693456  	0.080916 
1527.622272  	0.084027 
1529.551088  	0.084480 
1531.479904  	0.082701 
1533.408720  	0.079159 
1535.337536  	0.074770 
1537.266352  	0.070778 
1539.195168  	0.065598 
1541.123984  	0.060721 
1543.052800  	0.059067 
1544.981616  	0.057434 
1546.910432  	0.056280 
1548.839248  	0.055442 
1550.768064  	0.056150 
1552.696880  	0.055978 
1554.625696  	0.057543 
1556.554512  	0.057919 
1558.483328  	0.060398 
1560.412144  	0.069820 
1562.340960  	0.073431 
1564.269776  	0.077768 
1566.198592  	0.085005 
1568.127408  	0.090153 
1570.056224  	0.100314 
1571.985040  	0.108030 
1573.913856  	0.112393 
1575.842672  	0.115979 
1577.771488  	0.119838 
1579.700304  	0.118989 
1581.629120  	0.117772 
1583.557936  	0.116944 
1585.486752  	0.118466 
1587.415568  	0.122154 
1589.344384  	0.129145 
1591.273200  	0.137903 
1593.202016  	0.148345 
1595.130832  	0.158925 
1597.059648  	0.169984 
1598.988464  	0.178418 
1600.917280  	0.185403 
1602.846096  	0.189420 
1604.774912  	0.191525 
1606.703728  	0.190494 
1608.632544  	0.188816 
1610.561360  	0.185541 
1612.490176  	0.182983 
1614.418992  	0.179915 
1616.347808  	0.179885 
1618.276624  	0.183630 
1620.205440  	0.187480 
1622.134256  	0.191603 
1624.063072  	0.202113 
1625.991888  	0.210808 
1627.920704  	0.221816 
1629.849520  	0.233769 
1631.778336  	0.243435 
1633.707152  	0.250081 
1635.635968  	0.260544 
1637.564784  	0.271472 
1639.493600  	0.276224 
1641.422416  	0.278685 
1643.351232  	0.280063 
1645.280048  	0.278279 
1647.208864  	0.277816 
1649.137680  	0.276108 
1651.066496  	0.272222 
1652.995312  	0.264958 
1654.924128  	0.263125 
1656.852944  	0.258870 
1658.781760  	0.253763 
1660.710576  	0.247850 
1662.639392  	0.241473 
1664.568208  	0.234985 
1666.497024  	0.228760 
1668.425840  	0.221450 
1670.354656  	0.214565 
1672.283472  	0.208940 
1674.212288  	0.203494 
1676.141104  	0.198894 
1678.069920  	0.195709 
1679.998736  	0.192753 
1681.927552  	0.190003 
1683.856368  	0.187583 
1685.785184  	0.188495 
1687.714000  	0.187115 
1689.642816  	0.185857 
1691.571632  	0.183754 
1693.500448  	0.180818 
1695.429264  	0.177339 
1697.358080  	0.174953 
1699.286896  	0.171481 
1701.215712  	0.168187 
1703.144528  	0.164351 
1705.073344  	0.159215 
1707.002160  	0.152988 
1708.930976  	0.146521 
1710.859792  	0.138961 
1712.788608  	0.130489 
1714.717424  	0.120487 
1716.646240  	0.108971 
1718.575056  	0.096050 
1720.503872  	0.085254 
1722.432688  	0.075752 
1724.361504  	0.065096 
1726.290320  	0.056116 
1728.219136  	0.048211 
1730.147952  	0.041468 
1732.076768  	0.035440 
1734.005584  	0.030937 
1735.934400  	0.027173 
1737.863216  	0.024837 
1739.792032  	0.022233 
1741.720848  	0.020511 
1743.649664  	0.018795 
1745.578480  	0.017452 
1747.507296  	0.015926 
1749.436112  	0.015087 
1751.364928  	0.014502 
1753.293744  	0.013986 
1755.222560  	0.012803 
1757.151376  	0.012660 
1759.080192  	0.011770 
1761.009008  	0.011353 
1762.937824  	0.010977 
1764.866640  	0.010601 
1766.795456  	0.009919 
1768.724272  	0.009787 
1770.653088  	0.008460 
1772.581904  	0.008803 
1774.510720  	0.008869 
1776.439536  	0.008795 
1778.368352  	0.008201 
1780.297168  	0.008109 
1782.225984  	0.007809 
1784.154800  	0.007870 
1786.083616  	0.007619 
1788.012432  	0.007366 
1789.941248  	0.006917 
1791.870064  	0.007188 
1793.798880  	0.007055 
1795.727696  	0.006855 
1797.656512  	0.006178 
1799.585328  	0.006028 
1801.514144  	0.006245 
1803.442960  	0.006406 
1805.371776  	0.005959 
1807.300592  	0.005875 
1809.229408  	0.005577 
1811.158224  	0.005749 
1813.087040  	0.005429 
1815.015856  	0.005388 
1816.944672  	0.005295 
1818.873488  	0.005556 
1820.802304  	0.005345 
1822.731120  	0.005230 
1824.659936  	0.004969 
1826.588752  	0.005081 
1828.517568  	0.004396 
1830.446384  	0.004972 
1832.375200  	0.005157 
1834.304016  	0.005475 
1836.232832  	0.005379 
1838.161648  	0.005285 
1840.090464  	0.004795 
1842.019280  	0.004549 
1843.948096  	0.004660 
1845.876912  	0.005188 
1847.805728  	0.004999 
1849.734544  	0.005343 
1851.663360  	0.005099 
1853.592176  	0.005031 
1855.520992  	0.004523 
1857.449808  	0.004729 
1859.378624  	0.004821 
1861.307440  	0.005108 
1863.236256  	0.004650 
1865.165072  	0.004492 
1867.093888  	0.004316 
1869.022704  	0.004827 
1870.951520  	0.004609 
1872.880336  	0.004470 
1874.809152  	0.003951 
1876.737968  	0.004197 
1878.666784  	0.004184 
1880.595600  	0.004260 
1882.524416  	0.004042 
1884.453232  	0.004217 
1886.382048  	0.003936 
1888.310864  	0.004166 
1890.239680  	0.004193 
1892.168496  	0.004365 
1894.097312  	0.003977 
1896.026128  	0.004250 
1897.954944  	0.004455 
1899.883760  	0.004511 
1901.812576  	0.004164 
1903.741392  	0.004331 
1905.670208  	0.004095 
1907.599024  	0.004280 
1909.527840  	0.004174 
1911.456656  	0.004352 
1913.385472  	0.004613 
1915.314288  	0.004866 
1917.243104  	0.004108 
1919.171920  	0.004452 
1921.100736  	0.003967 
1923.029552  	0.004347 
1924.958368  	0.003556 
1926.887184  	0.003363 
1928.816000  	0.003905 
1930.744816  	0.004452 
1932.673632  	0.003810 
1934.602448  	0.003596 
1936.531264  	0.003032 
1938.460080  	0.002752 
1940.388896  	0.001970 
1942.317712  	0.002469 
1944.246528  	0.002662 
1946.175344  	0.003401 
1948.104160  	0.003161 
1950.032976  	0.003344 
1951.961792  	0.002747 
1953.890608  	0.003024 
1955.819424  	0.002501 
1957.748240  	0.002402 
1959.677056  	0.001408 
1961.605872  	0.001688 
1963.534688  	0.001630 
1965.463504  	0.001987 
1967.392320  	0.000023 
1969.321136  	0.000726 
1971.249952  	0.000925 
1973.178768  	0.001362 
1975.107584  	0.001059 
1977.036400  	0.001797 
1978.965216  	0.003451 
1980.894032  	0.003671 
1982.822848  	0.001681 
1984.751664  	0.002007 
1986.680480  	0.002304 
1988.609296  	0.002671 
1990.538112  	0.002191 
1992.466928  	0.002859 
1994.395744  	0.002369 
1996.324560  	0.003102 
1998.253376  	0.003414 
2000.182192  	0.003795 
2002.111008  	0.003742 
2004.039824  	0.004587 
2005.968640  	0.003923 
2007.897456  	0.003285 
2009.826272  	0.003747 
2011.755088  	0.004572 
2013.683904  	0.003257 
2015.612720  	0.003152 
2017.541536  	0.004509 
2019.470352  	0.006146 
2021.399168  	0.004965 
2023.327984  	0.005317 
2025.256800  	0.004643 
2027.185616  	0.005148 
2029.114432  	0.004484 
2031.043248  	0.004076 
2032.972064  	0.005048 
2034.900880  	0.006732 
2036.829696  	0.005889 
2038.758512  	0.006305 
2040.687328  	0.006443 
2042.616144  	0.006727 
2044.544960  	0.006037 
2046.473776  	0.006212 
2048.402592  	0.006442 
2050.331408  	0.006660 
2052.260224  	0.005074 
2054.189040  	0.004841 
2056.117856  	0.005301 
2058.046672  	0.006269 
2059.975488  	0.005848 
2061.904304  	0.005721 
2063.833120  	0.005800 
2065.761936  	0.006320 
2067.690752  	0.006249 
2069.619568  	0.006154 
2071.548384  	0.006049 
2073.477200  	0.006339 
2075.406016  	0.006331 
2077.334832  	0.007055 
2079.263648  	0.007147 
2081.192464  	0.006990 
2083.121280  	0.006268 
2085.050096  	0.006024 
2086.978912  	0.005772 
2088.907728  	0.006127 
2090.836544  	0.005919 
2092.765360  	0.005891 
2094.694176  	0.005870 
2096.622992  	0.006621 
2098.551808  	0.006853 
2100.480624  	0.006859 
2102.409440  	0.006782 
2104.338256  	0.006867 
2106.267072  	0.007162 
2108.195888  	0.007804 
2110.124704  	0.007385 
2112.053520  	0.006960 
2113.982336  	0.006838 
2115.911152  	0.007079 
2117.839968  	0.006947 
2119.768784  	0.006649 
2121.697600  	0.006104 
2123.626416  	0.006473 
2125.555232  	0.006403 
2127.484048  	0.006215 
2129.412864  	0.005358 
2131.341680  	0.005369 
2133.270496  	0.005806 
2135.199312  	0.006914 
2137.128128  	0.006781 
2139.056944  	0.006343 
2140.985760  	0.006004 
2142.914576  	0.006446 
2144.843392  	0.006518 
2146.772208  	0.007202 
2148.701024  	0.007748 
2150.629840  	0.008731 
2152.558656  	0.008175 
2154.487472  	0.008208 
2156.416288  	0.008132 
2158.345104  	0.010464 
2160.273920  	0.012591 
2162.202736  	0.013961 
2164.131552  	0.013327 
2166.060368  	0.012147 
2167.989184  	0.010665 
2169.918000  	0.010578 
2171.846816  	0.010515 
2173.775632  	0.009746 
2175.704448  	0.009139 
2177.633264  	0.008795 
2179.562080  	0.007937 
2181.490896  	0.008661 
2183.419712  	0.009434 
2185.348528  	0.008965 
2187.277344  	0.008370 
2189.206160  	0.009932 
2191.134976  	0.010411 
2193.063792  	0.009633 
2194.992608  	0.008820 
2196.921424  	0.009575 
2198.850240  	0.009565 
2200.779056  	0.009547 
2202.707872  	0.008879 
2204.636688  	0.009166 
2206.565504  	0.009701 
2208.494320  	0.009952 
2210.423136  	0.009322 
2212.351952  	0.008355 
2214.280768  	0.008024 
2216.209584  	0.008352 
2218.138400  	0.007983 
2220.067216  	0.008050 
2221.996032  	0.007979 
2223.924848  	0.008249 
2225.853664  	0.007505 
2227.782480  	0.007882 
2229.711296  	0.008548 
2231.640112  	0.008079 
2233.568928  	0.007380 
2235.497744  	0.007391 
2237.426560  	0.007299 
2239.355376  	0.007816 
2241.284192  	0.008008 
2243.213008  	0.007827 
2245.141824  	0.007101 
2247.070640  	0.007465 
2248.999456  	0.007331 
2250.928272  	0.007214 
2252.857088  	0.007166 
2254.785904  	0.007647 
2256.714720  	0.008017 
2258.643536  	0.007497 
2260.572352  	0.007232 
2262.501168  	0.007510 
2264.429984  	0.007493 
2266.358800  	0.007713 
2268.287616  	0.007970 
2270.216432  	0.008298 
2272.145248  	0.008038 
2274.074064  	0.007829 
2276.002880  	0.007737 
2277.931696  	0.007861 
2279.860512  	0.007857 
2281.789328  	0.008211 
2283.718144  	0.008495 
2285.646960  	0.008563 
2287.575776  	0.008348 
2289.504592  	0.008676 
2291.433408  	0.008784 
2293.362224  	0.008931 
2295.291040  	0.009074 
2297.219856  	0.009003 
2299.148672  	0.009176 
2301.077488  	0.009740 
2303.006304  	0.009692 
2304.935120  	0.009706 
2306.863936  	0.010327 
2308.792752  	0.010764 
2310.721568  	0.010885 
2312.650384  	0.011264 
2314.579200  	0.011183 
2316.508016  	0.011116 
2318.436832  	0.011500 
2320.365648  	0.012296 
2322.294464  	0.012998 
2324.223280  	0.012770 
2326.152096  	0.011511 
2328.080912  	0.011203 
2330.009728  	0.011746 
2331.938544  	0.011982 
2333.867360  	0.011078 
2335.796176  	0.010728 
2337.724992  	0.010732 
2339.653808  	0.011065 
2341.582624  	0.011329 
2343.511440  	0.011840 
2345.440256  	0.011951 
2347.369072  	0.011538 
2349.297888  	0.010908 
2351.226704  	0.011064 
2353.155520  	0.011567 
2355.084336  	0.012214 
2357.013152  	0.012657 
2358.941968  	0.012727 
2360.870784  	0.013000 
2362.799600  	0.013196 
2364.728416  	0.012621 
2366.657232  	0.012639 
2368.586048  	0.012720 
2370.514864  	0.012759 
2372.443680  	0.012453 
2374.372496  	0.011934 
2376.301312  	0.011364 
2378.230128  	0.011048 
2380.158944  	0.010479 
2382.087760  	0.009741 
2384.016576  	0.008996 
2385.945392  	0.008514 
2387.874208  	0.008295 
2389.803024  	0.008408 
2391.731840  	0.008448 
2393.660656  	0.008358 
2395.589472  	0.008082 
2397.518288  	0.008081 
2399.447104  	0.008190 
2401.375920  	0.008352 
2403.304736  	0.008503 
2405.233552  	0.008541 
2407.162368  	0.008706 
2409.091184  	0.008891 
2411.020000  	0.008873 
2412.948816  	0.008977 
2414.877632  	0.009140 
2416.806448  	0.009278 
2418.735264  	0.009253 
2420.664080  	0.009191 
2422.592896  	0.009197 
2424.521712  	0.009445 
2426.450528  	0.009639 
2428.379344  	0.009716 
2430.308160  	0.009861 
2432.236976  	0.010133 
2434.165792  	0.010292 
2436.094608  	0.010434 
2438.023424  	0.010249 
2439.952240  	0.010102 
2441.881056  	0.010151 
2443.809872  	0.010527 
2445.738688  	0.010723 
2447.667504  	0.010974 
2449.596320  	0.010905 
2451.525136  	0.010934 
2453.453952  	0.011026 
2455.382768  	0.011217 
2457.311584  	0.011348 
2459.240400  	0.011090 
2461.169216  	0.010940 
2463.098032  	0.011256 
2465.026848  	0.011407 
2466.955664  	0.011484 
2468.884480  	0.011708 
2470.813296  	0.011872 
2472.742112  	0.011691 
2474.670928  	0.011757 
2476.599744  	0.011808 
2478.528560  	0.012017 
2480.457376  	0.012108 
2482.386192  	0.012123 
2484.315008  	0.012183 
2486.243824  	0.012432 
2488.172640  	0.012589 
2490.101456  	0.012863 
2492.030272  	0.012882 
2493.959088  	0.012836 
2495.887904  	0.012923 
2497.816720  	0.013145 
2499.745536  	0.013244 
2501.674352  	0.013402 
2503.603168  	0.013282 
2505.531984  	0.013193 
2507.460800  	0.013371 
2509.389616  	0.013657 
2511.318432  	0.013725 
2513.247248  	0.013716 
2515.176064  	0.013589 
2517.104880  	0.013845 
2519.033696  	0.014199 
2520.962512  	0.014167 
2522.891328  	0.014048 
2524.820144  	0.014170 
2526.748960  	0.014230 
2528.677776  	0.014334 
2530.606592  	0.014549 
2532.535408  	0.014709 
2534.464224  	0.014609 
2536.393040  	0.014549 
2538.321856  	0.014646 
2540.250672  	0.014622 
2542.179488  	0.014809 
2544.108304  	0.015137 
2546.037120  	0.015309 
2547.965936  	0.015445 
2549.894752  	0.015477 
2551.823568  	0.015576 
2553.752384  	0.015491 
2555.681200  	0.015462 
2557.610016  	0.015630 
2559.538832  	0.015992 
2561.467648  	0.016292 
2563.396464  	0.016378 
2565.325280  	0.016187 
2567.254096  	0.016375 
2569.182912  	0.016728 
2571.111728  	0.017196 
2573.040544  	0.017431 
2574.969360  	0.017495 
2576.898176  	0.017617 
2578.826992  	0.017877 
2580.755808  	0.018002 
2582.684624  	0.018178 
2584.613440  	0.018297 
2586.542256  	0.018383 
2588.471072  	0.018439 
2590.399888  	0.018483 
2592.328704  	0.018537 
2594.257520  	0.018813 
2596.186336  	0.018978 
2598.115152  	0.019014 
2600.043968  	0.019092 
2601.972784  	0.019282 
2603.901600  	0.019436 
2605.830416  	0.019614 
2607.759232  	0.019795 
2609.688048  	0.019871 
2611.616864  	0.019997 
2613.545680  	0.020348 
2615.474496  	0.020569 
2617.403312  	0.020718 
2619.332128  	0.020861 
2621.260944  	0.021029 
2623.189760  	0.021159 
2625.118576  	0.021326 
2627.047392  	0.021555 
2628.976208  	0.021841 
2630.905024  	0.022024 
2632.833840  	0.022257 
2634.762656  	0.022469 
2636.691472  	0.022803 
2638.620288  	0.023077 
2640.549104  	0.023273 
2642.477920  	0.023462 
2644.406736  	0.023616 
2646.335552  	0.023822 
2648.264368  	0.024141 
2650.193184  	0.024424 
2652.122000  	0.024664 
2654.050816  	0.024839 
2655.979632  	0.025036 
2657.908448  	0.025237 
2659.837264  	0.025479 
2661.766080  	0.025709 
2663.694896  	0.025804 
2665.623712  	0.025857 
2667.552528  	0.026129 
2669.481344  	0.026460 
2671.410160  	0.026717 
2673.338976  	0.026859 
2675.267792  	0.026974 
2677.196608  	0.027103 
2679.125424  	0.027311 
2681.054240  	0.027492 
2682.983056  	0.027685 
2684.911872  	0.027914 
2686.840688  	0.028128 
2688.769504  	0.028332 
2690.698320  	0.028485 
2692.627136  	0.028644 
2694.555952  	0.028809 
2696.484768  	0.028913 
2698.413584  	0.029178 
2700.342400  	0.029426 
2702.271216  	0.029646 
2704.200032  	0.029874 
2706.128848  	0.030073 
2708.057664  	0.030327 
2709.986480  	0.030555 
2711.915296  	0.030736 
2713.844112  	0.030924 
2715.772928  	0.031132 
2717.701744  	0.031315 
2719.630560  	0.031475 
2721.559376  	0.031800 
2723.488192  	0.032043 
2725.417008  	0.032223 
2727.345824  	0.032452 
2729.274640  	0.032682 
2731.203456  	0.032971 
2733.132272  	0.033247 
2735.061088  	0.033432 
2736.989904  	0.033609 
2738.918720  	0.033938 
2740.847536  	0.034114 
2742.776352  	0.034186 
2744.705168  	0.034336 
2746.633984  	0.034544 
2748.562800  	0.034803 
2750.491616  	0.034987 
2752.420432  	0.035160 
2754.349248  	0.035181 
2756.278064  	0.035200 
2758.206880  	0.035265 
2760.135696  	0.035347 
2762.064512  	0.035452 
2763.993328  	0.035599 
2765.922144  	0.035614 
2767.850960  	0.035677 
2769.779776  	0.035685 
2771.708592  	0.035636 
2773.637408  	0.035593 
2775.566224  	0.035604 
2777.495040  	0.035748 
2779.423856  	0.035816 
2781.352672  	0.035797 
2783.281488  	0.035903 
2785.210304  	0.035988 
2787.139120  	0.036121 
2789.067936  	0.036155 
2790.996752  	0.036128 
2792.925568  	0.036191 
2794.854384  	0.036298 
2796.783200  	0.036410 
2798.712016  	0.036493 
2800.640832  	0.036566 
2802.569648  	0.036633 
2804.498464  	0.036654 
2806.427280  	0.036750 
2808.356096  	0.036942 
2810.284912  	0.037140 
2812.213728  	0.037065 
2814.142544  	0.037124 
2816.071360  	0.037355 
2818.000176  	0.037577 
2819.928992  	0.037559 
2821.857808  	0.037520 
2823.786624  	0.037553 
2825.715440  	0.037551 
2827.644256  	0.037542 
2829.573072  	0.037494 
2831.501888  	0.037476 
2833.430704  	0.037415 
2835.359520  	0.037205 
2837.288336  	0.037028 
2839.217152  	0.036977 
2841.145968  	0.036998 
2843.074784  	0.036950 
2845.003600  	0.036917 
2846.932416  	0.037030 
2848.861232  	0.037143 
2850.790048  	0.037130 
2852.718864  	0.037169 
2854.647680  	0.037180 
2856.576496  	0.037202 
2858.505312  	0.037152 
2860.434128  	0.037038 
2862.362944  	0.037103 
2864.291760  	0.037301 
2866.220576  	0.037376 
2868.149392  	0.037425 
2870.078208  	0.037548 
2872.007024  	0.037936 
2873.935840  	0.038533 
2875.864656  	0.039185 
2877.793472  	0.039771 
2879.722288  	0.040356 
2881.651104  	0.040989 
2883.579920  	0.041470 
2885.508736  	0.041759 
2887.437552  	0.042053 
2889.366368  	0.042214 
2891.295184  	0.042254 
2893.224000  	0.042193 
2895.152816  	0.042158 
2897.081632  	0.041977 
2899.010448  	0.041445 
2900.939264  	0.041168 
2902.868080  	0.041533 
2904.796896  	0.041816 
2906.725712  	0.042051 
2908.654528  	0.042419 
2910.583344  	0.043090 
2912.512160  	0.043913 
2914.440976  	0.044763 
2916.369792  	0.045665 
2918.298608  	0.046329 
2920.227424  	0.046926 
2922.156240  	0.047609 
2924.085056  	0.048394 
2926.013872  	0.049311 
2927.942688  	0.050235 
2929.871504  	0.051228 
2931.800320  	0.052135 
2933.729136  	0.053003 
2935.657952  	0.053745 
2937.586768  	0.054445 
2939.515584  	0.055105 
2941.444400  	0.055676 
2943.373216  	0.056100 
2945.302032  	0.056258 
2947.230848  	0.056277 
2949.159664  	0.056258 
2951.088480  	0.056079 
2953.017296  	0.055780 
2954.946112  	0.055411 
2956.874928  	0.055054 
2958.803744  	0.054575 
2960.732560  	0.053970 
2962.661376  	0.053272 
2964.590192  	0.052724 
2966.519008  	0.051969 
2968.447824  	0.051042 
2970.376640  	0.050250 
2972.305456  	0.049456 
2974.234272  	0.048793 
2976.163088  	0.048339 
2978.091904  	0.047963 
2980.020720  	0.047685 
2981.949536  	0.047491 
2983.878352  	0.047346 
2985.807168  	0.047421 
2987.735984  	0.047619 
2989.664800  	0.048085 
2991.593616  	0.049180 
2993.522432  	0.049926 
2995.451248  	0.050441 
2997.380064  	0.051182 
2999.308880  	0.051872 
3001.237696  	0.052475 
3003.166512  	0.053032 
3005.095328  	0.053579 
3007.024144  	0.054229 
3008.952960  	0.054919 
3010.881776  	0.055493 
3012.810592  	0.055910 
3014.739408  	0.056430 
3016.668224  	0.057013 
3018.597040  	0.057628 
3020.525856  	0.058188 
3022.454672  	0.058838 
3024.383488  	0.059221 
3026.312304  	0.059728 
3028.241120  	0.060377 
3030.169936  	0.060967 
3032.098752  	0.061417 
3034.027568  	0.061940 
3035.956384  	0.062488 
3037.885200  	0.062824 
3039.814016  	0.063246 
3041.742832  	0.063841 
3043.671648  	0.064363 
3045.600464  	0.065087 
3047.529280  	0.065535 
3049.458096  	0.065955 
3051.386912  	0.066598 
3053.315728  	0.067235 
3055.244544  	0.067788 
3057.173360  	0.068616 
3059.102176  	0.069328 
3061.030992  	0.070067 
3062.959808  	0.070748 
3064.888624  	0.071536 
3066.817440  	0.072395 
3068.746256  	0.073346 
3070.675072  	0.074103 
3072.603888  	0.074689 
3074.532704  	0.075379 
3076.461520  	0.076124 
3078.390336  	0.076951 
3080.319152  	0.077967 
3082.247968  	0.078660 
3084.176784  	0.079196 
3086.105600  	0.079909 
3088.034416  	0.080728 
3089.963232  	0.081483 
3091.892048  	0.082263 
3093.820864  	0.083096 
3095.749680  	0.083816 
3097.678496  	0.084565 
3099.607312  	0.085420 
3101.536128  	0.086300 
3103.464944  	0.087047 
3105.393760  	0.087705 
3107.322576  	0.088450 
3109.251392  	0.089023 
3111.180208  	0.089528 
3113.109024  	0.089857 
3115.037840  	0.090376 
3116.966656  	0.091067 
3118.895472  	0.091779 
3120.824288  	0.092169 
3122.753104  	0.092509 
3124.681920  	0.093050 
3126.610736  	0.093542 
3128.539552  	0.093930 
3130.468368  	0.094187 
3132.397184  	0.094618 
3134.326000  	0.094989 
3136.254816  	0.095238 
3138.183632  	0.095640 
3140.112448  	0.096233 
3142.041264  	0.096853 
3143.970080  	0.097074 
3145.898896  	0.097285 
3147.827712  	0.097728 
3149.756528  	0.098051 
3151.685344  	0.098464 
3153.614160  	0.098987 
3155.542976  	0.099313 
3157.471792  	0.099675 
3159.400608  	0.100048 
3161.329424  	0.100326 
3163.258240  	0.100721 
3165.187056  	0.101212 
3167.115872  	0.101611 
3169.044688  	0.101921 
3170.973504  	0.102320 
3172.902320  	0.102429 
3174.831136  	0.102378 
3176.759952  	0.102517 
3178.688768  	0.102708 
3180.617584  	0.103075 
3182.546400  	0.103019 
3184.475216  	0.102630 
3186.404032  	0.102524 
3188.332848  	0.102612 
3190.261664  	0.102469 
3192.190480  	0.102357 
3194.119296  	0.102201 
3196.048112  	0.101815 
3197.976928  	0.101391 
3199.905744  	0.101278 
3201.834560  	0.100739 
3203.763376  	0.100378 
3205.692192  	0.100135 
3207.621008  	0.099614 
3209.549824  	0.099152 
3211.478640  	0.098770 
3213.407456  	0.098386 
3215.336272  	0.098193 
3217.265088  	0.097746 
3219.193904  	0.097435 
3221.122720  	0.097276 
3223.051536  	0.096797 
3224.980352  	0.096305 
3226.909168  	0.095756 
3228.837984  	0.095336 
3230.766800  	0.095141 
3232.695616  	0.094673 
3234.624432  	0.094300 
3236.553248  	0.094057 
3238.482064  	0.093978 
3240.410880  	0.094128 
3242.339696  	0.094215 
3244.268512  	0.094220 
3246.197328  	0.094243 
3248.126144  	0.094042 
3250.054960  	0.094138 
3251.983776  	0.094036 
3253.912592  	0.094150 
3255.841408  	0.094482 
3257.770224  	0.094820 
3259.699040  	0.095076 
3261.627856  	0.095086 
3263.556672  	0.095011 
3265.485488  	0.095312 
3267.414304  	0.095489 
3269.343120  	0.095799 
3271.271936  	0.095910 
3273.200752  	0.095890 
3275.129568  	0.096196 
3277.058384  	0.096508 
3278.987200  	0.096563 
3280.916016  	0.096529 
3282.844832  	0.096596 
3284.773648  	0.096807 
3286.702464  	0.097025 
3288.631280  	0.097233 
3290.560096  	0.097406 
3292.488912  	0.097795 
3294.417728  	0.098049 
3296.346544  	0.098378 
3298.275360  	0.098943 
3300.204176  	0.099227 
3302.132992  	0.099609 
3304.061808  	0.099927 
3305.990624  	0.100197 
3307.919440  	0.100610 
3309.848256  	0.100893 
3311.777072  	0.101046 
3313.705888  	0.101391 
3315.634704  	0.101781 
3317.563520  	0.102101 
3319.492336  	0.102514 
3321.421152  	0.102753 
3323.349968  	0.102973 
3325.278784  	0.103123 
3327.207600  	0.103197 
3329.136416  	0.103306 
3331.065232  	0.103449 
3332.994048  	0.103488 
3334.922864  	0.103719 
3336.851680  	0.103776 
3338.780496  	0.103343 
3340.709312  	0.102858 
3342.638128  	0.102635 
3344.566944  	0.102340 
3346.495760  	0.101941 
3348.424576  	0.101523 
3350.353392  	0.101348 
3352.282208  	0.100823 
3354.211024  	0.100333 
3356.139840  	0.100204 
3358.068656  	0.099754 
3359.997472  	0.099059 
3361.926288  	0.098454 
3363.855104  	0.097866 
3365.783920  	0.097731 
3367.712736  	0.097376 
3369.641552  	0.096981 
3371.570368  	0.096631 
3373.499184  	0.096043 
3375.428000  	0.095289 
3377.356816  	0.094796 
3379.285632  	0.094620 
3381.214448  	0.094260 
3383.143264  	0.093666 
3385.072080  	0.093438 
3387.000896  	0.093019 
3388.929712  	0.092459 
3390.858528  	0.091562 
3392.787344  	0.091099 
3394.716160  	0.090992 
3396.644976  	0.090738 
3398.573792  	0.090224 
3400.502608  	0.089631 
3402.431424  	0.089317 
3404.360240  	0.088884 
3406.289056  	0.088303 
3408.217872  	0.087794 
3410.146688  	0.087264 
3412.075504  	0.086776 
3414.004320  	0.086244 
3415.933136  	0.085738 
3417.861952  	0.085102 
3419.790768  	0.084485 
3421.719584  	0.084140 
3423.648400  	0.083840 
3425.577216  	0.083135 
3427.506032  	0.082579 
3429.434848  	0.082031 
3431.363664  	0.081340 
3433.292480  	0.080671 
3435.221296  	0.080097 
3437.150112  	0.079515 
3439.078928  	0.079016 
3441.007744  	0.078409 
3442.936560  	0.077687 
3444.865376  	0.076794 
3446.794192  	0.076441 
3448.723008  	0.076457 
3450.651824  	0.075373 
3452.580640  	0.074324 
3454.509456  	0.073729 
3456.438272  	0.072983 
3458.367088  	0.072068 
3460.295904  	0.071403 
3462.224720  	0.070867 
3464.153536  	0.070131 
3466.082352  	0.069265 
3468.011168  	0.068483 
3469.939984  	0.067501 
3471.868800  	0.066296 
3473.797616  	0.065422 
3475.726432  	0.064818 
3477.655248  	0.063991 
3479.584064  	0.063068 
3481.512880  	0.062488 
3483.441696  	0.061883 
3485.370512  	0.060630 
3487.299328  	0.059708 
3489.228144  	0.059153 
3491.156960  	0.058336 
3493.085776  	0.057152 
3495.014592  	0.056029 
3496.943408  	0.055452 
3498.872224  	0.054638 
3500.801040  	0.053310 
3502.729856  	0.052961 
3504.658672  	0.053024 
3506.587488  	0.051958 
3508.516304  	0.050864 
3510.445120  	0.050617 
3512.373936  	0.050015 
3514.302752  	0.049150 
3516.231568  	0.048218 
3518.160384  	0.047324 
3520.089200  	0.046459 
3522.018016  	0.045669 
3523.946832  	0.045530 
3525.875648  	0.044754 
3527.804464  	0.043962 
3529.733280  	0.043497 
3531.662096  	0.042909 
3533.590912  	0.041883 
3535.519728  	0.041399 
3537.448544  	0.041318 
3539.377360  	0.040406 
3541.306176  	0.039513 
3543.234992  	0.038889 
3545.163808  	0.038967 
3547.092624  	0.038944 
3549.021440  	0.037654 
3550.950256  	0.036349 
3552.879072  	0.036206 
3554.807888  	0.035558 
3556.736704  	0.034649 
3558.665520  	0.033962 
3560.594336  	0.033258 
3562.523152  	0.032211 
3564.451968  	0.030984 
3566.380784  	0.031203 
3568.309600  	0.032599 
3570.238416  	0.031157 
3572.167232  	0.029355 
3574.096048  	0.028417 
3576.024864  	0.027637 
3577.953680  	0.026928 
3579.882496  	0.026149 
3581.811312  	0.025391 
3583.740128  	0.023937 
3585.668944  	0.022765 
3587.597760  	0.023645 
3589.526576  	0.023629 
3591.455392  	0.021710 
3593.384208  	0.020740 
3595.313024  	0.020706 
3597.241840  	0.019882 
3599.170656  	0.018490 
3601.099472  	0.018041 
3603.028288  	0.017297 
3604.957104  	0.015671 
3606.885920  	0.014640 
3608.814736  	0.014861 
3610.743552  	0.013536 
3612.672368  	0.012424 
3614.601184  	0.011719 
3616.530000  	0.009887 
3618.458816  	0.009388 
3620.387632  	0.010218 
3622.316448  	0.009234 
3624.245264  	0.007519 
3626.174080  	0.005296 
3628.102896  	0.004981 
3630.031712  	0.006991 
3631.960528  	0.005016 
3633.889344  	0.004132 
3635.818160  	0.003205 
3637.746976  	0.001851 
3639.675792  	0.000929 
3641.604608  	0.000058 
3643.533424  	-0.000837 
3645.462240  	-0.002745 
3647.391056  	-0.003970 
3649.319872  	-0.003116 
3651.248688  	-0.001744 
3653.177504  	-0.003718 
3655.106320  	-0.004686 
3657.035136  	-0.004175 
3658.963952  	-0.004814 
3660.892768  	-0.005292 
3662.821584  	-0.006014 
3664.750400  	-0.006753 
3666.679216  	-0.007932 
3668.608032  	-0.008889 
3670.536848  	-0.007421 
3672.465664  	-0.008416 
3674.394480  	-0.008830 
3676.323296  	-0.006627 
3678.252112  	-0.007634 
3680.180928  	-0.007549 
3682.109744  	-0.008037 
3684.038560  	-0.008569 
3685.967376  	-0.009389 
3687.896192  	-0.009605 
3689.825008  	-0.008688 
3691.753824  	-0.007711 
3693.682640  	-0.007744 
3695.611456  	-0.007835 
3697.540272  	-0.007918 
3699.469088  	-0.008471 
3701.397904  	-0.007991 
3703.326720  	-0.007536 
3705.255536  	-0.008050 
3707.184352  	-0.008840 
3709.113168  	-0.009326 
3711.041984  	-0.008464 
3712.970800  	-0.007366 
3714.899616  	-0.007853 
3716.828432  	-0.008350 
3718.757248  	-0.008188 
3720.686064  	-0.008334 
3722.614880  	-0.008066 
3724.543696  	-0.007903 
3726.472512  	-0.007425 
3728.401328  	-0.007699 
3730.330144  	-0.008879 
3732.258960  	-0.008923 
3734.187776  	-0.007870 
3736.116592  	-0.006485 
3738.045408  	-0.007374 
3739.974224  	-0.008212 
3741.903040  	-0.009246 
3743.831856  	-0.008642 
3745.760672  	-0.007923 
3747.689488  	-0.009610 
3749.618304  	-0.009208 
3751.547120  	-0.007708 
3753.475936  	-0.007488 
3755.404752  	-0.008423 
3757.333568  	-0.008797 
3759.262384  	-0.008304 
3761.191200  	-0.007905 
3763.120016  	-0.008598 
3765.048832  	-0.008163 
3766.977648  	-0.008182 
3768.906464  	-0.008150 
3770.835280  	-0.007463 
3772.764096  	-0.007949 
3774.692912  	-0.008276 
3776.621728  	-0.008714 
3778.550544  	-0.008546 
3780.479360  	-0.007709 
3782.408176  	-0.008226 
3784.336992  	-0.008191 
3786.265808  	-0.007788 
3788.194624  	-0.007868 
3790.123440  	-0.008081 
3792.052256  	-0.008269 
3793.981072  	-0.008645 
3795.909888  	-0.008398 
3797.838704  	-0.008558 
3799.767520  	-0.009264 
3801.696336  	-0.008134 
3803.625152  	-0.008726 
3805.553968  	-0.009420 
3807.482784  	-0.008067 
3809.411600  	-0.008119 
3811.340416  	-0.008375 
3813.269232  	-0.009336 
3815.198048  	-0.009461 
3817.126864  	-0.008820 
3819.055680  	-0.009723 
3820.984496  	-0.008387 
3822.913312  	-0.007932 
3824.842128  	-0.008895 
3826.770944  	-0.008619 
3828.699760  	-0.008781 
3830.628576  	-0.008939 
3832.557392  	-0.008792 
3834.486208  	-0.009238 
3836.415024  	-0.009420 
3838.343840  	-0.008938 
3840.272656  	-0.008597 
3842.201472  	-0.008171 
3844.130288  	-0.007685 
3846.059104  	-0.008246 
3847.987920  	-0.009057 
3849.916736  	-0.010077 
3851.845552  	-0.010223 
3853.774368  	-0.007251 
3855.703184  	-0.007569 
3857.632000  	-0.008360 
3859.560816  	-0.009063 
3861.489632  	-0.009293 
3863.418448  	-0.008954 
3865.347264  	-0.007894 
3867.276080  	-0.008921 
3869.204896  	-0.008906 
3871.133712  	-0.008216 
3873.062528  	-0.008816 
3874.991344  	-0.008022 
3876.920160  	-0.008644 
3878.848976  	-0.008925 
3880.777792  	-0.008224 
3882.706608  	-0.008646 
3884.635424  	-0.008425 
3886.564240  	-0.007394 
3888.493056  	-0.008736 
3890.421872  	-0.008876 
3892.350688  	-0.008122 
3894.279504  	-0.008368 
3896.208320  	-0.008958 
3898.137136  	-0.008935 
3900.065952  	-0.008647 
3901.994768  	-0.008512 
3903.923584  	-0.007727 
3905.852400  	-0.007566 
3907.781216  	-0.008231 
3909.710032  	-0.008592 
3911.638848  	-0.008489 
3913.567664  	-0.008473 
3915.496480  	-0.008302 
3917.425296  	-0.007824 
3919.354112  	-0.008072 
3921.282928  	-0.008358 
3923.211744  	-0.008304 
3925.140560  	-0.007851 
3927.069376  	-0.008328 
3928.998192  	-0.008626 
3930.927008  	-0.008533 
3932.855824  	-0.008187 
3934.784640  	-0.008237 
3936.713456  	-0.008225 
3938.642272  	-0.008191 
3940.571088  	-0.008448 
3942.499904  	-0.007918 
3944.428720  	-0.007971 
3946.357536  	-0.008447 
3948.286352  	-0.008340 
3950.215168  	-0.008234 
3952.143984  	-0.008336 
3954.072800  	-0.008381 
3956.001616  	-0.008433 
3957.930432  	-0.008377 
3959.859248  	-0.008398 
3961.788064  	-0.008257 
3963.716880  	-0.008005 
3965.645696  	-0.008062 
3967.574512  	-0.008402 
3969.503328  	-0.008502 
3971.432144  	-0.008481 
3973.360960  	-0.008378 
3975.289776  	-0.008213 
3977.218592  	-0.008219 
3979.147408  	-0.008197 
3981.076224  	-0.008276 
3983.005040  	-0.008391 
3984.933856  	-0.008379 
3986.862672  	-0.008529 
3988.791488  	-0.008685 
3990.720304  	-0.008433 
3992.649120  	-0.008224 
3994.577936  	-0.008244 
3996.506752  	-0.008471 
3998.435568  	-0.008475 
4000.364384  	-0.008423 