##TITLE=No Description
##DATA TYPE=INFRARED SPECTRUM
##XUNITS=1/CM
##YUNITS=Abs
399.264912  	0.529912 
401.193728  	0.521259 
403.122544  	0.536032 
405.051360  	0.545602 
406.980176  	0.532600 
408.908992  	0.520795 
410.837808  	0.521509 
412.766624  	0.522532 
414.695440  	0.530986 
416.624256  	0.534846 
418.553072  	0.541958 
420.481888  	0.520590 
422.410704  	0.509253 
424.339520  	0.503083 
426.268336  	0.510768 
428.197152  	0.513344 
430.125968  	0.509661 
432.054784  	0.500028 
433.983600  	0.499494 
435.912416  	0.494416 
437.841232  	0.489851 
439.770048  	0.486642 
441.698864  	0.495586 
443.627680  	0.504825 
445.556496  	0.501975 
447.485312  	0.490910 
449.414128  	0.490423 
451.342944  	0.494026 
453.271760  	0.495706 
455.200576  	0.492640 
457.129392  	0.491961 
459.058208  	0.494399 
460.987024  	0.499806 
462.915840  	0.498417 
464.844656  	0.499052 
466.773472  	0.495256 
468.702288  	0.499230 
470.631104  	0.504226 
472.559920  	0.509312 
474.488736  	0.504168 
476.417552  	0.502063 
478.346368  	0.499133 
480.275184  	0.505183 
482.204000  	0.506865 
484.132816  	0.500534 
486.061632  	0.495482 
487.990448  	0.496872 
489.919264  	0.495228 
491.848080  	0.499117 
493.776896  	0.499291 
495.705712  	0.495780 
497.634528  	0.491005 
499.563344  	0.492832 
501.492160  	0.490607 
503.420976  	0.488622 
505.349792  	0.485788 
507.278608  	0.485035 
509.207424  	0.485637 
511.136240  	0.490006 
513.065056  	0.492035 
514.993872  	0.494662 
516.922688  	0.494496 
518.851504  	0.497288 
520.780320  	0.500890 
522.709136  	0.503360 
524.637952  	0.501359 
526.566768  	0.500611 
528.495584  	0.494693 
530.424400  	0.489389 
532.353216  	0.483168 
534.282032  	0.477019 
536.210848  	0.469220 
538.139664  	0.462824 
540.068480  	0.456282 
541.997296  	0.453246 
543.926112  	0.450148 
545.854928  	0.446463 
547.783744  	0.442835 
549.712560  	0.441140 
551.641376  	0.436930 
553.570192  	0.433402 
555.499008  	0.429945 
557.427824  	0.428046 
559.356640  	0.424636 
561.285456  	0.420286 
563.214272  	0.415094 
565.143088  	0.410126 
567.071904  	0.406004 
569.000720  	0.402952 
570.929536  	0.398542 
572.858352  	0.395633 
574.787168  	0.393785 
576.715984  	0.392656 
578.644800  	0.387848 
580.573616  	0.381269 
582.502432  	0.374545 
584.431248  	0.368558 
586.360064  	0.363017 
588.288880  	0.360550 
590.217696  	0.359454 
592.146512  	0.358659 
594.075328  	0.357877 
596.004144  	0.355761 
597.932960  	0.352516 
599.861776  	0.351211 
601.790592  	0.350585 
603.719408  	0.349896 
605.648224  	0.348760 
607.577040  	0.348175 
609.505856  	0.347002 
611.434672  	0.346107 
613.363488  	0.345164 
615.292304  	0.344645 
617.221120  	0.342515 
619.149936  	0.341468 
621.078752  	0.340640 
623.007568  	0.340288 
624.936384  	0.339727 
626.865200  	0.339373 
628.794016  	0.339173 
630.722832  	0.339497 
632.651648  	0.340228 
634.580464  	0.341588 
636.509280  	0.342637 
638.438096  	0.342404 
640.366912  	0.342611 
642.295728  	0.341745 
644.224544  	0.338592 
646.153360  	0.335812 
648.082176  	0.332327 
650.010992  	0.328378 
651.939808  	0.323829 
653.868624  	0.320169 
655.797440  	0.316536 
657.726256  	0.312274 
659.655072  	0.307611 
661.583888  	0.303325 
663.512704  	0.298486 
665.441520  	0.293440 
667.370336  	0.288367 
669.299152  	0.282104 
671.227968  	0.277625 
673.156784  	0.273839 
675.085600  	0.271389 
677.014416  	0.269187 
678.943232  	0.266766 
680.872048  	0.265695 
682.800864  	0.264766 
684.729680  	0.263398 
686.658496  	0.261800 
688.587312  	0.261031 
690.516128  	0.259737 
692.444944  	0.258776 
694.373760  	0.258845 
696.302576  	0.258294 
698.231392  	0.256141 
700.160208  	0.254153 
702.089024  	0.251806 
704.017840  	0.248970 
705.946656  	0.246206 
707.875472  	0.244505 
709.804288  	0.242800 
711.733104  	0.241311 
713.661920  	0.239708 
715.590736  	0.239065 
717.519552  	0.239366 
719.448368  	0.240371 
721.377184  	0.242933 
723.306000  	0.245572 
725.234816  	0.246912 
727.163632  	0.245583 
729.092448  	0.242384 
731.021264  	0.238297 
732.950080  	0.234220 
734.878896  	0.230389 
736.807712  	0.226636 
738.736528  	0.223835 
740.665344  	0.221508 
742.594160  	0.220863 
744.522976  	0.220278 
746.451792  	0.219835 
748.380608  	0.218642 
750.309424  	0.217450 
752.238240  	0.216602 
754.167056  	0.216560 
756.095872  	0.216320 
758.024688  	0.215678 
759.953504  	0.216434 
761.882320  	0.218565 
763.811136  	0.219858 
765.739952  	0.218364 
767.668768  	0.214875 
769.597584  	0.211916 
771.526400  	0.211869 
773.455216  	0.215241 
775.384032  	0.222362 
777.312848  	0.231757 
779.241664  	0.238050 
781.170480  	0.236896 
783.099296  	0.229834 
785.028112  	0.222373 
786.956928  	0.215496 
788.885744  	0.209892 
790.814560  	0.205700 
792.743376  	0.203812 
794.672192  	0.203759 
796.601008  	0.202532 
798.529824  	0.198373 
800.458640  	0.193796 
802.387456  	0.190231 
804.316272  	0.188405 
806.245088  	0.187957 
808.173904  	0.188704 
810.102720  	0.189887 
812.031536  	0.190770 
813.960352  	0.192151 
815.889168  	0.194194 
817.817984  	0.196685 
819.746800  	0.199077 
821.675616  	0.201336 
823.604432  	0.203845 
825.533248  	0.206348 
827.462064  	0.208177 
829.390880  	0.208724 
831.319696  	0.208634 
833.248512  	0.207294 
835.177328  	0.205392 
837.106144  	0.201714 
839.034960  	0.197295 
840.963776  	0.192590 
842.892592  	0.188036 
844.821408  	0.183022 
846.750224  	0.178559 
848.679040  	0.175281 
850.607856  	0.172812 
852.536672  	0.171577 
854.465488  	0.170797 
856.394304  	0.170324 
858.323120  	0.169575 
860.251936  	0.168541 
862.180752  	0.167017 
864.109568  	0.165075 
866.038384  	0.162837 
867.967200  	0.160841 
869.896016  	0.159520 
871.824832  	0.158406 
873.753648  	0.158502 
875.682464  	0.160116 
877.611280  	0.163335 
879.540096  	0.167581 
881.468912  	0.172757 
883.397728  	0.177914 
885.326544  	0.182010 
887.255360  	0.185028 
889.184176  	0.185986 
891.112992  	0.185268 
893.041808  	0.183318 
894.970624  	0.179669 
896.899440  	0.174642 
898.828256  	0.168504 
900.757072  	0.162242 
902.685888  	0.156960 
904.614704  	0.154447 
906.543520  	0.155292 
908.472336  	0.158792 
910.401152  	0.163464 
912.329968  	0.168354 
914.258784  	0.173308 
916.187600  	0.177661 
918.116416  	0.181241 
920.045232  	0.184224 
921.974048  	0.186226 
923.902864  	0.188112 
925.831680  	0.190036 
927.760496  	0.192433 
929.689312  	0.194957 
931.618128  	0.197615 
933.546944  	0.199464 
935.475760  	0.200652 
937.404576  	0.200318 
939.333392  	0.199043 
941.262208  	0.198605 
943.191024  	0.200264 
945.119840  	0.205314 
947.048656  	0.214692 
948.977472  	0.228629 
950.906288  	0.246176 
952.835104  	0.267094 
954.763920  	0.290060 
956.692736  	0.312145 
958.621552  	0.330687 
960.550368  	0.342479 
962.479184  	0.347715 
964.408000  	0.344687 
966.336816  	0.334265 
968.265632  	0.317535 
970.194448  	0.297501 
972.123264  	0.275105 
974.052080  	0.252357 
975.980896  	0.230846 
977.909712  	0.211330 
979.838528  	0.194354 
981.767344  	0.180506 
983.696160  	0.170331 
985.624976  	0.164582 
987.553792  	0.163749 
989.482608  	0.167542 
991.411424  	0.175178 
993.340240  	0.185520 
995.269056  	0.197261 
997.197872  	0.209577 
999.126688  	0.221627 
1001.055504  	0.233925 
1002.984320  	0.246137 
1004.913136  	0.258482 
1006.841952  	0.269825 
1008.770768  	0.280199 
1010.699584  	0.288248 
1012.628400  	0.294035 
1014.557216  	0.297148 
1016.486032  	0.298226 
1018.414848  	0.297881 
1020.343664  	0.297556 
1022.272480  	0.297013 
1024.201296  	0.296908 
1026.130112  	0.296644 
1028.058928  	0.297983 
1029.987744  	0.301598 
1031.916560  	0.307020 
1033.845376  	0.313526 
1035.774192  	0.321538 
1037.703008  	0.331963 
1039.631824  	0.346609 
1041.560640  	0.366477 
1043.489456  	0.391601 
1045.418272  	0.417682 
1047.347088  	0.440955 
1049.275904  	0.455643 
1051.204720  	0.460604 
1053.133536  	0.456359 
1055.062352  	0.448340 
1056.991168  	0.439021 
1058.919984  	0.432106 
1060.848800  	0.426577 
1062.777616  	0.422378 
1064.706432  	0.416985 
1066.635248  	0.410662 
1068.564064  	0.401741 
1070.492880  	0.391584 
1072.421696  	0.381813 
1074.350512  	0.376353 
1076.279328  	0.376419 
1078.208144  	0.381217 
1080.136960  	0.386790 
1082.065776  	0.389235 
1083.994592  	0.384923 
1085.923408  	0.374687 
1087.852224  	0.359587 
1089.781040  	0.342887 
1091.709856  	0.324470 
1093.638672  	0.305630 
1095.567488  	0.285917 
1097.496304  	0.267087 
1099.425120  	0.248566 
1101.353936  	0.231503 
1103.282752  	0.215885 
1105.211568  	0.201447 
1107.140384  	0.188302 
1109.069200  	0.176567 
1110.998016  	0.166062 
1112.926832  	0.156509 
1114.855648  	0.147433 
1116.784464  	0.138732 
1118.713280  	0.130239 
1120.642096  	0.121969 
1122.570912  	0.114446 
1124.499728  	0.107570 
1126.428544  	0.101639 
1128.357360  	0.096880 
1130.286176  	0.092899 
1132.214992  	0.089666 
1134.143808  	0.087012 
1136.072624  	0.085041 
1138.001440  	0.083382 
1139.930256  	0.081735 
1141.859072  	0.079696 
1143.787888  	0.077562 
1145.716704  	0.075523 
1147.645520  	0.073918 
1149.574336  	0.072958 
1151.503152  	0.072504 
1153.431968  	0.072866 
1155.360784  	0.073578 
1157.289600  	0.075226 
1159.218416  	0.077606 
1161.147232  	0.080666 
1163.076048  	0.083837 
1165.004864  	0.086958 
1166.933680  	0.089898 
1168.862496  	0.092925 
1170.791312  	0.096441 
1172.720128  	0.100463 
1174.648944  	0.105108 
1176.577760  	0.109926 
1178.506576  	0.114712 
1180.435392  	0.119390 
1182.364208  	0.124240 
1184.293024  	0.129851 
1186.221840  	0.136212 
1188.150656  	0.143524 
1190.079472  	0.152023 
1192.008288  	0.161882 
1193.937104  	0.173347 
1195.865920  	0.186065 
1197.794736  	0.200016 
1199.723552  	0.214196 
1201.652368  	0.228329 
1203.581184  	0.241216 
1205.510000  	0.252720 
1207.438816  	0.263030 
1209.367632  	0.272050 
1211.296448  	0.278522 
1213.225264  	0.282666 
1215.154080  	0.284214 
1217.082896  	0.284550 
1219.011712  	0.282923 
1220.940528  	0.280269 
1222.869344  	0.276382 
1224.798160  	0.272126 
1226.726976  	0.266451 
1228.655792  	0.260523 
1230.584608  	0.253481 
1232.513424  	0.245993 
1234.442240  	0.237810 
1236.371056  	0.229259 
1238.299872  	0.219967 
1240.228688  	0.209783 
1242.157504  	0.199817 
1244.086320  	0.190521 
1246.015136  	0.181144 
1247.943952  	0.171809 
1249.872768  	0.162905 
1251.801584  	0.154528 
1253.730400  	0.146161 
1255.659216  	0.138168 
1257.588032  	0.130616 
1259.516848  	0.123738 
1261.445664  	0.117230 
1263.374480  	0.111525 
1265.303296  	0.106751 
1267.232112  	0.102921 
1269.160928  	0.100180 
1271.089744  	0.098711 
1273.018560  	0.098384 
1274.947376  	0.099005 
1276.876192  	0.100201 
1278.805008  	0.101173 
1280.733824  	0.101087 
1282.662640  	0.099460 
1284.591456  	0.097143 
1286.520272  	0.095025 
1288.449088  	0.093969 
1290.377904  	0.094619 
1292.306720  	0.096284 
1294.235536  	0.097451 
1296.164352  	0.097014 
1298.093168  	0.094569 
1300.021984  	0.090923 
1301.950800  	0.086881 
1303.879616  	0.082674 
1305.808432  	0.078025 
1307.737248  	0.073040 
1309.666064  	0.068370 
1311.594880  	0.064590 
1313.523696  	0.062084 
1315.452512  	0.060405 
1317.381328  	0.059455 
1319.310144  	0.059692 
1321.238960  	0.060641 
1323.167776  	0.062033 
1325.096592  	0.063303 
1327.025408  	0.064169 
1328.954224  	0.064189 
1330.883040  	0.063407 
1332.811856  	0.061881 
1334.740672  	0.060375 
1336.669488  	0.059286 
1338.598304  	0.058994 
1340.527120  	0.059306 
1342.455936  	0.059222 
1344.384752  	0.059299 
1346.313568  	0.059936 
1348.242384  	0.061309 
1350.171200  	0.063206 
1352.100016  	0.065368 
1354.028832  	0.067803 
1355.957648  	0.070581 
1357.886464  	0.073061 
1359.815280  	0.075452 
1361.744096  	0.078562 
1363.672912  	0.082465 
1365.601728  	0.085008 
1367.530544  	0.087319 
1369.459360  	0.089565 
1371.388176  	0.090114 
1373.316992  	0.089266 
1375.245808  	0.087231 
1377.174624  	0.083714 
1379.103440  	0.079973 
1381.032256  	0.076498 
1382.961072  	0.073793 
1384.889888  	0.071551 
1386.818704  	0.070198 
1388.747520  	0.068496 
1390.676336  	0.065647 
1392.605152  	0.062721 
1394.533968  	0.061584 
1396.462784  	0.062019 
1398.391600  	0.062156 
1400.320416  	0.063131 
1402.249232  	0.063101 
1404.178048  	0.063944 
1406.106864  	0.065378 
1408.035680  	0.066625 
1409.964496  	0.068431 
1411.893312  	0.071263 
1413.822128  	0.073768 
1415.750944  	0.075896 
1417.679760  	0.077961 
1419.608576  	0.081119 
1421.537392  	0.081007 
1423.466208  	0.079843 
1425.395024  	0.078203 
1427.323840  	0.075153 
1429.252656  	0.072161 
1431.181472  	0.070131 
1433.110288  	0.069011 
1435.039104  	0.068966 
1436.967920  	0.072572 
1438.896736  	0.075137 
1440.825552  	0.076036 
1442.754368  	0.077264 
1444.683184  	0.077568 
1446.612000  	0.077633 
1448.540816  	0.078386 
1450.469632  	0.078696 
1452.398448  	0.078735 
1454.327264  	0.078198 
1456.256080  	0.077990 
1458.184896  	0.080507 
1460.113712  	0.079839 
1462.042528  	0.078453 
1463.971344  	0.078020 
1465.900160  	0.079503 
1467.828976  	0.079938 
1469.757792  	0.080946 
1471.686608  	0.084489 
1473.615424  	0.093639 
1475.544240  	0.100038 
1477.473056  	0.107011 
1479.401872  	0.111541 
1481.330688  	0.116062 
1483.259504  	0.119294 
1485.188320  	0.121101 
1487.117136  	0.122004 
1489.045952  	0.122807 
1490.974768  	0.121349 
1492.903584  	0.117468 
1494.832400  	0.111811 
1496.761216  	0.104774 
1498.690032  	0.096865 
1500.618848  	0.089715 
1502.547664  	0.082719 
1504.476480  	0.076623 
1506.405296  	0.072643 
1508.334112  	0.071452 
1510.262928  	0.068372 
1512.191744  	0.066404 
1514.120560  	0.065008 
1516.049376  	0.065105 
1517.978192  	0.067408 
1519.907008  	0.068374 
1521.835824  	0.075382 
1523.764640  	0.080278 
1525.693456  	0.083524 
1527.622272  	0.086228 
1529.551088  	0.085833 
1531.479904  	0.083018 
1533.408720  	0.079666 
1535.337536  	0.074673 
1537.266352  	0.069395 
1539.195168  	0.065254 
1541.123984  	0.063374 
1543.052800  	0.061421 
1544.981616  	0.059924 
1546.910432  	0.058543 
1548.839248  	0.057294 
1550.768064  	0.058031 
1552.696880  	0.057444 
1554.625696  	0.058855 
1556.554512  	0.058283 
1558.483328  	0.061682 
1560.412144  	0.072188 
1562.340960  	0.072861 
1564.269776  	0.075712 
1566.198592  	0.081420 
1568.127408  	0.085112 
1570.056224  	0.094521 
1571.985040  	0.100879 
1573.913856  	0.104146 
1575.842672  	0.108505 
1577.771488  	0.113096 
1579.700304  	0.111863 
1581.629120  	0.110835 
1583.557936  	0.109997 
1585.486752  	0.111224 
1587.415568  	0.114368 
1589.344384  	0.120441 
1591.273200  	0.128040 
1593.202016  	0.137458 
1595.130832  	0.147457 
1597.059648  	0.158004 
1598.988464  	0.166462 
1600.917280  	0.174230 
1602.846096  	0.179353 
1604.774912  	0.182594 
1606.703728  	0.182704 
1608.632544  	0.181827 
1610.561360  	0.178816 
1612.490176  	0.176011 
1614.418992  	0.172623 
1616.347808  	0.172667 
1618.276624  	0.174833 
1620.205440  	0.176565 
1622.134256  	0.179432 
1624.063072  	0.188507 
1625.991888  	0.195060 
1627.920704  	0.204354 
1629.849520  	0.214772 
1631.778336  	0.223346 
1633.707152  	0.229626 
1635.635968  	0.240477 
1637.564784  	0.250489 
1639.493600  	0.254876 
1641.422416  	0.257790 
1643.351232  	0.259686 
1645.280048  	0.259275 
1647.208864  	0.260886 
1649.137680  	0.260114 
1651.066496  	0.257647 
1652.995312  	0.253999 
1654.924128  	0.252896 
1656.852944  	0.249301 
1658.781760  	0.245465 
1660.710576  	0.240526 
1662.639392  	0.235281 
1664.568208  	0.229205 
1666.497024  	0.223189 
1668.425840  	0.216450 
1670.354656  	0.209431 
1672.283472  	0.202877 
1674.212288  	0.197309 
1676.141104  	0.191912 
1678.069920  	0.187537 
1679.998736  	0.184146 
1681.927552  	0.181119 
1683.856368  	0.179688 
1685.785184  	0.181247 
1687.714000  	0.179732 
1689.642816  	0.179154 
1691.571632  	0.177974 
1693.500448  	0.176057 
1695.429264  	0.174623 
1697.358080  	0.174217 
1699.286896  	0.172372 
1701.215712  	0.172726 
1703.144528  	0.170353 
1705.073344  	0.167583 
1707.002160  	0.163672 
1708.930976  	0.158933 
1710.859792  	0.152337 
1712.788608  	0.144397 
1714.717424  	0.134574 
1716.646240  	0.123258 
1718.575056  	0.109449 
1720.503872  	0.097116 
1722.432688  	0.086214 
1724.361504  	0.074402 
1726.290320  	0.064236 
1728.219136  	0.055409 
1730.147952  	0.047948 
1732.076768  	0.041150 
1734.005584  	0.037886 
1735.934400  	0.034160 
1737.863216  	0.030291 
1739.792032  	0.027997 
1741.720848  	0.026223 
1743.649664  	0.024138 
1745.578480  	0.022449 
1747.507296  	0.020968 
1749.436112  	0.020460 
1751.364928  	0.020314 
1753.293744  	0.019626 
1755.222560  	0.017902 
1757.151376  	0.018032 
1759.080192  	0.016818 
1761.009008  	0.016368 
1762.937824  	0.016590 
1764.866640  	0.015558 
1766.795456  	0.014437 
1768.724272  	0.014507 
1770.653088  	0.013109 
1772.581904  	0.014796 
1774.510720  	0.014867 
1776.439536  	0.014056 
1778.368352  	0.013019 
1780.297168  	0.013182 
1782.225984  	0.013023 
1784.154800  	0.012838 
1786.083616  	0.012754 
1788.012432  	0.012219 
1789.941248  	0.011510 
1791.870064  	0.012359 
1793.798880  	0.012693 
1795.727696  	0.011952 
1797.656512  	0.011065 
1799.585328  	0.010952 
1801.514144  	0.011426 
1803.442960  	0.011315 
1805.371776  	0.010838 
1807.300592  	0.010788 
1809.229408  	0.010427 
1811.158224  	0.010573 
1813.087040  	0.010366 
1815.015856  	0.010017 
1816.944672  	0.009877 
1818.873488  	0.010167 
1820.802304  	0.010039 
1822.731120  	0.009791 
1824.659936  	0.009853 
1826.588752  	0.009927 
1828.517568  	0.009197 
1830.446384  	0.010802 
1832.375200  	0.010575 
1834.304016  	0.010172 
1836.232832  	0.010050 
1838.161648  	0.010070 
1840.090464  	0.009660 
1842.019280  	0.009155 
1843.948096  	0.009837 
1845.876912  	0.010828 
1847.805728  	0.010336 
1849.734544  	0.010447 
1851.663360  	0.009839 
1853.592176  	0.009872 
1855.520992  	0.009722 
1857.449808  	0.009769 
1859.378624  	0.009498 
1861.307440  	0.009762 
1863.236256  	0.009477 
1865.165072  	0.009364 
1867.093888  	0.009015 
1869.022704  	0.010031 
1870.951520  	0.010099 
1872.880336  	0.009762 
1874.809152  	0.009347 
1876.737968  	0.009342 
1878.666784  	0.009197 
1880.595600  	0.009425 
1882.524416  	0.009320 
1884.453232  	0.009523 
1886.382048  	0.009235 
1888.310864  	0.009321 
1890.239680  	0.009626 
1892.168496  	0.009262 
1894.097312  	0.008605 
1896.026128  	0.009278 
1897.954944  	0.009723 
1899.883760  	0.009750 
1901.812576  	0.009374 
1903.741392  	0.009614 
1905.670208  	0.009160 
1907.599024  	0.009152 
1909.527840  	0.009342 
1911.456656  	0.009718 
1913.385472  	0.009756 
1915.314288  	0.009634 
1917.243104  	0.009421 
1919.171920  	0.010160 
1921.100736  	0.009472 
1923.029552  	0.009836 
1924.958368  	0.008763 
1926.887184  	0.008164 
1928.816000  	0.008483 
1930.744816  	0.008960 
1932.673632  	0.008463 
1934.602448  	0.008434 
1936.531264  	0.008224 
1938.460080  	0.007993 
1940.388896  	0.007493 
1942.317712  	0.008310 
1944.246528  	0.007932 
1946.175344  	0.008108 
1948.104160  	0.008447 
1950.032976  	0.008112 
1951.961792  	0.007827 
1953.890608  	0.008835 
1955.819424  	0.008174 
1957.748240  	0.007279 
1959.677056  	0.005800 
1961.605872  	0.006881 
1963.534688  	0.006745 
1965.463504  	0.007076 
1967.392320  	0.006114 
1969.321136  	0.006072 
1971.249952  	0.006232 
1973.178768  	0.006512 
1975.107584  	0.005603 
1977.036400  	0.006343 
1978.965216  	0.008088 
1980.894032  	0.009294 
1982.822848  	0.007842 
1984.751664  	0.007804 
1986.680480  	0.007892 
1988.609296  	0.008288 
1990.538112  	0.007100 
1992.466928  	0.006928 
1994.395744  	0.006164 
1996.324560  	0.007296 
1998.253376  	0.008477 
2000.182192  	0.008770 
2002.111008  	0.008119 
2004.039824  	0.007658 
2005.968640  	0.006962 
2007.897456  	0.007822 
2009.826272  	0.008051 
2011.755088  	0.008343 
2013.683904  	0.007831 
2015.612720  	0.008442 
2017.541536  	0.009707 
2019.470352  	0.010429 
2021.399168  	0.009697 
2023.327984  	0.010308 
2025.256800  	0.009593 
2027.185616  	0.009500 
2029.114432  	0.009835 
2031.043248  	0.009242 
2032.972064  	0.009176 
2034.900880  	0.011367 
2036.829696  	0.011340 
2038.758512  	0.011124 
2040.687328  	0.010671 
2042.616144  	0.011655 
2044.544960  	0.011363 
2046.473776  	0.011423 
2048.402592  	0.011090 
2050.331408  	0.010880 
2052.260224  	0.009909 
2054.189040  	0.009487 
2056.117856  	0.009941 
2058.046672  	0.010982 
2059.975488  	0.010788 
2061.904304  	0.010660 
2063.833120  	0.010098 
2065.761936  	0.010414 
2067.690752  	0.010541 
2069.619568  	0.010676 
2071.548384  	0.010458 
2073.477200  	0.010653 
2075.406016  	0.010607 
2077.334832  	0.011271 
2079.263648  	0.011265 
2081.192464  	0.011235 
2083.121280  	0.011113 
2085.050096  	0.011116 
2086.978912  	0.010867 
2088.907728  	0.011401 
2090.836544  	0.011144 
2092.765360  	0.010638 
2094.694176  	0.010384 
2096.622992  	0.011031 
2098.551808  	0.011566 
2100.480624  	0.011531 
2102.409440  	0.011196 
2104.338256  	0.011176 
2106.267072  	0.011630 
2108.195888  	0.012408 
2110.124704  	0.012122 
2112.053520  	0.011901 
2113.982336  	0.011821 
2115.911152  	0.012024 
2117.839968  	0.011917 
2119.768784  	0.011497 
2121.697600  	0.010633 
2123.626416  	0.010868 
2125.555232  	0.010669 
2127.484048  	0.010449 
2129.412864  	0.010409 
2131.341680  	0.010337 
2133.270496  	0.009965 
2135.199312  	0.010447 
2137.128128  	0.010767 
2139.056944  	0.011739 
2140.985760  	0.011690 
2142.914576  	0.011277 
2144.843392  	0.011141 
2146.772208  	0.012214 
2148.701024  	0.012132 
2150.629840  	0.012415 
2152.558656  	0.011685 
2154.487472  	0.011695 
2156.416288  	0.012210 
2158.345104  	0.014974 
2160.273920  	0.016503 
2162.202736  	0.016161 
2164.131552  	0.015512 
2166.060368  	0.016207 
2167.989184  	0.015215 
2169.918000  	0.014953 
2171.846816  	0.014559 
2173.775632  	0.013224 
2175.704448  	0.012732 
2177.633264  	0.013170 
2179.562080  	0.012476 
2181.490896  	0.013078 
2183.419712  	0.013615 
2185.348528  	0.013391 
2187.277344  	0.013042 
2189.206160  	0.013804 
2191.134976  	0.014092 
2193.063792  	0.014858 
2194.992608  	0.014391 
2196.921424  	0.013683 
2198.850240  	0.013097 
2200.779056  	0.013827 
2202.707872  	0.014009 
2204.636688  	0.013602 
2206.565504  	0.013134 
2208.494320  	0.012996 
2210.423136  	0.012467 
2212.351952  	0.012537 
2214.280768  	0.013210 
2216.209584  	0.013688 
2218.138400  	0.012873 
2220.067216  	0.012838 
2221.996032  	0.013151 
2223.924848  	0.013018 
2225.853664  	0.012370 
2227.782480  	0.012378 
2229.711296  	0.012817 
2231.640112  	0.012353 
2233.568928  	0.011674 
2235.497744  	0.012260 
2237.426560  	0.012641 
2239.355376  	0.012465 
2241.284192  	0.011868 
2243.213008  	0.011858 
2245.141824  	0.012090 
2247.070640  	0.012998 
2248.999456  	0.012437 
2250.928272  	0.011951 
2252.857088  	0.011750 
2254.785904  	0.012158 
2256.714720  	0.012456 
2258.643536  	0.011990 
2260.572352  	0.011748 
2262.501168  	0.012105 
2264.429984  	0.012327 
2266.358800  	0.012525 
2268.287616  	0.012798 
2270.216432  	0.013121 
2272.145248  	0.012841 
2274.074064  	0.012657 
2276.002880  	0.012708 
2277.931696  	0.013229 
2279.860512  	0.013320 
2281.789328  	0.013635 
2283.718144  	0.013643 
2285.646960  	0.013704 
2287.575776  	0.013786 
2289.504592  	0.014022 
2291.433408  	0.014039 
2293.362224  	0.013950 
2295.291040  	0.014018 
2297.219856  	0.013971 
2299.148672  	0.013903 
2301.077488  	0.014227 
2303.006304  	0.014052 
2304.935120  	0.014074 
2306.863936  	0.014554 
2308.792752  	0.014696 
2310.721568  	0.014361 
2312.650384  	0.014530 
2314.579200  	0.014534 
2316.508016  	0.014635 
2318.436832  	0.014743 
2320.365648  	0.015021 
2322.294464  	0.015459 
2324.223280  	0.015542 
2326.152096  	0.014347 
2328.080912  	0.013886 
2330.009728  	0.014221 
2331.938544  	0.014564 
2333.867360  	0.014022 
2335.796176  	0.013774 
2337.724992  	0.013737 
2339.653808  	0.013827 
2341.582624  	0.014175 
2343.511440  	0.015140 
2345.440256  	0.015899 
2347.369072  	0.015467 
2349.297888  	0.013903 
2351.226704  	0.013131 
2353.155520  	0.013089 
2355.084336  	0.013234 
2357.013152  	0.013440 
2358.941968  	0.013668 
2360.870784  	0.014562 
2362.799600  	0.015343 
2364.728416  	0.015334 
2366.657232  	0.015372 
2368.586048  	0.015591 
2370.514864  	0.015879 
2372.443680  	0.015875 
2374.372496  	0.015988 
2376.301312  	0.015907 
2378.230128  	0.015610 
2380.158944  	0.015212 
2382.087760  	0.014914 
2384.016576  	0.014519 
2385.945392  	0.014137 
2387.874208  	0.013907 
2389.803024  	0.013854 
2391.731840  	0.013914 
2393.660656  	0.013887 
2395.589472  	0.013838 
2397.518288  	0.013784 
2399.447104  	0.013758 
2401.375920  	0.014087 
2403.304736  	0.014380 
2405.233552  	0.014649 
2407.162368  	0.014725 
2409.091184  	0.014786 
2411.020000  	0.014763 
2412.948816  	0.014880 
2414.877632  	0.014960 
2416.806448  	0.015097 
2418.735264  	0.015115 
2420.664080  	0.015055 
2422.592896  	0.015112 
2424.521712  	0.015311 
2426.450528  	0.015482 
2428.379344  	0.015746 
2430.308160  	0.015798 
2432.236976  	0.015823 
2434.165792  	0.015849 
2436.094608  	0.016114 
2438.023424  	0.016083 
2439.952240  	0.015869 
2441.881056  	0.015975 
2443.809872  	0.016407 
2445.738688  	0.016590 
2447.667504  	0.016561 
2449.596320  	0.016539 
2451.525136  	0.016653 
2453.453952  	0.016768 
2455.382768  	0.017031 
2457.311584  	0.017040 
2459.240400  	0.016854 
2461.169216  	0.016768 
2463.098032  	0.017102 
2465.026848  	0.017229 
2466.955664  	0.017287 
2468.884480  	0.017411 
2470.813296  	0.017580 
2472.742112  	0.017488 
2474.670928  	0.017452 
2476.599744  	0.017640 
2478.528560  	0.018023 
2480.457376  	0.018059 
2482.386192  	0.017838 
2484.315008  	0.017880 
2486.243824  	0.018325 
2488.172640  	0.018699 
2490.101456  	0.018851 
2492.030272  	0.018831 
2493.959088  	0.018665 
2495.887904  	0.018664 
2497.816720  	0.019051 
2499.745536  	0.019220 
2501.674352  	0.019315 
2503.603168  	0.019358 
2505.531984  	0.019436 
2507.460800  	0.019472 
2509.389616  	0.019588 
2511.318432  	0.019492 
2513.247248  	0.019682 
2515.176064  	0.019954 
2517.104880  	0.020190 
2519.033696  	0.020390 
2520.962512  	0.020431 
2522.891328  	0.020476 
2524.820144  	0.020483 
2526.748960  	0.020293 
2528.677776  	0.020536 
2530.606592  	0.020831 
2532.535408  	0.020868 
2534.464224  	0.020884 
2536.393040  	0.020857 
2538.321856  	0.020913 
2540.250672  	0.021133 
2542.179488  	0.021371 
2544.108304  	0.021484 
2546.037120  	0.021538 
2547.965936  	0.021686 
2549.894752  	0.021700 
2551.823568  	0.021675 
2553.752384  	0.021714 
2555.681200  	0.022034 
2557.610016  	0.022370 
2559.538832  	0.022518 
2561.467648  	0.022571 
2563.396464  	0.022684 
2565.325280  	0.022765 
2567.254096  	0.022985 
2569.182912  	0.023412 
2571.111728  	0.023714 
2573.040544  	0.023760 
2574.969360  	0.024095 
2576.898176  	0.024454 
2578.826992  	0.024651 
2580.755808  	0.024538 
2582.684624  	0.024732 
2584.613440  	0.024809 
2586.542256  	0.024873 
2588.471072  	0.025023 
2590.399888  	0.025187 
2592.328704  	0.025382 
2594.257520  	0.025576 
2596.186336  	0.025564 
2598.115152  	0.025633 
2600.043968  	0.025806 
2601.972784  	0.026049 
2603.901600  	0.026240 
2605.830416  	0.026409 
2607.759232  	0.026563 
2609.688048  	0.026531 
2611.616864  	0.026615 
2613.545680  	0.026955 
2615.474496  	0.027219 
2617.403312  	0.027450 
2619.332128  	0.027723 
2621.260944  	0.027881 
2623.189760  	0.027889 
2625.118576  	0.028129 
2627.047392  	0.028370 
2628.976208  	0.028693 
2630.905024  	0.028881 
2632.833840  	0.029119 
2634.762656  	0.029374 
2636.691472  	0.029678 
2638.620288  	0.030011 
2640.549104  	0.030260 
2642.477920  	0.030494 
2644.406736  	0.030745 
2646.335552  	0.030957 
2648.264368  	0.031136 
2650.193184  	0.031353 
2652.122000  	0.031742 
2654.050816  	0.031992 
2655.979632  	0.032172 
2657.908448  	0.032409 
2659.837264  	0.032583 
2661.766080  	0.032865 
2663.694896  	0.033027 
2665.623712  	0.033045 
2667.552528  	0.033401 
2669.481344  	0.033767 
2671.410160  	0.033926 
2673.338976  	0.034027 
2675.267792  	0.034138 
2677.196608  	0.034285 
2679.125424  	0.034553 
2681.054240  	0.034744 
2682.983056  	0.034893 
2684.911872  	0.035089 
2686.840688  	0.035329 
2688.769504  	0.035561 
2690.698320  	0.035747 
2692.627136  	0.035946 
2694.555952  	0.036170 
2696.484768  	0.036331 
2698.413584  	0.036585 
2700.342400  	0.036698 
2702.271216  	0.036819 
2704.200032  	0.037117 
2706.128848  	0.037391 
2708.057664  	0.037637 
2709.986480  	0.037785 
2711.915296  	0.038017 
2713.844112  	0.038207 
2715.772928  	0.038403 
2717.701744  	0.038573 
2719.630560  	0.038751 
2721.559376  	0.039080 
2723.488192  	0.039251 
2725.417008  	0.039445 
2727.345824  	0.039728 
2729.274640  	0.039860 
2731.203456  	0.040034 
2733.132272  	0.040391 
2735.061088  	0.040740 
2736.989904  	0.040971 
2738.918720  	0.041206 
2740.847536  	0.041400 
2742.776352  	0.041539 
2744.705168  	0.041747 
2746.633984  	0.041940 
2748.562800  	0.042081 
2750.491616  	0.042276 
2752.420432  	0.042437 
2754.349248  	0.042439 
2756.278064  	0.042366 
2758.206880  	0.042306 
2760.135696  	0.042388 
2762.064512  	0.042453 
2763.993328  	0.042512 
2765.922144  	0.042553 
2767.850960  	0.042514 
2769.779776  	0.042573 
2771.708592  	0.042532 
2773.637408  	0.042456 
2775.566224  	0.042340 
2777.495040  	0.042407 
2779.423856  	0.042408 
2781.352672  	0.042367 
2783.281488  	0.042424 
2785.210304  	0.042448 
2787.139120  	0.042437 
2789.067936  	0.042368 
2790.996752  	0.042342 
2792.925568  	0.042358 
2794.854384  	0.042274 
2796.783200  	0.042126 
2798.712016  	0.042226 
2800.640832  	0.042336 
2802.569648  	0.042338 
2804.498464  	0.042352 
2806.427280  	0.042331 
2808.356096  	0.042301 
2810.284912  	0.042371 
2812.213728  	0.042312 
2814.142544  	0.042346 
2816.071360  	0.042342 
2818.000176  	0.042394 
2819.928992  	0.042461 
2821.857808  	0.042522 
2823.786624  	0.042510 
2825.715440  	0.042595 
2827.644256  	0.042571 
2829.573072  	0.042475 
2831.501888  	0.042400 
2833.430704  	0.042292 
2835.359520  	0.042111 
2837.288336  	0.042039 
2839.217152  	0.042065 
2841.145968  	0.041936 
2843.074784  	0.041892 
2845.003600  	0.041879 
2846.932416  	0.042052 
2848.861232  	0.042319 
2850.790048  	0.042276 
2852.718864  	0.042250 
2854.647680  	0.042253 
2856.576496  	0.042235 
2858.505312  	0.042292 
2860.434128  	0.042370 
2862.362944  	0.042367 
2864.291760  	0.042334 
2866.220576  	0.042406 
2868.149392  	0.042497 
2870.078208  	0.042549 
2872.007024  	0.042856 
2873.935840  	0.043358 
2875.864656  	0.043818 
2877.793472  	0.044305 
2879.722288  	0.044844 
2881.651104  	0.045505 
2883.579920  	0.045917 
2885.508736  	0.046111 
2887.437552  	0.046414 
2889.366368  	0.046519 
2891.295184  	0.046471 
2893.224000  	0.046484 
2895.152816  	0.046532 
2897.081632  	0.046290 
2899.010448  	0.045801 
2900.939264  	0.045514 
2902.868080  	0.045876 
2904.796896  	0.046329 
2906.725712  	0.046528 
2908.654528  	0.046761 
2910.583344  	0.047443 
2912.512160  	0.048302 
2914.440976  	0.049144 
2916.369792  	0.050108 
2918.298608  	0.050833 
2920.227424  	0.051237 
2922.156240  	0.051742 
2924.085056  	0.052397 
2926.013872  	0.053148 
2927.942688  	0.054083 
2929.871504  	0.055105 
2931.800320  	0.055961 
2933.729136  	0.056882 
2935.657952  	0.057667 
2937.586768  	0.058295 
2939.515584  	0.058924 
2941.444400  	0.059582 
2943.373216  	0.060069 
2945.302032  	0.060178 
2947.230848  	0.060139 
2949.159664  	0.060325 
2951.088480  	0.060396 
2953.017296  	0.060128 
2954.946112  	0.059762 
2956.874928  	0.059462 
2958.803744  	0.059052 
2960.732560  	0.058519 
2962.661376  	0.057870 
2964.590192  	0.057348 
2966.519008  	0.056651 
2968.447824  	0.055775 
2970.376640  	0.054952 
2972.305456  	0.054215 
2974.234272  	0.053581 
2976.163088  	0.052921 
2978.091904  	0.052437 
2980.020720  	0.052161 
2981.949536  	0.052117 
2983.878352  	0.052213 
2985.807168  	0.052076 
2987.735984  	0.052169 
2989.664800  	0.052721 
2991.593616  	0.053601 
2993.522432  	0.054158 
2995.451248  	0.054665 
2997.380064  	0.055318 
2999.308880  	0.056097 
3001.237696  	0.056767 
3003.166512  	0.057362 
3005.095328  	0.057938 
3007.024144  	0.058438 
3008.952960  	0.059192 
3010.881776  	0.059815 
3012.810592  	0.060263 
3014.739408  	0.060921 
3016.668224  	0.061477 
3018.597040  	0.062050 
3020.525856  	0.062609 
3022.454672  	0.063250 
3024.383488  	0.063901 
3026.312304  	0.064493 
3028.241120  	0.064950 
3030.169936  	0.065565 
3032.098752  	0.066263 
3034.027568  	0.066802 
3035.956384  	0.067274 
3037.885200  	0.067653 
3039.814016  	0.068134 
3041.742832  	0.068835 
3043.671648  	0.069529 
3045.600464  	0.070279 
3047.529280  	0.070848 
3049.458096  	0.071451 
3051.386912  	0.072070 
3053.315728  	0.072511 
3055.244544  	0.073083 
3057.173360  	0.074088 
3059.102176  	0.075014 
3061.030992  	0.075803 
3062.959808  	0.076494 
3064.888624  	0.077293 
3066.817440  	0.078299 
3068.746256  	0.079307 
3070.675072  	0.080088 
3072.603888  	0.080767 
3074.532704  	0.081653 
3076.461520  	0.082465 
3078.390336  	0.083213 
3080.319152  	0.084187 
3082.247968  	0.084978 
3084.176784  	0.085726 
3086.105600  	0.086565 
3088.034416  	0.087494 
3089.963232  	0.088323 
3091.892048  	0.089200 
3093.820864  	0.090103 
3095.749680  	0.091071 
3097.678496  	0.091851 
3099.607312  	0.092692 
3101.536128  	0.093666 
3103.464944  	0.094408 
3105.393760  	0.095099 
3107.322576  	0.095983 
3109.251392  	0.096758 
3111.180208  	0.097446 
3113.109024  	0.097741 
3115.037840  	0.098132 
3116.966656  	0.098736 
3118.895472  	0.099350 
3120.824288  	0.099818 
3122.753104  	0.100377 
3124.681920  	0.100865 
3126.610736  	0.101294 
3128.539552  	0.101843 
3130.468368  	0.102134 
3132.397184  	0.102649 
3134.326000  	0.103019 
3136.254816  	0.103252 
3138.183632  	0.103675 
3140.112448  	0.104159 
3142.041264  	0.104730 
3143.970080  	0.105175 
3145.898896  	0.105710 
3147.827712  	0.106228 
3149.756528  	0.106624 
3151.685344  	0.107100 
3153.614160  	0.107574 
3155.542976  	0.107948 
3157.471792  	0.108461 
3159.400608  	0.109070 
3161.329424  	0.109532 
3163.258240  	0.109851 
3165.187056  	0.110183 
3167.115872  	0.110565 
3169.044688  	0.110997 
3170.973504  	0.111364 
3172.902320  	0.111384 
3174.831136  	0.111261 
3176.759952  	0.111377 
3178.688768  	0.111747 
3180.617584  	0.112110 
3182.546400  	0.112088 
3184.475216  	0.111778 
3186.404032  	0.111584 
3188.332848  	0.111456 
3190.261664  	0.111235 
3192.190480  	0.110855 
3194.119296  	0.110516 
3196.048112  	0.110413 
3197.976928  	0.110353 
3199.905744  	0.109963 
3201.834560  	0.109309 
3203.763376  	0.108776 
3205.692192  	0.108259 
3207.621008  	0.107811 
3209.549824  	0.107611 
3211.478640  	0.107143 
3213.407456  	0.106723 
3215.336272  	0.106543 
3217.265088  	0.105974 
3219.193904  	0.105623 
3221.122720  	0.105450 
3223.051536  	0.105045 
3224.980352  	0.104482 
3226.909168  	0.103927 
3228.837984  	0.103528 
3230.766800  	0.103246 
3232.695616  	0.103155 
3234.624432  	0.102981 
3236.553248  	0.102884 
3238.482064  	0.102929 
3240.410880  	0.102970 
3242.339696  	0.102903 
3244.268512  	0.102937 
3246.197328  	0.103237 
3248.126144  	0.103080 
3250.054960  	0.103265 
3251.983776  	0.103442 
3253.912592  	0.103525 
3255.841408  	0.103901 
3257.770224  	0.104161 
3259.699040  	0.104237 
3261.627856  	0.104518 
3263.556672  	0.104799 
3265.485488  	0.105088 
3267.414304  	0.105156 
3269.343120  	0.105362 
3271.271936  	0.105413 
3273.200752  	0.105540 
3275.129568  	0.105768 
3277.058384  	0.105787 
3278.987200  	0.105961 
3280.916016  	0.106364 
3282.844832  	0.106546 
3284.773648  	0.106479 
3286.702464  	0.106493 
3288.631280  	0.106725 
3290.560096  	0.107074 
3292.488912  	0.107563 
3294.417728  	0.107686 
3296.346544  	0.107960 
3298.275360  	0.108374 
3300.204176  	0.108564 
3302.132992  	0.109100 
3304.061808  	0.109565 
3305.990624  	0.109694 
3307.919440  	0.109934 
3309.848256  	0.110329 
3311.777072  	0.110819 
3313.705888  	0.111067 
3315.634704  	0.111239 
3317.563520  	0.111621 
3319.492336  	0.111909 
3321.421152  	0.112039 
3323.349968  	0.112233 
3325.278784  	0.112249 
3327.207600  	0.112241 
3329.136416  	0.112296 
3331.065232  	0.112314 
3332.994048  	0.112292 
3334.922864  	0.112318 
3336.851680  	0.112521 
3338.780496  	0.112584 
3340.709312  	0.112238 
3342.638128  	0.111837 
3344.566944  	0.111409 
3346.495760  	0.110969 
3348.424576  	0.110341 
3350.353392  	0.109986 
3352.282208  	0.109749 
3354.211024  	0.109519 
3356.139840  	0.109083 
3358.068656  	0.108524 
3359.997472  	0.108138 
3361.926288  	0.107995 
3363.855104  	0.107430 
3365.783920  	0.107056 
3367.712736  	0.106541 
3369.641552  	0.106232 
3371.570368  	0.106002 
3373.499184  	0.105542 
3375.428000  	0.105099 
3377.356816  	0.104886 
3379.285632  	0.104709 
3381.214448  	0.104149 
3383.143264  	0.103446 
3385.072080  	0.103070 
3387.000896  	0.102658 
3388.929712  	0.102241 
3390.858528  	0.101586 
3392.787344  	0.101217 
3394.716160  	0.100819 
3396.644976  	0.100505 
3398.573792  	0.100022 
3400.502608  	0.099652 
3402.431424  	0.099590 
3404.360240  	0.099116 
3406.289056  	0.098338 
3408.217872  	0.097681 
3410.146688  	0.097400 
3412.075504  	0.096899 
3414.004320  	0.096253 
3415.933136  	0.095603 
3417.861952  	0.094787 
3419.790768  	0.094298 
3421.719584  	0.094134 
3423.648400  	0.093561 
3425.577216  	0.092736 
3427.506032  	0.092224 
3429.434848  	0.091592 
3431.363664  	0.090960 
3433.292480  	0.090514 
3435.221296  	0.089908 
3437.150112  	0.089150 
3439.078928  	0.088425 
3441.007744  	0.087787 
3442.936560  	0.087435 
3444.865376  	0.086780 
3446.794192  	0.086464 
3448.723008  	0.086009 
3450.651824  	0.084662 
3452.580640  	0.083835 
3454.509456  	0.083304 
3456.438272  	0.082530 
3458.367088  	0.081590 
3460.295904  	0.080957 
3462.224720  	0.080539 
3464.153536  	0.079663 
3466.082352  	0.078897 
3468.011168  	0.078004 
3469.939984  	0.076821 
3471.868800  	0.075847 
3473.797616  	0.075115 
3475.726432  	0.074383 
3477.655248  	0.073407 
3479.584064  	0.072392 
3481.512880  	0.071751 
3483.441696  	0.071091 
3485.370512  	0.069844 
3487.299328  	0.068846 
3489.228144  	0.068297 
3491.156960  	0.067367 
3493.085776  	0.066130 
3495.014592  	0.065257 
3496.943408  	0.064758 
3498.872224  	0.063708 
3500.801040  	0.062294 
3502.729856  	0.062165 
3504.658672  	0.062176 
3506.587488  	0.060722 
3508.516304  	0.059739 
3510.445120  	0.059605 
3512.373936  	0.058845 
3514.302752  	0.057691 
3516.231568  	0.056732 
3518.160384  	0.055940 
3520.089200  	0.054904 
3522.018016  	0.054039 
3523.946832  	0.053791 
3525.875648  	0.053023 
3527.804464  	0.052754 
3529.733280  	0.052553 
3531.662096  	0.051783 
3533.590912  	0.050447 
3535.519728  	0.049976 
3537.448544  	0.049760 
3539.377360  	0.048427 
3541.306176  	0.047326 
3543.234992  	0.046574 
3545.163808  	0.046658 
3547.092624  	0.046900 
3549.021440  	0.045438 
3550.950256  	0.043942 
3552.879072  	0.044067 
3554.807888  	0.043415 
3556.736704  	0.042165 
3558.665520  	0.041248 
3560.594336  	0.040508 
3562.523152  	0.039345 
3564.451968  	0.037595 
3566.380784  	0.038403 
3568.309600  	0.040756 
3570.238416  	0.038693 
3572.167232  	0.036414 
3574.096048  	0.035525 
3576.024864  	0.034870 
3577.953680  	0.034132 
3579.882496  	0.033549 
3581.811312  	0.032550 
3583.740128  	0.030549 
3585.668944  	0.029355 
3587.597760  	0.031663 
3589.526576  	0.031525 
3591.455392  	0.028433 
3593.384208  	0.027385 
3595.313024  	0.027636 
3597.241840  	0.026603 
3599.170656  	0.025324 
3601.099472  	0.025133 
3603.028288  	0.023910 
3604.957104  	0.021734 
3606.885920  	0.021021 
3608.814736  	0.022077 
3610.743552  	0.020384 
3612.672368  	0.019301 
3614.601184  	0.018833 
3616.530000  	0.016224 
3618.458816  	0.016191 
3620.387632  	0.018122 
3622.316448  	0.016613 
3624.245264  	0.013889 
3626.174080  	0.010437 
3628.102896  	0.011090 
3630.031712  	0.015732 
3631.960528  	0.012160 
3633.889344  	0.010998 
3635.818160  	0.010181 
3637.746976  	0.008668 
3639.675792  	0.007573 
3641.604608  	0.006599 
3643.533424  	0.005102 
3645.462240  	0.002250 
3647.391056  	0.001798 
3649.319872  	0.004637 
3651.248688  	0.007661 
3653.177504  	0.003822 
3655.106320  	0.001915 
3657.035136  	0.003699 
3658.963952  	0.002483 
3660.892768  	0.001444 
3662.821584  	0.000647 
3664.750400  	-0.000313 
3666.679216  	-0.002303 
3668.608032  	-0.003331 
3670.536848  	0.000439 
3672.465664  	-0.001919 
3674.394480  	-0.003379 
3676.323296  	0.002525 
3678.252112  	0.000400 
3680.180928  	-0.000473 
3682.109744  	-0.001427 
3684.038560  	-0.002475 
3685.967376  	-0.004301 
3687.896192  	-0.004126 
3689.825008  	-0.001065 
3691.753824  	0.000042 
3693.682640  	-0.001084 
3695.611456  	-0.001931 
3697.540272  	-0.002192 
3699.469088  	-0.003183 
3701.397904  	-0.001894 
3703.326720  	-0.000792 
3705.255536  	-0.002187 
3707.184352  	-0.003642 
3709.113168  	-0.004158 
3711.041984  	-0.001682 
3712.970800  	0.001419 
3714.899616  	-0.000188 
3716.828432  	-0.002139 
3718.757248  	-0.002421 
3720.686064  	-0.002742 
3722.614880  	-0.002384 
3724.543696  	-0.002298 
3726.472512  	-0.001137 
3728.401328  	-0.001877 
3730.330144  	-0.004217 
3732.258960  	-0.003777 
3734.187776  	-0.002519 
3736.116592  	0.000884 
3738.045408  	0.000170 
3739.974224  	-0.002199 
3741.903040  	-0.005038 
3743.831856  	-0.003822 
3745.760672  	0.000060 
3747.689488  	-0.003830 
3749.618304  	-0.003517 
3751.547120  	0.000782 
3753.475936  	0.001256 
3755.404752  	-0.001804 
3757.333568  	-0.002602 
3759.262384  	-0.001300 
3761.191200  	-0.000419 
3763.120016  	-0.002525 
3765.048832  	-0.001967 
3766.977648  	-0.001792 
3768.906464  	-0.002003 
3770.835280  	-0.000071 
3772.764096  	-0.000923 
3774.692912  	-0.001849 
3776.621728  	-0.002729 
3778.550544  	-0.002200 
3780.479360  	-0.000428 
3782.408176  	-0.001825 
3784.336992  	-0.001680 
3786.265808  	-0.001026 
3788.194624  	-0.001405 
3790.123440  	-0.001738 
3792.052256  	-0.002217 
3793.981072  	-0.003191 
3795.909888  	-0.002474 
3797.838704  	-0.002635 
3799.767520  	-0.004238 
3801.696336  	-0.000007 
3803.625152  	-0.000831 
3805.553968  	-0.003315 
3807.482784  	-0.000328 
3809.411600  	-0.000955 
3811.340416  	-0.002345 
3813.269232  	-0.004116 
3815.198048  	-0.003440 
3817.126864  	-0.001298 
3819.055680  	-0.004157 
3820.984496  	-0.001058 
3822.913312  	0.000544 
3824.842128  	-0.002187 
3826.770944  	-0.001661 
3828.699760  	-0.002293 
3830.628576  	-0.003049 
3832.557392  	-0.002492 
3834.486208  	-0.003269 
3836.415024  	-0.003518 
3838.343840  	-0.001725 
3840.272656  	-0.000578 
3842.201472  	-0.001067 
3844.130288  	-0.000615 
3846.059104  	-0.001659 
3847.987920  	-0.003501 
3849.916736  	-0.005411 
3851.845552  	-0.005844 
3853.774368  	0.001798 
3855.703184  	0.001773 
3857.632000  	-0.000904 
3859.560816  	-0.002775 
3861.489632  	-0.003246 
3863.418448  	-0.002375 
3865.347264  	-0.000501 
3867.276080  	-0.003206 
3869.204896  	-0.003043 
3871.133712  	-0.000662 
3873.062528  	-0.002088 
3874.991344  	-0.000344 
3876.920160  	-0.002353 
3878.848976  	-0.003411 
3880.777792  	-0.000969 
3882.706608  	-0.001901 
3884.635424  	-0.002371 
3886.564240  	0.000143 
3888.493056  	-0.002602 
3890.421872  	-0.002932 
3892.350688  	-0.000541 
3894.279504  	-0.001118 
3896.208320  	-0.003064 
3898.137136  	-0.003590 
3900.065952  	-0.002512 
3901.994768  	-0.001796 
3903.923584  	-0.000097 
3905.852400  	0.000457 
3907.781216  	-0.001142 
3909.710032  	-0.002018 
3911.638848  	-0.001991 
3913.567664  	-0.002403 
3915.496480  	-0.002476 
3917.425296  	-0.001235 
3919.354112  	-0.001283 
3921.282928  	-0.001961 
3923.211744  	-0.002343 
3925.140560  	-0.001087 
3927.069376  	-0.001638 
3928.998192  	-0.002432 
3930.927008  	-0.001925 
3932.855824  	-0.000932 
3934.784640  	-0.001246 
3936.713456  	-0.001690 
3938.642272  	-0.001805 
3940.571088  	-0.002286 
3942.499904  	-0.001342 
3944.428720  	-0.001114 
3946.357536  	-0.001907 
3948.286352  	-0.001602 
3950.215168  	-0.001322 
3952.143984  	-0.001657 
3954.072800  	-0.001900 
3956.001616  	-0.001938 
3957.930432  	-0.001884 
3959.859248  	-0.001861 
3961.788064  	-0.001542 
3963.716880  	-0.001261 
3965.645696  	-0.001343 
3967.574512  	-0.001553 
3969.503328  	-0.001626 
3971.432144  	-0.001768 
3973.360960  	-0.001781 
3975.289776  	-0.001588 
3977.218592  	-0.001592 
3979.147408  	-0.001678 
3981.076224  	-0.001647 
3983.005040  	-0.001466 
3984.933856  	-0.001552 
3986.862672  	-0.001675 
3988.791488  	-0.001782 
3990.720304  	-0.001738 
3992.649120  	-0.001694 
3994.577936  	-0.001686 
3996.506752  	-0.001763 
3998.435568  	-0.001901 
4000.364384  	-0.001927 