##TITLE=No Description
##DATA TYPE=INFRARED SPECTRUM
##XUNITS=1/CM
##YUNITS=Abs
399.264912  	0.273319 
401.193728  	0.280499 
403.122544  	0.285928 
405.051360  	0.284179 
406.980176  	0.282532 
408.908992  	0.273730 
410.837808  	0.275887 
412.766624  	0.277402 
414.695440  	0.279600 
416.624256  	0.281498 
418.553072  	0.286148 
420.481888  	0.282273 
422.410704  	0.278980 
424.339520  	0.271539 
426.268336  	0.269257 
428.197152  	0.267780 
430.125968  	0.268885 
432.054784  	0.270772 
433.983600  	0.271167 
435.912416  	0.266978 
437.841232  	0.264914 
439.770048  	0.262540 
441.698864  	0.265073 
443.627680  	0.266053 
445.556496  	0.261417 
447.485312  	0.258644 
449.414128  	0.261771 
451.342944  	0.265439 
453.271760  	0.266152 
455.200576  	0.263979 
457.129392  	0.268015 
459.058208  	0.269905 
460.987024  	0.270212 
462.915840  	0.268868 
464.844656  	0.269445 
466.773472  	0.268944 
468.702288  	0.271696 
470.631104  	0.273597 
472.559920  	0.273504 
474.488736  	0.274153 
476.417552  	0.276379 
478.346368  	0.275856 
480.275184  	0.276493 
482.204000  	0.275884 
484.132816  	0.280119 
486.061632  	0.283671 
487.990448  	0.286244 
489.919264  	0.286332 
491.848080  	0.287362 
493.776896  	0.287539 
495.705712  	0.287856 
497.634528  	0.287254 
499.563344  	0.288624 
501.492160  	0.290994 
503.420976  	0.292078 
505.349792  	0.291065 
507.278608  	0.293072 
509.207424  	0.293764 
511.136240  	0.296850 
513.065056  	0.299921 
514.993872  	0.303297 
516.922688  	0.305787 
518.851504  	0.308697 
520.780320  	0.309232 
522.709136  	0.311636 
524.637952  	0.314376 
526.566768  	0.315695 
528.495584  	0.315847 
530.424400  	0.318438 
532.353216  	0.317342 
534.282032  	0.315012 
536.210848  	0.311959 
538.139664  	0.309810 
540.068480  	0.307396 
541.997296  	0.304764 
543.926112  	0.301894 
545.854928  	0.300265 
547.783744  	0.298547 
549.712560  	0.297718 
551.641376  	0.296286 
553.570192  	0.294309 
555.499008  	0.291578 
557.427824  	0.288993 
559.356640  	0.286917 
561.285456  	0.286054 
563.214272  	0.284365 
565.143088  	0.282270 
567.071904  	0.279555 
569.000720  	0.277836 
570.929536  	0.275461 
572.858352  	0.273558 
574.787168  	0.272633 
576.715984  	0.271775 
578.644800  	0.269690 
580.573616  	0.267640 
582.502432  	0.264941 
584.431248  	0.262239 
586.360064  	0.259614 
588.288880  	0.257841 
590.217696  	0.256273 
592.146512  	0.255277 
594.075328  	0.253532 
596.004144  	0.252387 
597.932960  	0.251287 
599.861776  	0.250106 
601.790592  	0.248648 
603.719408  	0.248313 
605.648224  	0.248599 
607.577040  	0.247853 
609.505856  	0.247021 
611.434672  	0.246393 
613.363488  	0.245491 
615.292304  	0.245391 
617.221120  	0.244913 
619.149936  	0.244381 
621.078752  	0.243926 
623.007568  	0.243791 
624.936384  	0.242774 
626.865200  	0.242052 
628.794016  	0.242173 
630.722832  	0.242328 
632.651648  	0.242270 
634.580464  	0.243359 
636.509280  	0.244386 
638.438096  	0.245615 
640.366912  	0.246636 
642.295728  	0.246672 
644.224544  	0.245620 
646.153360  	0.243643 
648.082176  	0.240781 
650.010992  	0.238750 
651.939808  	0.236598 
653.868624  	0.234172 
655.797440  	0.231739 
657.726256  	0.228983 
659.655072  	0.226146 
661.583888  	0.223347 
663.512704  	0.220442 
665.441520  	0.218865 
667.370336  	0.214582 
669.299152  	0.208062 
671.227968  	0.207235 
673.156784  	0.205488 
675.085600  	0.203296 
677.014416  	0.201544 
678.943232  	0.200573 
680.872048  	0.199882 
682.800864  	0.198671 
684.729680  	0.197554 
686.658496  	0.196666 
688.587312  	0.195849 
690.516128  	0.194958 
692.444944  	0.193932 
694.373760  	0.193523 
696.302576  	0.192474 
698.231392  	0.190953 
700.160208  	0.189068 
702.089024  	0.187374 
704.017840  	0.185635 
705.946656  	0.184017 
707.875472  	0.182328 
709.804288  	0.180909 
711.733104  	0.179497 
713.661920  	0.177998 
715.590736  	0.177032 
717.519552  	0.176736 
719.448368  	0.177111 
721.377184  	0.177862 
723.306000  	0.179147 
725.234816  	0.180092 
727.163632  	0.180799 
729.092448  	0.179808 
731.021264  	0.177459 
732.950080  	0.175070 
734.878896  	0.172592 
736.807712  	0.170238 
738.736528  	0.168367 
740.665344  	0.166933 
742.594160  	0.165687 
744.522976  	0.164792 
746.451792  	0.163391 
748.380608  	0.162243 
750.309424  	0.161679 
752.238240  	0.161056 
754.167056  	0.160629 
756.095872  	0.160014 
758.024688  	0.159567 
759.953504  	0.159410 
761.882320  	0.159921 
763.811136  	0.160417 
765.739952  	0.160408 
767.668768  	0.159369 
769.597584  	0.157734 
771.526400  	0.157250 
773.455216  	0.158739 
775.384032  	0.161961 
777.312848  	0.166574 
779.241664  	0.170984 
781.170480  	0.172671 
783.099296  	0.171176 
785.028112  	0.167290 
786.956928  	0.162602 
788.885744  	0.158531 
790.814560  	0.155534 
792.743376  	0.153470 
794.672192  	0.152563 
796.601008  	0.152455 
798.529824  	0.150650 
800.458640  	0.146970 
802.387456  	0.143915 
804.316272  	0.142198 
806.245088  	0.141382 
808.173904  	0.140958 
810.102720  	0.140912 
812.031536  	0.141030 
813.960352  	0.141317 
815.889168  	0.141569 
817.817984  	0.141750 
819.746800  	0.142323 
821.675616  	0.142963 
823.604432  	0.143329 
825.533248  	0.143095 
827.462064  	0.142981 
829.390880  	0.142663 
831.319696  	0.141793 
833.248512  	0.140507 
835.177328  	0.138775 
837.106144  	0.136775 
839.034960  	0.134522 
840.963776  	0.131810 
842.892592  	0.128868 
844.821408  	0.125956 
846.750224  	0.123221 
848.679040  	0.121002 
850.607856  	0.119402 
852.536672  	0.118082 
854.465488  	0.116815 
856.394304  	0.115686 
858.323120  	0.114431 
860.251936  	0.112554 
862.180752  	0.110676 
864.109568  	0.108799 
866.038384  	0.106650 
867.967200  	0.104717 
869.896016  	0.103087 
871.824832  	0.102352 
873.753648  	0.102204 
875.682464  	0.102750 
877.611280  	0.102930 
879.540096  	0.103458 
881.468912  	0.105289 
883.397728  	0.106620 
885.326544  	0.107576 
887.255360  	0.107932 
889.184176  	0.107058 
891.112992  	0.105321 
893.041808  	0.103985 
894.970624  	0.102230 
896.899440  	0.099826 
898.828256  	0.096717 
900.757072  	0.093561 
902.685888  	0.091229 
904.614704  	0.089958 
906.543520  	0.090189 
908.472336  	0.091434 
910.401152  	0.093631 
912.329968  	0.096122 
914.258784  	0.099069 
916.187600  	0.101877 
918.116416  	0.104302 
920.045232  	0.105986 
921.974048  	0.106804 
923.902864  	0.107189 
925.831680  	0.107092 
927.760496  	0.107110 
929.689312  	0.107504 
931.618128  	0.108176 
933.546944  	0.108644 
935.475760  	0.109005 
937.404576  	0.109241 
939.333392  	0.109065 
941.262208  	0.109077 
943.191024  	0.110455 
945.119840  	0.113727 
947.048656  	0.118358 
948.977472  	0.124316 
950.906288  	0.131810 
952.835104  	0.140088 
954.763920  	0.148738 
956.692736  	0.157157 
958.621552  	0.164685 
960.550368  	0.170212 
962.479184  	0.173128 
964.408000  	0.173044 
966.336816  	0.169974 
968.265632  	0.164037 
970.194448  	0.155499 
972.123264  	0.145344 
974.052080  	0.134614 
975.980896  	0.123815 
977.909712  	0.113643 
979.838528  	0.104485 
981.767344  	0.096771 
983.696160  	0.090828 
985.624976  	0.086899 
987.553792  	0.085083 
989.482608  	0.085515 
991.411424  	0.087872 
993.340240  	0.091487 
995.269056  	0.096204 
997.197872  	0.101452 
999.126688  	0.106693 
1001.055504  	0.111840 
1002.984320  	0.117194 
1004.913136  	0.122419 
1006.841952  	0.127421 
1008.770768  	0.131640 
1010.699584  	0.134536 
1012.628400  	0.136248 
1014.557216  	0.136802 
1016.486032  	0.136708 
1018.414848  	0.136528 
1020.343664  	0.136202 
1022.272480  	0.135366 
1024.201296  	0.133973 
1026.130112  	0.130613 
1028.058928  	0.129096 
1029.987744  	0.131508 
1031.916560  	0.132640 
1033.845376  	0.132761 
1035.774192  	0.132692 
1037.703008  	0.133662 
1039.631824  	0.137606 
1041.560640  	0.143769 
1043.489456  	0.151988 
1045.418272  	0.162351 
1047.347088  	0.174537 
1049.275904  	0.186639 
1051.204720  	0.197144 
1053.133536  	0.204938 
1055.062352  	0.209422 
1056.991168  	0.210900 
1058.919984  	0.213492 
1060.848800  	0.215676 
1062.777616  	0.214283 
1064.706432  	0.209048 
1066.635248  	0.204636 
1068.564064  	0.204102 
1070.492880  	0.200992 
1072.421696  	0.195075 
1074.350512  	0.190279 
1076.279328  	0.188347 
1078.208144  	0.189673 
1080.136960  	0.193340 
1082.065776  	0.197977 
1083.994592  	0.202104 
1085.923408  	0.204464 
1087.852224  	0.204073 
1089.781040  	0.201914 
1091.709856  	0.198920 
1093.638672  	0.193784 
1095.567488  	0.185799 
1097.496304  	0.176491 
1099.425120  	0.166344 
1101.353936  	0.155864 
1103.282752  	0.145614 
1105.211568  	0.135798 
1107.140384  	0.126109 
1109.069200  	0.116822 
1110.998016  	0.108228 
1112.926832  	0.100421 
1114.855648  	0.093213 
1116.784464  	0.086470 
1118.713280  	0.080070 
1120.642096  	0.074111 
1122.570912  	0.068657 
1124.499728  	0.063161 
1126.428544  	0.058170 
1128.357360  	0.053875 
1130.286176  	0.050393 
1132.214992  	0.047156 
1134.143808  	0.044483 
1136.072624  	0.042189 
1138.001440  	0.040312 
1139.930256  	0.038108 
1141.859072  	0.036024 
1143.787888  	0.033793 
1145.716704  	0.031637 
1147.645520  	0.029584 
1149.574336  	0.027983 
1151.503152  	0.026737 
1153.431968  	0.026247 
1155.360784  	0.026304 
1157.289600  	0.026924 
1159.218416  	0.027921 
1161.147232  	0.029476 
1163.076048  	0.031177 
1165.004864  	0.033128 
1166.933680  	0.034942 
1168.862496  	0.036987 
1170.791312  	0.038972 
1172.720128  	0.041335 
1174.648944  	0.043653 
1176.577760  	0.045951 
1178.506576  	0.048108 
1180.435392  	0.050466 
1182.364208  	0.052592 
1184.293024  	0.055025 
1186.221840  	0.057686 
1188.150656  	0.060928 
1190.079472  	0.064648 
1192.008288  	0.068936 
1193.937104  	0.074054 
1195.865920  	0.080204 
1197.794736  	0.086881 
1199.723552  	0.094169 
1201.652368  	0.101585 
1203.581184  	0.109325 
1205.510000  	0.117073 
1207.438816  	0.124581 
1209.367632  	0.131487 
1211.296448  	0.137636 
1213.225264  	0.142852 
1215.154080  	0.146903 
1217.082896  	0.149941 
1219.011712  	0.152176 
1220.940528  	0.154066 
1222.869344  	0.155350 
1224.798160  	0.155762 
1226.726976  	0.155649 
1228.655792  	0.155306 
1230.584608  	0.154401 
1232.513424  	0.153155 
1234.442240  	0.151410 
1236.371056  	0.149011 
1238.299872  	0.145513 
1240.228688  	0.139829 
1242.157504  	0.134028 
1244.086320  	0.129296 
1246.015136  	0.123132 
1247.943952  	0.116067 
1249.872768  	0.109096 
1251.801584  	0.103171 
1253.730400  	0.097259 
1255.659216  	0.091323 
1257.588032  	0.085701 
1259.516848  	0.080330 
1261.445664  	0.075401 
1263.374480  	0.071070 
1265.303296  	0.067421 
1267.232112  	0.064397 
1269.160928  	0.062073 
1271.089744  	0.060347 
1273.018560  	0.059482 
1274.947376  	0.059298 
1276.876192  	0.059449 
1278.805008  	0.059295 
1280.733824  	0.058329 
1282.662640  	0.056728 
1284.591456  	0.054733 
1286.520272  	0.052787 
1288.449088  	0.051490 
1290.377904  	0.050808 
1292.306720  	0.050713 
1294.235536  	0.050563 
1296.164352  	0.049697 
1298.093168  	0.047744 
1300.021984  	0.045258 
1301.950800  	0.042546 
1303.879616  	0.040122 
1305.808432  	0.037564 
1307.737248  	0.035031 
1309.666064  	0.032568 
1311.594880  	0.030665 
1313.523696  	0.029091 
1315.452512  	0.028219 
1317.381328  	0.027709 
1319.310144  	0.027560 
1321.238960  	0.027670 
1323.167776  	0.028349 
1325.096592  	0.029094 
1327.025408  	0.029695 
1328.954224  	0.029738 
1330.883040  	0.029378 
1332.811856  	0.028690 
1334.740672  	0.028283 
1336.669488  	0.027967 
1338.598304  	0.027534 
1340.527120  	0.026187 
1342.455936  	0.025447 
1344.384752  	0.025264 
1346.313568  	0.025417 
1348.242384  	0.025901 
1350.171200  	0.026920 
1352.100016  	0.028190 
1354.028832  	0.029736 
1355.957648  	0.031074 
1357.886464  	0.032780 
1359.815280  	0.034737 
1361.744096  	0.036296 
1363.672912  	0.036810 
1365.601728  	0.038011 
1367.530544  	0.039124 
1369.459360  	0.039170 
1371.388176  	0.039109 
1373.316992  	0.037821 
1375.245808  	0.034459 
1377.174624  	0.032444 
1379.103440  	0.030074 
1381.032256  	0.027720 
1382.961072  	0.026023 
1384.889888  	0.025603 
1386.818704  	0.024562 
1388.747520  	0.022865 
1390.676336  	0.021368 
1392.605152  	0.018781 
1394.533968  	0.016548 
1396.462784  	0.018799 
1398.391600  	0.020165 
1400.320416  	0.019489 
1402.249232  	0.020146 
1404.178048  	0.020430 
1406.106864  	0.020518 
1408.035680  	0.022361 
1409.964496  	0.024641 
1411.893312  	0.027116 
1413.822128  	0.029958 
1415.750944  	0.033340 
1417.679760  	0.035399 
1419.608576  	0.034269 
1421.537392  	0.034963 
1423.466208  	0.035515 
1425.395024  	0.033982 
1427.323840  	0.033544 
1429.252656  	0.031635 
1431.181472  	0.029978 
1433.110288  	0.030064 
1435.039104  	0.031037 
1436.967920  	0.029215 
1438.896736  	0.029653 
1440.825552  	0.031121 
1442.754368  	0.031664 
1444.683184  	0.031958 
1446.612000  	0.031946 
1448.540816  	0.030353 
1450.469632  	0.030751 
1452.398448  	0.031815 
1454.327264  	0.033464 
1456.256080  	0.033003 
1458.184896  	0.028926 
1460.113712  	0.030573 
1462.042528  	0.033172 
1463.971344  	0.033400 
1465.900160  	0.032910 
1467.828976  	0.035581 
1469.757792  	0.039271 
1471.686608  	0.041833 
1473.615424  	0.044723 
1475.544240  	0.049823 
1477.473056  	0.054415 
1479.401872  	0.058073 
1481.330688  	0.060520 
1483.259504  	0.062115 
1485.188320  	0.063694 
1487.117136  	0.063563 
1489.045952  	0.062238 
1490.974768  	0.058866 
1492.903584  	0.058144 
1494.832400  	0.056675 
1496.761216  	0.050798 
1498.690032  	0.045354 
1500.618848  	0.042253 
1502.547664  	0.040393 
1504.476480  	0.039077 
1506.405296  	0.032592 
1508.334112  	0.026695 
1510.262928  	0.028138 
1512.191744  	0.027718 
1514.120560  	0.027612 
1516.049376  	0.027145 
1517.978192  	0.026114 
1519.907008  	0.028312 
1521.835824  	0.027288 
1523.764640  	0.030462 
1525.693456  	0.034052 
1527.622272  	0.035486 
1529.551088  	0.036811 
1531.479904  	0.037745 
1533.408720  	0.034108 
1535.337536  	0.031442 
1537.266352  	0.032464 
1539.195168  	0.027562 
1541.123984  	0.019290 
1543.052800  	0.020073 
1544.981616  	0.019858 
1546.910432  	0.020139 
1548.839248  	0.021050 
1550.768064  	0.020576 
1552.696880  	0.021390 
1554.625696  	0.021918 
1556.554512  	0.023677 
1558.483328  	0.021970 
1560.412144  	0.020397 
1562.340960  	0.027951 
1564.269776  	0.032096 
1566.198592  	0.036289 
1568.127408  	0.040246 
1570.056224  	0.043204 
1571.985040  	0.048847 
1573.913856  	0.054146 
1575.842672  	0.054520 
1577.771488  	0.055101 
1579.700304  	0.057474 
1581.629120  	0.057670 
1583.557936  	0.057129 
1585.486752  	0.057643 
1587.415568  	0.059463 
1589.344384  	0.062911 
1591.273200  	0.067509 
1593.202016  	0.073170 
1595.130832  	0.078970 
1597.059648  	0.085183 
1598.988464  	0.090668 
1600.917280  	0.095416 
1602.846096  	0.098342 
1604.774912  	0.100262 
1606.703728  	0.100590 
1608.632544  	0.099863 
1610.561360  	0.098261 
1612.490176  	0.097425 
1614.418992  	0.096666 
1616.347808  	0.094037 
1618.276624  	0.093652 
1620.205440  	0.098169 
1622.134256  	0.101041 
1624.063072  	0.104765 
1625.991888  	0.110751 
1627.920704  	0.117334 
1629.849520  	0.124964 
1631.778336  	0.133438 
1633.707152  	0.139835 
1635.635968  	0.145081 
1637.564784  	0.152591 
1639.493600  	0.160325 
1641.422416  	0.165344 
1643.351232  	0.169811 
1645.280048  	0.171394 
1647.208864  	0.170350 
1649.137680  	0.171828 
1651.066496  	0.174434 
1652.995312  	0.167805 
1654.924128  	0.165060 
1656.852944  	0.167050 
1658.781760  	0.166391 
1660.710576  	0.164018 
1662.639392  	0.159395 
1664.568208  	0.155971 
1666.497024  	0.155186 
1668.425840  	0.150892 
1670.354656  	0.144340 
1672.283472  	0.142272 
1674.212288  	0.140605 
1676.141104  	0.135679 
1678.069920  	0.135709 
1679.998736  	0.135505 
1681.927552  	0.135461 
1683.856368  	0.130930 
1685.785184  	0.128318 
1687.714000  	0.131114 
1689.642816  	0.130851 
1691.571632  	0.129942 
1693.500448  	0.130361 
1695.429264  	0.126702 
1697.358080  	0.123275 
1699.286896  	0.121918 
1701.215712  	0.114672 
1703.144528  	0.115364 
1705.073344  	0.112377 
1707.002160  	0.106690 
1708.930976  	0.103336 
1710.859792  	0.098575 
1712.788608  	0.093389 
1714.717424  	0.086632 
1716.646240  	0.077326 
1718.575056  	0.064465 
1720.503872  	0.058726 
1722.432688  	0.054024 
1724.361504  	0.046268 
1726.290320  	0.040260 
1728.219136  	0.035271 
1730.147952  	0.030382 
1732.076768  	0.027125 
1734.005584  	0.019870 
1735.934400  	0.014472 
1737.863216  	0.016180 
1739.792032  	0.012743 
1741.720848  	0.011402 
1743.649664  	0.010836 
1745.578480  	0.010281 
1747.507296  	0.009049 
1749.436112  	0.007730 
1751.364928  	0.005711 
1753.293744  	0.005668 
1755.222560  	0.006562 
1757.151376  	0.005234 
1759.080192  	0.005002 
1761.009008  	0.004894 
1762.937824  	0.002810 
1764.866640  	0.003732 
1766.795456  	0.004521 
1768.724272  	0.003861 
1770.653088  	0.003191 
1772.581904  	-0.000053 
1774.510720  	0.000051 
1776.439536  	0.001810 
1778.368352  	0.002340 
1780.297168  	0.001906 
1782.225984  	0.001332 
1784.154800  	0.001819 
1786.083616  	0.001008 
1788.012432  	0.001767 
1789.941248  	0.002432 
1791.870064  	0.000891 
1793.798880  	-0.000917 
1795.727696  	0.000726 
1797.656512  	0.000978 
1799.585328  	0.000930 
1801.514144  	0.000267 
1803.442960  	0.000375 
1805.371776  	0.000353 
1807.300592  	0.000789 
1809.229408  	0.000447 
1811.158224  	-0.000217 
1813.087040  	-0.000545 
1815.015856  	0.000198 
1816.944672  	0.000128 
1818.873488  	0.000180 
1820.802304  	0.000142 
1822.731120  	0.001044 
1824.659936  	0.000298 
1826.588752  	-0.000441 
1828.517568  	-0.000244 
1830.446384  	-0.001479 
1832.375200  	-0.001177 
1834.304016  	-0.000123 
1836.232832  	-0.000193 
1838.161648  	-0.000220 
1840.090464  	-0.000389 
1842.019280  	0.000591 
1843.948096  	-0.001134 
1845.876912  	-0.001734 
1847.805728  	-0.000658 
1849.734544  	-0.000350 
1851.663360  	-0.000209 
1853.592176  	-0.000299 
1855.520992  	-0.000509 
1857.449808  	-0.000441 
1859.378624  	-0.000705 
1861.307440  	-0.000733 
1863.236256  	-0.000761 
1865.165072  	-0.000093 
1867.093888  	-0.000009 
1869.022704  	-0.001176 
1870.951520  	-0.001764 
1872.880336  	-0.000739 
1874.809152  	-0.000749 
1876.737968  	-0.000707 
1878.666784  	-0.001106 
1880.595600  	-0.000458 
1882.524416  	-0.000602 
1884.453232  	-0.000599 
1886.382048  	-0.000626 
1888.310864  	-0.000200 
1890.239680  	-0.001088 
1892.168496  	-0.000695 
1894.097312  	-0.000749 
1896.026128  	-0.000862 
1897.954944  	-0.000800 
1899.883760  	-0.000361 
1901.812576  	-0.000637 
1903.741392  	-0.000824 
1905.670208  	-0.001236 
1907.599024  	-0.000942 
1909.527840  	-0.001001 
1911.456656  	-0.000890 
1913.385472  	-0.000979 
1915.314288  	0.000021 
1917.243104  	-0.000397 
1919.171920  	-0.000907 
1921.100736  	-0.000494 
1923.029552  	-0.000769 
1924.958368  	-0.001259 
1926.887184  	-0.000503 
1928.816000  	-0.000589 
1930.744816  	-0.000411 
1932.673632  	-0.000761 
1934.602448  	-0.000475 
1936.531264  	-0.000418 
1938.460080  	0.000076 
1940.388896  	-0.000356 
1942.317712  	-0.000618 
1944.246528  	-0.000915 
1946.175344  	0.000115 
1948.104160  	-0.000250 
1950.032976  	-0.000333 
1951.961792  	-0.000822 
1953.890608  	-0.000371 
1955.819424  	-0.000619 
1957.748240  	-0.000261 
1959.677056  	-0.000231 
1961.605872  	0.000743 
1963.534688  	0.000368 
1965.463504  	0.001098 
1967.392320  	0.000157 
1969.321136  	0.000304 
1971.249952  	0.000952 
1973.178768  	0.001271 
1975.107584  	-0.000012 
1977.036400  	0.001373 
1978.965216  	0.002304 
1980.894032  	0.001348 
1982.822848  	0.000559 
1984.751664  	0.000876 
1986.680480  	-0.000061 
1988.609296  	0.000309 
1990.538112  	-0.000616 
1992.466928  	0.000118 
1994.395744  	-0.000049 
1996.324560  	0.000162 
1998.253376  	-0.000579 
2000.182192  	-0.000517 
2002.111008  	-0.000068 
2004.039824  	0.001328 
2005.968640  	0.000917 
2007.897456  	0.001016 
2009.826272  	-0.000038 
2011.755088  	0.000836 
2013.683904  	0.000075 
2015.612720  	0.000076 
2017.541536  	0.000144 
2019.470352  	0.001033 
2021.399168  	-0.000094 
2023.327984  	-0.000355 
2025.256800  	0.000003 
2027.185616  	0.001101 
2029.114432  	0.001073 
2031.043248  	0.001778 
2032.972064  	0.001387 
2034.900880  	0.001713 
2036.829696  	0.001159 
2038.758512  	0.002265 
2040.687328  	0.001123 
2042.616144  	0.001466 
2044.544960  	0.000576 
2046.473776  	0.000266 
2048.402592  	0.000266 
2050.331408  	0.001181 
2052.260224  	0.000530 
2054.189040  	-0.000028 
2056.117856  	-0.000227 
2058.046672  	0.000047 
2059.975488  	-0.000818 
2061.904304  	-0.000683 
2063.833120  	-0.000497 
2065.761936  	-0.000471 
2067.690752  	-0.000975 
2069.619568  	-0.000436 
2071.548384  	-0.000253 
2073.477200  	-0.000424 
2075.406016  	-0.000008 
2077.334832  	0.000614 
2079.263648  	0.000028 
2081.192464  	0.000035 
2083.121280  	-0.000357 
2085.050096  	-0.000288 
2086.978912  	-0.000112 
2088.907728  	0.000215 
2090.836544  	0.000117 
2092.765360  	0.000451 
2094.694176  	0.000301 
2096.622992  	0.000347 
2098.551808  	0.000486 
2100.480624  	0.000731 
2102.409440  	0.000405 
2104.338256  	0.000202 
2106.267072  	0.000376 
2108.195888  	0.000902 
2110.124704  	0.000416 
2112.053520  	0.000109 
2113.982336  	-0.000197 
2115.911152  	0.000018 
2117.839968  	0.000181 
2119.768784  	-0.000176 
2121.697600  	-0.000875 
2123.626416  	-0.000513 
2125.555232  	-0.000445 
2127.484048  	-0.000229 
2129.412864  	-0.000381 
2131.341680  	-0.000322 
2133.270496  	-0.000463 
2135.199312  	0.000045 
2137.128128  	0.000297 
2139.056944  	0.000807 
2140.985760  	0.000841 
2142.914576  	0.000800 
2144.843392  	0.000654 
2146.772208  	0.000844 
2148.701024  	0.000258 
2150.629840  	0.000418 
2152.558656  	0.000075 
2154.487472  	0.000705 
2156.416288  	0.000635 
2158.345104  	0.001136 
2160.273920  	0.002292 
2162.202736  	0.003682 
2164.131552  	0.003174 
2166.060368  	0.002566 
2167.989184  	0.002267 
2169.918000  	0.002990 
2171.846816  	0.001904 
2173.775632  	0.001777 
2175.704448  	0.001660 
2177.633264  	0.002098 
2179.562080  	0.002176 
2181.490896  	0.002460 
2183.419712  	0.001242 
2185.348528  	0.001075 
2187.277344  	0.001078 
2189.206160  	0.001402 
2191.134976  	0.001177 
2193.063792  	0.001151 
2194.992608  	0.001108 
2196.921424  	0.000853 
2198.850240  	0.000630 
2200.779056  	0.000989 
2202.707872  	0.000389 
2204.636688  	0.000569 
2206.565504  	0.000447 
2208.494320  	0.000443 
2210.423136  	0.000183 
2212.351952  	0.000487 
2214.280768  	0.000634 
2216.209584  	0.000850 
2218.138400  	0.000066 
2220.067216  	0.000184 
2221.996032  	0.000331 
2223.924848  	0.000679 
2225.853664  	0.000821 
2227.782480  	0.001053 
2229.711296  	0.000511 
2231.640112  	-0.000117 
2233.568928  	-0.000177 
2235.497744  	0.000235 
2237.426560  	-0.000100 
2239.355376  	-0.000275 
2241.284192  	-0.000444 
2243.213008  	-0.000112 
2245.141824  	0.000083 
2247.070640  	0.000119 
2248.999456  	0.000098 
2250.928272  	-0.000003 
2252.857088  	-0.000630 
2254.785904  	-0.000920 
2256.714720  	-0.001274 
2258.643536  	-0.001358 
2260.572352  	-0.001012 
2262.501168  	-0.001013 
2264.429984  	-0.001082 
2266.358800  	-0.000577 
2268.287616  	-0.000671 
2270.216432  	-0.000638 
2272.145248  	-0.000517 
2274.074064  	-0.000552 
2276.002880  	-0.000769 
2277.931696  	-0.000641 
2279.860512  	-0.000446 
2281.789328  	-0.000268 
2283.718144  	-0.000305 
2285.646960  	-0.000155 
2287.575776  	-0.000025 
2289.504592  	-0.000011 
2291.433408  	-0.000149 
2293.362224  	-0.000072 
2295.291040  	0.000018 
2297.219856  	0.000267 
2299.148672  	0.000251 
2301.077488  	0.000504 
2303.006304  	0.000601 
2304.935120  	0.000672 
2306.863936  	0.000645 
2308.792752  	0.000856 
2310.721568  	0.000832 
2312.650384  	0.000601 
2314.579200  	0.000230 
2316.508016  	-0.000182 
2318.436832  	-0.000358 
2320.365648  	-0.000745 
2322.294464  	-0.001510 
2324.223280  	-0.002434 
2326.152096  	-0.003342 
2328.080912  	-0.004027 
2330.009728  	-0.004938 
2331.938544  	-0.006082 
2333.867360  	-0.006714 
2335.796176  	-0.007215 
2337.724992  	-0.007930 
2339.653808  	-0.007896 
2341.582624  	-0.008164 
2343.511440  	-0.008161 
2345.440256  	-0.008012 
2347.369072  	-0.005656 
2349.297888  	-0.002366 
2351.226704  	-0.002154 
2353.155520  	-0.004766 
2355.084336  	-0.006537 
2357.013152  	-0.008084 
2358.941968  	-0.009866 
2360.870784  	-0.011464 
2362.799600  	-0.010923 
2364.728416  	-0.010456 
2366.657232  	-0.009454 
2368.586048  	-0.008299 
2370.514864  	-0.006777 
2372.443680  	-0.005557 
2374.372496  	-0.004317 
2376.301312  	-0.003131 
2378.230128  	-0.002013 
2380.158944  	-0.001429 
2382.087760  	-0.000958 
2384.016576  	-0.000855 
2385.945392  	-0.000969 
2387.874208  	-0.001004 
2389.803024  	-0.001021 
2391.731840  	-0.001220 
2393.660656  	-0.001168 
2395.589472  	-0.001088 
2397.518288  	-0.001003 
2399.447104  	-0.001018 
2401.375920  	-0.001086 
2403.304736  	-0.001227 
2405.233552  	-0.001147 
2407.162368  	-0.001203 
2409.091184  	-0.001039 
2411.020000  	-0.000903 
2412.948816  	-0.000887 
2414.877632  	-0.000963 
2416.806448  	-0.000887 
2418.735264  	-0.001074 
2420.664080  	-0.001170 
2422.592896  	-0.001043 
2424.521712  	-0.000915 
2426.450528  	-0.001035 
2428.379344  	-0.000852 
2430.308160  	-0.000739 
2432.236976  	-0.000735 
2434.165792  	-0.000950 
2436.094608  	-0.001032 
2438.023424  	-0.000903 
2439.952240  	-0.000684 
2441.881056  	-0.000627 
2443.809872  	-0.000564 
2445.738688  	-0.000438 
2447.667504  	-0.000342 
2449.596320  	-0.000516 
2451.525136  	-0.000331 
2453.453952  	-0.000280 
2455.382768  	-0.000377 
2457.311584  	-0.000380 
2459.240400  	-0.000356 
2461.169216  	-0.000365 
2463.098032  	-0.000451 
2465.026848  	-0.000566 
2466.955664  	-0.000599 
2468.884480  	-0.000847 
2470.813296  	-0.000916 
2472.742112  	-0.000764 
2474.670928  	-0.000476 
2476.599744  	-0.000510 
2478.528560  	-0.000493 
2480.457376  	-0.000574 
2482.386192  	-0.000502 
2484.315008  	-0.000356 
2486.243824  	-0.000415 
2488.172640  	-0.000388 
2490.101456  	-0.000309 
2492.030272  	-0.000218 
2493.959088  	0.000109 
2495.887904  	0.000188 
2497.816720  	0.000061 
2499.745536  	0.000108 
2501.674352  	0.000254 
2503.603168  	0.000471 
2505.531984  	0.000406 
2507.460800  	0.000127 
2509.389616  	0.000251 
2511.318432  	0.000337 
2513.247248  	0.000399 
2515.176064  	0.000438 
2517.104880  	0.000531 
2519.033696  	0.000281 
2520.962512  	0.000391 
2522.891328  	0.000634 
2524.820144  	0.000544 
2526.748960  	0.000357 
2528.677776  	0.000526 
2530.606592  	0.000626 
2532.535408  	0.000743 
2534.464224  	0.000825 
2536.393040  	0.000742 
2538.321856  	0.000692 
2540.250672  	0.000800 
2542.179488  	0.000872 
2544.108304  	0.000865 
2546.037120  	0.000910 
2547.965936  	0.001007 
2549.894752  	0.001122 
2551.823568  	0.001161 
2553.752384  	0.001133 
2555.681200  	0.001365 
2557.610016  	0.001539 
2559.538832  	0.001632 
2561.467648  	0.001562 
2563.396464  	0.001463 
2565.325280  	0.001552 
2567.254096  	0.001692 
2569.182912  	0.001755 
2571.111728  	0.001902 
2573.040544  	0.002053 
2574.969360  	0.002155 
2576.898176  	0.002276 
2578.826992  	0.002274 
2580.755808  	0.002224 
2582.684624  	0.002291 
2584.613440  	0.002321 
2586.542256  	0.002371 
2588.471072  	0.002457 
2590.399888  	0.002490 
2592.328704  	0.002336 
2594.257520  	0.002220 
2596.186336  	0.002450 
2598.115152  	0.002644 
2600.043968  	0.002535 
2601.972784  	0.002750 
2603.901600  	0.002984 
2605.830416  	0.003147 
2607.759232  	0.003111 
2609.688048  	0.003104 
2611.616864  	0.003161 
2613.545680  	0.003361 
2615.474496  	0.003476 
2617.403312  	0.003451 
2619.332128  	0.003501 
2621.260944  	0.003582 
2623.189760  	0.003531 
2625.118576  	0.003597 
2627.047392  	0.003740 
2628.976208  	0.003908 
2630.905024  	0.004046 
2632.833840  	0.004063 
2634.762656  	0.004069 
2636.691472  	0.004032 
2638.620288  	0.004098 
2640.549104  	0.004238 
2642.477920  	0.004270 
2644.406736  	0.004402 
2646.335552  	0.004488 
2648.264368  	0.004660 
2650.193184  	0.004827 
2652.122000  	0.004935 
2654.050816  	0.004991 
2655.979632  	0.005106 
2657.908448  	0.005223 
2659.837264  	0.005379 
2661.766080  	0.005528 
2663.694896  	0.005587 
2665.623712  	0.005598 
2667.552528  	0.005720 
2669.481344  	0.005827 
2671.410160  	0.005879 
2673.338976  	0.006010 
2675.267792  	0.006157 
2677.196608  	0.006267 
2679.125424  	0.006291 
2681.054240  	0.006332 
2682.983056  	0.006472 
2684.911872  	0.006519 
2686.840688  	0.006536 
2688.769504  	0.006612 
2690.698320  	0.006728 
2692.627136  	0.006801 
2694.555952  	0.006875 
2696.484768  	0.006945 
2698.413584  	0.007108 
2700.342400  	0.007228 
2702.271216  	0.007360 
2704.200032  	0.007560 
2706.128848  	0.007561 
2708.057664  	0.007471 
2709.986480  	0.007566 
2711.915296  	0.007727 
2713.844112  	0.007863 
2715.772928  	0.007873 
2717.701744  	0.007984 
2719.630560  	0.008255 
2721.559376  	0.008364 
2723.488192  	0.008397 
2725.417008  	0.008580 
2727.345824  	0.008715 
2729.274640  	0.008749 
2731.203456  	0.008840 
2733.132272  	0.008997 
2735.061088  	0.009075 
2736.989904  	0.009142 
2738.918720  	0.009190 
2740.847536  	0.009257 
2742.776352  	0.009219 
2744.705168  	0.009346 
2746.633984  	0.009440 
2748.562800  	0.009437 
2750.491616  	0.009492 
2752.420432  	0.009671 
2754.349248  	0.009638 
2756.278064  	0.009582 
2758.206880  	0.009486 
2760.135696  	0.009525 
2762.064512  	0.009622 
2763.993328  	0.009646 
2765.922144  	0.009655 
2767.850960  	0.009710 
2769.779776  	0.009750 
2771.708592  	0.009840 
2773.637408  	0.009845 
2775.566224  	0.009770 
2777.495040  	0.009759 
2779.423856  	0.009891 
2781.352672  	0.009899 
2783.281488  	0.009800 
2785.210304  	0.009713 
2787.139120  	0.009778 
2789.067936  	0.009863 
2790.996752  	0.009892 
2792.925568  	0.009734 
2794.854384  	0.009674 
2796.783200  	0.009692 
2798.712016  	0.009690 
2800.640832  	0.009709 
2802.569648  	0.009861 
2804.498464  	0.009934 
2806.427280  	0.009825 
2808.356096  	0.009774 
2810.284912  	0.009880 
2812.213728  	0.009935 
2814.142544  	0.009871 
2816.071360  	0.009724 
2818.000176  	0.009567 
2819.928992  	0.009539 
2821.857808  	0.009519 
2823.786624  	0.009451 
2825.715440  	0.009407 
2827.644256  	0.009225 
2829.573072  	0.009145 
2831.501888  	0.008947 
2833.430704  	0.008562 
2835.359520  	0.008252 
2837.288336  	0.007946 
2839.217152  	0.007662 
2841.145968  	0.007367 
2843.074784  	0.007001 
2845.003600  	0.006653 
2846.932416  	0.006364 
2848.861232  	0.006123 
2850.790048  	0.005762 
2852.718864  	0.005162 
2854.647680  	0.004510 
2856.576496  	0.003820 
2858.505312  	0.003117 
2860.434128  	0.002598 
2862.362944  	0.001879 
2864.291760  	0.001067 
2866.220576  	0.000463 
2868.149392  	0.000085 
2870.078208  	-0.000196 
2872.007024  	-0.000277 
2873.935840  	-0.000231 
2875.864656  	-0.000240 
2877.793472  	-0.000440 
2879.722288  	-0.000704 
2881.651104  	-0.001171 
2883.579920  	-0.001475 
2885.508736  	-0.001365 
2887.437552  	-0.001153 
2889.366368  	-0.001040 
2891.295184  	-0.001162 
2893.224000  	-0.001409 
2895.152816  	-0.001452 
2897.081632  	-0.001766 
2899.010448  	-0.003383 
2900.939264  	-0.004910 
2902.868080  	-0.003673 
2904.796896  	-0.002392 
2906.725712  	-0.001840 
2908.654528  	-0.001243 
2910.583344  	-0.000859 
2912.512160  	-0.000257 
2914.440976  	0.000949 
2916.369792  	0.001808 
2918.298608  	0.002233 
2920.227424  	0.002555 
2922.156240  	0.003130 
2924.085056  	0.003863 
2926.013872  	0.004558 
2927.942688  	0.005327 
2929.871504  	0.006190 
2931.800320  	0.006975 
2933.729136  	0.007703 
2935.657952  	0.008255 
2937.586768  	0.008808 
2939.515584  	0.009302 
2941.444400  	0.009475 
2943.373216  	0.009483 
2945.302032  	0.009773 
2947.230848  	0.010000 
2949.159664  	0.009671 
2951.088480  	0.009185 
2953.017296  	0.008759 
2954.946112  	0.008041 
2956.874928  	0.007311 
2958.803744  	0.006517 
2960.732560  	0.005885 
2962.661376  	0.005227 
2964.590192  	0.004203 
2966.519008  	0.003032 
2968.447824  	0.002134 
2970.376640  	0.001330 
2972.305456  	0.000783 
2974.234272  	0.001051 
2976.163088  	0.001378 
2978.091904  	0.001372 
2980.020720  	0.001355 
2981.949536  	0.001488 
2983.878352  	0.001287 
2985.807168  	0.000381 
2987.735984  	-0.000488 
2989.664800  	-0.000104 
2991.593616  	0.002886 
2993.522432  	0.004920 
2995.451248  	0.005581 
2997.380064  	0.006455 
2999.308880  	0.007694 
3001.237696  	0.008957 
3003.166512  	0.010291 
3005.095328  	0.011628 
3007.024144  	0.013005 
3008.952960  	0.014489 
3010.881776  	0.015951 
3012.810592  	0.017383 
3014.739408  	0.018731 
3016.668224  	0.019840 
3018.597040  	0.021006 
3020.525856  	0.022061 
3022.454672  	0.023043 
3024.383488  	0.024066 
3026.312304  	0.025036 
3028.241120  	0.026080 
3030.169936  	0.027066 
3032.098752  	0.027767 
3034.027568  	0.028362 
3035.956384  	0.029086 
3037.885200  	0.029968 
3039.814016  	0.030637 
3041.742832  	0.031298 
3043.671648  	0.031810 
3045.600464  	0.032238 
3047.529280  	0.032689 
3049.458096  	0.033251 
3051.386912  	0.033935 
3053.315728  	0.034484 
3055.244544  	0.034983 
3057.173360  	0.035458 
3059.102176  	0.035926 
3061.030992  	0.036501 
3062.959808  	0.037164 
3064.888624  	0.037746 
3066.817440  	0.038361 
3068.746256  	0.039156 
3070.675072  	0.039724 
3072.603888  	0.040206 
3074.532704  	0.040922 
3076.461520  	0.041659 
3078.390336  	0.042245 
3080.319152  	0.042791 
3082.247968  	0.043373 
3084.176784  	0.043945 
3086.105600  	0.044639 
3088.034416  	0.045407 
3089.963232  	0.046114 
3091.892048  	0.046587 
3093.820864  	0.047134 
3095.749680  	0.047746 
3097.678496  	0.048471 
3099.607312  	0.049198 
3101.536128  	0.049959 
3103.464944  	0.050752 
3105.393760  	0.051336 
3107.322576  	0.051915 
3109.251392  	0.052525 
3111.180208  	0.053201 
3113.109024  	0.053914 
3115.037840  	0.054579 
3116.966656  	0.055230 
3118.895472  	0.055746 
3120.824288  	0.056270 
3122.753104  	0.056748 
3124.681920  	0.057144 
3126.610736  	0.057550 
3128.539552  	0.058155 
3130.468368  	0.058814 
3132.397184  	0.059321 
3134.326000  	0.059916 
3136.254816  	0.060355 
3138.183632  	0.060878 
3140.112448  	0.061447 
3142.041264  	0.061978 
3143.970080  	0.062364 
3145.898896  	0.062933 
3147.827712  	0.063522 
3149.756528  	0.063962 
3151.685344  	0.064450 
3153.614160  	0.065163 
3155.542976  	0.065767 
3157.471792  	0.066282 
3159.400608  	0.066868 
3161.329424  	0.067531 
3163.258240  	0.067889 
3165.187056  	0.068226 
3167.115872  	0.068683 
3169.044688  	0.069140 
3170.973504  	0.069590 
3172.902320  	0.070097 
3174.831136  	0.070457 
3176.759952  	0.071014 
3178.688768  	0.071255 
3180.617584  	0.071464 
3182.546400  	0.071889 
3184.475216  	0.072192 
3186.404032  	0.072246 
3188.332848  	0.072391 
3190.261664  	0.072703 
3192.190480  	0.072892 
3194.119296  	0.072929 
3196.048112  	0.073118 
3197.976928  	0.072909 
3199.905744  	0.072818 
3201.834560  	0.072907 
3203.763376  	0.072963 
3205.692192  	0.072949 
3207.621008  	0.072932 
3209.549824  	0.072928 
3211.478640  	0.072930 
3213.407456  	0.072786 
3215.336272  	0.072522 
3217.265088  	0.072578 
3219.193904  	0.072503 
3221.122720  	0.072141 
3223.051536  	0.071906 
3224.980352  	0.071901 
3226.909168  	0.071889 
3228.837984  	0.071749 
3230.766800  	0.071735 
3232.695616  	0.071709 
3234.624432  	0.071618 
3236.553248  	0.071541 
3238.482064  	0.071598 
3240.410880  	0.071532 
3242.339696  	0.071657 
3244.268512  	0.071489 
3246.197328  	0.071517 
3248.126144  	0.071918 
3250.054960  	0.072115 
3251.983776  	0.072262 
3253.912592  	0.072300 
3255.841408  	0.072358 
3257.770224  	0.072702 
3259.699040  	0.072886 
3261.627856  	0.073006 
3263.556672  	0.073322 
3265.485488  	0.073533 
3267.414304  	0.073659 
3269.343120  	0.074013 
3271.271936  	0.074322 
3273.200752  	0.074318 
3275.129568  	0.074177 
3277.058384  	0.074456 
3278.987200  	0.074811 
3280.916016  	0.074987 
3282.844832  	0.075128 
3284.773648  	0.075372 
3286.702464  	0.075623 
3288.631280  	0.075827 
3290.560096  	0.076070 
3292.488912  	0.076374 
3294.417728  	0.076699 
3296.346544  	0.077030 
3298.275360  	0.077295 
3300.204176  	0.077597 
3302.132992  	0.077876 
3304.061808  	0.078010 
3305.990624  	0.078469 
3307.919440  	0.078927 
3309.848256  	0.079153 
3311.777072  	0.079628 
3313.705888  	0.079928 
3315.634704  	0.080138 
3317.563520  	0.080274 
3319.492336  	0.080622 
3321.421152  	0.080932 
3323.349968  	0.081109 
3325.278784  	0.081435 
3327.207600  	0.081822 
3329.136416  	0.081769 
3331.065232  	0.081824 
3332.994048  	0.081912 
3334.922864  	0.081887 
3336.851680  	0.081883 
3338.780496  	0.081951 
3340.709312  	0.082029 
3342.638128  	0.081805 
3344.566944  	0.081477 
3346.495760  	0.081327 
3348.424576  	0.081256 
3350.353392  	0.081241 
3352.282208  	0.080994 
3354.211024  	0.080566 
3356.139840  	0.080317 
3358.068656  	0.080276 
3359.997472  	0.079903 
3361.926288  	0.079343 
3363.855104  	0.079087 
3365.783920  	0.078835 
3367.712736  	0.078611 
3369.641552  	0.078454 
3371.570368  	0.078015 
3373.499184  	0.077618 
3375.428000  	0.077196 
3377.356816  	0.076856 
3379.285632  	0.076642 
3381.214448  	0.076374 
3383.143264  	0.076059 
3385.072080  	0.075526 
3387.000896  	0.075017 
3388.929712  	0.074862 
3390.858528  	0.074779 
3392.787344  	0.074321 
3394.716160  	0.073741 
3396.644976  	0.073450 
3398.573792  	0.073185 
3400.502608  	0.072846 
3402.431424  	0.072270 
3404.360240  	0.071933 
3406.289056  	0.071642 
3408.217872  	0.071344 
3410.146688  	0.071024 
3412.075504  	0.070735 
3414.004320  	0.070260 
3415.933136  	0.069682 
3417.861952  	0.069247 
3419.790768  	0.068858 
3421.719584  	0.068113 
3423.648400  	0.067714 
3425.577216  	0.067405 
3427.506032  	0.067017 
3429.434848  	0.066526 
3431.363664  	0.066072 
3433.292480  	0.065699 
3435.221296  	0.065237 
3437.150112  	0.064738 
3439.078928  	0.064424 
3441.007744  	0.063799 
3442.936560  	0.063189 
3444.865376  	0.063095 
3446.794192  	0.062033 
3448.723008  	0.060985 
3450.651824  	0.060794 
3452.580640  	0.060285 
3454.509456  	0.059842 
3456.438272  	0.059173 
3458.367088  	0.058613 
3460.295904  	0.058125 
3462.224720  	0.057401 
3464.153536  	0.056659 
3466.082352  	0.056220 
3468.011168  	0.055542 
3469.939984  	0.054851 
3471.868800  	0.054297 
3473.797616  	0.053602 
3475.726432  	0.052799 
3477.655248  	0.052388 
3479.584064  	0.052068 
3481.512880  	0.051062 
3483.441696  	0.049984 
3485.370512  	0.049737 
3487.299328  	0.048834 
3489.228144  	0.047961 
3491.156960  	0.047242 
3493.085776  	0.046658 
3495.014592  	0.046064 
3496.943408  	0.045270 
3498.872224  	0.044985 
3500.801040  	0.045028 
3502.729856  	0.043827 
3504.658672  	0.042511 
3506.587488  	0.042715 
3508.516304  	0.042526 
3510.445120  	0.041165 
3512.373936  	0.040447 
3514.302752  	0.040240 
3516.231568  	0.040117 
3518.160384  	0.039627 
3520.089200  	0.039196 
3522.018016  	0.038857 
3523.946832  	0.037980 
3525.875648  	0.037496 
3527.804464  	0.036565 
3529.733280  	0.035507 
3531.662096  	0.035223 
3533.590912  	0.035240 
3535.519728  	0.034888 
3537.448544  	0.033874 
3539.377360  	0.033379 
3541.306176  	0.033344 
3543.234992  	0.033299 
3545.163808  	0.032460 
3547.092624  	0.031004 
3549.021440  	0.030472 
3550.950256  	0.030657 
3552.879072  	0.029297 
3554.807888  	0.028752 
3556.736704  	0.028887 
3558.665520  	0.028718 
3560.594336  	0.028240 
3562.523152  	0.027864 
3564.451968  	0.028299 
3566.380784  	0.026887 
3568.309600  	0.022915 
3570.238416  	0.023285 
3572.167232  	0.024337 
3574.096048  	0.023897 
3576.024864  	0.023127 
3577.953680  	0.022692 
3579.882496  	0.022072 
3581.811312  	0.021795 
3583.740128  	0.022251 
3585.668944  	0.022490 
3587.597760  	0.018742 
3589.526576  	0.016506 
3591.455392  	0.018258 
3593.384208  	0.018386 
3595.313024  	0.016668 
3597.241840  	0.015615 
3599.170656  	0.015076 
3601.099472  	0.013727 
3603.028288  	0.013594 
3604.957104  	0.014923 
3606.885920  	0.014709 
3608.814736  	0.011843 
3610.743552  	0.011558 
3612.672368  	0.010918 
3614.601184  	0.008919 
3616.530000  	0.010214 
3618.458816  	0.008335 
3620.387632  	0.004535 
3622.316448  	0.005602 
3624.245264  	0.007342 
3626.174080  	0.008817 
3628.102896  	0.006179 
3630.031712  	-0.002314 
3631.960528  	0.000883 
3633.889344  	0.001600 
3635.818160  	0.000725 
3637.746976  	0.000420 
3639.675792  	0.000101 
3641.604608  	0.000043 
3643.533424  	0.000280 
3645.462240  	0.001938 
3647.391056  	-0.000359 
3649.319872  	-0.007583 
3651.248688  	-0.012338 
3653.177504  	-0.007414 
3655.106320  	-0.005379 
3657.035136  	-0.010158 
3658.963952  	-0.009781 
3660.892768  	-0.008870 
3662.821584  	-0.008805 
3664.750400  	-0.008291 
3666.679216  	-0.006628 
3668.608032  	-0.007313 
3670.536848  	-0.013561 
3672.465664  	-0.010638 
3674.394480  	-0.008439 
3676.323296  	-0.018715 
3678.252112  	-0.015157 
3680.180928  	-0.012475 
3682.109744  	-0.011361 
3684.038560  	-0.010609 
3685.967376  	-0.008555 
3687.896192  	-0.009921 
3689.825008  	-0.015761 
3691.753824  	-0.016158 
3693.682640  	-0.013300 
3695.611456  	-0.011156 
3697.540272  	-0.010282 
3699.469088  	-0.008478 
3701.397904  	-0.009824 
3703.326720  	-0.011002 
3705.255536  	-0.008487 
3707.184352  	-0.006367 
3709.113168  	-0.006444 
3711.041984  	-0.010084 
3712.970800  	-0.012882 
3714.899616  	-0.009895 
3716.828432  	-0.007108 
3718.757248  	-0.007008 
3720.686064  	-0.007074 
3722.614880  	-0.008161 
3724.543696  	-0.007977 
3726.472512  	-0.008638 
3728.401328  	-0.008012 
3730.330144  	-0.005361 
3732.258960  	-0.006682 
3734.187776  	-0.008038 
3736.116592  	-0.012400 
3738.045408  	-0.012357 
3739.974224  	-0.008258 
3741.903040  	-0.004066 
3743.831856  	-0.006078 
3745.760672  	-0.013490 
3747.689488  	-0.007462 
3749.618304  	-0.008553 
3751.547120  	-0.013956 
3753.475936  	-0.013828 
3755.404752  	-0.008934 
3757.333568  	-0.007433 
3759.262384  	-0.008975 
3761.191200  	-0.010046 
3763.120016  	-0.006762 
3765.048832  	-0.007178 
3766.977648  	-0.007703 
3768.906464  	-0.007442 
3770.835280  	-0.010402 
3772.764096  	-0.008881 
3774.692912  	-0.007158 
3776.621728  	-0.006143 
3778.550544  	-0.007045 
3780.479360  	-0.009981 
3782.408176  	-0.007953 
3784.336992  	-0.007673 
3786.265808  	-0.008544 
3788.194624  	-0.007909 
3790.123440  	-0.007561 
3792.052256  	-0.007314 
3793.981072  	-0.005871 
3795.909888  	-0.006944 
3797.838704  	-0.007838 
3799.767520  	-0.005477 
3801.696336  	-0.011944 
3803.625152  	-0.011861 
3805.553968  	-0.007421 
3807.482784  	-0.011508 
3809.411600  	-0.010213 
3811.340416  	-0.007238 
3813.269232  	-0.004804 
3815.198048  	-0.006241 
3817.126864  	-0.010986 
3819.055680  	-0.006837 
3820.984496  	-0.010877 
3822.913312  	-0.013634 
3824.842128  	-0.008414 
3826.770944  	-0.008764 
3828.699760  	-0.008027 
3830.628576  	-0.006829 
3832.557392  	-0.008050 
3834.486208  	-0.006969 
3836.415024  	-0.007102 
3838.343840  	-0.010558 
3840.272656  	-0.011812 
3842.201472  	-0.009970 
3844.130288  	-0.010215 
3846.059104  	-0.008933 
3847.987920  	-0.005960 
3849.916736  	-0.003585 
3851.845552  	-0.003265 
3853.774368  	-0.015090 
3855.703184  	-0.016140 
3857.632000  	-0.010846 
3859.560816  	-0.007290 
3861.489632  	-0.006229 
3863.418448  	-0.007337 
3865.347264  	-0.009654 
3867.276080  	-0.006788 
3869.204896  	-0.007013 
3871.133712  	-0.011298 
3873.062528  	-0.008638 
3874.991344  	-0.010477 
3876.920160  	-0.007571 
3878.848976  	-0.005160 
3880.777792  	-0.008635 
3882.706608  	-0.007767 
3884.635424  	-0.006245 
3886.564240  	-0.010645 
3888.493056  	-0.007538 
3890.421872  	-0.006426 
3892.350688  	-0.010105 
3894.279504  	-0.008848 
3896.208320  	-0.005758 
3898.137136  	-0.004760 
3900.065952  	-0.006711 
3901.994768  	-0.007382 
3903.923584  	-0.009410 
3905.852400  	-0.010942 
3907.781216  	-0.008910 
3909.710032  	-0.007407 
3911.638848  	-0.007018 
3913.567664  	-0.006432 
3915.496480  	-0.005971 
3917.425296  	-0.007713 
3919.354112  	-0.008358 
3921.282928  	-0.007601 
3923.211744  	-0.006364 
3925.140560  	-0.007641 
3927.069376  	-0.007573 
3928.998192  	-0.006546 
3930.927008  	-0.006880 
3932.855824  	-0.007992 
3934.784640  	-0.007855 
3936.713456  	-0.007089 
3938.642272  	-0.006792 
3940.571088  	-0.006057 
3942.499904  	-0.006960 
3944.428720  	-0.007733 
3946.357536  	-0.006433 
3948.286352  	-0.006592 
3950.215168  	-0.007599 
3952.143984  	-0.007704 
3954.072800  	-0.007268 
3956.001616  	-0.007092 
3957.930432  	-0.007204 
3959.859248  	-0.007010 
3961.788064  	-0.007149 
3963.716880  	-0.007562 
3965.645696  	-0.007366 
3967.574512  	-0.007112 
3969.503328  	-0.007127 
3971.432144  	-0.007171 
3973.360960  	-0.007072 
3975.289776  	-0.007274 
3977.218592  	-0.007400 
3979.147408  	-0.007316 
3981.076224  	-0.007292 
3983.005040  	-0.007322 
3984.933856  	-0.007211 
3986.862672  	-0.007333 
3988.791488  	-0.007209 
3990.720304  	-0.007146 
3992.649120  	-0.007099 
3994.577936  	-0.007238 
3996.506752  	-0.007311 
3998.435568  	-0.007185 
4000.364384  	-0.007069 