##TITLE=No Description
##DATA TYPE=INFRARED SPECTRUM
##XUNITS=1/CM
##YUNITS=Abs
399.264912  	0.295744 
401.193728  	0.301910 
403.122544  	0.303336 
405.051360  	0.298129 
406.980176  	0.294406 
408.908992  	0.294841 
410.837808  	0.304971 
412.766624  	0.300985 
414.695440  	0.297749 
416.624256  	0.298261 
418.553072  	0.301887 
420.481888  	0.298258 
422.410704  	0.301071 
424.339520  	0.301266 
426.268336  	0.299956 
428.197152  	0.292648 
430.125968  	0.290925 
432.054784  	0.291124 
433.983600  	0.289513 
435.912416  	0.285376 
437.841232  	0.287491 
439.770048  	0.288349 
441.698864  	0.289724 
443.627680  	0.288926 
445.556496  	0.291263 
447.485312  	0.291442 
449.414128  	0.292832 
451.342944  	0.292250 
453.271760  	0.290458 
455.200576  	0.289664 
457.129392  	0.294242 
459.058208  	0.295534 
460.987024  	0.299153 
462.915840  	0.301886 
464.844656  	0.301465 
466.773472  	0.298608 
468.702288  	0.302297 
470.631104  	0.306178 
472.559920  	0.307010 
474.488736  	0.309103 
476.417552  	0.311580 
478.346368  	0.310119 
480.275184  	0.311346 
482.204000  	0.311321 
484.132816  	0.312771 
486.061632  	0.314744 
487.990448  	0.316965 
489.919264  	0.318332 
491.848080  	0.321053 
493.776896  	0.322067 
495.705712  	0.321531 
497.634528  	0.322243 
499.563344  	0.323928 
501.492160  	0.323893 
503.420976  	0.326182 
505.349792  	0.327448 
507.278608  	0.329961 
509.207424  	0.331229 
511.136240  	0.332389 
513.065056  	0.333248 
514.993872  	0.337588 
516.922688  	0.343327 
518.851504  	0.348690 
520.780320  	0.349730 
522.709136  	0.351031 
524.637952  	0.352013 
526.566768  	0.354213 
528.495584  	0.355147 
530.424400  	0.355559 
532.353216  	0.353719 
534.282032  	0.352270 
536.210848  	0.349286 
538.139664  	0.346244 
540.068480  	0.342713 
541.997296  	0.340207 
543.926112  	0.337439 
545.854928  	0.335180 
547.783744  	0.332587 
549.712560  	0.330013 
551.641376  	0.327968 
553.570192  	0.326518 
555.499008  	0.323735 
557.427824  	0.321152 
559.356640  	0.318888 
561.285456  	0.317053 
563.214272  	0.314818 
565.143088  	0.312398 
567.071904  	0.309116 
569.000720  	0.305721 
570.929536  	0.302754 
572.858352  	0.301605 
574.787168  	0.300426 
576.715984  	0.299184 
578.644800  	0.296419 
580.573616  	0.293731 
582.502432  	0.290132 
584.431248  	0.287263 
586.360064  	0.283954 
588.288880  	0.281911 
590.217696  	0.280492 
592.146512  	0.278561 
594.075328  	0.276217 
596.004144  	0.274828 
597.932960  	0.273732 
599.861776  	0.272990 
601.790592  	0.271994 
603.719408  	0.271454 
605.648224  	0.271119 
607.577040  	0.270717 
609.505856  	0.270275 
611.434672  	0.269673 
613.363488  	0.268704 
615.292304  	0.268720 
617.221120  	0.268309 
619.149936  	0.267568 
621.078752  	0.267462 
623.007568  	0.267269 
624.936384  	0.266167 
626.865200  	0.265454 
628.794016  	0.265457 
630.722832  	0.265898 
632.651648  	0.266191 
634.580464  	0.267351 
636.509280  	0.268721 
638.438096  	0.270107 
640.366912  	0.270916 
642.295728  	0.270793 
644.224544  	0.269723 
646.153360  	0.267954 
648.082176  	0.264794 
650.010992  	0.261885 
651.939808  	0.259170 
653.868624  	0.256380 
655.797440  	0.253141 
657.726256  	0.249865 
659.655072  	0.246444 
661.583888  	0.243026 
663.512704  	0.239828 
665.441520  	0.237293 
667.370336  	0.231368 
669.299152  	0.224848 
671.227968  	0.224831 
673.156784  	0.223055 
675.085600  	0.220851 
677.014416  	0.219253 
678.943232  	0.217727 
680.872048  	0.216336 
682.800864  	0.215296 
684.729680  	0.214537 
686.658496  	0.213995 
688.587312  	0.213160 
690.516128  	0.211712 
692.444944  	0.211031 
694.373760  	0.210936 
696.302576  	0.209538 
698.231392  	0.207712 
700.160208  	0.205937 
702.089024  	0.204629 
704.017840  	0.203199 
705.946656  	0.201152 
707.875472  	0.198819 
709.804288  	0.197156 
711.733104  	0.195894 
713.661920  	0.194354 
715.590736  	0.193471 
717.519552  	0.193408 
719.448368  	0.193703 
721.377184  	0.195038 
723.306000  	0.197341 
725.234816  	0.198988 
727.163632  	0.199376 
729.092448  	0.197967 
731.021264  	0.195288 
732.950080  	0.192335 
734.878896  	0.189497 
736.807712  	0.186679 
738.736528  	0.184546 
740.665344  	0.182825 
742.594160  	0.181579 
744.522976  	0.180621 
746.451792  	0.179328 
748.380608  	0.178272 
750.309424  	0.177585 
752.238240  	0.176904 
754.167056  	0.176746 
756.095872  	0.176307 
758.024688  	0.175959 
759.953504  	0.175976 
761.882320  	0.177196 
763.811136  	0.178595 
765.739952  	0.178641 
767.668768  	0.177150 
769.597584  	0.175595 
771.526400  	0.175032 
773.455216  	0.177036 
775.384032  	0.181557 
777.312848  	0.187888 
779.241664  	0.193417 
781.170480  	0.195348 
783.099296  	0.193244 
785.028112  	0.188410 
786.956928  	0.182594 
788.885744  	0.177909 
790.814560  	0.174701 
792.743376  	0.172324 
794.672192  	0.171469 
796.601008  	0.171352 
798.529824  	0.169247 
800.458640  	0.164978 
802.387456  	0.161428 
804.316272  	0.159565 
806.245088  	0.158801 
808.173904  	0.158729 
810.102720  	0.158984 
812.031536  	0.159553 
813.960352  	0.160397 
815.889168  	0.161081 
817.817984  	0.161670 
819.746800  	0.162744 
821.675616  	0.163767 
823.604432  	0.164139 
825.533248  	0.164077 
827.462064  	0.164050 
829.390880  	0.163741 
831.319696  	0.163053 
833.248512  	0.161796 
835.177328  	0.159977 
837.106144  	0.157732 
839.034960  	0.154991 
840.963776  	0.151756 
842.892592  	0.148430 
844.821408  	0.144953 
846.750224  	0.141703 
848.679040  	0.139097 
850.607856  	0.137213 
852.536672  	0.135520 
854.465488  	0.133891 
856.394304  	0.132589 
858.323120  	0.131395 
860.251936  	0.129901 
862.180752  	0.128049 
864.109568  	0.125536 
866.038384  	0.123042 
867.967200  	0.121363 
869.896016  	0.119788 
871.824832  	0.118649 
873.753648  	0.118545 
875.682464  	0.119424 
877.611280  	0.119899 
879.540096  	0.120934 
881.468912  	0.123192 
883.397728  	0.124937 
885.326544  	0.126117 
887.255360  	0.126671 
889.184176  	0.126018 
891.112992  	0.124328 
893.041808  	0.122867 
894.970624  	0.120821 
896.899440  	0.117610 
898.828256  	0.113673 
900.757072  	0.109868 
902.685888  	0.106806 
904.614704  	0.105246 
906.543520  	0.105685 
908.472336  	0.107482 
910.401152  	0.110322 
912.329968  	0.113668 
914.258784  	0.117153 
916.187600  	0.120559 
918.116416  	0.123517 
920.045232  	0.125593 
921.974048  	0.126896 
923.902864  	0.127573 
925.831680  	0.127760 
927.760496  	0.127901 
929.689312  	0.128427 
931.618128  	0.129529 
933.546944  	0.130624 
935.475760  	0.131336 
937.404576  	0.131509 
939.333392  	0.131519 
941.262208  	0.131911 
943.191024  	0.133760 
945.119840  	0.137765 
947.048656  	0.143908 
948.977472  	0.151981 
950.906288  	0.161711 
952.835104  	0.172785 
954.763920  	0.184408 
956.692736  	0.195425 
958.621552  	0.205122 
960.550368  	0.211823 
962.479184  	0.215282 
964.408000  	0.214981 
966.336816  	0.210722 
968.265632  	0.202624 
970.194448  	0.191618 
972.123264  	0.178929 
974.052080  	0.165380 
975.980896  	0.152114 
977.909712  	0.139632 
979.838528  	0.128404 
981.767344  	0.119074 
983.696160  	0.111890 
985.624976  	0.107399 
987.553792  	0.105542 
989.482608  	0.106638 
991.411424  	0.110001 
993.340240  	0.115023 
995.269056  	0.121379 
997.197872  	0.128362 
999.126688  	0.135476 
1001.055504  	0.142662 
1002.984320  	0.149895 
1004.913136  	0.156827 
1006.841952  	0.163229 
1008.770768  	0.168606 
1010.699584  	0.172556 
1012.628400  	0.174684 
1014.557216  	0.175318 
1016.486032  	0.175359 
1018.414848  	0.174986 
1020.343664  	0.174401 
1022.272480  	0.173401 
1024.201296  	0.171976 
1026.130112  	0.168537 
1028.058928  	0.167064 
1029.987744  	0.169874 
1031.916560  	0.171775 
1033.845376  	0.172712 
1035.774192  	0.173653 
1037.703008  	0.176259 
1039.631824  	0.182517 
1041.560640  	0.190905 
1043.489456  	0.201981 
1045.418272  	0.215848 
1047.347088  	0.231762 
1049.275904  	0.246879 
1051.204720  	0.258893 
1053.133536  	0.266978 
1055.062352  	0.271045 
1056.991168  	0.271399 
1058.919984  	0.272745 
1060.848800  	0.273680 
1062.777616  	0.271066 
1064.706432  	0.264505 
1066.635248  	0.258988 
1068.564064  	0.256806 
1070.492880  	0.251994 
1072.421696  	0.244277 
1074.350512  	0.238506 
1076.279328  	0.236202 
1078.208144  	0.237576 
1080.136960  	0.241665 
1082.065776  	0.247098 
1083.994592  	0.250719 
1085.923408  	0.251673 
1087.852224  	0.249424 
1089.781040  	0.245505 
1091.709856  	0.240375 
1093.638672  	0.232609 
1095.567488  	0.222163 
1097.496304  	0.210606 
1099.425120  	0.198120 
1101.353936  	0.185346 
1103.282752  	0.172927 
1105.211568  	0.161264 
1107.140384  	0.150201 
1109.069200  	0.139469 
1110.998016  	0.129320 
1112.926832  	0.120268 
1114.855648  	0.112164 
1116.784464  	0.104141 
1118.713280  	0.096486 
1120.642096  	0.089449 
1122.570912  	0.082930 
1124.499728  	0.076517 
1126.428544  	0.070850 
1128.357360  	0.065884 
1130.286176  	0.061740 
1132.214992  	0.057953 
1134.143808  	0.054823 
1136.072624  	0.052061 
1138.001440  	0.049729 
1139.930256  	0.047248 
1141.859072  	0.044885 
1143.787888  	0.042262 
1145.716704  	0.039881 
1147.645520  	0.037589 
1149.574336  	0.035596 
1151.503152  	0.034029 
1153.431968  	0.033410 
1155.360784  	0.033585 
1157.289600  	0.034542 
1159.218416  	0.036013 
1161.147232  	0.037890 
1163.076048  	0.039993 
1165.004864  	0.042505 
1166.933680  	0.044895 
1168.862496  	0.047516 
1170.791312  	0.050075 
1172.720128  	0.053115 
1174.648944  	0.056057 
1176.577760  	0.059053 
1178.506576  	0.061903 
1180.435392  	0.064852 
1182.364208  	0.067708 
1184.293024  	0.070940 
1186.221840  	0.074332 
1188.150656  	0.078214 
1190.079472  	0.082842 
1192.008288  	0.088551 
1193.937104  	0.095256 
1195.865920  	0.102916 
1197.794736  	0.111342 
1199.723552  	0.120683 
1201.652368  	0.130262 
1203.581184  	0.139827 
1205.510000  	0.149326 
1207.438816  	0.158338 
1209.367632  	0.166681 
1211.296448  	0.174027 
1213.225264  	0.180329 
1215.154080  	0.185257 
1217.082896  	0.188788 
1219.011712  	0.191015 
1220.940528  	0.192840 
1222.869344  	0.193960 
1224.798160  	0.194042 
1226.726976  	0.193511 
1228.655792  	0.192594 
1230.584608  	0.191127 
1232.513424  	0.189223 
1234.442240  	0.186483 
1236.371056  	0.182810 
1238.299872  	0.177860 
1240.228688  	0.170754 
1242.157504  	0.163639 
1244.086320  	0.157626 
1246.015136  	0.150153 
1247.943952  	0.141813 
1249.872768  	0.133390 
1251.801584  	0.126186 
1253.730400  	0.119050 
1255.659216  	0.111967 
1257.588032  	0.105350 
1259.516848  	0.099082 
1261.445664  	0.093219 
1263.374480  	0.087970 
1265.303296  	0.083556 
1267.232112  	0.079960 
1269.160928  	0.077173 
1271.089744  	0.075063 
1273.018560  	0.073987 
1274.947376  	0.073782 
1276.876192  	0.073944 
1278.805008  	0.073755 
1280.733824  	0.072674 
1282.662640  	0.070735 
1284.591456  	0.068266 
1286.520272  	0.065901 
1288.449088  	0.064298 
1290.377904  	0.063567 
1292.306720  	0.063534 
1294.235536  	0.063403 
1296.164352  	0.062239 
1298.093168  	0.059827 
1300.021984  	0.056877 
1301.950800  	0.053673 
1303.879616  	0.050600 
1305.808432  	0.047423 
1307.737248  	0.044358 
1309.666064  	0.041326 
1311.594880  	0.038971 
1313.523696  	0.037147 
1315.452512  	0.036045 
1317.381328  	0.035391 
1319.310144  	0.035209 
1321.238960  	0.035498 
1323.167776  	0.036320 
1325.096592  	0.037165 
1327.025408  	0.037869 
1328.954224  	0.037934 
1330.883040  	0.037510 
1332.811856  	0.036721 
1334.740672  	0.036152 
1336.669488  	0.035688 
1338.598304  	0.035228 
1340.527120  	0.033914 
1342.455936  	0.032996 
1344.384752  	0.032741 
1346.313568  	0.032997 
1348.242384  	0.033637 
1350.171200  	0.034831 
1352.100016  	0.036401 
1354.028832  	0.038316 
1355.957648  	0.040101 
1357.886464  	0.042213 
1359.815280  	0.044431 
1361.744096  	0.046332 
1363.672912  	0.047507 
1365.601728  	0.049164 
1367.530544  	0.050594 
1369.459360  	0.050863 
1371.388176  	0.050752 
1373.316992  	0.049412 
1375.245808  	0.046002 
1377.174624  	0.043496 
1379.103440  	0.040538 
1381.032256  	0.037685 
1382.961072  	0.035589 
1384.889888  	0.034893 
1386.818704  	0.033871 
1388.747520  	0.031989 
1390.676336  	0.029956 
1392.605152  	0.026909 
1394.533968  	0.024718 
1396.462784  	0.027224 
1398.391600  	0.028541 
1400.320416  	0.027928 
1402.249232  	0.028514 
1404.178048  	0.029004 
1406.106864  	0.029526 
1408.035680  	0.031637 
1409.964496  	0.034168 
1411.893312  	0.036987 
1413.822128  	0.040064 
1415.750944  	0.043619 
1417.679760  	0.045878 
1419.608576  	0.045366 
1421.537392  	0.046171 
1423.466208  	0.046480 
1425.395024  	0.044581 
1427.323840  	0.043563 
1429.252656  	0.041124 
1431.181472  	0.039117 
1433.110288  	0.039033 
1435.039104  	0.039958 
1436.967920  	0.038777 
1438.896736  	0.039430 
1440.825552  	0.040869 
1442.754368  	0.041543 
1444.683184  	0.041784 
1446.612000  	0.041817 
1448.540816  	0.040560 
1450.469632  	0.040973 
1452.398448  	0.041852 
1454.327264  	0.043288 
1456.256080  	0.042910 
1458.184896  	0.039550 
1460.113712  	0.041012 
1462.042528  	0.043248 
1463.971344  	0.043391 
1465.900160  	0.043385 
1467.828976  	0.046229 
1469.757792  	0.050153 
1471.686608  	0.053274 
1473.615424  	0.057897 
1475.544240  	0.064249 
1477.473056  	0.069951 
1479.401872  	0.074329 
1481.330688  	0.077501 
1483.259504  	0.079519 
1485.188320  	0.081225 
1487.117136  	0.080956 
1489.045952  	0.079479 
1490.974768  	0.075591 
1492.903584  	0.074007 
1494.832400  	0.071577 
1496.761216  	0.064764 
1498.690032  	0.058421 
1500.618848  	0.054380 
1502.547664  	0.051384 
1504.476480  	0.048762 
1506.405296  	0.041556 
1508.334112  	0.036325 
1510.262928  	0.037155 
1512.191744  	0.036034 
1514.120560  	0.035488 
1516.049376  	0.034866 
1517.978192  	0.034018 
1519.907008  	0.035958 
1521.835824  	0.036028 
1523.764640  	0.039996 
1525.693456  	0.044113 
1527.622272  	0.046176 
1529.551088  	0.047480 
1531.479904  	0.047891 
1533.408720  	0.043923 
1535.337536  	0.040804 
1537.266352  	0.040573 
1539.195168  	0.034566 
1541.123984  	0.026180 
1543.052800  	0.027117 
1544.981616  	0.026850 
1546.910432  	0.026677 
1548.839248  	0.027207 
1550.768064  	0.027018 
1552.696880  	0.027545 
1554.625696  	0.028209 
1556.554512  	0.029423 
1558.483328  	0.027945 
1560.412144  	0.029657 
1562.340960  	0.037356 
1564.269776  	0.041782 
1566.198592  	0.047118 
1568.127408  	0.051906 
1570.056224  	0.056601 
1571.985040  	0.063534 
1573.913856  	0.069439 
1575.842672  	0.070608 
1577.771488  	0.072270 
1579.700304  	0.074595 
1581.629120  	0.074619 
1583.557936  	0.074037 
1585.486752  	0.074826 
1587.415568  	0.077120 
1589.344384  	0.081493 
1591.273200  	0.087417 
1593.202016  	0.094666 
1595.130832  	0.102020 
1597.059648  	0.109900 
1598.988464  	0.116859 
1600.917280  	0.122795 
1602.846096  	0.126476 
1604.774912  	0.128876 
1606.703728  	0.129135 
1608.632544  	0.128072 
1610.561360  	0.125945 
1612.490176  	0.124790 
1614.418992  	0.123890 
1616.347808  	0.120997 
1618.276624  	0.120545 
1620.205440  	0.125928 
1622.134256  	0.129569 
1624.063072  	0.134413 
1625.991888  	0.141821 
1627.920704  	0.149947 
1629.849520  	0.159314 
1631.778336  	0.169622 
1633.707152  	0.177820 
1635.635968  	0.184070 
1637.564784  	0.191840 
1639.493600  	0.200898 
1641.422416  	0.206744 
1643.351232  	0.211742 
1645.280048  	0.213167 
1647.208864  	0.210330 
1649.137680  	0.211653 
1651.066496  	0.215510 
1652.995312  	0.206188 
1654.924128  	0.201036 
1656.852944  	0.203828 
1658.781760  	0.202953 
1660.710576  	0.200010 
1662.639392  	0.194120 
1664.568208  	0.189198 
1666.497024  	0.188102 
1668.425840  	0.182969 
1670.354656  	0.174823 
1672.283472  	0.172170 
1674.212288  	0.170232 
1676.141104  	0.164234 
1678.069920  	0.164015 
1679.998736  	0.163458 
1681.927552  	0.163134 
1683.856368  	0.157838 
1685.785184  	0.154593 
1687.714000  	0.157642 
1689.642816  	0.157179 
1691.571632  	0.155831 
1693.500448  	0.156067 
1695.429264  	0.151877 
1697.358080  	0.147580 
1699.286896  	0.145910 
1701.215712  	0.137712 
1703.144528  	0.138139 
1705.073344  	0.134396 
1707.002160  	0.127840 
1708.930976  	0.123838 
1710.859792  	0.118163 
1712.788608  	0.111702 
1714.717424  	0.103399 
1716.646240  	0.092605 
1718.575056  	0.078530 
1720.503872  	0.071341 
1722.432688  	0.065299 
1724.361504  	0.056083 
1726.290320  	0.048814 
1728.219136  	0.042626 
1730.147952  	0.036738 
1732.076768  	0.032252 
1734.005584  	0.024933 
1735.934400  	0.019481 
1737.863216  	0.019993 
1739.792032  	0.016168 
1741.720848  	0.014522 
1743.649664  	0.013542 
1745.578480  	0.012724 
1747.507296  	0.011177 
1749.436112  	0.010016 
1751.364928  	0.008178 
1753.293744  	0.007800 
1755.222560  	0.007995 
1757.151376  	0.007052 
1759.080192  	0.006615 
1761.009008  	0.006277 
1762.937824  	0.004587 
1764.866640  	0.005114 
1766.795456  	0.005419 
1768.724272  	0.004827 
1770.653088  	0.003572 
1772.581904  	0.001126 
1774.510720  	0.001414 
1776.439536  	0.002853 
1778.368352  	0.003123 
1780.297168  	0.002758 
1782.225984  	0.002198 
1784.154800  	0.002474 
1786.083616  	0.001703 
1788.012432  	0.002225 
1789.941248  	0.002612 
1791.870064  	0.001414 
1793.798880  	0.000039 
1795.727696  	0.001339 
1797.656512  	0.001183 
1799.585328  	0.001162 
1801.514144  	0.000861 
1803.442960  	0.000900 
1805.371776  	0.000667 
1807.300592  	0.000977 
1809.229408  	0.000504 
1811.158224  	0.000020 
1813.087040  	-0.000213 
1815.015856  	0.000400 
1816.944672  	0.000317 
1818.873488  	0.000370 
1820.802304  	0.000096 
1822.731120  	0.000624 
1824.659936  	0.000067 
1826.588752  	-0.000221 
1828.517568  	-0.000611 
1830.446384  	-0.001440 
1832.375200  	-0.000935 
1834.304016  	-0.000044 
1836.232832  	-0.000180 
1838.161648  	-0.000121 
1840.090464  	-0.000316 
1842.019280  	0.000379 
1843.948096  	-0.000744 
1845.876912  	-0.001000 
1847.805728  	-0.000376 
1849.734544  	-0.000234 
1851.663360  	-0.000411 
1853.592176  	-0.000437 
1855.520992  	-0.000585 
1857.449808  	-0.000375 
1859.378624  	-0.000659 
1861.307440  	-0.000583 
1863.236256  	-0.000721 
1865.165072  	-0.000397 
1867.093888  	-0.000598 
1869.022704  	-0.001247 
1870.951520  	-0.001617 
1872.880336  	-0.000957 
1874.809152  	-0.001177 
1876.737968  	-0.000967 
1878.666784  	-0.001111 
1880.595600  	-0.000665 
1882.524416  	-0.000943 
1884.453232  	-0.000978 
1886.382048  	-0.001229 
1888.310864  	-0.001018 
1890.239680  	-0.001521 
1892.168496  	-0.001011 
1894.097312  	-0.001289 
1896.026128  	-0.001378 
1897.954944  	-0.001497 
1899.883760  	-0.001128 
1901.812576  	-0.001286 
1903.741392  	-0.001457 
1905.670208  	-0.001414 
1907.599024  	-0.000959 
1909.527840  	-0.001513 
1911.456656  	-0.001130 
1913.385472  	-0.001112 
1915.314288  	-0.000451 
1917.243104  	-0.001163 
1919.171920  	-0.001569 
1921.100736  	-0.001193 
1923.029552  	-0.000581 
1924.958368  	-0.000949 
1926.887184  	-0.001157 
1928.816000  	-0.001574 
1930.744816  	-0.001170 
1932.673632  	-0.001537 
1934.602448  	-0.000934 
1936.531264  	-0.000860 
1938.460080  	-0.000608 
1940.388896  	-0.001103 
1942.317712  	-0.001390 
1944.246528  	-0.001797 
1946.175344  	-0.000869 
1948.104160  	-0.000941 
1950.032976  	-0.000610 
1951.961792  	-0.000783 
1953.890608  	-0.000549 
1955.819424  	-0.001038 
1957.748240  	-0.000523 
1959.677056  	-0.000945 
1961.605872  	-0.000690 
1963.534688  	-0.001386 
1965.463504  	-0.000919 
1967.392320  	-0.001589 
1969.321136  	-0.000952 
1971.249952  	-0.001085 
1973.178768  	0.000125 
1975.107584  	-0.000720 
1977.036400  	0.000067 
1978.965216  	0.001536 
1980.894032  	0.001173 
1982.822848  	-0.000284 
1984.751664  	-0.000113 
1986.680480  	-0.001166 
1988.609296  	-0.000748 
1990.538112  	-0.001530 
1992.466928  	-0.001258 
1994.395744  	-0.001301 
1996.324560  	-0.000460 
1998.253376  	-0.001081 
2000.182192  	-0.001420 
2002.111008  	-0.001270 
2004.039824  	-0.000174 
2005.968640  	-0.000412 
2007.897456  	0.000589 
2009.826272  	-0.000209 
2011.755088  	-0.000657 
2013.683904  	-0.001706 
2015.612720  	-0.000726 
2017.541536  	-0.000927 
2019.470352  	-0.000227 
2021.399168  	-0.001349 
2023.327984  	-0.000898 
2025.256800  	0.000062 
2027.185616  	0.000386 
2029.114432  	-0.000528 
2031.043248  	0.000096 
2032.972064  	0.000337 
2034.900880  	0.000920 
2036.829696  	-0.000202 
2038.758512  	0.001312 
2040.687328  	0.000734 
2042.616144  	0.000587 
2044.544960  	0.000192 
2046.473776  	0.000340 
2048.402592  	0.000287 
2050.331408  	0.000576 
2052.260224  	-0.000629 
2054.189040  	-0.000841 
2056.117856  	-0.001029 
2058.046672  	-0.000585 
2059.975488  	-0.000934 
2061.904304  	-0.001215 
2063.833120  	-0.001306 
2065.761936  	-0.000819 
2067.690752  	-0.000896 
2069.619568  	-0.000396 
2071.548384  	-0.000276 
2073.477200  	-0.000076 
2075.406016  	-0.000031 
2077.334832  	0.000028 
2079.263648  	-0.000355 
2081.192464  	0.000074 
2083.121280  	-0.000113 
2085.050096  	-0.000521 
2086.978912  	-0.000692 
2088.907728  	-0.000524 
2090.836544  	-0.000997 
2092.765360  	-0.000669 
2094.694176  	-0.000089 
2096.622992  	0.000181 
2098.551808  	0.000026 
2100.480624  	0.000443 
2102.409440  	0.000285 
2104.338256  	0.000169 
2106.267072  	0.000075 
2108.195888  	0.000256 
2110.124704  	0.000125 
2112.053520  	0.000509 
2113.982336  	0.000484 
2115.911152  	0.000651 
2117.839968  	0.000236 
2119.768784  	-0.000247 
2121.697600  	-0.000737 
2123.626416  	-0.000836 
2125.555232  	-0.001143 
2127.484048  	-0.000917 
2129.412864  	-0.001223 
2131.341680  	-0.001085 
2133.270496  	-0.000913 
2135.199312  	-0.000178 
2137.128128  	0.000112 
2139.056944  	0.000288 
2140.985760  	-0.000341 
2142.914576  	-0.000189 
2144.843392  	-0.000149 
2146.772208  	0.000078 
2148.701024  	0.000188 
2150.629840  	0.000646 
2152.558656  	-0.000402 
2154.487472  	-0.000493 
2156.416288  	0.000438 
2158.345104  	0.002911 
2160.273920  	0.004959 
2162.202736  	0.004547 
2164.131552  	0.002352 
2166.060368  	0.002882 
2167.989184  	0.003359 
2169.918000  	0.003878 
2171.846816  	0.002990 
2173.775632  	0.003180 
2175.704448  	0.003451 
2177.633264  	0.003822 
2179.562080  	0.002531 
2181.490896  	0.001994 
2183.419712  	0.001192 
2185.348528  	0.000757 
2187.277344  	0.000484 
2189.206160  	0.000567 
2191.134976  	0.000291 
2193.063792  	0.000868 
2194.992608  	0.000846 
2196.921424  	0.000680 
2198.850240  	0.000502 
2200.779056  	0.000707 
2202.707872  	0.000125 
2204.636688  	0.000390 
2206.565504  	0.000760 
2208.494320  	0.000981 
2210.423136  	0.000166 
2212.351952  	0.000026 
2214.280768  	0.000171 
2216.209584  	0.000523 
2218.138400  	-0.000587 
2220.067216  	-0.000601 
2221.996032  	-0.000469 
2223.924848  	0.000097 
2225.853664  	0.000754 
2227.782480  	0.000792 
2229.711296  	0.000021 
2231.640112  	-0.000542 
2233.568928  	-0.000944 
2235.497744  	-0.000503 
2237.426560  	-0.000468 
2239.355376  	-0.000475 
2241.284192  	-0.000507 
2243.213008  	-0.000368 
2245.141824  	-0.000751 
2247.070640  	-0.000248 
2248.999456  	-0.000434 
2250.928272  	-0.000774 
2252.857088  	-0.000970 
2254.785904  	-0.000976 
2256.714720  	-0.001504 
2258.643536  	-0.001570 
2260.572352  	-0.001404 
2262.501168  	-0.001232 
2264.429984  	-0.001504 
2266.358800  	-0.001579 
2268.287616  	-0.001708 
2270.216432  	-0.001430 
2272.145248  	-0.001310 
2274.074064  	-0.001178 
2276.002880  	-0.001091 
2277.931696  	-0.000870 
2279.860512  	-0.000705 
2281.789328  	-0.000244 
2283.718144  	-0.000443 
2285.646960  	-0.000378 
2287.575776  	-0.000353 
2289.504592  	-0.000627 
2291.433408  	-0.000857 
2293.362224  	-0.000733 
2295.291040  	-0.000627 
2297.219856  	-0.000428 
2299.148672  	-0.000591 
2301.077488  	-0.000393 
2303.006304  	-0.000273 
2304.935120  	-0.000233 
2306.863936  	-0.000480 
2308.792752  	-0.000612 
2310.721568  	-0.000734 
2312.650384  	-0.000932 
2314.579200  	-0.001483 
2316.508016  	-0.002074 
2318.436832  	-0.002891 
2320.365648  	-0.004042 
2322.294464  	-0.005027 
2324.223280  	-0.005822 
2326.152096  	-0.007131 
2328.080912  	-0.008460 
2330.009728  	-0.009895 
2331.938544  	-0.011337 
2333.867360  	-0.012051 
2335.796176  	-0.012377 
2337.724992  	-0.013184 
2339.653808  	-0.013478 
2341.582624  	-0.013806 
2343.511440  	-0.013399 
2345.440256  	-0.012204 
2347.369072  	-0.008688 
2349.297888  	-0.006025 
2351.226704  	-0.007352 
2353.155520  	-0.010849 
2355.084336  	-0.013533 
2357.013152  	-0.015945 
2358.941968  	-0.017274 
2360.870784  	-0.018594 
2362.799600  	-0.018425 
2364.728416  	-0.017764 
2366.657232  	-0.016163 
2368.586048  	-0.013670 
2370.514864  	-0.011279 
2372.443680  	-0.009236 
2374.372496  	-0.007053 
2376.301312  	-0.005189 
2378.230128  	-0.003603 
2380.158944  	-0.002498 
2382.087760  	-0.001814 
2384.016576  	-0.001593 
2385.945392  	-0.001454 
2387.874208  	-0.001615 
2389.803024  	-0.001732 
2391.731840  	-0.001875 
2393.660656  	-0.001813 
2395.589472  	-0.001799 
2397.518288  	-0.001633 
2399.447104  	-0.001683 
2401.375920  	-0.001697 
2403.304736  	-0.001949 
2405.233552  	-0.001955 
2407.162368  	-0.001896 
2409.091184  	-0.001726 
2411.020000  	-0.001722 
2412.948816  	-0.001736 
2414.877632  	-0.001535 
2416.806448  	-0.001384 
2418.735264  	-0.001575 
2420.664080  	-0.001653 
2422.592896  	-0.001760 
2424.521712  	-0.001755 
2426.450528  	-0.001795 
2428.379344  	-0.001559 
2430.308160  	-0.001317 
2432.236976  	-0.001036 
2434.165792  	-0.001200 
2436.094608  	-0.001507 
2438.023424  	-0.001406 
2439.952240  	-0.001014 
2441.881056  	-0.001044 
2443.809872  	-0.001180 
2445.738688  	-0.001085 
2447.667504  	-0.000804 
2449.596320  	-0.000854 
2451.525136  	-0.000875 
2453.453952  	-0.000719 
2455.382768  	-0.000667 
2457.311584  	-0.000868 
2459.240400  	-0.001040 
2461.169216  	-0.001055 
2463.098032  	-0.001114 
2465.026848  	-0.001091 
2466.955664  	-0.000957 
2468.884480  	-0.001157 
2470.813296  	-0.001053 
2472.742112  	-0.000997 
2474.670928  	-0.001000 
2476.599744  	-0.001100 
2478.528560  	-0.001013 
2480.457376  	-0.000949 
2482.386192  	-0.000866 
2484.315008  	-0.000770 
2486.243824  	-0.000849 
2488.172640  	-0.001032 
2490.101456  	-0.000768 
2492.030272  	-0.000491 
2493.959088  	-0.000440 
2495.887904  	-0.000424 
2497.816720  	-0.000424 
2499.745536  	-0.000491 
2501.674352  	-0.000297 
2503.603168  	-0.000009 
2505.531984  	-0.000019 
2507.460800  	-0.000246 
2509.389616  	-0.000074 
2511.318432  	-0.000060 
2513.247248  	-0.000203 
2515.176064  	-0.000055 
2517.104880  	0.000122 
2519.033696  	-0.000051 
2520.962512  	0.000166 
2522.891328  	0.000310 
2524.820144  	0.000255 
2526.748960  	0.000327 
2528.677776  	0.000554 
2530.606592  	0.000448 
2532.535408  	0.000410 
2534.464224  	0.000340 
2536.393040  	0.000351 
2538.321856  	0.000635 
2540.250672  	0.000872 
2542.179488  	0.000699 
2544.108304  	0.000637 
2546.037120  	0.000767 
2547.965936  	0.001008 
2549.894752  	0.000880 
2551.823568  	0.000788 
2553.752384  	0.001035 
2555.681200  	0.001462 
2557.610016  	0.001500 
2559.538832  	0.001378 
2561.467648  	0.001459 
2563.396464  	0.001582 
2565.325280  	0.001705 
2567.254096  	0.001632 
2569.182912  	0.001660 
2571.111728  	0.001652 
2573.040544  	0.001518 
2574.969360  	0.001724 
2576.898176  	0.001929 
2578.826992  	0.001920 
2580.755808  	0.001965 
2582.684624  	0.002299 
2584.613440  	0.002498 
2586.542256  	0.002561 
2588.471072  	0.002602 
2590.399888  	0.002726 
2592.328704  	0.002616 
2594.257520  	0.002455 
2596.186336  	0.002676 
2598.115152  	0.002907 
2600.043968  	0.002884 
2601.972784  	0.003141 
2603.901600  	0.003163 
2605.830416  	0.003079 
2607.759232  	0.003185 
2609.688048  	0.003319 
2611.616864  	0.003586 
2613.545680  	0.003831 
2615.474496  	0.003724 
2617.403312  	0.003845 
2619.332128  	0.004047 
2621.260944  	0.004101 
2623.189760  	0.004068 
2625.118576  	0.004166 
2627.047392  	0.004251 
2628.976208  	0.004431 
2630.905024  	0.004629 
2632.833840  	0.004758 
2634.762656  	0.004878 
2636.691472  	0.004928 
2638.620288  	0.004978 
2640.549104  	0.005143 
2642.477920  	0.005305 
2644.406736  	0.005447 
2646.335552  	0.005618 
2648.264368  	0.005783 
2650.193184  	0.005795 
2652.122000  	0.005952 
2654.050816  	0.006190 
2655.979632  	0.006315 
2657.908448  	0.006280 
2659.837264  	0.006388 
2661.766080  	0.006536 
2663.694896  	0.006612 
2665.623712  	0.006623 
2667.552528  	0.006823 
2669.481344  	0.007054 
2671.410160  	0.007111 
2673.338976  	0.007167 
2675.267792  	0.007367 
2677.196608  	0.007585 
2679.125424  	0.007666 
2681.054240  	0.007719 
2682.983056  	0.007833 
2684.911872  	0.007877 
2686.840688  	0.008015 
2688.769504  	0.008231 
2690.698320  	0.008292 
2692.627136  	0.008354 
2694.555952  	0.008545 
2696.484768  	0.008691 
2698.413584  	0.008768 
2700.342400  	0.008795 
2702.271216  	0.008988 
2704.200032  	0.009257 
2706.128848  	0.009362 
2708.057664  	0.009279 
2709.986480  	0.009343 
2711.915296  	0.009576 
2713.844112  	0.009820 
2715.772928  	0.009856 
2717.701744  	0.009917 
2719.630560  	0.010157 
2721.559376  	0.010350 
2723.488192  	0.010445 
2725.417008  	0.010678 
2727.345824  	0.010918 
2729.274640  	0.011009 
2731.203456  	0.011143 
2733.132272  	0.011309 
2735.061088  	0.011437 
2736.989904  	0.011583 
2738.918720  	0.011560 
2740.847536  	0.011646 
2742.776352  	0.011616 
2744.705168  	0.011661 
2746.633984  	0.011875 
2748.562800  	0.011981 
2750.491616  	0.012054 
2752.420432  	0.012249 
2754.349248  	0.012251 
2756.278064  	0.012167 
2758.206880  	0.012083 
2760.135696  	0.012152 
2762.064512  	0.012244 
2763.993328  	0.012275 
2765.922144  	0.012218 
2767.850960  	0.012249 
2769.779776  	0.012342 
2771.708592  	0.012437 
2773.637408  	0.012287 
2775.566224  	0.012178 
2777.495040  	0.012174 
2779.423856  	0.012296 
2781.352672  	0.012394 
2783.281488  	0.012334 
2785.210304  	0.012307 
2787.139120  	0.012393 
2789.067936  	0.012445 
2790.996752  	0.012410 
2792.925568  	0.012260 
2794.854384  	0.012167 
2796.783200  	0.012184 
2798.712016  	0.012147 
2800.640832  	0.012072 
2802.569648  	0.012170 
2804.498464  	0.012283 
2806.427280  	0.012363 
2808.356096  	0.012353 
2810.284912  	0.012363 
2812.213728  	0.012405 
2814.142544  	0.012379 
2816.071360  	0.012404 
2818.000176  	0.012273 
2819.928992  	0.012189 
2821.857808  	0.012207 
2823.786624  	0.012051 
2825.715440  	0.011900 
2827.644256  	0.011770 
2829.573072  	0.011648 
2831.501888  	0.011366 
2833.430704  	0.010935 
2835.359520  	0.010560 
2837.288336  	0.010328 
2839.217152  	0.010116 
2841.145968  	0.009822 
2843.074784  	0.009419 
2845.003600  	0.008950 
2846.932416  	0.008620 
2848.861232  	0.008405 
2850.790048  	0.007903 
2852.718864  	0.007235 
2854.647680  	0.006740 
2856.576496  	0.006212 
2858.505312  	0.005549 
2860.434128  	0.004964 
2862.362944  	0.004192 
2864.291760  	0.003396 
2866.220576  	0.002896 
2868.149392  	0.002553 
2870.078208  	0.002274 
2872.007024  	0.002246 
2873.935840  	0.002383 
2875.864656  	0.002516 
2877.793472  	0.002485 
2879.722288  	0.002332 
2881.651104  	0.001982 
2883.579920  	0.001860 
2885.508736  	0.002081 
2887.437552  	0.002445 
2889.366368  	0.002582 
2891.295184  	0.002345 
2893.224000  	0.002125 
2895.152816  	0.002132 
2897.081632  	0.001845 
2899.010448  	0.000106 
2900.939264  	-0.001410 
2902.868080  	-0.000154 
2904.796896  	0.001174 
2906.725712  	0.001811 
2908.654528  	0.002585 
2910.583344  	0.003083 
2912.512160  	0.003699 
2914.440976  	0.004969 
2916.369792  	0.005970 
2918.298608  	0.006548 
2920.227424  	0.007041 
2922.156240  	0.007670 
2924.085056  	0.008521 
2926.013872  	0.009571 
2927.942688  	0.010676 
2929.871504  	0.011694 
2931.800320  	0.012549 
2933.729136  	0.013390 
2935.657952  	0.014086 
2937.586768  	0.014737 
2939.515584  	0.015412 
2941.444400  	0.015716 
2943.373216  	0.015790 
2945.302032  	0.016075 
2947.230848  	0.016334 
2949.159664  	0.016142 
2951.088480  	0.015515 
2953.017296  	0.014927 
2954.946112  	0.014347 
2956.874928  	0.013676 
2958.803744  	0.012874 
2960.732560  	0.012282 
2962.661376  	0.011648 
2964.590192  	0.010578 
2966.519008  	0.009339 
2968.447824  	0.008434 
2970.376640  	0.007613 
2972.305456  	0.007018 
2974.234272  	0.007232 
2976.163088  	0.007598 
2978.091904  	0.007668 
2980.020720  	0.007643 
2981.949536  	0.007768 
2983.878352  	0.007513 
2985.807168  	0.006636 
2987.735984  	0.005711 
2989.664800  	0.006075 
2991.593616  	0.009251 
2993.522432  	0.011302 
2995.451248  	0.011775 
2997.380064  	0.012631 
2999.308880  	0.013954 
3001.237696  	0.015461 
3003.166512  	0.017000 
3005.095328  	0.018317 
3007.024144  	0.019775 
3008.952960  	0.021304 
3010.881776  	0.022784 
3012.810592  	0.024127 
3014.739408  	0.025551 
3016.668224  	0.026955 
3018.597040  	0.028278 
3020.525856  	0.029544 
3022.454672  	0.030705 
3024.383488  	0.031703 
3026.312304  	0.032716 
3028.241120  	0.033814 
3030.169936  	0.034729 
3032.098752  	0.035499 
3034.027568  	0.036355 
3035.956384  	0.037301 
3037.885200  	0.038315 
3039.814016  	0.039038 
3041.742832  	0.039730 
3043.671648  	0.040402 
3045.600464  	0.041030 
3047.529280  	0.041615 
3049.458096  	0.042306 
3051.386912  	0.043074 
3053.315728  	0.043772 
3055.244544  	0.044435 
3057.173360  	0.045144 
3059.102176  	0.045815 
3061.030992  	0.046631 
3062.959808  	0.047497 
3064.888624  	0.048105 
3066.817440  	0.048787 
3068.746256  	0.049700 
3070.675072  	0.050684 
3072.603888  	0.051518 
3074.532704  	0.052224 
3076.461520  	0.053077 
3078.390336  	0.053960 
3080.319152  	0.054686 
3082.247968  	0.055508 
3084.176784  	0.056338 
3086.105600  	0.057155 
3088.034416  	0.058047 
3089.963232  	0.058864 
3091.892048  	0.059641 
3093.820864  	0.060559 
3095.749680  	0.061448 
3097.678496  	0.062257 
3099.607312  	0.063091 
3101.536128  	0.064111 
3103.464944  	0.065214 
3105.393760  	0.065979 
3107.322576  	0.066607 
3109.251392  	0.067510 
3111.180208  	0.068335 
3113.109024  	0.069109 
3115.037840  	0.069949 
3116.966656  	0.070784 
3118.895472  	0.071513 
3120.824288  	0.072125 
3122.753104  	0.072689 
3124.681920  	0.073360 
3126.610736  	0.073980 
3128.539552  	0.074760 
3130.468368  	0.075499 
3132.397184  	0.076073 
3134.326000  	0.076901 
3136.254816  	0.077533 
3138.183632  	0.078113 
3140.112448  	0.078708 
3142.041264  	0.079369 
3143.970080  	0.080157 
3145.898896  	0.080759 
3147.827712  	0.081317 
3149.756528  	0.081911 
3151.685344  	0.082417 
3153.614160  	0.083248 
3155.542976  	0.083984 
3157.471792  	0.084557 
3159.400608  	0.085315 
3161.329424  	0.085924 
3163.258240  	0.086465 
3165.187056  	0.087055 
3167.115872  	0.087646 
3169.044688  	0.088186 
3170.973504  	0.088676 
3172.902320  	0.089225 
3174.831136  	0.089770 
3176.759952  	0.090310 
3178.688768  	0.090622 
3180.617584  	0.090973 
3182.546400  	0.091543 
3184.475216  	0.091803 
3186.404032  	0.091628 
3188.332848  	0.091879 
3190.261664  	0.092296 
3192.190480  	0.092486 
3194.119296  	0.092445 
3196.048112  	0.092466 
3197.976928  	0.092313 
3199.905744  	0.092406 
3201.834560  	0.092378 
3203.763376  	0.092302 
3205.692192  	0.092408 
3207.621008  	0.092287 
3209.549824  	0.092140 
3211.478640  	0.092054 
3213.407456  	0.091891 
3215.336272  	0.091696 
3217.265088  	0.091803 
3219.193904  	0.091593 
3221.122720  	0.091224 
3223.051536  	0.091187 
3224.980352  	0.090990 
3226.909168  	0.090715 
3228.837984  	0.090490 
3230.766800  	0.090416 
3232.695616  	0.090372 
3234.624432  	0.090201 
3236.553248  	0.090170 
3238.482064  	0.090305 
3240.410880  	0.090258 
3242.339696  	0.090284 
3244.268512  	0.090090 
3246.197328  	0.090214 
3248.126144  	0.090771 
3250.054960  	0.090951 
3251.983776  	0.091033 
3253.912592  	0.091071 
3255.841408  	0.091180 
3257.770224  	0.091673 
3259.699040  	0.092031 
3261.627856  	0.092184 
3263.556672  	0.092356 
3265.485488  	0.092527 
3267.414304  	0.092804 
3269.343120  	0.093293 
3271.271936  	0.093622 
3273.200752  	0.093568 
3275.129568  	0.093488 
3277.058384  	0.093780 
3278.987200  	0.094092 
3280.916016  	0.094248 
3282.844832  	0.094418 
3284.773648  	0.094820 
3286.702464  	0.095198 
3288.631280  	0.095478 
3290.560096  	0.095906 
3292.488912  	0.096320 
3294.417728  	0.096558 
3296.346544  	0.096936 
3298.275360  	0.097234 
3300.204176  	0.097570 
3302.132992  	0.098082 
3304.061808  	0.098454 
3305.990624  	0.098704 
3307.919440  	0.098995 
3309.848256  	0.099179 
3311.777072  	0.099539 
3313.705888  	0.099916 
3315.634704  	0.100491 
3317.563520  	0.100924 
3319.492336  	0.101155 
3321.421152  	0.101290 
3323.349968  	0.101656 
3325.278784  	0.101939 
3327.207600  	0.102021 
3329.136416  	0.101953 
3331.065232  	0.102185 
3332.994048  	0.102424 
3334.922864  	0.102414 
3336.851680  	0.102388 
3338.780496  	0.102276 
3340.709312  	0.102079 
3342.638128  	0.102081 
3344.566944  	0.101718 
3346.495760  	0.101383 
3348.424576  	0.101152 
3350.353392  	0.101003 
3352.282208  	0.100800 
3354.211024  	0.100358 
3356.139840  	0.100024 
3358.068656  	0.099938 
3359.997472  	0.099574 
3361.926288  	0.098896 
3363.855104  	0.098518 
3365.783920  	0.098120 
3367.712736  	0.097655 
3369.641552  	0.097377 
3371.570368  	0.096971 
3373.499184  	0.096361 
3375.428000  	0.095741 
3377.356816  	0.095366 
3379.285632  	0.095099 
3381.214448  	0.094902 
3383.143264  	0.094559 
3385.072080  	0.093984 
3387.000896  	0.093507 
3388.929712  	0.093116 
3390.858528  	0.092732 
3392.787344  	0.092213 
3394.716160  	0.091766 
3396.644976  	0.091578 
3398.573792  	0.091026 
3400.502608  	0.090513 
3402.431424  	0.090009 
3404.360240  	0.089475 
3406.289056  	0.088861 
3408.217872  	0.088432 
3410.146688  	0.088031 
3412.075504  	0.087540 
3414.004320  	0.087044 
3415.933136  	0.086786 
3417.861952  	0.086254 
3419.790768  	0.085526 
3421.719584  	0.084783 
3423.648400  	0.084300 
3425.577216  	0.083641 
3427.506032  	0.083015 
3429.434848  	0.082573 
3431.363664  	0.081913 
3433.292480  	0.081276 
3435.221296  	0.080720 
3437.150112  	0.080084 
3439.078928  	0.079697 
3441.007744  	0.079030 
3442.936560  	0.078279 
3444.865376  	0.077926 
3446.794192  	0.076967 
3448.723008  	0.075870 
3450.651824  	0.075326 
3452.580640  	0.074540 
3454.509456  	0.074189 
3456.438272  	0.073702 
3458.367088  	0.072892 
3460.295904  	0.071991 
3462.224720  	0.071079 
3464.153536  	0.070247 
3466.082352  	0.069585 
3468.011168  	0.068583 
3469.939984  	0.067789 
3471.868800  	0.067066 
3473.797616  	0.066299 
3475.726432  	0.065447 
3477.655248  	0.064654 
3479.584064  	0.063954 
3481.512880  	0.063088 
3483.441696  	0.062018 
3485.370512  	0.061511 
3487.299328  	0.060374 
3489.228144  	0.059295 
3491.156960  	0.058573 
3493.085776  	0.057751 
3495.014592  	0.056815 
3496.943408  	0.055890 
3498.872224  	0.055252 
3500.801040  	0.054951 
3502.729856  	0.054026 
3504.658672  	0.052870 
3506.587488  	0.052553 
3508.516304  	0.052020 
3510.445120  	0.050810 
3512.373936  	0.050142 
3514.302752  	0.049446 
3516.231568  	0.048957 
3518.160384  	0.048534 
3520.089200  	0.048001 
3522.018016  	0.047493 
3523.946832  	0.046629 
3525.875648  	0.045960 
3527.804464  	0.044939 
3529.733280  	0.043920 
3531.662096  	0.043351 
3533.590912  	0.042946 
3535.519728  	0.042623 
3537.448544  	0.041863 
3539.377360  	0.041194 
3541.306176  	0.040763 
3543.234992  	0.040496 
3545.163808  	0.039881 
3547.092624  	0.038575 
3549.021440  	0.037634 
3550.950256  	0.037269 
3552.879072  	0.036096 
3554.807888  	0.035515 
3556.736704  	0.035198 
3558.665520  	0.034894 
3560.594336  	0.034163 
3562.523152  	0.033648 
3564.451968  	0.033895 
3566.380784  	0.032663 
3568.309600  	0.029514 
3570.238416  	0.029273 
3572.167232  	0.029617 
3574.096048  	0.028822 
3576.024864  	0.027843 
3577.953680  	0.027526 
3579.882496  	0.026740 
3581.811312  	0.025957 
3583.740128  	0.025893 
3585.668944  	0.025903 
3587.597760  	0.023023 
3589.526576  	0.021100 
3591.455392  	0.021959 
3593.384208  	0.021670 
3595.313024  	0.020187 
3597.241840  	0.019234 
3599.170656  	0.018290 
3601.099472  	0.016862 
3603.028288  	0.016476 
3604.957104  	0.016968 
3606.885920  	0.016229 
3608.814736  	0.013927 
3610.743552  	0.013585 
3612.672368  	0.012759 
3614.601184  	0.011074 
3616.530000  	0.011303 
3618.458816  	0.009124 
3620.387632  	0.006529 
3622.316448  	0.006961 
3624.245264  	0.007545 
3626.174080  	0.007996 
3628.102896  	0.005406 
3630.031712  	-0.000484 
3631.960528  	0.001824 
3633.889344  	0.001970 
3635.818160  	0.000884 
3637.746976  	0.000392 
3639.675792  	-0.000043 
3641.604608  	-0.000456 
3643.533424  	-0.000939 
3645.462240  	-0.000772 
3647.391056  	-0.003052 
3649.319872  	-0.008274 
3651.248688  	-0.011230 
3653.177504  	-0.007999 
3655.106320  	-0.007222 
3657.035136  	-0.010815 
3658.963952  	-0.010881 
3660.892768  	-0.010585 
3662.821584  	-0.010746 
3664.750400  	-0.010647 
3666.679216  	-0.010032 
3668.608032  	-0.011198 
3670.536848  	-0.015584 
3672.465664  	-0.013635 
3674.394480  	-0.012972 
3676.323296  	-0.019427 
3678.252112  	-0.016211 
3680.180928  	-0.014298 
3682.109744  	-0.013690 
3684.038560  	-0.013494 
3685.967376  	-0.012562 
3687.896192  	-0.014188 
3689.825008  	-0.018186 
3691.753824  	-0.017704 
3693.682640  	-0.015364 
3695.611456  	-0.014077 
3697.540272  	-0.013470 
3699.469088  	-0.012301 
3701.397904  	-0.013156 
3703.326720  	-0.013578 
3705.255536  	-0.011907 
3707.184352  	-0.010872 
3709.113168  	-0.011579 
3711.041984  	-0.014014 
3712.970800  	-0.014664 
3714.899616  	-0.012118 
3716.828432  	-0.010450 
3718.757248  	-0.010623 
3720.686064  	-0.010987 
3722.614880  	-0.011824 
3724.543696  	-0.011509 
3726.472512  	-0.011983 
3728.401328  	-0.011738 
3730.330144  	-0.010641 
3732.258960  	-0.011987 
3734.187776  	-0.012445 
3736.116592  	-0.014761 
3738.045408  	-0.014376 
3739.974224  	-0.011674 
3741.903040  	-0.009424 
3743.831856  	-0.011064 
3745.760672  	-0.015410 
3747.689488  	-0.011769 
3749.618304  	-0.013040 
3751.547120  	-0.016200 
3753.475936  	-0.015108 
3755.404752  	-0.011881 
3757.333568  	-0.011063 
3759.262384  	-0.012085 
3761.191200  	-0.012579 
3763.120016  	-0.010461 
3765.048832  	-0.010709 
3766.977648  	-0.011078 
3768.906464  	-0.011147 
3770.835280  	-0.012769 
3772.764096  	-0.011576 
3774.692912  	-0.010610 
3776.621728  	-0.010149 
3778.550544  	-0.011127 
3780.479360  	-0.012978 
3782.408176  	-0.011354 
3784.336992  	-0.011127 
3786.265808  	-0.011554 
3788.194624  	-0.011182 
3790.123440  	-0.010827 
3792.052256  	-0.010649 
3793.981072  	-0.010064 
3795.909888  	-0.011030 
3797.838704  	-0.011497 
3799.767520  	-0.010415 
3801.696336  	-0.014861 
3803.625152  	-0.014267 
3805.553968  	-0.011431 
3807.482784  	-0.013802 
3809.411600  	-0.012515 
3811.340416  	-0.010580 
3813.269232  	-0.009422 
3815.198048  	-0.011114 
3817.126864  	-0.013948 
3819.055680  	-0.011544 
3820.984496  	-0.014543 
3822.913312  	-0.015238 
3824.842128  	-0.011545 
3826.770944  	-0.011941 
3828.699760  	-0.011536 
3830.628576  	-0.010887 
3832.557392  	-0.011837 
3834.486208  	-0.011466 
3836.415024  	-0.011893 
3838.343840  	-0.013877 
3840.272656  	-0.014221 
3842.201472  	-0.012873 
3844.130288  	-0.012854 
3846.059104  	-0.011907 
3847.987920  	-0.010351 
3849.916736  	-0.009370 
3851.845552  	-0.009875 
3853.774368  	-0.017195 
3855.703184  	-0.016644 
3857.632000  	-0.013037 
3859.560816  	-0.010950 
3861.489632  	-0.010617 
3863.418448  	-0.011445 
3865.347264  	-0.012612 
3867.276080  	-0.010788 
3869.204896  	-0.011424 
3871.133712  	-0.013809 
3873.062528  	-0.012040 
3874.991344  	-0.012987 
3876.920160  	-0.010974 
3878.848976  	-0.009584 
3880.777792  	-0.011632 
3882.706608  	-0.011140 
3884.635424  	-0.010560 
3886.564240  	-0.013108 
3888.493056  	-0.011134 
3890.421872  	-0.010706 
3892.350688  	-0.012887 
3894.279504  	-0.011788 
3896.208320  	-0.009834 
3898.137136  	-0.009406 
3900.065952  	-0.010623 
3901.994768  	-0.010978 
3903.923584  	-0.012306 
3905.852400  	-0.013113 
3907.781216  	-0.011784 
3909.710032  	-0.010890 
3911.638848  	-0.010742 
3913.567664  	-0.010401 
3915.496480  	-0.009992 
3917.425296  	-0.010849 
3919.354112  	-0.011450 
3921.282928  	-0.011233 
3923.211744  	-0.010457 
3925.140560  	-0.010853 
3927.069376  	-0.010750 
3928.998192  	-0.010309 
3930.927008  	-0.010421 
3932.855824  	-0.011030 
3934.784640  	-0.011144 
3936.713456  	-0.010687 
3938.642272  	-0.010401 
3940.571088  	-0.009902 
3942.499904  	-0.010342 
3944.428720  	-0.010764 
3946.357536  	-0.010045 
3948.286352  	-0.010298 
3950.215168  	-0.011023 
3952.143984  	-0.011069 
3954.072800  	-0.010821 
3956.001616  	-0.010565 
3957.930432  	-0.010507 
3959.859248  	-0.010341 
3961.788064  	-0.010455 
3963.716880  	-0.010937 
3965.645696  	-0.011027 
3967.574512  	-0.010916 
3969.503328  	-0.010760 
3971.432144  	-0.010783 
3973.360960  	-0.010810 
3975.289776  	-0.010943 
3977.218592  	-0.010926 
3979.147408  	-0.011021 
3981.076224  	-0.011073 
3983.005040  	-0.010881 
3984.933856  	-0.010776 
3986.862672  	-0.010874 
3988.791488  	-0.010809 
3990.720304  	-0.010801 
3992.649120  	-0.010824 
3994.577936  	-0.010990 
3996.506752  	-0.011050 
3998.435568  	-0.010955 
4000.364384  	-0.010790 