##TITLE=No Description
##DATA TYPE=INFRARED SPECTRUM
##XUNITS=1/CM
##YUNITS=Abs
399.264912  	0.523761 
401.193728  	0.536260 
403.122544  	0.528682 
405.051360  	0.516516 
406.980176  	0.525719 
408.908992  	0.529000 
410.837808  	0.528301 
412.766624  	0.529113 
414.695440  	0.531959 
416.624256  	0.538782 
418.553072  	0.551913 
420.481888  	0.546241 
422.410704  	0.541206 
424.339520  	0.528909 
426.268336  	0.529945 
428.197152  	0.532594 
430.125968  	0.527793 
432.054784  	0.516924 
433.983600  	0.511240 
435.912416  	0.506467 
437.841232  	0.516080 
439.770048  	0.517773 
441.698864  	0.512633 
443.627680  	0.502099 
445.556496  	0.505032 
447.485312  	0.513062 
449.414128  	0.515330 
451.342944  	0.513334 
453.271760  	0.512201 
455.200576  	0.506947 
457.129392  	0.508429 
459.058208  	0.515669 
460.987024  	0.519862 
462.915840  	0.518372 
464.844656  	0.521425 
466.773472  	0.521979 
468.702288  	0.523819 
470.631104  	0.520924 
472.559920  	0.520975 
474.488736  	0.520208 
476.417552  	0.525686 
478.346368  	0.520415 
480.275184  	0.521854 
482.204000  	0.524352 
484.132816  	0.517244 
486.061632  	0.517883 
487.990448  	0.524082 
489.919264  	0.518039 
491.848080  	0.517023 
493.776896  	0.517144 
495.705712  	0.515614 
497.634528  	0.512592 
499.563344  	0.514483 
501.492160  	0.510561 
503.420976  	0.502534 
505.349792  	0.498403 
507.278608  	0.500965 
509.207424  	0.504623 
511.136240  	0.509747 
513.065056  	0.509923 
514.993872  	0.513866 
516.922688  	0.520210 
518.851504  	0.526451 
520.780320  	0.524850 
522.709136  	0.524818 
524.637952  	0.522608 
526.566768  	0.519295 
528.495584  	0.513991 
530.424400  	0.509572 
532.353216  	0.502818 
534.282032  	0.496201 
536.210848  	0.488021 
538.139664  	0.481726 
540.068480  	0.475709 
541.997296  	0.471892 
543.926112  	0.466384 
545.854928  	0.463193 
547.783744  	0.460247 
549.712560  	0.457731 
551.641376  	0.454976 
553.570192  	0.453374 
555.499008  	0.449671 
557.427824  	0.446760 
559.356640  	0.443432 
561.285456  	0.439696 
563.214272  	0.434318 
565.143088  	0.429457 
567.071904  	0.424036 
569.000720  	0.420039 
570.929536  	0.415706 
572.858352  	0.413351 
574.787168  	0.411709 
576.715984  	0.409162 
578.644800  	0.403835 
580.573616  	0.398169 
582.502432  	0.391547 
584.431248  	0.385050 
586.360064  	0.379289 
588.288880  	0.376037 
590.217696  	0.374185 
592.146512  	0.373033 
594.075328  	0.372234 
596.004144  	0.371003 
597.932960  	0.368999 
599.861776  	0.368193 
601.790592  	0.367595 
603.719408  	0.366802 
605.648224  	0.366392 
607.577040  	0.365516 
609.505856  	0.363303 
611.434672  	0.362775 
613.363488  	0.361431 
615.292304  	0.360379 
617.221120  	0.358832 
619.149936  	0.357695 
621.078752  	0.356424 
623.007568  	0.356779 
624.936384  	0.357716 
626.865200  	0.357593 
628.794016  	0.357413 
630.722832  	0.358041 
632.651648  	0.358271 
634.580464  	0.359286 
636.509280  	0.361189 
638.438096  	0.361914 
640.366912  	0.361516 
642.295728  	0.359918 
644.224544  	0.356483 
646.153360  	0.353369 
648.082176  	0.349215 
650.010992  	0.345660 
651.939808  	0.341455 
653.868624  	0.337184 
655.797440  	0.332804 
657.726256  	0.328768 
659.655072  	0.324524 
661.583888  	0.320384 
663.512704  	0.315385 
665.441520  	0.310050 
667.370336  	0.304951 
669.299152  	0.298548 
671.227968  	0.293628 
673.156784  	0.289237 
675.085600  	0.286106 
677.014416  	0.284059 
678.943232  	0.282266 
680.872048  	0.281002 
682.800864  	0.279588 
684.729680  	0.278272 
686.658496  	0.276845 
688.587312  	0.276201 
690.516128  	0.274806 
692.444944  	0.274221 
694.373760  	0.273840 
696.302576  	0.273572 
698.231392  	0.272107 
700.160208  	0.269578 
702.089024  	0.266808 
704.017840  	0.264245 
705.946656  	0.261527 
707.875472  	0.259699 
709.804288  	0.257889 
711.733104  	0.256215 
713.661920  	0.254524 
715.590736  	0.254277 
717.519552  	0.254981 
719.448368  	0.255779 
721.377184  	0.257722 
723.306000  	0.260199 
725.234816  	0.261613 
727.163632  	0.260917 
729.092448  	0.257859 
731.021264  	0.252910 
732.950080  	0.248140 
734.878896  	0.244090 
736.807712  	0.240410 
738.736528  	0.237894 
740.665344  	0.235902 
742.594160  	0.234754 
744.522976  	0.233503 
746.451792  	0.232490 
748.380608  	0.231067 
750.309424  	0.230602 
752.238240  	0.230265 
754.167056  	0.230138 
756.095872  	0.229807 
758.024688  	0.229181 
759.953504  	0.229897 
761.882320  	0.231984 
763.811136  	0.233670 
765.739952  	0.231588 
767.668768  	0.226657 
769.597584  	0.222897 
771.526400  	0.222981 
773.455216  	0.226889 
775.384032  	0.234410 
777.312848  	0.244405 
779.241664  	0.250393 
781.170480  	0.248006 
783.099296  	0.239872 
785.028112  	0.231696 
786.956928  	0.224434 
788.885744  	0.218474 
790.814560  	0.214229 
792.743376  	0.212718 
794.672192  	0.212956 
796.601008  	0.211325 
798.529824  	0.207029 
800.458640  	0.202217 
802.387456  	0.198620 
804.316272  	0.197091 
806.245088  	0.196912 
808.173904  	0.197142 
810.102720  	0.197483 
812.031536  	0.198433 
813.960352  	0.200038 
815.889168  	0.202171 
817.817984  	0.205020 
819.746800  	0.207888 
821.675616  	0.210507 
823.604432  	0.213352 
825.533248  	0.215992 
827.462064  	0.218078 
829.390880  	0.219239 
831.319696  	0.219653 
833.248512  	0.218901 
835.177328  	0.217011 
837.106144  	0.213124 
839.034960  	0.208828 
840.963776  	0.203767 
842.892592  	0.198141 
844.821408  	0.192387 
846.750224  	0.187180 
848.679040  	0.183549 
850.607856  	0.181014 
852.536672  	0.179629 
854.465488  	0.178669 
856.394304  	0.178368 
858.323120  	0.177929 
860.251936  	0.177144 
862.180752  	0.175479 
864.109568  	0.173130 
866.038384  	0.171016 
867.967200  	0.168995 
869.896016  	0.167491 
871.824832  	0.166588 
873.753648  	0.166738 
875.682464  	0.168334 
877.611280  	0.171928 
879.540096  	0.176991 
881.468912  	0.182815 
883.397728  	0.188178 
885.326544  	0.192835 
887.255360  	0.196295 
889.184176  	0.197406 
891.112992  	0.197053 
893.041808  	0.195225 
894.970624  	0.191354 
896.899440  	0.185874 
898.828256  	0.179026 
900.757072  	0.172044 
902.685888  	0.166197 
904.614704  	0.163257 
906.543520  	0.163897 
908.472336  	0.167562 
910.401152  	0.172454 
912.329968  	0.177514 
914.258784  	0.182247 
916.187600  	0.186070 
918.116416  	0.189301 
920.045232  	0.192267 
921.974048  	0.194565 
923.902864  	0.196648 
925.831680  	0.199036 
927.760496  	0.201987 
929.689312  	0.205103 
931.618128  	0.208175 
933.546944  	0.210070 
935.475760  	0.211127 
937.404576  	0.210739 
939.333392  	0.209093 
941.262208  	0.208097 
943.191024  	0.209169 
945.119840  	0.213886 
947.048656  	0.223326 
948.977472  	0.237814 
950.906288  	0.256892 
952.835104  	0.280230 
954.763920  	0.306146 
956.692736  	0.331416 
958.621552  	0.352681 
960.550368  	0.366323 
962.479184  	0.372482 
964.408000  	0.369262 
966.336816  	0.358145 
968.265632  	0.340049 
970.194448  	0.317730 
972.123264  	0.293094 
974.052080  	0.268747 
975.980896  	0.245360 
977.909712  	0.224120 
979.838528  	0.205607 
981.767344  	0.190307 
983.696160  	0.179127 
985.624976  	0.172289 
987.553792  	0.170488 
989.482608  	0.173532 
991.411424  	0.180743 
993.340240  	0.191062 
995.269056  	0.202567 
997.197872  	0.214771 
999.126688  	0.226937 
1001.055504  	0.239498 
1002.984320  	0.252126 
1004.913136  	0.264855 
1006.841952  	0.277017 
1008.770768  	0.288225 
1010.699584  	0.297538 
1012.628400  	0.304409 
1014.557216  	0.307929 
1016.486032  	0.309107 
1018.414848  	0.308769 
1020.343664  	0.307928 
1022.272480  	0.307450 
1024.201296  	0.307468 
1026.130112  	0.307387 
1028.058928  	0.309132 
1029.987744  	0.313377 
1031.916560  	0.319570 
1033.845376  	0.326968 
1035.774192  	0.336535 
1037.703008  	0.349076 
1039.631824  	0.366605 
1041.560640  	0.389706 
1043.489456  	0.417986 
1045.418272  	0.446487 
1047.347088  	0.470171 
1049.275904  	0.482430 
1051.204720  	0.483412 
1053.133536  	0.475267 
1055.062352  	0.463815 
1056.991168  	0.452123 
1058.919984  	0.444172 
1060.848800  	0.438721 
1062.777616  	0.435488 
1064.706432  	0.431667 
1066.635248  	0.426248 
1068.564064  	0.417882 
1070.492880  	0.408032 
1072.421696  	0.398757 
1074.350512  	0.394219 
1076.279328  	0.395718 
1078.208144  	0.402746 
1080.136960  	0.410461 
1082.065776  	0.414009 
1083.994592  	0.408705 
1085.923408  	0.396216 
1087.852224  	0.378218 
1089.781040  	0.358869 
1091.709856  	0.338259 
1093.638672  	0.317635 
1095.567488  	0.296152 
1097.496304  	0.275535 
1099.425120  	0.256172 
1101.353936  	0.238433 
1103.282752  	0.221888 
1105.211568  	0.207099 
1107.140384  	0.193914 
1109.069200  	0.182254 
1110.998016  	0.171948 
1112.926832  	0.162438 
1114.855648  	0.153420 
1116.784464  	0.144827 
1118.713280  	0.136208 
1120.642096  	0.127892 
1122.570912  	0.120203 
1124.499728  	0.113339 
1126.428544  	0.107511 
1128.357360  	0.102506 
1130.286176  	0.098430 
1132.214992  	0.095629 
1134.143808  	0.093562 
1136.072624  	0.091540 
1138.001440  	0.090016 
1139.930256  	0.088807 
1141.859072  	0.087025 
1143.787888  	0.084874 
1145.716704  	0.082953 
1147.645520  	0.081404 
1149.574336  	0.080208 
1151.503152  	0.079500 
1153.431968  	0.079961 
1155.360784  	0.080897 
1157.289600  	0.082359 
1159.218416  	0.084596 
1161.147232  	0.087660 
1163.076048  	0.091075 
1165.004864  	0.094420 
1166.933680  	0.097200 
1168.862496  	0.100283 
1170.791312  	0.103935 
1172.720128  	0.108097 
1174.648944  	0.112981 
1176.577760  	0.118001 
1178.506576  	0.123057 
1180.435392  	0.128150 
1182.364208  	0.133531 
1184.293024  	0.139567 
1186.221840  	0.146243 
1188.150656  	0.153946 
1190.079472  	0.162999 
1192.008288  	0.173579 
1193.937104  	0.185756 
1195.865920  	0.199040 
1197.794736  	0.213227 
1199.723552  	0.227783 
1201.652368  	0.242506 
1203.581184  	0.256176 
1205.510000  	0.268383 
1207.438816  	0.278515 
1209.367632  	0.286900 
1211.296448  	0.292909 
1213.225264  	0.296745 
1215.154080  	0.297734 
1217.082896  	0.297269 
1219.011712  	0.294984 
1220.940528  	0.291921 
1222.869344  	0.287413 
1224.798160  	0.282125 
1226.726976  	0.275642 
1228.655792  	0.268788 
1230.584608  	0.260884 
1232.513424  	0.252725 
1234.442240  	0.243821 
1236.371056  	0.234423 
1238.299872  	0.224567 
1240.228688  	0.214474 
1242.157504  	0.204271 
1244.086320  	0.194272 
1246.015136  	0.184532 
1247.943952  	0.175219 
1249.872768  	0.166259 
1251.801584  	0.157862 
1253.730400  	0.149594 
1255.659216  	0.141866 
1257.588032  	0.134542 
1259.516848  	0.127582 
1261.445664  	0.121126 
1263.374480  	0.115548 
1265.303296  	0.110789 
1267.232112  	0.106918 
1269.160928  	0.104195 
1271.089744  	0.102754 
1273.018560  	0.102457 
1274.947376  	0.103094 
1276.876192  	0.104546 
1278.805008  	0.105853 
1280.733824  	0.106084 
1282.662640  	0.104691 
1284.591456  	0.102443 
1286.520272  	0.100263 
1288.449088  	0.099341 
1290.377904  	0.100414 
1292.306720  	0.102623 
1294.235536  	0.104308 
1296.164352  	0.104201 
1298.093168  	0.101912 
1300.021984  	0.098277 
1301.950800  	0.094281 
1303.879616  	0.089866 
1305.808432  	0.084671 
1307.737248  	0.079055 
1309.666064  	0.073753 
1311.594880  	0.069587 
1313.523696  	0.066679 
1315.452512  	0.064889 
1317.381328  	0.064014 
1319.310144  	0.064131 
1321.238960  	0.064931 
1323.167776  	0.066381 
1325.096592  	0.067828 
1327.025408  	0.068811 
1328.954224  	0.068725 
1330.883040  	0.067700 
1332.811856  	0.066072 
1334.740672  	0.064544 
1336.669488  	0.063528 
1338.598304  	0.063263 
1340.527120  	0.063660 
1342.455936  	0.063983 
1344.384752  	0.064234 
1346.313568  	0.064929 
1348.242384  	0.066160 
1350.171200  	0.067846 
1352.100016  	0.069936 
1354.028832  	0.072315 
1355.957648  	0.074859 
1357.886464  	0.077347 
1359.815280  	0.079887 
1361.744096  	0.082951 
1363.672912  	0.086694 
1365.601728  	0.089537 
1367.530544  	0.092191 
1369.459360  	0.094832 
1371.388176  	0.096088 
1373.316992  	0.095656 
1375.245808  	0.093486 
1377.174624  	0.089987 
1379.103440  	0.086280 
1381.032256  	0.082771 
1382.961072  	0.080120 
1384.889888  	0.078070 
1386.818704  	0.076488 
1388.747520  	0.074573 
1390.676336  	0.071900 
1392.605152  	0.069249 
1394.533968  	0.067894 
1396.462784  	0.068006 
1398.391600  	0.068095 
1400.320416  	0.068879 
1402.249232  	0.068928 
1404.178048  	0.069532 
1406.106864  	0.070583 
1408.035680  	0.071677 
1409.964496  	0.073322 
1411.893312  	0.076039 
1413.822128  	0.078666 
1415.750944  	0.081057 
1417.679760  	0.083326 
1419.608576  	0.086166 
1421.537392  	0.086453 
1423.466208  	0.085595 
1425.395024  	0.083941 
1427.323840  	0.081090 
1429.252656  	0.077980 
1431.181472  	0.075613 
1433.110288  	0.074585 
1435.039104  	0.074883 
1436.967920  	0.078383 
1438.896736  	0.081316 
1440.825552  	0.082641 
1442.754368  	0.084111 
1444.683184  	0.084692 
1446.612000  	0.085010 
1448.540816  	0.085788 
1450.469632  	0.086086 
1452.398448  	0.086166 
1454.327264  	0.086029 
1456.256080  	0.085987 
1458.184896  	0.087202 
1460.113712  	0.086149 
1462.042528  	0.084992 
1463.971344  	0.084431 
1465.900160  	0.084857 
1467.828976  	0.084683 
1469.757792  	0.085288 
1471.686608  	0.088423 
1473.615424  	0.096624 
1475.544240  	0.102809 
1477.473056  	0.110027 
1479.401872  	0.115097 
1481.330688  	0.120283 
1483.259504  	0.124426 
1485.188320  	0.127103 
1487.117136  	0.128817 
1489.045952  	0.130221 
1490.974768  	0.129007 
1492.903584  	0.125491 
1494.832400  	0.120016 
1496.761216  	0.112598 
1498.690032  	0.103833 
1500.618848  	0.096035 
1502.547664  	0.089124 
1504.476480  	0.083637 
1506.405296  	0.079449 
1508.334112  	0.076625 
1510.262928  	0.073914 
1512.191744  	0.072184 
1514.120560  	0.070958 
1516.049376  	0.071203 
1517.978192  	0.073667 
1519.907008  	0.075154 
1521.835824  	0.081800 
1523.764640  	0.086817 
1525.693456  	0.090349 
1527.622272  	0.092905 
1529.551088  	0.092403 
1531.479904  	0.089471 
1533.408720  	0.085298 
1535.337536  	0.080151 
1537.266352  	0.075880 
1539.195168  	0.072384 
1541.123984  	0.069344 
1543.052800  	0.067136 
1544.981616  	0.065256 
1546.910432  	0.064007 
1548.839248  	0.063105 
1550.768064  	0.063772 
1552.696880  	0.063578 
1554.625696  	0.065183 
1556.554512  	0.065332 
1558.483328  	0.068648 
1560.412144  	0.076691 
1562.340960  	0.077939 
1564.269776  	0.080839 
1566.198592  	0.086262 
1568.127408  	0.090153 
1570.056224  	0.099058 
1571.985040  	0.104971 
1573.913856  	0.108564 
1575.842672  	0.113323 
1577.771488  	0.117969 
1579.700304  	0.116917 
1581.629120  	0.115965 
1583.557936  	0.115253 
1585.486752  	0.116565 
1587.415568  	0.119682 
1589.344384  	0.125781 
1591.273200  	0.133578 
1593.202016  	0.143129 
1595.130832  	0.153251 
1597.059648  	0.164116 
1598.988464  	0.173100 
1600.917280  	0.181345 
1602.846096  	0.187292 
1604.774912  	0.191456 
1606.703728  	0.192039 
1608.632544  	0.191446 
1610.561360  	0.188613 
1612.490176  	0.185771 
1614.418992  	0.182301 
1616.347808  	0.181970 
1618.276624  	0.183530 
1620.205440  	0.185305 
1622.134256  	0.188145 
1624.063072  	0.196653 
1625.991888  	0.202839 
1627.920704  	0.212050 
1629.849520  	0.222296 
1631.778336  	0.230719 
1633.707152  	0.237028 
1635.635968  	0.248352 
1637.564784  	0.258543 
1639.493600  	0.262563 
1641.422416  	0.265474 
1643.351232  	0.267536 
1645.280048  	0.267511 
1647.208864  	0.270118 
1649.137680  	0.269245 
1651.066496  	0.266640 
1652.995312  	0.264058 
1654.924128  	0.263909 
1656.852944  	0.259926 
1658.781760  	0.256046 
1660.710576  	0.251381 
1662.639392  	0.246166 
1664.568208  	0.239803 
1666.497024  	0.233621 
1668.425840  	0.226599 
1670.354656  	0.218830 
1672.283472  	0.211584 
1674.212288  	0.205220 
1676.141104  	0.199095 
1678.069920  	0.194365 
1679.998736  	0.190690 
1681.927552  	0.187941 
1683.856368  	0.186478 
1685.785184  	0.187212 
1687.714000  	0.185537 
1689.642816  	0.185092 
1691.571632  	0.184416 
1693.500448  	0.183317 
1695.429264  	0.182782 
1697.358080  	0.183641 
1699.286896  	0.182371 
1701.215712  	0.183744 
1703.144528  	0.181920 
1705.073344  	0.180059 
1707.002160  	0.176967 
1708.930976  	0.172528 
1710.859792  	0.166013 
1712.788608  	0.158341 
1714.717424  	0.148365 
1716.646240  	0.136526 
1718.575056  	0.120761 
1720.503872  	0.107284 
1722.432688  	0.095501 
1724.361504  	0.082534 
1726.290320  	0.071538 
1728.219136  	0.062234 
1730.147952  	0.054360 
1732.076768  	0.047711 
1734.005584  	0.043473 
1735.934400  	0.038830 
1737.863216  	0.035573 
1739.792032  	0.032994 
1741.720848  	0.031012 
1743.649664  	0.028935 
1745.578480  	0.027333 
1747.507296  	0.025891 
1749.436112  	0.025229 
1751.364928  	0.024502 
1753.293744  	0.023641 
1755.222560  	0.022265 
1757.151376  	0.022236 
1759.080192  	0.021187 
1761.009008  	0.020837 
1762.937824  	0.020750 
1764.866640  	0.019901 
1766.795456  	0.018774 
1768.724272  	0.018812 
1770.653088  	0.018031 
1772.581904  	0.018736 
1774.510720  	0.018326 
1776.439536  	0.017852 
1778.368352  	0.017150 
1780.297168  	0.017121 
1782.225984  	0.016919 
1784.154800  	0.016879 
1786.083616  	0.016672 
1788.012432  	0.016205 
1789.941248  	0.015660 
1791.870064  	0.016218 
1793.798880  	0.016403 
1795.727696  	0.015994 
1797.656512  	0.015294 
1799.585328  	0.015149 
1801.514144  	0.015359 
1803.442960  	0.015296 
1805.371776  	0.014627 
1807.300592  	0.014496 
1809.229408  	0.014317 
1811.158224  	0.014547 
1813.087040  	0.014358 
1815.015856  	0.014109 
1816.944672  	0.013910 
1818.873488  	0.014268 
1820.802304  	0.014068 
1822.731120  	0.013792 
1824.659936  	0.013675 
1826.588752  	0.013934 
1828.517568  	0.013673 
1830.446384  	0.014716 
1832.375200  	0.014404 
1834.304016  	0.014313 
1836.232832  	0.014001 
1838.161648  	0.013626 
1840.090464  	0.013366 
1842.019280  	0.013493 
1843.948096  	0.014087 
1845.876912  	0.014653 
1847.805728  	0.014257 
1849.734544  	0.014306 
1851.663360  	0.013914 
1853.592176  	0.013838 
1855.520992  	0.013449 
1857.449808  	0.013783 
1859.378624  	0.013781 
1861.307440  	0.013937 
1863.236256  	0.013621 
1865.165072  	0.013507 
1867.093888  	0.013293 
1869.022704  	0.014038 
1870.951520  	0.013886 
1872.880336  	0.013510 
1874.809152  	0.013159 
1876.737968  	0.013485 
1878.666784  	0.013588 
1880.595600  	0.013857 
1882.524416  	0.013656 
1884.453232  	0.013668 
1886.382048  	0.013197 
1888.310864  	0.013522 
1890.239680  	0.014073 
1892.168496  	0.013948 
1894.097312  	0.013123 
1896.026128  	0.013327 
1897.954944  	0.013516 
1899.883760  	0.013671 
1901.812576  	0.013214 
1903.741392  	0.013380 
1905.670208  	0.013307 
1907.599024  	0.013692 
1909.527840  	0.013994 
1911.456656  	0.014350 
1913.385472  	0.013973 
1915.314288  	0.013661 
1917.243104  	0.013051 
1919.171920  	0.013403 
1921.100736  	0.013322 
1923.029552  	0.013861 
1924.958368  	0.013079 
1926.887184  	0.012822 
1928.816000  	0.013202 
1930.744816  	0.013780 
1932.673632  	0.013184 
1934.602448  	0.013051 
1936.531264  	0.012652 
1938.460080  	0.012418 
1940.388896  	0.012072 
1942.317712  	0.012731 
1944.246528  	0.012810 
1946.175344  	0.013084 
1948.104160  	0.012429 
1950.032976  	0.012260 
1951.961792  	0.012293 
1953.890608  	0.013092 
1955.819424  	0.012543 
1957.748240  	0.012849 
1959.677056  	0.012225 
1961.605872  	0.011909 
1963.534688  	0.010921 
1965.463504  	0.011644 
1967.392320  	0.010670 
1969.321136  	0.011290 
1971.249952  	0.011406 
1973.178768  	0.011851 
1975.107584  	0.011530 
1977.036400  	0.012008 
1978.965216  	0.013571 
1980.894032  	0.014345 
1982.822848  	0.012879 
1984.751664  	0.013204 
1986.680480  	0.013320 
1988.609296  	0.013645 
1990.538112  	0.012983 
1992.466928  	0.013809 
1994.395744  	0.013066 
1996.324560  	0.013137 
1998.253376  	0.012916 
2000.182192  	0.012913 
2002.111008  	0.012534 
2004.039824  	0.012681 
2005.968640  	0.011703 
2007.897456  	0.012396 
2009.826272  	0.012642 
2011.755088  	0.013373 
2013.683904  	0.013964 
2015.612720  	0.014226 
2017.541536  	0.014200 
2019.470352  	0.015367 
2021.399168  	0.015157 
2023.327984  	0.015522 
2025.256800  	0.014388 
2027.185616  	0.013852 
2029.114432  	0.013569 
2031.043248  	0.014325 
2032.972064  	0.015044 
2034.900880  	0.016412 
2036.829696  	0.015909 
2038.758512  	0.016124 
2040.687328  	0.015614 
2042.616144  	0.016138 
2044.544960  	0.015255 
2046.473776  	0.015127 
2048.402592  	0.014888 
2050.331408  	0.014771 
2052.260224  	0.013726 
2054.189040  	0.013872 
2056.117856  	0.014661 
2058.046672  	0.015164 
2059.975488  	0.014631 
2061.904304  	0.014442 
2063.833120  	0.014051 
2065.761936  	0.014689 
2067.690752  	0.014916 
2069.619568  	0.015032 
2071.548384  	0.014566 
2073.477200  	0.014678 
2075.406016  	0.015012 
2077.334832  	0.015478 
2079.263648  	0.015258 
2081.192464  	0.015356 
2083.121280  	0.014769 
2085.050096  	0.014757 
2086.978912  	0.014874 
2088.907728  	0.015587 
2090.836544  	0.015341 
2092.765360  	0.014804 
2094.694176  	0.014666 
2096.622992  	0.015356 
2098.551808  	0.015698 
2100.480624  	0.015660 
2102.409440  	0.015345 
2104.338256  	0.015530 
2106.267072  	0.015525 
2108.195888  	0.016050 
2110.124704  	0.015920 
2112.053520  	0.015707 
2113.982336  	0.015808 
2115.911152  	0.015797 
2117.839968  	0.015605 
2119.768784  	0.015550 
2121.697600  	0.015014 
2123.626416  	0.015198 
2125.555232  	0.014910 
2127.484048  	0.014827 
2129.412864  	0.014243 
2131.341680  	0.014170 
2133.270496  	0.014081 
2135.199312  	0.014629 
2137.128128  	0.014969 
2139.056944  	0.015318 
2140.985760  	0.015021 
2142.914576  	0.014933 
2144.843392  	0.015379 
2146.772208  	0.015679 
2148.701024  	0.015147 
2150.629840  	0.015857 
2152.558656  	0.015448 
2154.487472  	0.015649 
2156.416288  	0.015541 
2158.345104  	0.018373 
2160.273920  	0.020652 
2162.202736  	0.019954 
2164.131552  	0.018945 
2166.060368  	0.019342 
2167.989184  	0.018112 
2169.918000  	0.017488 
2171.846816  	0.017521 
2173.775632  	0.016553 
2175.704448  	0.015534 
2177.633264  	0.016504 
2179.562080  	0.015912 
2181.490896  	0.015131 
2183.419712  	0.015802 
2185.348528  	0.015991 
2187.277344  	0.015976 
2189.206160  	0.016472 
2191.134976  	0.016963 
2193.063792  	0.018284 
2194.992608  	0.017591 
2196.921424  	0.017342 
2198.850240  	0.017695 
2200.779056  	0.017571 
2202.707872  	0.016884 
2204.636688  	0.016087 
2206.565504  	0.016631 
2208.494320  	0.017709 
2210.423136  	0.016905 
2212.351952  	0.016444 
2214.280768  	0.016214 
2216.209584  	0.016464 
2218.138400  	0.016472 
2220.067216  	0.016659 
2221.996032  	0.016393 
2223.924848  	0.016360 
2225.853664  	0.016186 
2227.782480  	0.016232 
2229.711296  	0.016181 
2231.640112  	0.015797 
2233.568928  	0.015322 
2235.497744  	0.016221 
2237.426560  	0.016173 
2239.355376  	0.015806 
2241.284192  	0.015815 
2243.213008  	0.015562 
2245.141824  	0.015308 
2247.070640  	0.016013 
2248.999456  	0.016194 
2250.928272  	0.015954 
2252.857088  	0.015555 
2254.785904  	0.015926 
2256.714720  	0.015805 
2258.643536  	0.015535 
2260.572352  	0.015528 
2262.501168  	0.015822 
2264.429984  	0.015820 
2266.358800  	0.016161 
2268.287616  	0.016648 
2270.216432  	0.016523 
2272.145248  	0.015930 
2274.074064  	0.016038 
2276.002880  	0.016217 
2277.931696  	0.016506 
2279.860512  	0.016673 
2281.789328  	0.016945 
2283.718144  	0.016949 
2285.646960  	0.016969 
2287.575776  	0.016899 
2289.504592  	0.017204 
2291.433408  	0.017217 
2293.362224  	0.017342 
2295.291040  	0.017376 
2297.219856  	0.017295 
2299.148672  	0.017063 
2301.077488  	0.017221 
2303.006304  	0.017348 
2304.935120  	0.017435 
2306.863936  	0.017612 
2308.792752  	0.017871 
2310.721568  	0.017791 
2312.650384  	0.017798 
2314.579200  	0.017841 
2316.508016  	0.018073 
2318.436832  	0.018229 
2320.365648  	0.018684 
2322.294464  	0.019075 
2324.223280  	0.018891 
2326.152096  	0.017833 
2328.080912  	0.017768 
2330.009728  	0.018141 
2331.938544  	0.018546 
2333.867360  	0.018407 
2335.796176  	0.018039 
2337.724992  	0.017952 
2339.653808  	0.018028 
2341.582624  	0.017860 
2343.511440  	0.017888 
2345.440256  	0.018208 
2347.369072  	0.018295 
2349.297888  	0.017388 
2351.226704  	0.016891 
2353.155520  	0.016944 
2355.084336  	0.017041 
2357.013152  	0.017248 
2358.941968  	0.017804 
2360.870784  	0.018712 
2362.799600  	0.019200 
2364.728416  	0.018976 
2366.657232  	0.018969 
2368.586048  	0.018696 
2370.514864  	0.018793 
2372.443680  	0.018642 
2374.372496  	0.018357 
2376.301312  	0.018264 
2378.230128  	0.018264 
2380.158944  	0.018122 
2382.087760  	0.018026 
2384.016576  	0.017811 
2385.945392  	0.017563 
2387.874208  	0.017574 
2389.803024  	0.017746 
2391.731840  	0.017640 
2393.660656  	0.017484 
2395.589472  	0.017372 
2397.518288  	0.017435 
2399.447104  	0.017568 
2401.375920  	0.018085 
2403.304736  	0.018169 
2405.233552  	0.018071 
2407.162368  	0.018323 
2409.091184  	0.018519 
2411.020000  	0.018501 
2412.948816  	0.018485 
2414.877632  	0.018578 
2416.806448  	0.018907 
2418.735264  	0.018982 
2420.664080  	0.018845 
2422.592896  	0.018817 
2424.521712  	0.019093 
2426.450528  	0.019237 
2428.379344  	0.019424 
2430.308160  	0.019520 
2432.236976  	0.019459 
2434.165792  	0.019399 
2436.094608  	0.019669 
2438.023424  	0.019707 
2439.952240  	0.019509 
2441.881056  	0.019629 
2443.809872  	0.019976 
2445.738688  	0.020122 
2447.667504  	0.020216 
2449.596320  	0.020282 
2451.525136  	0.020491 
2453.453952  	0.020698 
2455.382768  	0.020842 
2457.311584  	0.020768 
2459.240400  	0.020556 
2461.169216  	0.020458 
2463.098032  	0.020565 
2465.026848  	0.020764 
2466.955664  	0.020997 
2468.884480  	0.021149 
2470.813296  	0.021204 
2472.742112  	0.021316 
2474.670928  	0.021582 
2476.599744  	0.021632 
2478.528560  	0.021646 
2480.457376  	0.021679 
2482.386192  	0.021783 
2484.315008  	0.021879 
2486.243824  	0.022209 
2488.172640  	0.022639 
2490.101456  	0.022816 
2492.030272  	0.022794 
2493.959088  	0.022845 
2495.887904  	0.022859 
2497.816720  	0.023161 
2499.745536  	0.023308 
2501.674352  	0.023483 
2503.603168  	0.023672 
2505.531984  	0.023627 
2507.460800  	0.023598 
2509.389616  	0.023845 
2511.318432  	0.023955 
2513.247248  	0.024124 
2515.176064  	0.024061 
2517.104880  	0.024288 
2519.033696  	0.024742 
2520.962512  	0.024858 
2522.891328  	0.024759 
2524.820144  	0.025021 
2526.748960  	0.024938 
2528.677776  	0.024909 
2530.606592  	0.025241 
2532.535408  	0.025281 
2534.464224  	0.025149 
2536.393040  	0.025316 
2538.321856  	0.025400 
2540.250672  	0.025421 
2542.179488  	0.025499 
2544.108304  	0.025755 
2546.037120  	0.026095 
2547.965936  	0.026471 
2549.894752  	0.026482 
2551.823568  	0.026367 
2553.752384  	0.026390 
2555.681200  	0.026717 
2557.610016  	0.026857 
2559.538832  	0.027056 
2561.467648  	0.027292 
2563.396464  	0.027353 
2565.325280  	0.027441 
2567.254096  	0.027715 
2569.182912  	0.027906 
2571.111728  	0.028147 
2573.040544  	0.028348 
2574.969360  	0.028598 
2576.898176  	0.028876 
2578.826992  	0.029176 
2580.755808  	0.029285 
2582.684624  	0.029453 
2584.613440  	0.029644 
2586.542256  	0.029849 
2588.471072  	0.029983 
2590.399888  	0.030143 
2592.328704  	0.030327 
2594.257520  	0.030672 
2596.186336  	0.030795 
2598.115152  	0.030809 
2600.043968  	0.030969 
2601.972784  	0.031110 
2603.901600  	0.031114 
2605.830416  	0.031381 
2607.759232  	0.031694 
2609.688048  	0.031814 
2611.616864  	0.031928 
2613.545680  	0.032196 
2615.474496  	0.032444 
2617.403312  	0.032763 
2619.332128  	0.033066 
2621.260944  	0.033284 
2623.189760  	0.033376 
2625.118576  	0.033589 
2627.047392  	0.033766 
2628.976208  	0.034027 
2630.905024  	0.034276 
2632.833840  	0.034540 
2634.762656  	0.034802 
2636.691472  	0.035076 
2638.620288  	0.035509 
2640.549104  	0.035842 
2642.477920  	0.036056 
2644.406736  	0.036267 
2646.335552  	0.036594 
2648.264368  	0.036960 
2650.193184  	0.037149 
2652.122000  	0.037386 
2654.050816  	0.037667 
2655.979632  	0.037926 
2657.908448  	0.038153 
2659.837264  	0.038409 
2661.766080  	0.038678 
2663.694896  	0.038837 
2665.623712  	0.038955 
2667.552528  	0.039269 
2669.481344  	0.039610 
2671.410160  	0.039896 
2673.338976  	0.040022 
2675.267792  	0.040125 
2677.196608  	0.040321 
2679.125424  	0.040653 
2681.054240  	0.040958 
2682.983056  	0.041185 
2684.911872  	0.041383 
2686.840688  	0.041563 
2688.769504  	0.041752 
2690.698320  	0.041922 
2692.627136  	0.042114 
2694.555952  	0.042347 
2696.484768  	0.042523 
2698.413584  	0.042780 
2700.342400  	0.042966 
2702.271216  	0.043132 
2704.200032  	0.043361 
2706.128848  	0.043656 
2708.057664  	0.043904 
2709.986480  	0.044159 
2711.915296  	0.044410 
2713.844112  	0.044705 
2715.772928  	0.044957 
2717.701744  	0.045087 
2719.630560  	0.045245 
2721.559376  	0.045536 
2723.488192  	0.045785 
2725.417008  	0.046078 
2727.345824  	0.046309 
2729.274640  	0.046491 
2731.203456  	0.046679 
2733.132272  	0.047042 
2735.061088  	0.047411 
2736.989904  	0.047628 
2738.918720  	0.047874 
2740.847536  	0.048092 
2742.776352  	0.048282 
2744.705168  	0.048518 
2746.633984  	0.048597 
2748.562800  	0.048702 
2750.491616  	0.048932 
2752.420432  	0.049112 
2754.349248  	0.049117 
2756.278064  	0.049032 
2758.206880  	0.049016 
2760.135696  	0.049202 
2762.064512  	0.049345 
2763.993328  	0.049388 
2765.922144  	0.049395 
2767.850960  	0.049328 
2769.779776  	0.049210 
2771.708592  	0.049153 
2773.637408  	0.049083 
2775.566224  	0.048979 
2777.495040  	0.048899 
2779.423856  	0.048858 
2781.352672  	0.048754 
2783.281488  	0.048722 
2785.210304  	0.048863 
2787.139120  	0.048953 
2789.067936  	0.048855 
2790.996752  	0.048688 
2792.925568  	0.048561 
2794.854384  	0.048442 
2796.783200  	0.048397 
2798.712016  	0.048408 
2800.640832  	0.048534 
2802.569648  	0.048595 
2804.498464  	0.048560 
2806.427280  	0.048533 
2808.356096  	0.048462 
2810.284912  	0.048438 
2812.213728  	0.048276 
2814.142544  	0.048215 
2816.071360  	0.048374 
2818.000176  	0.048527 
2819.928992  	0.048585 
2821.857808  	0.048609 
2823.786624  	0.048615 
2825.715440  	0.048666 
2827.644256  	0.048606 
2829.573072  	0.048576 
2831.501888  	0.048566 
2833.430704  	0.048496 
2835.359520  	0.048375 
2837.288336  	0.048374 
2839.217152  	0.048396 
2841.145968  	0.048367 
2843.074784  	0.048508 
2845.003600  	0.048630 
2846.932416  	0.048835 
2848.861232  	0.049120 
2850.790048  	0.049076 
2852.718864  	0.049012 
2854.647680  	0.049018 
2856.576496  	0.049124 
2858.505312  	0.049164 
2860.434128  	0.049209 
2862.362944  	0.049349 
2864.291760  	0.049384 
2866.220576  	0.049512 
2868.149392  	0.049720 
2870.078208  	0.049762 
2872.007024  	0.050020 
2873.935840  	0.050506 
2875.864656  	0.051091 
2877.793472  	0.051640 
2879.722288  	0.052214 
2881.651104  	0.052896 
2883.579920  	0.053346 
2885.508736  	0.053642 
2887.437552  	0.053977 
2889.366368  	0.054036 
2891.295184  	0.054122 
2893.224000  	0.054287 
2895.152816  	0.054349 
2897.081632  	0.054109 
2899.010448  	0.053646 
2900.939264  	0.053584 
2902.868080  	0.053947 
2904.796896  	0.054216 
2906.725712  	0.054516 
2908.654528  	0.054931 
2910.583344  	0.055457 
2912.512160  	0.056294 
2914.440976  	0.057307 
2916.369792  	0.058287 
2918.298608  	0.059028 
2920.227424  	0.059512 
2922.156240  	0.059959 
2924.085056  	0.060548 
2926.013872  	0.061431 
2927.942688  	0.062347 
2929.871504  	0.063289 
2931.800320  	0.064163 
2933.729136  	0.065142 
2935.657952  	0.066113 
2937.586768  	0.066903 
2939.515584  	0.067712 
2941.444400  	0.068528 
2943.373216  	0.069195 
2945.302032  	0.069471 
2947.230848  	0.069602 
2949.159664  	0.069787 
2951.088480  	0.069720 
2953.017296  	0.069611 
2954.946112  	0.069385 
2956.874928  	0.069196 
2958.803744  	0.068734 
2960.732560  	0.068147 
2962.661376  	0.067581 
2964.590192  	0.067065 
2966.519008  	0.066351 
2968.447824  	0.065560 
2970.376640  	0.064856 
2972.305456  	0.064171 
2974.234272  	0.063439 
2976.163088  	0.062884 
2978.091904  	0.062439 
2980.020720  	0.062223 
2981.949536  	0.062190 
2983.878352  	0.062144 
2985.807168  	0.062142 
2987.735984  	0.062395 
2989.664800  	0.062901 
2991.593616  	0.063704 
2993.522432  	0.064280 
2995.451248  	0.064680 
2997.380064  	0.065375 
2999.308880  	0.066136 
3001.237696  	0.066896 
3003.166512  	0.067458 
3005.095328  	0.067911 
3007.024144  	0.068569 
3008.952960  	0.069406 
3010.881776  	0.070086 
3012.810592  	0.070700 
3014.739408  	0.071314 
3016.668224  	0.071824 
3018.597040  	0.072483 
3020.525856  	0.073130 
3022.454672  	0.073837 
3024.383488  	0.074513 
3026.312304  	0.075025 
3028.241120  	0.075566 
3030.169936  	0.076327 
3032.098752  	0.077071 
3034.027568  	0.077583 
3035.956384  	0.078183 
3037.885200  	0.078997 
3039.814016  	0.079633 
3041.742832  	0.080318 
3043.671648  	0.081151 
3045.600464  	0.082153 
3047.529280  	0.082884 
3049.458096  	0.083556 
3051.386912  	0.084349 
3053.315728  	0.085144 
3055.244544  	0.085925 
3057.173360  	0.086977 
3059.102176  	0.087969 
3061.030992  	0.088831 
3062.959808  	0.089655 
3064.888624  	0.090731 
3066.817440  	0.091924 
3068.746256  	0.092961 
3070.675072  	0.093861 
3072.603888  	0.094847 
3074.532704  	0.095981 
3076.461520  	0.096919 
3078.390336  	0.097753 
3080.319152  	0.098824 
3082.247968  	0.099807 
3084.176784  	0.100646 
3086.105600  	0.101601 
3088.034416  	0.102696 
3089.963232  	0.103914 
3091.892048  	0.104914 
3093.820864  	0.105983 
3095.749680  	0.107048 
3097.678496  	0.108037 
3099.607312  	0.109262 
3101.536128  	0.110395 
3103.464944  	0.111195 
3105.393760  	0.112133 
3107.322576  	0.113094 
3109.251392  	0.113948 
3111.180208  	0.114809 
3113.109024  	0.115361 
3115.037840  	0.116052 
3116.966656  	0.116826 
3118.895472  	0.117631 
3120.824288  	0.118263 
3122.753104  	0.118716 
3124.681920  	0.119080 
3126.610736  	0.119824 
3128.539552  	0.120631 
3130.468368  	0.121114 
3132.397184  	0.121797 
3134.326000  	0.122358 
3136.254816  	0.122789 
3138.183632  	0.123258 
3140.112448  	0.123844 
3142.041264  	0.124617 
3143.970080  	0.125256 
3145.898896  	0.125694 
3147.827712  	0.126336 
3149.756528  	0.126988 
3151.685344  	0.127538 
3153.614160  	0.128151 
3155.542976  	0.128660 
3157.471792  	0.129218 
3159.400608  	0.129738 
3161.329424  	0.130174 
3163.258240  	0.130765 
3165.187056  	0.131320 
3167.115872  	0.131772 
3169.044688  	0.132296 
3170.973504  	0.132764 
3172.902320  	0.133112 
3174.831136  	0.133168 
3176.759952  	0.133413 
3178.688768  	0.133817 
3180.617584  	0.134100 
3182.546400  	0.134089 
3184.475216  	0.133937 
3186.404032  	0.133807 
3188.332848  	0.133801 
3190.261664  	0.133432 
3192.190480  	0.133093 
3194.119296  	0.132846 
3196.048112  	0.132603 
3197.976928  	0.132329 
3199.905744  	0.131944 
3201.834560  	0.131392 
3203.763376  	0.130870 
3205.692192  	0.130442 
3207.621008  	0.129825 
3209.549824  	0.129499 
3211.478640  	0.129275 
3213.407456  	0.128855 
3215.336272  	0.128672 
3217.265088  	0.128074 
3219.193904  	0.127785 
3221.122720  	0.127874 
3223.051536  	0.127499 
3224.980352  	0.127011 
3226.909168  	0.126500 
3228.837984  	0.126008 
3230.766800  	0.125907 
3232.695616  	0.125721 
3234.624432  	0.125503 
3236.553248  	0.125580 
3238.482064  	0.125670 
3240.410880  	0.125783 
3242.339696  	0.125809 
3244.268512  	0.125855 
3246.197328  	0.126253 
3248.126144  	0.126221 
3250.054960  	0.126286 
3251.983776  	0.126398 
3253.912592  	0.126628 
3255.841408  	0.126977 
3257.770224  	0.127411 
3259.699040  	0.127851 
3261.627856  	0.127918 
3263.556672  	0.128006 
3265.485488  	0.128442 
3267.414304  	0.128436 
3269.343120  	0.128631 
3271.271936  	0.129018 
3273.200752  	0.129361 
3275.129568  	0.129559 
3277.058384  	0.129660 
3278.987200  	0.129733 
3280.916016  	0.129762 
3282.844832  	0.130092 
3284.773648  	0.130334 
3286.702464  	0.130349 
3288.631280  	0.130508 
3290.560096  	0.130674 
3292.488912  	0.131035 
3294.417728  	0.131264 
3296.346544  	0.131642 
3298.275360  	0.132282 
3300.204176  	0.132544 
3302.132992  	0.132836 
3304.061808  	0.133444 
3305.990624  	0.133664 
3307.919440  	0.133930 
3309.848256  	0.134356 
3311.777072  	0.134745 
3313.705888  	0.135055 
3315.634704  	0.135004 
3317.563520  	0.134984 
3319.492336  	0.135552 
3321.421152  	0.135885 
3323.349968  	0.135876 
3325.278784  	0.136023 
3327.207600  	0.136243 
3329.136416  	0.136367 
3331.065232  	0.136362 
3332.994048  	0.136382 
3334.922864  	0.136451 
3336.851680  	0.136324 
3338.780496  	0.136104 
3340.709312  	0.135689 
3342.638128  	0.135386 
3344.566944  	0.135008 
3346.495760  	0.134570 
3348.424576  	0.134127 
3350.353392  	0.133884 
3352.282208  	0.133458 
3354.211024  	0.133027 
3356.139840  	0.132669 
3358.068656  	0.132293 
3359.997472  	0.131903 
3361.926288  	0.131653 
3363.855104  	0.131257 
3365.783920  	0.130932 
3367.712736  	0.130311 
3369.641552  	0.129720 
3371.570368  	0.129493 
3373.499184  	0.129033 
3375.428000  	0.128238 
3377.356816  	0.127966 
3379.285632  	0.127867 
3381.214448  	0.127508 
3383.143264  	0.126947 
3385.072080  	0.126597 
3387.000896  	0.126010 
3388.929712  	0.125313 
3390.858528  	0.124471 
3392.787344  	0.124249 
3394.716160  	0.123961 
3396.644976  	0.123543 
3398.573792  	0.123058 
3400.502608  	0.122401 
3402.431424  	0.122023 
3404.360240  	0.121470 
3406.289056  	0.120638 
3408.217872  	0.120158 
3410.146688  	0.119473 
3412.075504  	0.118777 
3414.004320  	0.118351 
3415.933136  	0.117593 
3417.861952  	0.116701 
3419.790768  	0.116126 
3421.719584  	0.115796 
3423.648400  	0.115147 
3425.577216  	0.114333 
3427.506032  	0.113755 
3429.434848  	0.112977 
3431.363664  	0.112230 
3433.292480  	0.111589 
3435.221296  	0.110715 
3437.150112  	0.109728 
3439.078928  	0.108908 
3441.007744  	0.108155 
3442.936560  	0.107472 
3444.865376  	0.106447 
3446.794192  	0.105957 
3448.723008  	0.105783 
3450.651824  	0.104826 
3452.580640  	0.103820 
3454.509456  	0.103068 
3456.438272  	0.102151 
3458.367088  	0.101107 
3460.295904  	0.100188 
3462.224720  	0.099378 
3464.153536  	0.098362 
3466.082352  	0.097243 
3468.011168  	0.096363 
3469.939984  	0.095440 
3471.868800  	0.094309 
3473.797616  	0.093582 
3475.726432  	0.092828 
3477.655248  	0.091507 
3479.584064  	0.090188 
3481.512880  	0.089405 
3483.441696  	0.088601 
3485.370512  	0.087207 
3487.299328  	0.086076 
3489.228144  	0.085136 
3491.156960  	0.083954 
3493.085776  	0.082738 
3495.014592  	0.081882 
3496.943408  	0.081194 
3498.872224  	0.079923 
3500.801040  	0.078376 
3502.729856  	0.077897 
3504.658672  	0.077996 
3506.587488  	0.076599 
3508.516304  	0.075353 
3510.445120  	0.075024 
3512.373936  	0.074096 
3514.302752  	0.072735 
3516.231568  	0.071661 
3518.160384  	0.070968 
3520.089200  	0.069991 
3522.018016  	0.068843 
3523.946832  	0.068319 
3525.875648  	0.067536 
3527.804464  	0.066912 
3529.733280  	0.066398 
3531.662096  	0.065529 
3533.590912  	0.064082 
3535.519728  	0.063443 
3537.448544  	0.063156 
3539.377360  	0.061863 
3541.306176  	0.060710 
3543.234992  	0.059801 
3545.163808  	0.059288 
3547.092624  	0.058969 
3549.021440  	0.057703 
3550.950256  	0.056371 
3552.879072  	0.056124 
3554.807888  	0.055383 
3556.736704  	0.054281 
3558.665520  	0.053191 
3560.594336  	0.052211 
3562.523152  	0.051090 
3564.451968  	0.049628 
3566.380784  	0.049434 
3568.309600  	0.050401 
3570.238416  	0.049138 
3572.167232  	0.047387 
3574.096048  	0.046244 
3576.024864  	0.045287 
3577.953680  	0.044363 
3579.882496  	0.043561 
3581.811312  	0.042768 
3583.740128  	0.041301 
3585.668944  	0.040004 
3587.597760  	0.041041 
3589.526576  	0.040597 
3591.455392  	0.037992 
3593.384208  	0.036578 
3595.313024  	0.036196 
3597.241840  	0.035641 
3599.170656  	0.034429 
3601.099472  	0.033829 
3603.028288  	0.032882 
3604.957104  	0.030948 
3606.885920  	0.029763 
3608.814736  	0.029974 
3610.743552  	0.028544 
3612.672368  	0.027401 
3614.601184  	0.026778 
3616.530000  	0.024775 
3618.458816  	0.024143 
3620.387632  	0.025128 
3622.316448  	0.023733 
3624.245264  	0.021526 
3626.174080  	0.018866 
3628.102896  	0.018323 
3630.031712  	0.020782 
3631.960528  	0.018620 
3633.889344  	0.017588 
3635.818160  	0.016871 
3637.746976  	0.015748 
3639.675792  	0.014669 
3641.604608  	0.013454 
3643.533424  	0.012277 
3645.462240  	0.010129 
3647.391056  	0.009519 
3649.319872  	0.011256 
3651.248688  	0.012335 
3653.177504  	0.009597 
3655.106320  	0.007971 
3657.035136  	0.008619 
3658.963952  	0.007575 
3660.892768  	0.006692 
3662.821584  	0.005917 
3664.750400  	0.005095 
3666.679216  	0.004024 
3668.608032  	0.003229 
3670.536848  	0.005236 
3672.465664  	0.003760 
3674.394480  	0.002421 
3676.323296  	0.005729 
3678.252112  	0.004563 
3680.180928  	0.003956 
3682.109744  	0.003234 
3684.038560  	0.002394 
3685.967376  	0.001258 
3687.896192  	0.001375 
3689.825008  	0.003184 
3691.753824  	0.003548 
3693.682640  	0.002850 
3695.611456  	0.002516 
3697.540272  	0.002358 
3699.469088  	0.001652 
3701.397904  	0.002408 
3703.326720  	0.003065 
3705.255536  	0.002155 
3707.184352  	0.001386 
3709.113168  	0.001281 
3711.041984  	0.002647 
3712.970800  	0.003885 
3714.899616  	0.002850 
3716.828432  	0.001871 
3718.757248  	0.001881 
3720.686064  	0.001700 
3722.614880  	0.001662 
3724.543696  	0.001839 
3726.472512  	0.002509 
3728.401328  	0.002209 
3730.330144  	0.000876 
3732.258960  	0.001251 
3734.187776  	0.002136 
3736.116592  	0.003614 
3738.045408  	0.003253 
3739.974224  	0.002049 
3741.903040  	0.000455 
3743.831856  	0.000953 
3745.760672  	0.003121 
3747.689488  	0.000884 
3749.618304  	0.001318 
3751.547120  	0.003792 
3753.475936  	0.003615 
3755.404752  	0.002029 
3757.333568  	0.001687 
3759.262384  	0.002534 
3761.191200  	0.002962 
3763.120016  	0.001684 
3765.048832  	0.001760 
3766.977648  	0.002107 
3768.906464  	0.002190 
3770.835280  	0.003211 
3772.764096  	0.002644 
3774.692912  	0.001993 
3776.621728  	0.001388 
3778.550544  	0.001580 
3780.479360  	0.002669 
3782.408176  	0.001929 
3784.336992  	0.001830 
3786.265808  	0.002272 
3788.194624  	0.002170 
3790.123440  	0.001966 
3792.052256  	0.001735 
3793.981072  	0.001316 
3795.909888  	0.001488 
3797.838704  	0.001599 
3799.767520  	0.000811 
3801.696336  	0.002717 
3803.625152  	0.002520 
3805.553968  	0.001071 
3807.482784  	0.002463 
3809.411600  	0.002257 
3811.340416  	0.001623 
3813.269232  	0.000646 
3815.198048  	0.000893 
3817.126864  	0.002301 
3819.055680  	0.000924 
3820.984496  	0.002747 
3822.913312  	0.003735 
3824.842128  	0.001944 
3826.770944  	0.001930 
3828.699760  	0.001670 
3830.628576  	0.001379 
3832.557392  	0.001609 
3834.486208  	0.001140 
3836.415024  	0.001117 
3838.343840  	0.002323 
3840.272656  	0.002852 
3842.201472  	0.002318 
3844.130288  	0.002325 
3846.059104  	0.001815 
3847.987920  	0.000820 
3849.916736  	-0.000340 
3851.845552  	-0.000844 
3853.774368  	0.003311 
3855.703184  	0.003849 
3857.632000  	0.002273 
3859.560816  	0.001206 
3861.489632  	0.000888 
3863.418448  	0.001434 
3865.347264  	0.002581 
3867.276080  	0.001162 
3869.204896  	0.000857 
3871.133712  	0.002440 
3873.062528  	0.001849 
3874.991344  	0.002748 
3876.920160  	0.001701 
3878.848976  	0.001206 
3880.777792  	0.002451 
3882.706608  	0.001787 
3884.635424  	0.001411 
3886.564240  	0.003133 
3888.493056  	0.001618 
3890.421872  	0.001125 
3892.350688  	0.002400 
3894.279504  	0.002251 
3896.208320  	0.001275 
3898.137136  	0.000871 
3900.065952  	0.001500 
3901.994768  	0.001841 
3903.923584  	0.002861 
3905.852400  	0.003162 
3907.781216  	0.002220 
3909.710032  	0.001750 
3911.638848  	0.001779 
3913.567664  	0.001674 
3915.496480  	0.001717 
3917.425296  	0.002276 
3919.354112  	0.002232 
3921.282928  	0.001909 
3923.211744  	0.001810 
3925.140560  	0.002436 
3927.069376  	0.001926 
3928.998192  	0.001485 
3930.927008  	0.002050 
3932.855824  	0.002676 
3934.784640  	0.002279 
3936.713456  	0.001800 
3938.642272  	0.001786 
3940.571088  	0.001622 
3942.499904  	0.002283 
3944.428720  	0.002489 
3946.357536  	0.001776 
3948.286352  	0.001751 
3950.215168  	0.001963 
3952.143984  	0.002060 
3954.072800  	0.002068 
3956.001616  	0.001985 
3957.930432  	0.002043 
3959.859248  	0.001947 
3961.788064  	0.002197 
3963.716880  	0.002434 
3965.645696  	0.002306 
3967.574512  	0.002052 
3969.503328  	0.001973 
3971.432144  	0.001877 
3973.360960  	0.001970 
3975.289776  	0.002210 
3977.218592  	0.002281 
3979.147408  	0.002235 
3981.076224  	0.002171 
3983.005040  	0.002314 
3984.933856  	0.002282 
3986.862672  	0.002192 
3988.791488  	0.002221 
3990.720304  	0.002287 
3992.649120  	0.002265 
3994.577936  	0.002259 
3996.506752  	0.002019 
3998.435568  	0.001895 
4000.364384  	0.001951 