##TITLE=No Description
##DATA TYPE=INFRARED SPECTRUM
##XUNITS=1/CM
##YUNITS=Abs
399.264912  	0.285480 
401.193728  	0.275916 
403.122544  	0.279928 
405.051360  	0.281707 
406.980176  	0.280182 
408.908992  	0.266190 
410.837808  	0.264748 
412.766624  	0.274143 
414.695440  	0.279980 
416.624256  	0.272110 
418.553072  	0.265954 
420.481888  	0.267490 
422.410704  	0.273536 
424.339520  	0.272946 
426.268336  	0.268895 
428.197152  	0.263126 
430.125968  	0.263666 
432.054784  	0.266725 
433.983600  	0.269981 
435.912416  	0.266856 
437.841232  	0.263504 
439.770048  	0.263583 
441.698864  	0.264642 
443.627680  	0.261474 
445.556496  	0.260377 
447.485312  	0.259088 
449.414128  	0.260153 
451.342944  	0.261530 
453.271760  	0.260046 
455.200576  	0.260234 
457.129392  	0.266910 
459.058208  	0.267618 
460.987024  	0.268700 
462.915840  	0.267610 
464.844656  	0.267833 
466.773472  	0.266883 
468.702288  	0.268671 
470.631104  	0.271748 
472.559920  	0.274419 
474.488736  	0.275660 
476.417552  	0.277312 
478.346368  	0.276096 
480.275184  	0.278305 
482.204000  	0.278356 
484.132816  	0.277544 
486.061632  	0.278527 
487.990448  	0.282504 
489.919264  	0.282860 
491.848080  	0.284488 
493.776896  	0.283421 
495.705712  	0.283829 
497.634528  	0.284290 
499.563344  	0.285668 
501.492160  	0.286492 
503.420976  	0.289193 
505.349792  	0.289199 
507.278608  	0.291046 
509.207424  	0.293538 
511.136240  	0.294940 
513.065056  	0.295380 
514.993872  	0.298538 
516.922688  	0.302455 
518.851504  	0.305866 
520.780320  	0.307052 
522.709136  	0.308201 
524.637952  	0.309732 
526.566768  	0.312640 
528.495584  	0.313080 
530.424400  	0.313721 
532.353216  	0.313445 
534.282032  	0.312027 
536.210848  	0.308958 
538.139664  	0.306766 
540.068480  	0.303182 
541.997296  	0.300958 
543.926112  	0.298453 
545.854928  	0.296399 
547.783744  	0.294981 
549.712560  	0.293190 
551.641376  	0.290538 
553.570192  	0.289117 
555.499008  	0.287638 
557.427824  	0.285863 
559.356640  	0.283142 
561.285456  	0.281827 
563.214272  	0.279954 
565.143088  	0.277698 
567.071904  	0.275696 
569.000720  	0.273502 
570.929536  	0.270435 
572.858352  	0.268347 
574.787168  	0.267014 
576.715984  	0.266365 
578.644800  	0.264533 
580.573616  	0.261881 
582.502432  	0.258569 
584.431248  	0.256423 
586.360064  	0.254069 
588.288880  	0.253189 
590.217696  	0.251785 
592.146512  	0.249829 
594.075328  	0.248468 
596.004144  	0.247627 
597.932960  	0.246077 
599.861776  	0.244827 
601.790592  	0.243835 
603.719408  	0.243480 
605.648224  	0.242993 
607.577040  	0.242708 
609.505856  	0.242316 
611.434672  	0.241980 
613.363488  	0.241428 
615.292304  	0.241081 
617.221120  	0.240531 
619.149936  	0.239794 
621.078752  	0.239049 
623.007568  	0.238897 
624.936384  	0.238374 
626.865200  	0.237287 
628.794016  	0.236308 
630.722832  	0.236993 
632.651648  	0.237469 
634.580464  	0.237827 
636.509280  	0.239067 
638.438096  	0.240465 
640.366912  	0.240992 
642.295728  	0.241036 
644.224544  	0.240080 
646.153360  	0.238127 
648.082176  	0.236004 
650.010992  	0.234247 
651.939808  	0.231963 
653.868624  	0.229228 
655.797440  	0.226522 
657.726256  	0.224173 
659.655072  	0.221345 
661.583888  	0.218469 
663.512704  	0.215289 
665.441520  	0.213405 
667.370336  	0.209889 
669.299152  	0.204489 
671.227968  	0.203119 
673.156784  	0.201147 
675.085600  	0.199303 
677.014416  	0.197658 
678.943232  	0.195831 
680.872048  	0.194560 
682.800864  	0.193853 
684.729680  	0.193193 
686.658496  	0.192762 
688.587312  	0.191697 
690.516128  	0.190020 
692.444944  	0.189226 
694.373760  	0.188962 
696.302576  	0.187789 
698.231392  	0.186100 
700.160208  	0.184487 
702.089024  	0.183120 
704.017840  	0.181816 
705.946656  	0.179983 
707.875472  	0.178209 
709.804288  	0.176573 
711.733104  	0.175132 
713.661920  	0.173782 
715.590736  	0.173002 
717.519552  	0.172707 
719.448368  	0.173182 
721.377184  	0.173946 
723.306000  	0.174947 
725.234816  	0.176002 
727.163632  	0.176423 
729.092448  	0.175569 
731.021264  	0.173431 
732.950080  	0.171198 
734.878896  	0.168905 
736.807712  	0.166163 
738.736528  	0.164174 
740.665344  	0.162608 
742.594160  	0.161243 
744.522976  	0.160417 
746.451792  	0.159391 
748.380608  	0.158440 
750.309424  	0.157527 
752.238240  	0.156894 
754.167056  	0.156496 
756.095872  	0.155780 
758.024688  	0.155594 
759.953504  	0.155409 
761.882320  	0.156009 
763.811136  	0.157131 
765.739952  	0.156986 
767.668768  	0.155645 
769.597584  	0.154175 
771.526400  	0.153785 
773.455216  	0.155218 
775.384032  	0.158447 
777.312848  	0.163001 
779.241664  	0.167347 
781.170480  	0.169036 
783.099296  	0.167214 
785.028112  	0.163349 
786.956928  	0.158863 
788.885744  	0.155110 
790.814560  	0.152259 
792.743376  	0.150213 
794.672192  	0.149120 
796.601008  	0.148928 
798.529824  	0.147541 
800.458640  	0.144020 
802.387456  	0.140900 
804.316272  	0.139198 
806.245088  	0.138357 
808.173904  	0.137773 
810.102720  	0.137543 
812.031536  	0.137733 
813.960352  	0.138356 
815.889168  	0.138924 
817.817984  	0.139203 
819.746800  	0.139600 
821.675616  	0.139875 
823.604432  	0.139958 
825.533248  	0.139954 
827.462064  	0.139875 
829.390880  	0.139411 
831.319696  	0.138525 
833.248512  	0.137305 
835.177328  	0.135686 
837.106144  	0.133810 
839.034960  	0.131355 
840.963776  	0.128810 
842.892592  	0.126215 
844.821408  	0.123359 
846.750224  	0.120641 
848.679040  	0.118454 
850.607856  	0.116718 
852.536672  	0.115085 
854.465488  	0.113854 
856.394304  	0.112908 
858.323120  	0.111756 
860.251936  	0.110162 
862.180752  	0.108253 
864.109568  	0.106069 
866.038384  	0.104033 
867.967200  	0.102446 
869.896016  	0.100793 
871.824832  	0.099944 
873.753648  	0.099749 
875.682464  	0.100206 
877.611280  	0.100275 
879.540096  	0.100652 
881.468912  	0.102360 
883.397728  	0.103546 
885.326544  	0.104573 
887.255360  	0.104857 
889.184176  	0.103925 
891.112992  	0.102239 
893.041808  	0.100990 
894.970624  	0.099445 
896.899440  	0.096940 
898.828256  	0.093808 
900.757072  	0.090780 
902.685888  	0.088538 
904.614704  	0.087415 
906.543520  	0.087622 
908.472336  	0.088848 
910.401152  	0.091039 
912.329968  	0.093552 
914.258784  	0.096341 
916.187600  	0.099085 
918.116416  	0.101385 
920.045232  	0.102915 
921.974048  	0.103762 
923.902864  	0.104106 
925.831680  	0.104119 
927.760496  	0.104213 
929.689312  	0.104457 
931.618128  	0.105031 
933.546944  	0.105627 
935.475760  	0.106095 
937.404576  	0.106255 
939.333392  	0.106263 
941.262208  	0.106678 
943.191024  	0.108000 
945.119840  	0.110839 
947.048656  	0.115422 
948.977472  	0.121401 
950.906288  	0.128470 
952.835104  	0.136462 
954.763920  	0.144889 
956.692736  	0.152855 
958.621552  	0.159885 
960.550368  	0.164983 
962.479184  	0.167868 
964.408000  	0.167877 
966.336816  	0.164776 
968.265632  	0.158945 
970.194448  	0.150910 
972.123264  	0.141124 
974.052080  	0.130654 
975.980896  	0.120286 
977.909712  	0.110552 
979.838528  	0.101740 
981.767344  	0.094240 
983.696160  	0.088568 
985.624976  	0.084914 
987.553792  	0.083160 
989.482608  	0.083536 
991.411424  	0.085874 
993.340240  	0.089587 
995.269056  	0.094291 
997.197872  	0.099448 
999.126688  	0.104716 
1001.055504  	0.109802 
1002.984320  	0.114939 
1004.913136  	0.119935 
1006.841952  	0.124652 
1008.770768  	0.128655 
1010.699584  	0.131388 
1012.628400  	0.132991 
1014.557216  	0.133412 
1016.486032  	0.133374 
1018.414848  	0.133247 
1020.343664  	0.132895 
1022.272480  	0.132125 
1024.201296  	0.130624 
1026.130112  	0.127273 
1028.058928  	0.125811 
1029.987744  	0.128216 
1031.916560  	0.129234 
1033.845376  	0.129307 
1035.774192  	0.129093 
1037.703008  	0.129965 
1039.631824  	0.133871 
1041.560640  	0.139620 
1043.489456  	0.147501 
1045.418272  	0.157585 
1047.347088  	0.169445 
1049.275904  	0.181236 
1051.204720  	0.191583 
1053.133536  	0.199058 
1055.062352  	0.203384 
1056.991168  	0.204647 
1058.919984  	0.207060 
1060.848800  	0.209212 
1062.777616  	0.207715 
1064.706432  	0.202385 
1066.635248  	0.198177 
1068.564064  	0.197785 
1070.492880  	0.194542 
1072.421696  	0.188317 
1074.350512  	0.183541 
1076.279328  	0.181660 
1078.208144  	0.182798 
1080.136960  	0.186223 
1082.065776  	0.190894 
1083.994592  	0.194596 
1085.923408  	0.196394 
1087.852224  	0.196067 
1089.781040  	0.194557 
1091.709856  	0.192042 
1093.638672  	0.186811 
1095.567488  	0.178887 
1097.496304  	0.169871 
1099.425120  	0.160152 
1101.353936  	0.150262 
1103.282752  	0.140519 
1105.211568  	0.131155 
1107.140384  	0.121768 
1109.069200  	0.112750 
1110.998016  	0.104371 
1112.926832  	0.096836 
1114.855648  	0.090048 
1116.784464  	0.083620 
1118.713280  	0.077360 
1120.642096  	0.071506 
1122.570912  	0.066110 
1124.499728  	0.060877 
1126.428544  	0.056183 
1128.357360  	0.052098 
1130.286176  	0.048770 
1132.214992  	0.045623 
1134.143808  	0.042989 
1136.072624  	0.040672 
1138.001440  	0.038790 
1139.930256  	0.036604 
1141.859072  	0.034635 
1143.787888  	0.032550 
1145.716704  	0.030473 
1147.645520  	0.028448 
1149.574336  	0.026839 
1151.503152  	0.025563 
1153.431968  	0.025161 
1155.360784  	0.025240 
1157.289600  	0.025727 
1159.218416  	0.026753 
1161.147232  	0.028417 
1163.076048  	0.030091 
1165.004864  	0.031899 
1166.933680  	0.033695 
1168.862496  	0.035608 
1170.791312  	0.037428 
1172.720128  	0.039881 
1174.648944  	0.042125 
1176.577760  	0.044266 
1178.506576  	0.046282 
1180.435392  	0.048474 
1182.364208  	0.050643 
1184.293024  	0.053047 
1186.221840  	0.055587 
1188.150656  	0.058702 
1190.079472  	0.062224 
1192.008288  	0.066444 
1193.937104  	0.071346 
1195.865920  	0.077100 
1197.794736  	0.083379 
1199.723552  	0.090456 
1201.652368  	0.097773 
1203.581184  	0.105317 
1205.510000  	0.112736 
1207.438816  	0.119836 
1209.367632  	0.126349 
1211.296448  	0.132044 
1213.225264  	0.136976 
1215.154080  	0.140938 
1217.082896  	0.143957 
1219.011712  	0.145914 
1220.940528  	0.147513 
1222.869344  	0.148632 
1224.798160  	0.149139 
1226.726976  	0.149195 
1228.655792  	0.148844 
1230.584608  	0.148063 
1232.513424  	0.146974 
1234.442240  	0.145293 
1236.371056  	0.142852 
1238.299872  	0.139404 
1240.228688  	0.133687 
1242.157504  	0.127904 
1244.086320  	0.123417 
1246.015136  	0.117580 
1247.943952  	0.110828 
1249.872768  	0.104131 
1251.801584  	0.098409 
1253.730400  	0.092678 
1255.659216  	0.086999 
1257.588032  	0.081617 
1259.516848  	0.076548 
1261.445664  	0.071862 
1263.374480  	0.067633 
1265.303296  	0.064088 
1267.232112  	0.061213 
1269.160928  	0.058979 
1271.089744  	0.057346 
1273.018560  	0.056595 
1274.947376  	0.056510 
1276.876192  	0.056707 
1278.805008  	0.056495 
1280.733824  	0.055548 
1282.662640  	0.053917 
1284.591456  	0.052035 
1286.520272  	0.050192 
1288.449088  	0.048896 
1290.377904  	0.048195 
1292.306720  	0.048161 
1294.235536  	0.048086 
1296.164352  	0.047155 
1298.093168  	0.045193 
1300.021984  	0.042869 
1301.950800  	0.040389 
1303.879616  	0.038045 
1305.808432  	0.035566 
1307.737248  	0.033150 
1309.666064  	0.030913 
1311.594880  	0.029152 
1313.523696  	0.027676 
1315.452512  	0.026780 
1317.381328  	0.026306 
1319.310144  	0.026188 
1321.238960  	0.026283 
1323.167776  	0.026869 
1325.096592  	0.027598 
1327.025408  	0.028209 
1328.954224  	0.028228 
1330.883040  	0.027869 
1332.811856  	0.027277 
1334.740672  	0.026914 
1336.669488  	0.026563 
1338.598304  	0.026127 
1340.527120  	0.024896 
1342.455936  	0.024175 
1344.384752  	0.024113 
1346.313568  	0.024284 
1348.242384  	0.024679 
1350.171200  	0.025630 
1352.100016  	0.026810 
1354.028832  	0.028245 
1355.957648  	0.029639 
1357.886464  	0.031344 
1359.815280  	0.033122 
1361.744096  	0.034508 
1363.672912  	0.034921 
1365.601728  	0.036029 
1367.530544  	0.037048 
1369.459360  	0.036988 
1371.388176  	0.036823 
1373.316992  	0.035637 
1375.245808  	0.032508 
1377.174624  	0.030488 
1379.103440  	0.028143 
1381.032256  	0.025889 
1382.961072  	0.024261 
1384.889888  	0.023925 
1386.818704  	0.023048 
1388.747520  	0.021344 
1390.676336  	0.019841 
1392.605152  	0.017284 
1394.533968  	0.015192 
1396.462784  	0.017633 
1398.391600  	0.018920 
1400.320416  	0.018013 
1402.249232  	0.018658 
1404.178048  	0.019031 
1406.106864  	0.019241 
1408.035680  	0.021062 
1409.964496  	0.023197 
1411.893312  	0.025511 
1413.822128  	0.028253 
1415.750944  	0.031460 
1417.679760  	0.033414 
1419.608576  	0.032425 
1421.537392  	0.033289 
1423.466208  	0.033784 
1425.395024  	0.032077 
1427.323840  	0.031692 
1429.252656  	0.029808 
1431.181472  	0.028175 
1433.110288  	0.028516 
1435.039104  	0.029591 
1436.967920  	0.027687 
1438.896736  	0.028012 
1440.825552  	0.029457 
1442.754368  	0.029924 
1444.683184  	0.030173 
1446.612000  	0.030214 
1448.540816  	0.028696 
1450.469632  	0.029000 
1452.398448  	0.029920 
1454.327264  	0.031561 
1456.256080  	0.031299 
1458.184896  	0.027458 
1460.113712  	0.029027 
1462.042528  	0.031513 
1463.971344  	0.031779 
1465.900160  	0.031372 
1467.828976  	0.033930 
1469.757792  	0.037533 
1471.686608  	0.039996 
1473.615424  	0.042798 
1475.544240  	0.047621 
1477.473056  	0.051925 
1479.401872  	0.055402 
1481.330688  	0.057656 
1483.259504  	0.059119 
1485.188320  	0.060628 
1487.117136  	0.060520 
1489.045952  	0.059125 
1490.974768  	0.055808 
1492.903584  	0.055019 
1494.832400  	0.053609 
1496.761216  	0.048077 
1498.690032  	0.042891 
1500.618848  	0.039969 
1502.547664  	0.038305 
1504.476480  	0.037210 
1506.405296  	0.030977 
1508.334112  	0.025226 
1510.262928  	0.026616 
1512.191744  	0.026195 
1514.120560  	0.026243 
1516.049376  	0.025857 
1517.978192  	0.024831 
1519.907008  	0.026935 
1521.835824  	0.026018 
1523.764640  	0.029142 
1525.693456  	0.032438 
1527.622272  	0.033657 
1529.551088  	0.034882 
1531.479904  	0.035809 
1533.408720  	0.032290 
1535.337536  	0.029802 
1537.266352  	0.030882 
1539.195168  	0.026045 
1541.123984  	0.017950 
1543.052800  	0.019016 
1544.981616  	0.018978 
1546.910432  	0.019299 
1548.839248  	0.020188 
1550.768064  	0.019621 
1552.696880  	0.020402 
1554.625696  	0.020995 
1556.554512  	0.022763 
1558.483328  	0.020816 
1560.412144  	0.019294 
1562.340960  	0.026806 
1564.269776  	0.030814 
1566.198592  	0.034921 
1568.127408  	0.038758 
1570.056224  	0.041433 
1571.985040  	0.046817 
1573.913856  	0.051910 
1575.842672  	0.052200 
1577.771488  	0.052649 
1579.700304  	0.054820 
1581.629120  	0.054970 
1583.557936  	0.054480 
1585.486752  	0.055143 
1587.415568  	0.056985 
1589.344384  	0.060243 
1591.273200  	0.064609 
1593.202016  	0.069999 
1595.130832  	0.075491 
1597.059648  	0.081366 
1598.988464  	0.086626 
1600.917280  	0.090983 
1602.846096  	0.093601 
1604.774912  	0.095362 
1606.703728  	0.095649 
1608.632544  	0.094860 
1610.561360  	0.093321 
1612.490176  	0.092609 
1614.418992  	0.092025 
1616.347808  	0.089546 
1618.276624  	0.089217 
1620.205440  	0.093585 
1622.134256  	0.096289 
1624.063072  	0.099864 
1625.991888  	0.105546 
1627.920704  	0.111811 
1629.849520  	0.119068 
1631.778336  	0.127063 
1633.707152  	0.133202 
1635.635968  	0.138498 
1637.564784  	0.145398 
1639.493600  	0.152345 
1641.422416  	0.157094 
1643.351232  	0.161168 
1645.280048  	0.162405 
1647.208864  	0.161452 
1649.137680  	0.162958 
1651.066496  	0.165206 
1652.995312  	0.158927 
1654.924128  	0.156475 
1656.852944  	0.158341 
1658.781760  	0.157434 
1660.710576  	0.154864 
1662.639392  	0.150566 
1664.568208  	0.147383 
1666.497024  	0.146597 
1668.425840  	0.142705 
1670.354656  	0.136565 
1672.283472  	0.134471 
1674.212288  	0.132908 
1676.141104  	0.128577 
1678.069920  	0.128421 
1679.998736  	0.127940 
1681.927552  	0.127636 
1683.856368  	0.123198 
1685.785184  	0.121208 
1687.714000  	0.123894 
1689.642816  	0.123645 
1691.571632  	0.122654 
1693.500448  	0.122819 
1695.429264  	0.119190 
1697.358080  	0.115832 
1699.286896  	0.114427 
1701.215712  	0.107964 
1703.144528  	0.108429 
1705.073344  	0.105343 
1707.002160  	0.099906 
1708.930976  	0.096827 
1710.859792  	0.092502 
1712.788608  	0.087665 
1714.717424  	0.081239 
1716.646240  	0.072401 
1718.575056  	0.060167 
1720.503872  	0.054778 
1722.432688  	0.050347 
1724.361504  	0.043093 
1726.290320  	0.037532 
1728.219136  	0.032795 
1730.147952  	0.028021 
1732.076768  	0.024890 
1734.005584  	0.018021 
1735.934400  	0.013039 
1737.863216  	0.014854 
1739.792032  	0.011805 
1741.720848  	0.010398 
1743.649664  	0.009635 
1745.578480  	0.009217 
1747.507296  	0.008120 
1749.436112  	0.006754 
1751.364928  	0.004954 
1753.293744  	0.005068 
1755.222560  	0.005956 
1757.151376  	0.004689 
1759.080192  	0.004520 
1761.009008  	0.004344 
1762.937824  	0.002340 
1764.866640  	0.003312 
1766.795456  	0.004010 
1768.724272  	0.003383 
1770.653088  	0.002856 
1772.581904  	-0.000107 
1774.510720  	-0.000145 
1776.439536  	0.001421 
1778.368352  	0.002080 
1780.297168  	0.001685 
1782.225984  	0.001066 
1784.154800  	0.001661 
1786.083616  	0.000907 
1788.012432  	0.001609 
1789.941248  	0.002406 
1791.870064  	0.000859 
1793.798880  	-0.001006 
1795.727696  	0.000671 
1797.656512  	0.000846 
1799.585328  	0.000644 
1801.514144  	-0.000138 
1803.442960  	0.000081 
1805.371776  	0.000204 
1807.300592  	0.000678 
1809.229408  	0.000449 
1811.158224  	-0.000229 
1813.087040  	-0.000624 
1815.015856  	0.000202 
1816.944672  	0.000201 
1818.873488  	0.000157 
1820.802304  	0.000076 
1822.731120  	0.000908 
1824.659936  	0.000167 
1826.588752  	-0.000492 
1828.517568  	-0.000383 
1830.446384  	-0.001640 
1832.375200  	-0.001240 
1834.304016  	-0.000137 
1836.232832  	-0.000184 
1838.161648  	-0.000141 
1840.090464  	-0.000164 
1842.019280  	0.000815 
1843.948096  	-0.000785 
1845.876912  	-0.001627 
1847.805728  	-0.000658 
1849.734544  	-0.000415 
1851.663360  	-0.000283 
1853.592176  	-0.000152 
1855.520992  	-0.000147 
1857.449808  	-0.000069 
1859.378624  	-0.000440 
1861.307440  	-0.000651 
1863.236256  	-0.000850 
1865.165072  	-0.000206 
1867.093888  	0.000046 
1869.022704  	-0.001090 
1870.951520  	-0.001691 
1872.880336  	-0.000536 
1874.809152  	-0.000596 
1876.737968  	-0.000638 
1878.666784  	-0.000934 
1880.595600  	-0.000488 
1882.524416  	-0.000544 
1884.453232  	-0.000647 
1886.382048  	-0.000964 
1888.310864  	-0.000808 
1890.239680  	-0.001689 
1892.168496  	-0.000982 
1894.097312  	-0.000650 
1896.026128  	-0.000764 
1897.954944  	-0.001021 
1899.883760  	-0.000726 
1901.812576  	-0.000934 
1903.741392  	-0.001081 
1905.670208  	-0.001079 
1907.599024  	-0.000433 
1909.527840  	-0.000759 
1911.456656  	-0.000487 
1913.385472  	-0.000283 
1915.314288  	0.000294 
1917.243104  	-0.000441 
1919.171920  	-0.001278 
1921.100736  	-0.000768 
1923.029552  	-0.000740 
1924.958368  	-0.001103 
1926.887184  	-0.000822 
1928.816000  	-0.001173 
1930.744816  	-0.000722 
1932.673632  	-0.000526 
1934.602448  	-0.000195 
1936.531264  	-0.000459 
1938.460080  	-0.000003 
1940.388896  	-0.000095 
1942.317712  	-0.000708 
1944.246528  	-0.001823 
1946.175344  	-0.001062 
1948.104160  	-0.000531 
1950.032976  	-0.000114 
1951.961792  	-0.000478 
1953.890608  	-0.000034 
1955.819424  	-0.000393 
1957.748240  	0.000216 
1959.677056  	-0.000152 
1961.605872  	0.000203 
1963.534688  	-0.000029 
1965.463504  	0.000687 
1967.392320  	-0.000765 
1969.321136  	-0.000474 
1971.249952  	0.000135 
1973.178768  	0.000595 
1975.107584  	-0.000377 
1977.036400  	0.000481 
1978.965216  	0.000801 
1980.894032  	0.000981 
1982.822848  	0.000327 
1984.751664  	0.000972 
1986.680480  	0.000019 
1988.609296  	0.000203 
1990.538112  	0.000091 
1992.466928  	-0.000293 
1994.395744  	-0.001318 
1996.324560  	-0.000279 
1998.253376  	-0.000208 
2000.182192  	-0.000816 
2002.111008  	-0.000911 
2004.039824  	0.000260 
2005.968640  	-0.000002 
2007.897456  	0.000867 
2009.826272  	-0.000047 
2011.755088  	0.000511 
2013.683904  	-0.000178 
2015.612720  	-0.000337 
2017.541536  	-0.000407 
2019.470352  	0.000736 
2021.399168  	0.000028 
2023.327984  	0.000405 
2025.256800  	0.000248 
2027.185616  	0.000580 
2029.114432  	0.000656 
2031.043248  	0.001647 
2032.972064  	0.001290 
2034.900880  	0.000842 
2036.829696  	-0.000038 
2038.758512  	0.000613 
2040.687328  	0.000140 
2042.616144  	0.000792 
2044.544960  	0.000348 
2046.473776  	0.000171 
2048.402592  	0.000193 
2050.331408  	0.000494 
2052.260224  	-0.000364 
2054.189040  	-0.000599 
2056.117856  	-0.000817 
2058.046672  	0.000112 
2059.975488  	-0.000187 
2061.904304  	-0.000526 
2063.833120  	-0.000577 
2065.761936  	-0.000755 
2067.690752  	-0.001144 
2069.619568  	-0.000708 
2071.548384  	-0.000662 
2073.477200  	-0.000782 
2075.406016  	-0.000725 
2077.334832  	-0.000095 
2079.263648  	-0.000247 
2081.192464  	-0.000105 
2083.121280  	-0.000208 
2085.050096  	-0.000298 
2086.978912  	-0.000521 
2088.907728  	-0.000095 
2090.836544  	-0.000170 
2092.765360  	0.000059 
2094.694176  	0.000102 
2096.622992  	0.000260 
2098.551808  	0.000429 
2100.480624  	0.000786 
2102.409440  	0.000275 
2104.338256  	-0.000159 
2106.267072  	-0.000064 
2108.195888  	0.000473 
2110.124704  	0.000298 
2112.053520  	0.000272 
2113.982336  	0.000311 
2115.911152  	0.000633 
2117.839968  	0.000547 
2119.768784  	0.000258 
2121.697600  	-0.000257 
2123.626416  	-0.000208 
2125.555232  	-0.000303 
2127.484048  	-0.000224 
2129.412864  	-0.000516 
2131.341680  	-0.000041 
2133.270496  	0.000459 
2135.199312  	0.000757 
2137.128128  	0.000947 
2139.056944  	0.001524 
2140.985760  	0.000945 
2142.914576  	0.000967 
2144.843392  	0.001188 
2146.772208  	0.001463 
2148.701024  	0.000643 
2150.629840  	0.000731 
2152.558656  	0.000186 
2154.487472  	0.000596 
2156.416288  	0.001518 
2158.345104  	0.002199 
2160.273920  	0.002723 
2162.202736  	0.003216 
2164.131552  	0.002040 
2166.060368  	0.002184 
2167.989184  	0.002745 
2169.918000  	0.003510 
2171.846816  	0.002373 
2173.775632  	0.001772 
2175.704448  	0.001825 
2177.633264  	0.002114 
2179.562080  	0.001876 
2181.490896  	0.002203 
2183.419712  	0.001493 
2185.348528  	0.001322 
2187.277344  	0.000918 
2189.206160  	0.000809 
2191.134976  	0.000503 
2193.063792  	0.000826 
2194.992608  	0.000845 
2196.921424  	0.001198 
2198.850240  	0.001143 
2200.779056  	0.000848 
2202.707872  	0.000199 
2204.636688  	0.000542 
2206.565504  	0.001371 
2208.494320  	0.001381 
2210.423136  	0.000299 
2212.351952  	0.000177 
2214.280768  	0.000146 
2216.209584  	0.000223 
2218.138400  	-0.000411 
2220.067216  	0.000080 
2221.996032  	0.000567 
2223.924848  	0.000961 
2225.853664  	0.001013 
2227.782480  	0.000711 
2229.711296  	0.000021 
2231.640112  	0.000088 
2233.568928  	-0.000017 
2235.497744  	0.000253 
2237.426560  	0.000038 
2239.355376  	0.000061 
2241.284192  	0.000305 
2243.213008  	0.000518 
2245.141824  	0.000118 
2247.070640  	0.000117 
2248.999456  	0.000222 
2250.928272  	0.000068 
2252.857088  	-0.000418 
2254.785904  	-0.000356 
2256.714720  	-0.000847 
2258.643536  	-0.000978 
2260.572352  	-0.001076 
2262.501168  	-0.001019 
2264.429984  	-0.001147 
2266.358800  	-0.000897 
2268.287616  	-0.000475 
2270.216432  	-0.000382 
2272.145248  	-0.000418 
2274.074064  	-0.000314 
2276.002880  	-0.000356 
2277.931696  	-0.000068 
2279.860512  	-0.000120 
2281.789328  	0.000011 
2283.718144  	-0.000046 
2285.646960  	0.000126 
2287.575776  	0.000204 
2289.504592  	0.000047 
2291.433408  	-0.000214 
2293.362224  	0.000035 
2295.291040  	0.000315 
2297.219856  	0.000461 
2299.148672  	0.000474 
2301.077488  	0.000694 
2303.006304  	0.000722 
2304.935120  	0.001039 
2306.863936  	0.001235 
2308.792752  	0.001389 
2310.721568  	0.001273 
2312.650384  	0.001123 
2314.579200  	0.000879 
2316.508016  	0.000588 
2318.436832  	0.000508 
2320.365648  	0.000154 
2322.294464  	-0.000597 
2324.223280  	-0.001284 
2326.152096  	-0.002114 
2328.080912  	-0.002736 
2330.009728  	-0.003737 
2331.938544  	-0.004799 
2333.867360  	-0.005173 
2335.796176  	-0.005431 
2337.724992  	-0.006047 
2339.653808  	-0.006059 
2341.582624  	-0.006278 
2343.511440  	-0.006491 
2345.440256  	-0.006503 
2347.369072  	-0.004392 
2349.297888  	-0.001349 
2351.226704  	-0.001119 
2353.155520  	-0.003565 
2355.084336  	-0.005406 
2357.013152  	-0.006913 
2358.941968  	-0.007759 
2360.870784  	-0.009218 
2362.799600  	-0.009659 
2364.728416  	-0.009661 
2366.657232  	-0.008446 
2368.586048  	-0.007058 
2370.514864  	-0.006083 
2372.443680  	-0.005361 
2374.372496  	-0.003941 
2376.301312  	-0.002639 
2378.230128  	-0.001660 
2380.158944  	-0.001067 
2382.087760  	-0.000635 
2384.016576  	-0.000526 
2385.945392  	-0.000583 
2387.874208  	-0.000670 
2389.803024  	-0.000649 
2391.731840  	-0.000721 
2393.660656  	-0.000737 
2395.589472  	-0.000811 
2397.518288  	-0.000641 
2399.447104  	-0.000805 
2401.375920  	-0.000950 
2403.304736  	-0.000945 
2405.233552  	-0.000755 
2407.162368  	-0.000765 
2409.091184  	-0.000762 
2411.020000  	-0.000828 
2412.948816  	-0.000965 
2414.877632  	-0.000819 
2416.806448  	-0.000435 
2418.735264  	-0.000599 
2420.664080  	-0.000815 
2422.592896  	-0.000859 
2424.521712  	-0.000805 
2426.450528  	-0.000938 
2428.379344  	-0.000822 
2430.308160  	-0.000541 
2432.236976  	-0.000207 
2434.165792  	-0.000440 
2436.094608  	-0.000611 
2438.023424  	-0.000532 
2439.952240  	-0.000318 
2441.881056  	-0.000288 
2443.809872  	-0.000386 
2445.738688  	-0.000241 
2447.667504  	0.000164 
2449.596320  	0.000066 
2451.525136  	-0.000015 
2453.453952  	-0.000050 
2455.382768  	-0.000019 
2457.311584  	0.000042 
2459.240400  	-0.000009 
2461.169216  	-0.000186 
2463.098032  	-0.000350 
2465.026848  	-0.000301 
2466.955664  	-0.000338 
2468.884480  	-0.000419 
2470.813296  	-0.000509 
2472.742112  	-0.000515 
2474.670928  	-0.000332 
2476.599744  	-0.000218 
2478.528560  	-0.000114 
2480.457376  	-0.000192 
2482.386192  	-0.000128 
2484.315008  	-0.000044 
2486.243824  	0.000029 
2488.172640  	-0.000056 
2490.101456  	-0.000043 
2492.030272  	0.000005 
2493.959088  	0.000078 
2495.887904  	0.000102 
2497.816720  	0.000262 
2499.745536  	0.000365 
2501.674352  	0.000392 
2503.603168  	0.000501 
2505.531984  	0.000314 
2507.460800  	0.000036 
2509.389616  	0.000271 
2511.318432  	0.000359 
2513.247248  	0.000385 
2515.176064  	0.000408 
2517.104880  	0.000522 
2519.033696  	0.000379 
2520.962512  	0.000440 
2522.891328  	0.000731 
2524.820144  	0.000875 
2526.748960  	0.000632 
2528.677776  	0.000760 
2530.606592  	0.000998 
2532.535408  	0.000978 
2534.464224  	0.000977 
2536.393040  	0.001016 
2538.321856  	0.001058 
2540.250672  	0.001128 
2542.179488  	0.001197 
2544.108304  	0.001316 
2546.037120  	0.001269 
2547.965936  	0.001146 
2549.894752  	0.001055 
2551.823568  	0.001097 
2553.752384  	0.001043 
2555.681200  	0.001342 
2557.610016  	0.001572 
2559.538832  	0.001625 
2561.467648  	0.001759 
2563.396464  	0.001860 
2565.325280  	0.001911 
2567.254096  	0.001911 
2569.182912  	0.001905 
2571.111728  	0.002007 
2573.040544  	0.001927 
2574.969360  	0.002045 
2576.898176  	0.002263 
2578.826992  	0.002093 
2580.755808  	0.001921 
2582.684624  	0.002072 
2584.613440  	0.002216 
2586.542256  	0.002284 
2588.471072  	0.002302 
2590.399888  	0.002395 
2592.328704  	0.002523 
2594.257520  	0.002443 
2596.186336  	0.002378 
2598.115152  	0.002460 
2600.043968  	0.002466 
2601.972784  	0.002714 
2603.901600  	0.002832 
2605.830416  	0.002855 
2607.759232  	0.002965 
2609.688048  	0.003168 
2611.616864  	0.003327 
2613.545680  	0.003426 
2615.474496  	0.003325 
2617.403312  	0.003269 
2619.332128  	0.003452 
2621.260944  	0.003568 
2623.189760  	0.003568 
2625.118576  	0.003616 
2627.047392  	0.003566 
2628.976208  	0.003592 
2630.905024  	0.003685 
2632.833840  	0.003811 
2634.762656  	0.003866 
2636.691472  	0.003941 
2638.620288  	0.004057 
2640.549104  	0.004165 
2642.477920  	0.004236 
2644.406736  	0.004415 
2646.335552  	0.004549 
2648.264368  	0.004631 
2650.193184  	0.004645 
2652.122000  	0.004775 
2654.050816  	0.004979 
2655.979632  	0.005064 
2657.908448  	0.005087 
2659.837264  	0.005278 
2661.766080  	0.005357 
2663.694896  	0.005354 
2665.623712  	0.005407 
2667.552528  	0.005575 
2669.481344  	0.005675 
2671.410160  	0.005748 
2673.338976  	0.005792 
2675.267792  	0.005866 
2677.196608  	0.006018 
2679.125424  	0.006144 
2681.054240  	0.006158 
2682.983056  	0.006232 
2684.911872  	0.006280 
2686.840688  	0.006388 
2688.769504  	0.006490 
2690.698320  	0.006473 
2692.627136  	0.006533 
2694.555952  	0.006690 
2696.484768  	0.006759 
2698.413584  	0.006840 
2700.342400  	0.006927 
2702.271216  	0.007051 
2704.200032  	0.007113 
2706.128848  	0.007159 
2708.057664  	0.007208 
2709.986480  	0.007268 
2711.915296  	0.007376 
2713.844112  	0.007561 
2715.772928  	0.007593 
2717.701744  	0.007655 
2719.630560  	0.007852 
2721.559376  	0.007982 
2723.488192  	0.008028 
2725.417008  	0.008121 
2727.345824  	0.008314 
2729.274640  	0.008405 
2731.203456  	0.008531 
2733.132272  	0.008733 
2735.061088  	0.008774 
2736.989904  	0.008811 
2738.918720  	0.008753 
2740.847536  	0.008806 
2742.776352  	0.008795 
2744.705168  	0.008835 
2746.633984  	0.008925 
2748.562800  	0.008987 
2750.491616  	0.009052 
2752.420432  	0.009183 
2754.349248  	0.009132 
2756.278064  	0.009101 
2758.206880  	0.008996 
2760.135696  	0.009006 
2762.064512  	0.009120 
2763.993328  	0.009178 
2765.922144  	0.009177 
2767.850960  	0.009235 
2769.779776  	0.009278 
2771.708592  	0.009259 
2773.637408  	0.009207 
2775.566224  	0.009190 
2777.495040  	0.009174 
2779.423856  	0.009276 
2781.352672  	0.009347 
2783.281488  	0.009260 
2785.210304  	0.009213 
2787.139120  	0.009219 
2789.067936  	0.009240 
2790.996752  	0.009323 
2792.925568  	0.009269 
2794.854384  	0.009212 
2796.783200  	0.009133 
2798.712016  	0.009059 
2800.640832  	0.009014 
2802.569648  	0.009178 
2804.498464  	0.009335 
2806.427280  	0.009286 
2808.356096  	0.009183 
2810.284912  	0.009228 
2812.213728  	0.009216 
2814.142544  	0.009174 
2816.071360  	0.009234 
2818.000176  	0.009115 
2819.928992  	0.008978 
2821.857808  	0.008923 
2823.786624  	0.008780 
2825.715440  	0.008777 
2827.644256  	0.008631 
2829.573072  	0.008488 
2831.501888  	0.008290 
2833.430704  	0.008074 
2835.359520  	0.007926 
2837.288336  	0.007696 
2839.217152  	0.007378 
2841.145968  	0.006963 
2843.074784  	0.006568 
2845.003600  	0.006197 
2846.932416  	0.005851 
2848.861232  	0.005646 
2850.790048  	0.005260 
2852.718864  	0.004672 
2854.647680  	0.004069 
2856.576496  	0.003408 
2858.505312  	0.002714 
2860.434128  	0.002152 
2862.362944  	0.001394 
2864.291760  	0.000567 
2866.220576  	-0.000021 
2868.149392  	-0.000290 
2870.078208  	-0.000496 
2872.007024  	-0.000649 
2873.935840  	-0.000667 
2875.864656  	-0.000715 
2877.793472  	-0.000975 
2879.722288  	-0.001344 
2881.651104  	-0.001826 
2883.579920  	-0.002177 
2885.508736  	-0.002114 
2887.437552  	-0.001894 
2889.366368  	-0.001869 
2891.295184  	-0.002087 
2893.224000  	-0.002337 
2895.152816  	-0.002352 
2897.081632  	-0.002641 
2899.010448  	-0.004286 
2900.939264  	-0.005825 
2902.868080  	-0.004545 
2904.796896  	-0.003176 
2906.725712  	-0.002685 
2908.654528  	-0.002237 
2910.583344  	-0.001872 
2912.512160  	-0.001233 
2914.440976  	-0.000062 
2916.369792  	0.000762 
2918.298608  	0.001098 
2920.227424  	0.001458 
2922.156240  	0.002073 
2924.085056  	0.002753 
2926.013872  	0.003494 
2927.942688  	0.004285 
2929.871504  	0.005016 
2931.800320  	0.005700 
2933.729136  	0.006273 
2935.657952  	0.006690 
2937.586768  	0.007233 
2939.515584  	0.007657 
2941.444400  	0.007778 
2943.373216  	0.007745 
2945.302032  	0.007993 
2947.230848  	0.008176 
2949.159664  	0.007871 
2951.088480  	0.007364 
2953.017296  	0.006863 
2954.946112  	0.006260 
2956.874928  	0.005579 
2958.803744  	0.004769 
2960.732560  	0.004049 
2962.661376  	0.003478 
2964.590192  	0.002628 
2966.519008  	0.001549 
2968.447824  	0.000562 
2970.376640  	-0.000371 
2972.305456  	-0.000803 
2974.234272  	-0.000541 
2976.163088  	-0.000314 
2978.091904  	-0.000343 
2980.020720  	-0.000307 
2981.949536  	-0.000040 
2983.878352  	-0.000177 
2985.807168  	-0.001114 
2987.735984  	-0.002096 
2989.664800  	-0.001830 
2991.593616  	0.001277 
2993.522432  	0.003316 
2995.451248  	0.003840 
2997.380064  	0.004655 
2999.308880  	0.005834 
3001.237696  	0.007075 
3003.166512  	0.008462 
3005.095328  	0.009840 
3007.024144  	0.011284 
3008.952960  	0.012733 
3010.881776  	0.014100 
3012.810592  	0.015472 
3014.739408  	0.016867 
3016.668224  	0.017874 
3018.597040  	0.018897 
3020.525856  	0.020015 
3022.454672  	0.021055 
3024.383488  	0.022107 
3026.312304  	0.022988 
3028.241120  	0.023916 
3030.169936  	0.024820 
3032.098752  	0.025525 
3034.027568  	0.026323 
3035.956384  	0.027077 
3037.885200  	0.027800 
3039.814016  	0.028247 
3041.742832  	0.028776 
3043.671648  	0.029255 
3045.600464  	0.029768 
3047.529280  	0.030209 
3049.458096  	0.030750 
3051.386912  	0.031543 
3053.315728  	0.031979 
3055.244544  	0.032280 
3057.173360  	0.032818 
3059.102176  	0.033385 
3061.030992  	0.033928 
3062.959808  	0.034444 
3064.888624  	0.034870 
3066.817440  	0.035382 
3068.746256  	0.036086 
3070.675072  	0.036785 
3072.603888  	0.037251 
3074.532704  	0.037773 
3076.461520  	0.038318 
3078.390336  	0.038904 
3080.319152  	0.039426 
3082.247968  	0.040012 
3084.176784  	0.040704 
3086.105600  	0.041412 
3088.034416  	0.042044 
3089.963232  	0.042625 
3091.892048  	0.043006 
3093.820864  	0.043553 
3095.749680  	0.044133 
3097.678496  	0.044683 
3099.607312  	0.045393 
3101.536128  	0.046133 
3103.464944  	0.046794 
3105.393760  	0.047303 
3107.322576  	0.047973 
3109.251392  	0.048730 
3111.180208  	0.049231 
3113.109024  	0.049709 
3115.037840  	0.050224 
3116.966656  	0.050757 
3118.895472  	0.051347 
3120.824288  	0.051824 
3122.753104  	0.052219 
3124.681920  	0.052609 
3126.610736  	0.053073 
3128.539552  	0.053702 
3130.468368  	0.054356 
3132.397184  	0.054745 
3134.326000  	0.055185 
3136.254816  	0.055613 
3138.183632  	0.056219 
3140.112448  	0.056769 
3142.041264  	0.057134 
3143.970080  	0.057498 
3145.898896  	0.058038 
3147.827712  	0.058555 
3149.756528  	0.059063 
3151.685344  	0.059457 
3153.614160  	0.059921 
3155.542976  	0.060358 
3157.471792  	0.060937 
3159.400608  	0.061552 
3161.329424  	0.062041 
3163.258240  	0.062302 
3165.187056  	0.062709 
3167.115872  	0.063224 
3169.044688  	0.063528 
3170.973504  	0.063834 
3172.902320  	0.064394 
3174.831136  	0.064830 
3176.759952  	0.065178 
3178.688768  	0.065327 
3180.617584  	0.065623 
3182.546400  	0.066089 
3184.475216  	0.066466 
3186.404032  	0.066484 
3188.332848  	0.066676 
3190.261664  	0.066955 
3192.190480  	0.067299 
3194.119296  	0.067186 
3196.048112  	0.067244 
3197.976928  	0.067193 
3199.905744  	0.067115 
3201.834560  	0.067060 
3203.763376  	0.067185 
3205.692192  	0.067259 
3207.621008  	0.067060 
3209.549824  	0.066958 
3211.478640  	0.066958 
3213.407456  	0.067052 
3215.336272  	0.066917 
3217.265088  	0.066717 
3219.193904  	0.066555 
3221.122720  	0.066563 
3223.051536  	0.066537 
3224.980352  	0.066388 
3226.909168  	0.066257 
3228.837984  	0.066072 
3230.766800  	0.065937 
3232.695616  	0.065957 
3234.624432  	0.065933 
3236.553248  	0.065945 
3238.482064  	0.066039 
3240.410880  	0.065988 
3242.339696  	0.066121 
3244.268512  	0.065885 
3246.197328  	0.065824 
3248.126144  	0.066150 
3250.054960  	0.066265 
3251.983776  	0.066302 
3253.912592  	0.066509 
3255.841408  	0.066762 
3257.770224  	0.066942 
3259.699040  	0.067199 
3261.627856  	0.067530 
3263.556672  	0.067585 
3265.485488  	0.067549 
3267.414304  	0.067730 
3269.343120  	0.068165 
3271.271936  	0.068385 
3273.200752  	0.068279 
3275.129568  	0.068208 
3277.058384  	0.068471 
3278.987200  	0.068836 
3280.916016  	0.069003 
3282.844832  	0.069134 
3284.773648  	0.069354 
3286.702464  	0.069615 
3288.631280  	0.069759 
3290.560096  	0.070032 
3292.488912  	0.070461 
3294.417728  	0.070646 
3296.346544  	0.070849 
3298.275360  	0.071026 
3300.204176  	0.071324 
3302.132992  	0.071733 
3304.061808  	0.071989 
3305.990624  	0.072343 
3307.919440  	0.072706 
3309.848256  	0.072842 
3311.777072  	0.073102 
3313.705888  	0.073458 
3315.634704  	0.073770 
3317.563520  	0.074163 
3319.492336  	0.074525 
3321.421152  	0.074603 
3323.349968  	0.074602 
3325.278784  	0.074896 
3327.207600  	0.075082 
3329.136416  	0.075002 
3331.065232  	0.075131 
3332.994048  	0.075359 
3334.922864  	0.075541 
3336.851680  	0.075467 
3338.780496  	0.075249 
3340.709312  	0.075293 
3342.638128  	0.075484 
3344.566944  	0.075312 
3346.495760  	0.074983 
3348.424576  	0.074641 
3350.353392  	0.074475 
3352.282208  	0.074421 
3354.211024  	0.074255 
3356.139840  	0.074075 
3358.068656  	0.073950 
3359.997472  	0.073560 
3361.926288  	0.073152 
3363.855104  	0.072942 
3365.783920  	0.072675 
3367.712736  	0.072241 
3369.641552  	0.072005 
3371.570368  	0.071574 
3373.499184  	0.071086 
3375.428000  	0.070745 
3377.356816  	0.070421 
3379.285632  	0.070431 
3381.214448  	0.070279 
3383.143264  	0.069838 
3385.072080  	0.069378 
3387.000896  	0.068953 
3388.929712  	0.068720 
3390.858528  	0.068587 
3392.787344  	0.068289 
3394.716160  	0.067795 
3396.644976  	0.067503 
3398.573792  	0.067304 
3400.502608  	0.067015 
3402.431424  	0.066621 
3404.360240  	0.066145 
3406.289056  	0.065618 
3408.217872  	0.065281 
3410.146688  	0.064987 
3412.075504  	0.064724 
3414.004320  	0.064353 
3415.933136  	0.064119 
3417.861952  	0.063708 
3419.790768  	0.063080 
3421.719584  	0.062370 
3423.648400  	0.061994 
3425.577216  	0.061705 
3427.506032  	0.061453 
3429.434848  	0.061105 
3431.363664  	0.060694 
3433.292480  	0.060064 
3435.221296  	0.059504 
3437.150112  	0.059242 
3439.078928  	0.058813 
3441.007744  	0.058307 
3442.936560  	0.057865 
3444.865376  	0.057681 
3446.794192  	0.056827 
3448.723008  	0.055832 
3450.651824  	0.055674 
3452.580640  	0.055368 
3454.509456  	0.054935 
3456.438272  	0.054369 
3458.367088  	0.053949 
3460.295904  	0.053391 
3462.224720  	0.052547 
3464.153536  	0.051929 
3466.082352  	0.051440 
3468.011168  	0.050634 
3469.939984  	0.050152 
3471.868800  	0.049791 
3473.797616  	0.049119 
3475.726432  	0.048260 
3477.655248  	0.047800 
3479.584064  	0.047524 
3481.512880  	0.046760 
3483.441696  	0.045714 
3485.370512  	0.045433 
3487.299328  	0.044588 
3489.228144  	0.043767 
3491.156960  	0.043196 
3493.085776  	0.042642 
3495.014592  	0.042054 
3496.943408  	0.041389 
3498.872224  	0.040926 
3500.801040  	0.040844 
3502.729856  	0.039931 
3504.658672  	0.038669 
3506.587488  	0.038775 
3508.516304  	0.038552 
3510.445120  	0.037346 
3512.373936  	0.036837 
3514.302752  	0.036504 
3516.231568  	0.036423 
3518.160384  	0.036084 
3520.089200  	0.035621 
3522.018016  	0.035267 
3523.946832  	0.034603 
3525.875648  	0.034140 
3527.804464  	0.033151 
3529.733280  	0.032255 
3531.662096  	0.031967 
3533.590912  	0.031740 
3535.519728  	0.031462 
3537.448544  	0.030788 
3539.377360  	0.030428 
3541.306176  	0.030274 
3543.234992  	0.030120 
3545.163808  	0.029418 
3547.092624  	0.028238 
3549.021440  	0.027795 
3550.950256  	0.027872 
3552.879072  	0.026711 
3554.807888  	0.026057 
3556.736704  	0.026004 
3558.665520  	0.025881 
3560.594336  	0.025268 
3562.523152  	0.024996 
3564.451968  	0.025656 
3566.380784  	0.024425 
3568.309600  	0.020683 
3570.238416  	0.020871 
3572.167232  	0.021969 
3574.096048  	0.021574 
3576.024864  	0.020663 
3577.953680  	0.020321 
3579.882496  	0.019753 
3581.811312  	0.019471 
3583.740128  	0.019778 
3585.668944  	0.019928 
3587.597760  	0.016406 
3589.526576  	0.014408 
3591.455392  	0.016207 
3593.384208  	0.016387 
3595.313024  	0.014724 
3597.241840  	0.013764 
3599.170656  	0.013276 
3601.099472  	0.012198 
3603.028288  	0.012107 
3604.957104  	0.013198 
3606.885920  	0.012825 
3608.814736  	0.010272 
3610.743552  	0.010145 
3612.672368  	0.009517 
3614.601184  	0.007581 
3616.530000  	0.008630 
3618.458816  	0.006753 
3620.387632  	0.003318 
3622.316448  	0.004365 
3624.245264  	0.006062 
3626.174080  	0.007429 
3628.102896  	0.004592 
3630.031712  	-0.003339 
3631.960528  	0.000013 
3633.889344  	0.000882 
3635.818160  	0.000181 
3637.746976  	0.000003 
3639.675792  	-0.000493 
3641.604608  	-0.000662 
3643.533424  	-0.000293 
3645.462240  	0.001149 
3647.391056  	-0.001662 
3649.319872  	-0.009107 
3651.248688  	-0.013106 
3653.177504  	-0.008036 
3655.106320  	-0.006110 
3657.035136  	-0.010658 
3658.963952  	-0.009919 
3660.892768  	-0.009047 
3662.821584  	-0.009261 
3664.750400  	-0.008757 
3666.679216  	-0.006998 
3668.608032  	-0.007724 
3670.536848  	-0.013932 
3672.465664  	-0.011052 
3674.394480  	-0.009273 
3676.323296  	-0.018943 
3678.252112  	-0.015096 
3680.180928  	-0.012541 
3682.109744  	-0.011345 
3684.038560  	-0.010410 
3685.967376  	-0.008495 
3687.896192  	-0.010092 
3689.825008  	-0.015664 
3691.753824  	-0.015890 
3693.682640  	-0.013006 
3695.611456  	-0.010939 
3697.540272  	-0.010118 
3699.469088  	-0.008366 
3701.397904  	-0.009549 
3703.326720  	-0.010677 
3705.255536  	-0.008217 
3707.184352  	-0.006193 
3709.113168  	-0.006600 
3711.041984  	-0.010272 
3712.970800  	-0.012911 
3714.899616  	-0.009828 
3716.828432  	-0.006797 
3718.757248  	-0.006651 
3720.686064  	-0.007082 
3722.614880  	-0.008039 
3724.543696  	-0.007727 
3726.472512  	-0.008631 
3728.401328  	-0.008046 
3730.330144  	-0.005342 
3732.258960  	-0.006570 
3734.187776  	-0.008020 
3736.116592  	-0.012231 
3738.045408  	-0.011903 
3739.974224  	-0.007888 
3741.903040  	-0.004079 
3743.831856  	-0.006264 
3745.760672  	-0.013384 
3747.689488  	-0.007283 
3749.618304  	-0.008487 
3751.547120  	-0.014099 
3753.475936  	-0.013783 
3755.404752  	-0.008816 
3757.333568  	-0.007366 
3759.262384  	-0.009075 
3761.191200  	-0.010016 
3763.120016  	-0.006535 
3765.048832  	-0.006823 
3766.977648  	-0.007559 
3768.906464  	-0.007404 
3770.835280  	-0.010268 
3772.764096  	-0.008646 
3774.692912  	-0.006746 
3776.621728  	-0.005706 
3778.550544  	-0.006695 
3780.479360  	-0.009644 
3782.408176  	-0.007679 
3784.336992  	-0.007472 
3786.265808  	-0.008252 
3788.194624  	-0.007578 
3790.123440  	-0.007097 
3792.052256  	-0.006711 
3793.981072  	-0.005529 
3795.909888  	-0.006767 
3797.838704  	-0.007558 
3799.767520  	-0.005143 
3801.696336  	-0.011484 
3803.625152  	-0.011437 
3805.553968  	-0.006958 
3807.482784  	-0.010880 
3809.411600  	-0.009621 
3811.340416  	-0.006749 
3813.269232  	-0.004456 
3815.198048  	-0.006105 
3817.126864  	-0.010451 
3819.055680  	-0.006244 
3820.984496  	-0.010434 
3822.913312  	-0.013031 
3824.842128  	-0.007856 
3826.770944  	-0.008236 
3828.699760  	-0.007512 
3830.628576  	-0.006361 
3832.557392  	-0.007592 
3834.486208  	-0.006724 
3836.415024  	-0.006953 
3838.343840  	-0.010105 
3840.272656  	-0.011227 
3842.201472  	-0.009483 
3844.130288  	-0.009546 
3846.059104  	-0.008227 
3847.987920  	-0.005550 
3849.916736  	-0.003418 
3851.845552  	-0.003301 
3853.774368  	-0.015035 
3855.703184  	-0.015490 
3857.632000  	-0.010038 
3859.560816  	-0.006665 
3861.489632  	-0.005749 
3863.418448  	-0.006986 
3865.347264  	-0.009360 
3867.276080  	-0.006379 
3869.204896  	-0.006540 
3871.133712  	-0.010766 
3873.062528  	-0.008239 
3874.991344  	-0.010048 
3876.920160  	-0.007062 
3878.848976  	-0.004486 
3880.777792  	-0.007914 
3882.706608  	-0.007340 
3884.635424  	-0.006110 
3886.564240  	-0.010152 
3888.493056  	-0.007000 
3890.421872  	-0.006091 
3892.350688  	-0.009680 
3894.279504  	-0.008353 
3896.208320  	-0.005378 
3898.137136  	-0.004583 
3900.065952  	-0.006349 
3901.994768  	-0.007065 
3903.923584  	-0.009247 
3905.852400  	-0.010610 
3907.781216  	-0.008446 
3909.710032  	-0.006985 
3911.638848  	-0.006696 
3913.567664  	-0.005912 
3915.496480  	-0.005250 
3917.425296  	-0.007080 
3919.354112  	-0.007906 
3921.282928  	-0.007140 
3923.211744  	-0.005986 
3925.140560  	-0.007227 
3927.069376  	-0.007073 
3928.998192  	-0.005911 
3930.927008  	-0.006213 
3932.855824  	-0.007545 
3934.784640  	-0.007623 
3936.713456  	-0.006762 
3938.642272  	-0.006450 
3940.571088  	-0.005583 
3942.499904  	-0.006379 
3944.428720  	-0.007302 
3946.357536  	-0.006096 
3948.286352  	-0.006312 
3950.215168  	-0.007169 
3952.143984  	-0.007159 
3954.072800  	-0.006831 
3956.001616  	-0.006756 
3957.930432  	-0.006774 
3959.859248  	-0.006542 
3961.788064  	-0.006793 
3963.716880  	-0.007284 
3965.645696  	-0.007158 
3967.574512  	-0.006837 
3969.503328  	-0.006584 
3971.432144  	-0.006586 
3973.360960  	-0.006730 
3975.289776  	-0.007023 
3977.218592  	-0.007046 
3979.147408  	-0.006911 
3981.076224  	-0.006862 
3983.005040  	-0.006777 
3984.933856  	-0.006654 
3986.862672  	-0.006793 
3988.791488  	-0.006762 
3990.720304  	-0.006687 
3992.649120  	-0.006643 
3994.577936  	-0.006857 
3996.506752  	-0.006813 
3998.435568  	-0.006640 
4000.364384  	-0.006643 