##TITLE=No Description
##DATA TYPE=INFRARED SPECTRUM
##XUNITS=1/CM
##YUNITS=Abs
399.264912  	0.316215 
401.193728  	0.313523 
403.122544  	0.312367 
405.051360  	0.307692 
406.980176  	0.297275 
408.908992  	0.298112 
410.837808  	0.311099 
412.766624  	0.310015 
414.695440  	0.304558 
416.624256  	0.301931 
418.553072  	0.307545 
420.481888  	0.308406 
422.410704  	0.309346 
424.339520  	0.307497 
426.268336  	0.304939 
428.197152  	0.304076 
430.125968  	0.309142 
432.054784  	0.309118 
433.983600  	0.304717 
435.912416  	0.297315 
437.841232  	0.297051 
439.770048  	0.297338 
441.698864  	0.300239 
443.627680  	0.301882 
445.556496  	0.298812 
447.485312  	0.297458 
449.414128  	0.300782 
451.342944  	0.300532 
453.271760  	0.296437 
455.200576  	0.297758 
457.129392  	0.305419 
459.058208  	0.307643 
460.987024  	0.311038 
462.915840  	0.312782 
464.844656  	0.311618 
466.773472  	0.311678 
468.702288  	0.315803 
470.631104  	0.317762 
472.559920  	0.319925 
474.488736  	0.321201 
476.417552  	0.321040 
478.346368  	0.319626 
480.275184  	0.323744 
482.204000  	0.327118 
484.132816  	0.328527 
486.061632  	0.328230 
487.990448  	0.329389 
489.919264  	0.329486 
491.848080  	0.332128 
493.776896  	0.332203 
495.705712  	0.333979 
497.634528  	0.333587 
499.563344  	0.334900 
501.492160  	0.336392 
503.420976  	0.337764 
505.349792  	0.337351 
507.278608  	0.338387 
509.207424  	0.339685 
511.136240  	0.341812 
513.065056  	0.344558 
514.993872  	0.351030 
516.922688  	0.357242 
518.851504  	0.361015 
520.780320  	0.360578 
522.709136  	0.363371 
524.637952  	0.367581 
526.566768  	0.369430 
528.495584  	0.368773 
530.424400  	0.368725 
532.353216  	0.366591 
534.282032  	0.362877 
536.210848  	0.359816 
538.139664  	0.357805 
540.068480  	0.354034 
541.997296  	0.351068 
543.926112  	0.347674 
545.854928  	0.344609 
547.783744  	0.341984 
549.712560  	0.339099 
551.641376  	0.335867 
553.570192  	0.333262 
555.499008  	0.331267 
557.427824  	0.329815 
559.356640  	0.326818 
561.285456  	0.324027 
563.214272  	0.321847 
565.143088  	0.319379 
567.071904  	0.316212 
569.000720  	0.313205 
570.929536  	0.309741 
572.858352  	0.307795 
574.787168  	0.306532 
576.715984  	0.305186 
578.644800  	0.302048 
580.573616  	0.298368 
582.502432  	0.294154 
584.431248  	0.291275 
586.360064  	0.288253 
588.288880  	0.286034 
590.217696  	0.283745 
592.146512  	0.282039 
594.075328  	0.280801 
596.004144  	0.279708 
597.932960  	0.278576 
599.861776  	0.277459 
601.790592  	0.275889 
603.719408  	0.275472 
605.648224  	0.275889 
607.577040  	0.275924 
609.505856  	0.275038 
611.434672  	0.273719 
613.363488  	0.272923 
615.292304  	0.273205 
617.221120  	0.272811 
619.149936  	0.272339 
621.078752  	0.271207 
623.007568  	0.271168 
624.936384  	0.270381 
626.865200  	0.269433 
628.794016  	0.269576 
630.722832  	0.269941 
632.651648  	0.270280 
634.580464  	0.271589 
636.509280  	0.273005 
638.438096  	0.274407 
640.366912  	0.275527 
642.295728  	0.275888 
644.224544  	0.274977 
646.153360  	0.272650 
648.082176  	0.269511 
650.010992  	0.266642 
651.939808  	0.263806 
653.868624  	0.260850 
655.797440  	0.257652 
657.726256  	0.254446 
659.655072  	0.250907 
661.583888  	0.246933 
663.512704  	0.243297 
665.441520  	0.240906 
667.370336  	0.235165 
669.299152  	0.228130 
671.227968  	0.227538 
673.156784  	0.225552 
675.085600  	0.223314 
677.014416  	0.221452 
678.943232  	0.219776 
680.872048  	0.218057 
682.800864  	0.217194 
684.729680  	0.216288 
686.658496  	0.215465 
688.587312  	0.214900 
690.516128  	0.213913 
692.444944  	0.213033 
694.373760  	0.212819 
696.302576  	0.212032 
698.231392  	0.210520 
700.160208  	0.208530 
702.089024  	0.206929 
704.017840  	0.205251 
705.946656  	0.203083 
707.875472  	0.200813 
709.804288  	0.199085 
711.733104  	0.197532 
713.661920  	0.195991 
715.590736  	0.195202 
717.519552  	0.195655 
719.448368  	0.196512 
721.377184  	0.197760 
723.306000  	0.200023 
725.234816  	0.202018 
727.163632  	0.202575 
729.092448  	0.201223 
731.021264  	0.198550 
732.950080  	0.195361 
734.878896  	0.192478 
736.807712  	0.189666 
738.736528  	0.187045 
740.665344  	0.185453 
742.594160  	0.184295 
744.522976  	0.183252 
746.451792  	0.181794 
748.380608  	0.180692 
750.309424  	0.179865 
752.238240  	0.179333 
754.167056  	0.179329 
756.095872  	0.179030 
758.024688  	0.178646 
759.953504  	0.178657 
761.882320  	0.180333 
763.811136  	0.182168 
765.739952  	0.182313 
767.668768  	0.180410 
769.597584  	0.178231 
771.526400  	0.178089 
773.455216  	0.180539 
775.384032  	0.185318 
777.312848  	0.192030 
779.241664  	0.198438 
781.170480  	0.200874 
783.099296  	0.198234 
785.028112  	0.193030 
786.956928  	0.187453 
788.885744  	0.182653 
790.814560  	0.179123 
792.743376  	0.176705 
794.672192  	0.175709 
796.601008  	0.175553 
798.529824  	0.173556 
800.458640  	0.169345 
802.387456  	0.165740 
804.316272  	0.163871 
806.245088  	0.163099 
808.173904  	0.163192 
810.102720  	0.163824 
812.031536  	0.164314 
813.960352  	0.165195 
815.889168  	0.166455 
817.817984  	0.167398 
819.746800  	0.168345 
821.675616  	0.169368 
823.604432  	0.169923 
825.533248  	0.170321 
827.462064  	0.170406 
829.390880  	0.170100 
831.319696  	0.169351 
833.248512  	0.168181 
835.177328  	0.166249 
837.106144  	0.163865 
839.034960  	0.160912 
840.963776  	0.157703 
842.892592  	0.153982 
844.821408  	0.150389 
846.750224  	0.147287 
848.679040  	0.144473 
850.607856  	0.142408 
852.536672  	0.140696 
854.465488  	0.139470 
856.394304  	0.138485 
858.323120  	0.137339 
860.251936  	0.135553 
862.180752  	0.133380 
864.109568  	0.130785 
866.038384  	0.128311 
867.967200  	0.126536 
869.896016  	0.124828 
871.824832  	0.123829 
873.753648  	0.123661 
875.682464  	0.124611 
877.611280  	0.125643 
879.540096  	0.127002 
881.468912  	0.129471 
883.397728  	0.131133 
885.326544  	0.132308 
887.255360  	0.133027 
889.184176  	0.132539 
891.112992  	0.130657 
893.041808  	0.128765 
894.970624  	0.126380 
896.899440  	0.123046 
898.828256  	0.118942 
900.757072  	0.114909 
902.685888  	0.111827 
904.614704  	0.110124 
906.543520  	0.110302 
908.472336  	0.112136 
910.401152  	0.115279 
912.329968  	0.118813 
914.258784  	0.122662 
916.187600  	0.126440 
918.116416  	0.129721 
920.045232  	0.131832 
921.974048  	0.133121 
923.902864  	0.133834 
925.831680  	0.133978 
927.760496  	0.134322 
929.689312  	0.135186 
931.618128  	0.136383 
933.546944  	0.137425 
935.475760  	0.138112 
937.404576  	0.138342 
939.333392  	0.138379 
941.262208  	0.138927 
943.191024  	0.140949 
945.119840  	0.145467 
947.048656  	0.152368 
948.977472  	0.161222 
950.906288  	0.172056 
952.835104  	0.184375 
954.763920  	0.196898 
956.692736  	0.208666 
958.621552  	0.218888 
960.550368  	0.226021 
962.479184  	0.229633 
964.408000  	0.229127 
966.336816  	0.224363 
968.265632  	0.215641 
970.194448  	0.203898 
972.123264  	0.190175 
974.052080  	0.175879 
975.980896  	0.161742 
977.909712  	0.148425 
979.838528  	0.136580 
981.767344  	0.126694 
983.696160  	0.119107 
985.624976  	0.114537 
987.553792  	0.113001 
989.482608  	0.114324 
991.411424  	0.118193 
993.340240  	0.123984 
995.269056  	0.131124 
997.197872  	0.138822 
999.126688  	0.146773 
1001.055504  	0.154620 
1002.984320  	0.162368 
1004.913136  	0.169892 
1006.841952  	0.177020 
1008.770768  	0.182986 
1010.699584  	0.187135 
1012.628400  	0.189510 
1014.557216  	0.190339 
1016.486032  	0.190342 
1018.414848  	0.189854 
1020.343664  	0.189236 
1022.272480  	0.188196 
1024.201296  	0.186699 
1026.130112  	0.183344 
1028.058928  	0.182230 
1029.987744  	0.185151 
1031.916560  	0.187064 
1033.845376  	0.188527 
1035.774192  	0.190131 
1037.703008  	0.193401 
1039.631824  	0.200216 
1041.560640  	0.209572 
1043.489456  	0.221892 
1045.418272  	0.236910 
1047.347088  	0.253575 
1049.275904  	0.268998 
1051.204720  	0.281053 
1053.133536  	0.288701 
1055.062352  	0.292134 
1056.991168  	0.291483 
1058.919984  	0.291943 
1060.848800  	0.292324 
1062.777616  	0.289530 
1064.706432  	0.282361 
1066.635248  	0.275883 
1068.564064  	0.273163 
1070.492880  	0.267920 
1072.421696  	0.259913 
1074.350512  	0.253680 
1076.279328  	0.251239 
1078.208144  	0.252897 
1080.136960  	0.257040 
1082.065776  	0.262124 
1083.994592  	0.265356 
1085.923408  	0.266013 
1087.852224  	0.263388 
1089.781040  	0.258547 
1091.709856  	0.252430 
1093.638672  	0.243954 
1095.567488  	0.232698 
1097.496304  	0.220239 
1099.425120  	0.207148 
1101.353936  	0.193937 
1103.282752  	0.181145 
1105.211568  	0.168881 
1107.140384  	0.156970 
1109.069200  	0.145728 
1110.998016  	0.135487 
1112.926832  	0.126072 
1114.855648  	0.117420 
1116.784464  	0.109261 
1118.713280  	0.101508 
1120.642096  	0.094205 
1122.570912  	0.087509 
1124.499728  	0.080935 
1126.428544  	0.074987 
1128.357360  	0.069898 
1130.286176  	0.065572 
1132.214992  	0.061661 
1134.143808  	0.058453 
1136.072624  	0.055673 
1138.001440  	0.053490 
1139.930256  	0.050851 
1141.859072  	0.048131 
1143.787888  	0.045364 
1145.716704  	0.042918 
1147.645520  	0.040544 
1149.574336  	0.038668 
1151.503152  	0.037092 
1153.431968  	0.036452 
1155.360784  	0.036673 
1157.289600  	0.037612 
1159.218416  	0.039083 
1161.147232  	0.041286 
1163.076048  	0.043678 
1165.004864  	0.046316 
1166.933680  	0.048898 
1168.862496  	0.051874 
1170.791312  	0.054650 
1172.720128  	0.058012 
1174.648944  	0.061211 
1176.577760  	0.064528 
1178.506576  	0.067621 
1180.435392  	0.070784 
1182.364208  	0.073935 
1184.293024  	0.077537 
1186.221840  	0.081337 
1188.150656  	0.085815 
1190.079472  	0.090984 
1192.008288  	0.096902 
1193.937104  	0.104085 
1195.865920  	0.112494 
1197.794736  	0.121761 
1199.723552  	0.131757 
1201.652368  	0.141931 
1203.581184  	0.152112 
1205.510000  	0.162006 
1207.438816  	0.171593 
1209.367632  	0.180413 
1211.296448  	0.187836 
1213.225264  	0.194089 
1215.154080  	0.198957 
1217.082896  	0.202413 
1219.011712  	0.204555 
1220.940528  	0.205917 
1222.869344  	0.206493 
1224.798160  	0.206456 
1226.726976  	0.205525 
1228.655792  	0.204030 
1230.584608  	0.201889 
1232.513424  	0.199364 
1234.442240  	0.196060 
1236.371056  	0.191997 
1238.299872  	0.186672 
1240.228688  	0.179219 
1242.157504  	0.171563 
1244.086320  	0.164903 
1246.015136  	0.156990 
1247.943952  	0.148337 
1249.872768  	0.139714 
1251.801584  	0.132224 
1253.730400  	0.124782 
1255.659216  	0.117419 
1257.588032  	0.110508 
1259.516848  	0.103849 
1261.445664  	0.097790 
1263.374480  	0.092372 
1265.303296  	0.087731 
1267.232112  	0.083978 
1269.160928  	0.081171 
1271.089744  	0.079126 
1273.018560  	0.078088 
1274.947376  	0.077793 
1276.876192  	0.077969 
1278.805008  	0.077753 
1280.733824  	0.076498 
1282.662640  	0.074488 
1284.591456  	0.072004 
1286.520272  	0.069618 
1288.449088  	0.067941 
1290.377904  	0.067178 
1292.306720  	0.067249 
1294.235536  	0.067100 
1296.164352  	0.065884 
1298.093168  	0.063333 
1300.021984  	0.060260 
1301.950800  	0.056928 
1303.879616  	0.053792 
1305.808432  	0.050458 
1307.737248  	0.047196 
1309.666064  	0.044111 
1311.594880  	0.041691 
1313.523696  	0.039719 
1315.452512  	0.038576 
1317.381328  	0.037925 
1319.310144  	0.037797 
1321.238960  	0.038151 
1323.167776  	0.039062 
1325.096592  	0.040043 
1327.025408  	0.040751 
1328.954224  	0.040749 
1330.883040  	0.040292 
1332.811856  	0.039431 
1334.740672  	0.038846 
1336.669488  	0.038429 
1338.598304  	0.037894 
1340.527120  	0.036467 
1342.455936  	0.035678 
1344.384752  	0.035452 
1346.313568  	0.035713 
1348.242384  	0.036410 
1350.171200  	0.037730 
1352.100016  	0.039415 
1354.028832  	0.041456 
1355.957648  	0.043392 
1357.886464  	0.045657 
1359.815280  	0.048040 
1361.744096  	0.050008 
1363.672912  	0.051094 
1365.601728  	0.052842 
1367.530544  	0.054329 
1369.459360  	0.054579 
1371.388176  	0.054513 
1373.316992  	0.053056 
1375.245808  	0.049440 
1377.174624  	0.046895 
1379.103440  	0.043914 
1381.032256  	0.041004 
1382.961072  	0.038765 
1384.889888  	0.037974 
1386.818704  	0.036703 
1388.747520  	0.034716 
1390.676336  	0.032824 
1392.605152  	0.029894 
1394.533968  	0.027556 
1396.462784  	0.029960 
1398.391600  	0.031265 
1400.320416  	0.030635 
1402.249232  	0.031443 
1404.178048  	0.032035 
1406.106864  	0.032541 
1408.035680  	0.034778 
1409.964496  	0.037454 
1411.893312  	0.040374 
1413.822128  	0.043649 
1415.750944  	0.047374 
1417.679760  	0.049680 
1419.608576  	0.049009 
1421.537392  	0.049659 
1423.466208  	0.049901 
1425.395024  	0.047981 
1427.323840  	0.046908 
1429.252656  	0.044295 
1431.181472  	0.042295 
1433.110288  	0.042305 
1435.039104  	0.043218 
1436.967920  	0.041744 
1438.896736  	0.042722 
1440.825552  	0.044327 
1442.754368  	0.045033 
1444.683184  	0.045327 
1446.612000  	0.045283 
1448.540816  	0.043867 
1450.469632  	0.044362 
1452.398448  	0.045358 
1454.327264  	0.046956 
1456.256080  	0.046321 
1458.184896  	0.042602 
1460.113712  	0.044439 
1462.042528  	0.046923 
1463.971344  	0.047111 
1465.900160  	0.047049 
1467.828976  	0.050058 
1469.757792  	0.054305 
1471.686608  	0.057723 
1473.615424  	0.062470 
1475.544240  	0.068918 
1477.473056  	0.074821 
1479.401872  	0.079389 
1481.330688  	0.082566 
1483.259504  	0.084590 
1485.188320  	0.086240 
1487.117136  	0.085923 
1489.045952  	0.084246 
1490.974768  	0.080143 
1492.903584  	0.078494 
1494.832400  	0.075972 
1496.761216  	0.068759 
1498.690032  	0.061885 
1500.618848  	0.057609 
1502.547664  	0.054610 
1504.476480  	0.052233 
1506.405296  	0.044641 
1508.334112  	0.038152 
1510.262928  	0.039177 
1512.191744  	0.038436 
1514.120560  	0.038187 
1516.049376  	0.037667 
1517.978192  	0.036790 
1519.907008  	0.039047 
1521.835824  	0.039037 
1523.764640  	0.043273 
1525.693456  	0.047406 
1527.622272  	0.049368 
1529.551088  	0.050787 
1531.479904  	0.051270 
1533.408720  	0.046970 
1535.337536  	0.043747 
1537.266352  	0.043843 
1539.195168  	0.037525 
1541.123984  	0.028472 
1543.052800  	0.029169 
1544.981616  	0.028612 
1546.910432  	0.028806 
1548.839248  	0.029600 
1550.768064  	0.029232 
1552.696880  	0.030106 
1554.625696  	0.031023 
1556.554512  	0.032825 
1558.483328  	0.031409 
1560.412144  	0.032009 
1562.340960  	0.040465 
1564.269776  	0.045502 
1566.198592  	0.051176 
1568.127408  	0.056269 
1570.056224  	0.061262 
1571.985040  	0.068505 
1573.913856  	0.074623 
1575.842672  	0.075779 
1577.771488  	0.077415 
1579.700304  	0.079700 
1581.629120  	0.079701 
1583.557936  	0.079186 
1585.486752  	0.080155 
1587.415568  	0.082719 
1589.344384  	0.087438 
1591.273200  	0.093636 
1593.202016  	0.101210 
1595.130832  	0.109049 
1597.059648  	0.117265 
1598.988464  	0.124221 
1600.917280  	0.130128 
1602.846096  	0.133705 
1604.774912  	0.135991 
1606.703728  	0.136053 
1608.632544  	0.135003 
1610.561360  	0.132836 
1612.490176  	0.131577 
1614.418992  	0.130401 
1616.347808  	0.127701 
1618.276624  	0.127890 
1620.205440  	0.133179 
1622.134256  	0.136738 
1624.063072  	0.142339 
1625.991888  	0.149842 
1627.920704  	0.158228 
1629.849520  	0.168001 
1631.778336  	0.178173 
1633.707152  	0.185565 
1635.635968  	0.192227 
1637.564784  	0.200928 
1639.493600  	0.209084 
1641.422416  	0.214142 
1643.351232  	0.218301 
1645.280048  	0.218977 
1647.208864  	0.216899 
1649.137680  	0.217955 
1651.066496  	0.219954 
1652.995312  	0.211330 
1654.924128  	0.207492 
1656.852944  	0.208919 
1658.781760  	0.207103 
1660.710576  	0.203543 
1662.639392  	0.197837 
1664.568208  	0.193305 
1666.497024  	0.191699 
1668.425840  	0.186350 
1670.354656  	0.178448 
1672.283472  	0.175436 
1674.212288  	0.172945 
1676.141104  	0.167292 
1678.069920  	0.166884 
1679.998736  	0.166043 
1681.927552  	0.165560 
1683.856368  	0.160500 
1685.785184  	0.157893 
1687.714000  	0.160500 
1689.642816  	0.159750 
1691.571632  	0.158326 
1693.500448  	0.158267 
1695.429264  	0.153665 
1697.358080  	0.149526 
1699.286896  	0.147690 
1701.215712  	0.139660 
1703.144528  	0.139861 
1705.073344  	0.135971 
1707.002160  	0.129253 
1708.930976  	0.125087 
1710.859792  	0.119323 
1712.788608  	0.112862 
1714.717424  	0.104577 
1716.646240  	0.093405 
1718.575056  	0.078829 
1720.503872  	0.071832 
1722.432688  	0.066022 
1724.361504  	0.056903 
1726.290320  	0.049723 
1728.219136  	0.043618 
1730.147952  	0.037746 
1732.076768  	0.033411 
1734.005584  	0.025491 
1735.934400  	0.019687 
1737.863216  	0.020895 
1739.792032  	0.017036 
1741.720848  	0.015320 
1743.649664  	0.014298 
1745.578480  	0.013532 
1747.507296  	0.012054 
1749.436112  	0.010665 
1751.364928  	0.008467 
1753.293744  	0.008281 
1755.222560  	0.008901 
1757.151376  	0.007592 
1759.080192  	0.007350 
1761.009008  	0.007121 
1762.937824  	0.004970 
1764.866640  	0.005836 
1766.795456  	0.006346 
1768.724272  	0.005578 
1770.653088  	0.004689 
1772.581904  	0.001638 
1774.510720  	0.001794 
1776.439536  	0.003505 
1778.368352  	0.003934 
1780.297168  	0.003401 
1782.225984  	0.002794 
1784.154800  	0.003305 
1786.083616  	0.002508 
1788.012432  	0.003209 
1789.941248  	0.003734 
1791.870064  	0.002170 
1793.798880  	0.000321 
1795.727696  	0.001861 
1797.656512  	0.002039 
1799.585328  	0.001902 
1801.514144  	0.001158 
1803.442960  	0.001520 
1805.371776  	0.001566 
1807.300592  	0.001865 
1809.229408  	0.001358 
1811.158224  	0.000739 
1813.087040  	0.000325 
1815.015856  	0.001046 
1816.944672  	0.000949 
1818.873488  	0.000932 
1820.802304  	0.000823 
1822.731120  	0.001663 
1824.659936  	0.000857 
1826.588752  	0.000300 
1828.517568  	0.000304 
1830.446384  	-0.000790 
1832.375200  	-0.000399 
1834.304016  	0.000656 
1836.232832  	0.000546 
1838.161648  	0.000661 
1840.090464  	0.000680 
1842.019280  	0.001744 
1843.948096  	-0.000052 
1845.876912  	-0.000782 
1847.805728  	0.000020 
1849.734544  	0.000207 
1851.663360  	0.000207 
1853.592176  	0.000189 
1855.520992  	0.000043 
1857.449808  	0.000244 
1859.378624  	-0.000030 
1861.307440  	0.000100 
1863.236256  	0.000081 
1865.165072  	0.000415 
1867.093888  	0.000173 
1869.022704  	-0.000850 
1870.951520  	-0.001134 
1872.880336  	0.000192 
1874.809152  	0.000084 
1876.737968  	0.000018 
1878.666784  	-0.000369 
1880.595600  	0.000193 
1882.524416  	0.000127 
1884.453232  	0.000010 
1886.382048  	-0.000399 
1888.310864  	-0.000126 
1890.239680  	-0.001089 
1892.168496  	-0.000555 
1894.097312  	-0.000497 
1896.026128  	-0.000621 
1897.954944  	-0.000844 
1899.883760  	-0.000426 
1901.812576  	-0.000525 
1903.741392  	-0.000600 
1905.670208  	-0.000868 
1907.599024  	-0.000180 
1909.527840  	-0.000377 
1911.456656  	-0.000098 
1913.385472  	-0.000375 
1915.314288  	0.000385 
1917.243104  	0.000096 
1919.171920  	-0.000387 
1921.100736  	-0.000124 
1923.029552  	-0.000205 
1924.958368  	-0.000845 
1926.887184  	-0.000560 
1928.816000  	-0.000632 
1930.744816  	-0.000037 
1932.673632  	-0.000413 
1934.602448  	-0.000209 
1936.531264  	-0.000249 
1938.460080  	0.000396 
1940.388896  	-0.000180 
1942.317712  	-0.000948 
1944.246528  	-0.001123 
1946.175344  	0.000435 
1948.104160  	0.000018 
1950.032976  	0.000012 
1951.961792  	-0.000332 
1953.890608  	0.000173 
1955.819424  	-0.000559 
1957.748240  	-0.000254 
1959.677056  	-0.000761 
1961.605872  	0.000176 
1963.534688  	0.000472 
1965.463504  	0.000651 
1967.392320  	-0.001201 
1969.321136  	-0.000466 
1971.249952  	0.000136 
1973.178768  	0.000986 
1975.107584  	-0.000089 
1977.036400  	0.001002 
1978.965216  	0.001764 
1980.894032  	0.002307 
1982.822848  	0.001252 
1984.751664  	0.001702 
1986.680480  	0.000674 
1988.609296  	0.000358 
1990.538112  	-0.000764 
1992.466928  	-0.000228 
1994.395744  	-0.000332 
1996.324560  	0.000026 
1998.253376  	-0.000571 
2000.182192  	-0.000040 
2002.111008  	0.000072 
2004.039824  	0.000965 
2005.968640  	-0.000056 
2007.897456  	0.000181 
2009.826272  	-0.000286 
2011.755088  	0.000087 
2013.683904  	-0.000649 
2015.612720  	0.000199 
2017.541536  	-0.000443 
2019.470352  	0.000988 
2021.399168  	0.000497 
2023.327984  	0.000330 
2025.256800  	0.000645 
2027.185616  	0.001129 
2029.114432  	0.001346 
2031.043248  	0.002111 
2032.972064  	0.001046 
2034.900880  	0.000984 
2036.829696  	0.000361 
2038.758512  	0.001756 
2040.687328  	0.001013 
2042.616144  	0.000649 
2044.544960  	-0.000265 
2046.473776  	0.000242 
2048.402592  	0.000937 
2050.331408  	0.001318 
2052.260224  	0.000189 
2054.189040  	0.000120 
2056.117856  	-0.000085 
2058.046672  	0.000578 
2059.975488  	-0.000155 
2061.904304  	-0.000675 
2063.833120  	-0.000541 
2065.761936  	0.000115 
2067.690752  	0.000007 
2069.619568  	0.000242 
2071.548384  	-0.000159 
2073.477200  	-0.000373 
2075.406016  	-0.000009 
2077.334832  	0.000761 
2079.263648  	0.000600 
2081.192464  	0.000555 
2083.121280  	-0.000025 
2085.050096  	-0.000078 
2086.978912  	-0.000172 
2088.907728  	0.000295 
2090.836544  	0.000396 
2092.765360  	0.000879 
2094.694176  	0.000789 
2096.622992  	0.000670 
2098.551808  	0.000439 
2100.480624  	0.000876 
2102.409440  	0.000703 
2104.338256  	0.000647 
2106.267072  	0.000572 
2108.195888  	0.001031 
2110.124704  	0.000986 
2112.053520  	0.001109 
2113.982336  	0.000683 
2115.911152  	0.000579 
2117.839968  	0.000599 
2119.768784  	0.000772 
2121.697600  	0.000401 
2123.626416  	0.000167 
2125.555232  	-0.000193 
2127.484048  	0.000132 
2129.412864  	-0.000239 
2131.341680  	-0.000511 
2133.270496  	-0.001153 
2135.199312  	-0.000627 
2137.128128  	-0.000300 
2139.056944  	0.000343 
2140.985760  	0.000626 
2142.914576  	0.000826 
2144.843392  	0.000886 
2146.772208  	0.001632 
2148.701024  	0.000790 
2150.629840  	0.001144 
2152.558656  	0.001116 
2154.487472  	0.001695 
2156.416288  	0.001510 
2158.345104  	0.001805 
2160.273920  	0.003168 
2162.202736  	0.003599 
2164.131552  	0.002547 
2166.060368  	0.002899 
2167.989184  	0.003060 
2169.918000  	0.003937 
2171.846816  	0.002605 
2173.775632  	0.002479 
2175.704448  	0.002609 
2177.633264  	0.002578 
2179.562080  	0.001535 
2181.490896  	0.001530 
2183.419712  	0.000912 
2185.348528  	0.001464 
2187.277344  	0.001693 
2189.206160  	0.001998 
2191.134976  	0.001677 
2193.063792  	0.001941 
2194.992608  	0.001223 
2196.921424  	0.001128 
2198.850240  	0.001045 
2200.779056  	0.001241 
2202.707872  	0.000659 
2204.636688  	0.000985 
2206.565504  	0.001639 
2208.494320  	0.001812 
2210.423136  	0.000998 
2212.351952  	0.001382 
2214.280768  	0.000893 
2216.209584  	0.000349 
2218.138400  	0.000083 
2220.067216  	0.000830 
2221.996032  	0.000601 
2223.924848  	0.000707 
2225.853664  	0.001167 
2227.782480  	0.001489 
2229.711296  	0.000452 
2231.640112  	0.000129 
2233.568928  	-0.000163 
2235.497744  	0.000187 
2237.426560  	0.000072 
2239.355376  	0.000064 
2241.284192  	0.000234 
2243.213008  	0.000662 
2245.141824  	0.000247 
2247.070640  	0.000269 
2248.999456  	0.000033 
2250.928272  	-0.000470 
2252.857088  	-0.000696 
2254.785904  	-0.000553 
2256.714720  	-0.000926 
2258.643536  	-0.000949 
2260.572352  	-0.000911 
2262.501168  	-0.000779 
2264.429984  	-0.000782 
2266.358800  	-0.000384 
2268.287616  	-0.000474 
2270.216432  	-0.000316 
2272.145248  	-0.000335 
2274.074064  	-0.000234 
2276.002880  	-0.000243 
2277.931696  	-0.000042 
2279.860512  	0.000135 
2281.789328  	0.000371 
2283.718144  	0.000279 
2285.646960  	0.000348 
2287.575776  	0.000284 
2289.504592  	0.000203 
2291.433408  	-0.000142 
2293.362224  	-0.000138 
2295.291040  	0.000130 
2297.219856  	0.000578 
2299.148672  	0.000393 
2301.077488  	0.000390 
2303.006304  	0.000391 
2304.935120  	0.000414 
2306.863936  	0.000318 
2308.792752  	0.000297 
2310.721568  	-0.000069 
2312.650384  	-0.000331 
2314.579200  	-0.000565 
2316.508016  	-0.000921 
2318.436832  	-0.001340 
2320.365648  	-0.001963 
2322.294464  	-0.002982 
2324.223280  	-0.003950 
2326.152096  	-0.005053 
2328.080912  	-0.006099 
2330.009728  	-0.007369 
2331.938544  	-0.008449 
2333.867360  	-0.008925 
2335.796176  	-0.009411 
2337.724992  	-0.010240 
2339.653808  	-0.010437 
2341.582624  	-0.010973 
2343.511440  	-0.011152 
2345.440256  	-0.010242 
2347.369072  	-0.007011 
2349.297888  	-0.003774 
2351.226704  	-0.004145 
2353.155520  	-0.007416 
2355.084336  	-0.010142 
2357.013152  	-0.012484 
2358.941968  	-0.013828 
2360.870784  	-0.015220 
2362.799600  	-0.014629 
2364.728416  	-0.014122 
2366.657232  	-0.013125 
2368.586048  	-0.011124 
2370.514864  	-0.008937 
2372.443680  	-0.007226 
2374.372496  	-0.005444 
2376.301312  	-0.004047 
2378.230128  	-0.002788 
2380.158944  	-0.001855 
2382.087760  	-0.001057 
2384.016576  	-0.000847 
2385.945392  	-0.000832 
2387.874208  	-0.000896 
2389.803024  	-0.000925 
2391.731840  	-0.001043 
2393.660656  	-0.001033 
2395.589472  	-0.001148 
2397.518288  	-0.000904 
2399.447104  	-0.001074 
2401.375920  	-0.001308 
2403.304736  	-0.001301 
2405.233552  	-0.000969 
2407.162368  	-0.000953 
2409.091184  	-0.000987 
2411.020000  	-0.001052 
2412.948816  	-0.001001 
2414.877632  	-0.000747 
2416.806448  	-0.000639 
2418.735264  	-0.000947 
2420.664080  	-0.001069 
2422.592896  	-0.001019 
2424.521712  	-0.000910 
2426.450528  	-0.001072 
2428.379344  	-0.001002 
2430.308160  	-0.000808 
2432.236976  	-0.000586 
2434.165792  	-0.000560 
2436.094608  	-0.000615 
2438.023424  	-0.000572 
2439.952240  	-0.000316 
2441.881056  	-0.000415 
2443.809872  	-0.000624 
2445.738688  	-0.000570 
2447.667504  	-0.000221 
2449.596320  	-0.000234 
2451.525136  	-0.000258 
2453.453952  	-0.000231 
2455.382768  	-0.000347 
2457.311584  	-0.000394 
2459.240400  	-0.000484 
2461.169216  	-0.000561 
2463.098032  	-0.000609 
2465.026848  	-0.000677 
2466.955664  	-0.000703 
2468.884480  	-0.000829 
2470.813296  	-0.000784 
2472.742112  	-0.000696 
2474.670928  	-0.000440 
2476.599744  	-0.000449 
2478.528560  	-0.000288 
2480.457376  	-0.000221 
2482.386192  	-0.000159 
2484.315008  	-0.000244 
2486.243824  	-0.000481 
2488.172640  	-0.000636 
2490.101456  	-0.000312 
2492.030272  	0.000058 
2493.959088  	0.000174 
2495.887904  	0.000066 
2497.816720  	0.000199 
2499.745536  	0.000256 
2501.674352  	0.000259 
2503.603168  	0.000528 
2505.531984  	0.000538 
2507.460800  	0.000132 
2509.389616  	0.000161 
2511.318432  	0.000308 
2513.247248  	0.000548 
2515.176064  	0.000497 
2517.104880  	0.000494 
2519.033696  	0.000453 
2520.962512  	0.000583 
2522.891328  	0.000769 
2524.820144  	0.000721 
2526.748960  	0.000860 
2528.677776  	0.001190 
2530.606592  	0.001153 
2532.535408  	0.000977 
2534.464224  	0.000857 
2536.393040  	0.000968 
2538.321856  	0.001276 
2540.250672  	0.001467 
2542.179488  	0.001362 
2544.108304  	0.001340 
2546.037120  	0.001322 
2547.965936  	0.001542 
2549.894752  	0.001822 
2551.823568  	0.001821 
2553.752384  	0.001793 
2555.681200  	0.002028 
2557.610016  	0.002044 
2559.538832  	0.002027 
2561.467648  	0.001980 
2563.396464  	0.002079 
2565.325280  	0.002464 
2567.254096  	0.002600 
2569.182912  	0.002469 
2571.111728  	0.002674 
2573.040544  	0.002734 
2574.969360  	0.002703 
2576.898176  	0.002912 
2578.826992  	0.003033 
2580.755808  	0.002996 
2582.684624  	0.003220 
2584.613440  	0.003187 
2586.542256  	0.003160 
2588.471072  	0.003372 
2590.399888  	0.003537 
2592.328704  	0.003578 
2594.257520  	0.003501 
2596.186336  	0.003489 
2598.115152  	0.003616 
2600.043968  	0.003632 
2601.972784  	0.003861 
2603.901600  	0.003975 
2605.830416  	0.004128 
2607.759232  	0.004191 
2609.688048  	0.004292 
2611.616864  	0.004446 
2613.545680  	0.004645 
2615.474496  	0.004796 
2617.403312  	0.004936 
2619.332128  	0.004880 
2621.260944  	0.004842 
2623.189760  	0.004992 
2625.118576  	0.005184 
2627.047392  	0.005285 
2628.976208  	0.005465 
2630.905024  	0.005487 
2632.833840  	0.005531 
2634.762656  	0.005681 
2636.691472  	0.005847 
2638.620288  	0.006011 
2640.549104  	0.006132 
2642.477920  	0.006174 
2644.406736  	0.006367 
2646.335552  	0.006546 
2648.264368  	0.006734 
2650.193184  	0.006836 
2652.122000  	0.006988 
2654.050816  	0.007190 
2655.979632  	0.007416 
2657.908448  	0.007568 
2659.837264  	0.007625 
2661.766080  	0.007670 
2663.694896  	0.007774 
2665.623712  	0.007901 
2667.552528  	0.008115 
2669.481344  	0.008236 
2671.410160  	0.008328 
2673.338976  	0.008351 
2675.267792  	0.008531 
2677.196608  	0.008785 
2679.125424  	0.008900 
2681.054240  	0.008962 
2682.983056  	0.009091 
2684.911872  	0.009180 
2686.840688  	0.009295 
2688.769504  	0.009392 
2690.698320  	0.009473 
2692.627136  	0.009605 
2694.555952  	0.009712 
2696.484768  	0.009706 
2698.413584  	0.009800 
2700.342400  	0.009931 
2702.271216  	0.010166 
2704.200032  	0.010366 
2706.128848  	0.010516 
2708.057664  	0.010610 
2709.986480  	0.010761 
2711.915296  	0.010874 
2713.844112  	0.011007 
2715.772928  	0.011103 
2717.701744  	0.011237 
2719.630560  	0.011417 
2721.559376  	0.011522 
2723.488192  	0.011650 
2725.417008  	0.011874 
2727.345824  	0.012143 
2729.274640  	0.012243 
2731.203456  	0.012390 
2733.132272  	0.012555 
2735.061088  	0.012625 
2736.989904  	0.012853 
2738.918720  	0.012949 
2740.847536  	0.012948 
2742.776352  	0.012879 
2744.705168  	0.013051 
2746.633984  	0.013244 
2748.562800  	0.013282 
2750.491616  	0.013233 
2752.420432  	0.013342 
2754.349248  	0.013434 
2756.278064  	0.013441 
2758.206880  	0.013336 
2760.135696  	0.013325 
2762.064512  	0.013396 
2763.993328  	0.013478 
2765.922144  	0.013560 
2767.850960  	0.013718 
2769.779776  	0.013645 
2771.708592  	0.013587 
2773.637408  	0.013491 
2775.566224  	0.013489 
2777.495040  	0.013565 
2779.423856  	0.013624 
2781.352672  	0.013550 
2783.281488  	0.013562 
2785.210304  	0.013610 
2787.139120  	0.013631 
2789.067936  	0.013615 
2790.996752  	0.013614 
2792.925568  	0.013619 
2794.854384  	0.013557 
2796.783200  	0.013467 
2798.712016  	0.013487 
2800.640832  	0.013525 
2802.569648  	0.013604 
2804.498464  	0.013645 
2806.427280  	0.013597 
2808.356096  	0.013547 
2810.284912  	0.013623 
2812.213728  	0.013628 
2814.142544  	0.013640 
2816.071360  	0.013695 
2818.000176  	0.013606 
2819.928992  	0.013461 
2821.857808  	0.013386 
2823.786624  	0.013275 
2825.715440  	0.013218 
2827.644256  	0.013037 
2829.573072  	0.012862 
2831.501888  	0.012592 
2833.430704  	0.012285 
2835.359520  	0.011953 
2837.288336  	0.011634 
2839.217152  	0.011348 
2841.145968  	0.011087 
2843.074784  	0.010681 
2845.003600  	0.010259 
2846.932416  	0.009939 
2848.861232  	0.009645 
2850.790048  	0.009179 
2852.718864  	0.008683 
2854.647680  	0.008149 
2856.576496  	0.007424 
2858.505312  	0.006764 
2860.434128  	0.006244 
2862.362944  	0.005604 
2864.291760  	0.004911 
2866.220576  	0.004253 
2868.149392  	0.003919 
2870.078208  	0.003758 
2872.007024  	0.003671 
2873.935840  	0.003813 
2875.864656  	0.003940 
2877.793472  	0.003823 
2879.722288  	0.003725 
2881.651104  	0.003461 
2883.579920  	0.003352 
2885.508736  	0.003571 
2887.437552  	0.003879 
2889.366368  	0.003913 
2891.295184  	0.003761 
2893.224000  	0.003765 
2895.152816  	0.003821 
2897.081632  	0.003510 
2899.010448  	0.001836 
2900.939264  	0.000245 
2902.868080  	0.001475 
2904.796896  	0.002851 
2906.725712  	0.003494 
2908.654528  	0.004218 
2910.583344  	0.004759 
2912.512160  	0.005442 
2914.440976  	0.006634 
2916.369792  	0.007491 
2918.298608  	0.008076 
2920.227424  	0.008660 
2922.156240  	0.009320 
2924.085056  	0.010160 
2926.013872  	0.011111 
2927.942688  	0.012073 
2929.871504  	0.013177 
2931.800320  	0.014239 
2933.729136  	0.015026 
2935.657952  	0.015766 
2937.586768  	0.016589 
2939.515584  	0.017289 
2941.444400  	0.017524 
2943.373216  	0.017609 
2945.302032  	0.017975 
2947.230848  	0.018186 
2949.159664  	0.017938 
2951.088480  	0.017385 
2953.017296  	0.016920 
2954.946112  	0.016315 
2956.874928  	0.015638 
2958.803744  	0.014796 
2960.732560  	0.014236 
2962.661376  	0.013627 
2964.590192  	0.012563 
2966.519008  	0.011252 
2968.447824  	0.010244 
2970.376640  	0.009317 
2972.305456  	0.008728 
2974.234272  	0.008996 
2976.163088  	0.009503 
2978.091904  	0.009556 
2980.020720  	0.009379 
2981.949536  	0.009537 
2983.878352  	0.009393 
2985.807168  	0.008434 
2987.735984  	0.007444 
2989.664800  	0.007830 
2991.593616  	0.010964 
2993.522432  	0.013072 
2995.451248  	0.013770 
2997.380064  	0.014695 
2999.308880  	0.015909 
3001.237696  	0.017297 
3003.166512  	0.018845 
3005.095328  	0.020266 
3007.024144  	0.021766 
3008.952960  	0.023377 
3010.881776  	0.024932 
3012.810592  	0.026278 
3014.739408  	0.027624 
3016.668224  	0.028866 
3018.597040  	0.030173 
3020.525856  	0.031435 
3022.454672  	0.032566 
3024.383488  	0.033729 
3026.312304  	0.034748 
3028.241120  	0.035770 
3030.169936  	0.036780 
3032.098752  	0.037669 
3034.027568  	0.038511 
3035.956384  	0.039391 
3037.885200  	0.040357 
3039.814016  	0.041048 
3041.742832  	0.041687 
3043.671648  	0.042395 
3045.600464  	0.043209 
3047.529280  	0.043689 
3049.458096  	0.044389 
3051.386912  	0.045254 
3053.315728  	0.045907 
3055.244544  	0.046649 
3057.173360  	0.047357 
3059.102176  	0.047947 
3061.030992  	0.048786 
3062.959808  	0.049678 
3064.888624  	0.050390 
3066.817440  	0.051180 
3068.746256  	0.052159 
3070.675072  	0.053104 
3072.603888  	0.053807 
3074.532704  	0.054483 
3076.461520  	0.055335 
3078.390336  	0.056274 
3080.319152  	0.057033 
3082.247968  	0.057903 
3084.176784  	0.058762 
3086.105600  	0.059473 
3088.034416  	0.060217 
3089.963232  	0.061107 
3091.892048  	0.062005 
3093.820864  	0.062878 
3095.749680  	0.063718 
3097.678496  	0.064550 
3099.607312  	0.065462 
3101.536128  	0.066285 
3103.464944  	0.067205 
3105.393760  	0.068003 
3107.322576  	0.068762 
3109.251392  	0.069741 
3111.180208  	0.070700 
3113.109024  	0.071520 
3115.037840  	0.072183 
3116.966656  	0.072773 
3118.895472  	0.073300 
3120.824288  	0.073994 
3122.753104  	0.074931 
3124.681920  	0.075606 
3126.610736  	0.076119 
3128.539552  	0.076806 
3130.468368  	0.077593 
3132.397184  	0.078230 
3134.326000  	0.078950 
3136.254816  	0.079544 
3138.183632  	0.079977 
3140.112448  	0.080534 
3142.041264  	0.081090 
3143.970080  	0.081657 
3145.898896  	0.082273 
3147.827712  	0.082911 
3149.756528  	0.083540 
3151.685344  	0.084242 
3153.614160  	0.085009 
3155.542976  	0.085677 
3157.471792  	0.086365 
3159.400608  	0.086975 
3161.329424  	0.087499 
3163.258240  	0.088044 
3165.187056  	0.088584 
3167.115872  	0.089303 
3169.044688  	0.089997 
3170.973504  	0.090385 
3172.902320  	0.090722 
3174.831136  	0.091189 
3176.759952  	0.091620 
3178.688768  	0.091838 
3180.617584  	0.092212 
3182.546400  	0.092727 
3184.475216  	0.092991 
3186.404032  	0.093043 
3188.332848  	0.093266 
3190.261664  	0.093522 
3192.190480  	0.093597 
3194.119296  	0.093380 
3196.048112  	0.093430 
3197.976928  	0.093291 
3199.905744  	0.093244 
3201.834560  	0.093138 
3203.763376  	0.093081 
3205.692192  	0.093083 
3207.621008  	0.092896 
3209.549824  	0.092702 
3211.478640  	0.092726 
3213.407456  	0.092702 
3215.336272  	0.092471 
3217.265088  	0.092437 
3219.193904  	0.092165 
3221.122720  	0.091781 
3223.051536  	0.091633 
3224.980352  	0.091534 
3226.909168  	0.091518 
3228.837984  	0.091364 
3230.766800  	0.091308 
3232.695616  	0.091279 
3234.624432  	0.091002 
3236.553248  	0.090721 
3238.482064  	0.090652 
3240.410880  	0.090745 
3242.339696  	0.091050 
3244.268512  	0.090948 
3246.197328  	0.091041 
3248.126144  	0.091411 
3250.054960  	0.091590 
3251.983776  	0.091841 
3253.912592  	0.091824 
3255.841408  	0.091863 
3257.770224  	0.092176 
3259.699040  	0.092514 
3261.627856  	0.092729 
3263.556672  	0.092928 
3265.485488  	0.093143 
3267.414304  	0.093396 
3269.343120  	0.093729 
3271.271936  	0.094048 
3273.200752  	0.093896 
3275.129568  	0.093696 
3277.058384  	0.094087 
3278.987200  	0.094348 
3280.916016  	0.094566 
3282.844832  	0.094887 
3284.773648  	0.095210 
3286.702464  	0.095460 
3288.631280  	0.095879 
3290.560096  	0.096304 
3292.488912  	0.096464 
3294.417728  	0.096511 
3296.346544  	0.096833 
3298.275360  	0.097072 
3300.204176  	0.097417 
3302.132992  	0.097758 
3304.061808  	0.098147 
3305.990624  	0.098721 
3307.919440  	0.099053 
3309.848256  	0.099192 
3311.777072  	0.099605 
3313.705888  	0.099915 
3315.634704  	0.100225 
3317.563520  	0.100447 
3319.492336  	0.100679 
3321.421152  	0.100926 
3323.349968  	0.101209 
3325.278784  	0.101351 
3327.207600  	0.101468 
3329.136416  	0.101482 
3331.065232  	0.101614 
3332.994048  	0.101770 
3334.922864  	0.101823 
3336.851680  	0.101654 
3338.780496  	0.101475 
3340.709312  	0.101376 
3342.638128  	0.101286 
3344.566944  	0.100805 
3346.495760  	0.100450 
3348.424576  	0.100231 
3350.353392  	0.100084 
3352.282208  	0.099895 
3354.211024  	0.099563 
3356.139840  	0.099007 
3358.068656  	0.098615 
3359.997472  	0.098282 
3361.926288  	0.097752 
3363.855104  	0.097382 
3365.783920  	0.096954 
3367.712736  	0.096548 
3369.641552  	0.096215 
3371.570368  	0.095799 
3373.499184  	0.095428 
3375.428000  	0.094929 
3377.356816  	0.094423 
3379.285632  	0.094043 
3381.214448  	0.093616 
3383.143264  	0.093297 
3385.072080  	0.092938 
3387.000896  	0.092451 
3388.929712  	0.092028 
3390.858528  	0.091654 
3392.787344  	0.090985 
3394.716160  	0.090471 
3396.644976  	0.090180 
3398.573792  	0.089618 
3400.502608  	0.089146 
3402.431424  	0.088691 
3404.360240  	0.088076 
3406.289056  	0.087538 
3408.217872  	0.087194 
3410.146688  	0.086738 
3412.075504  	0.086261 
3414.004320  	0.085810 
3415.933136  	0.085350 
3417.861952  	0.084693 
3419.790768  	0.084032 
3421.719584  	0.083304 
3423.648400  	0.082842 
3425.577216  	0.082428 
3427.506032  	0.081899 
3429.434848  	0.081279 
3431.363664  	0.080632 
3433.292480  	0.079818 
3435.221296  	0.079243 
3437.150112  	0.078750 
3439.078928  	0.078124 
3441.007744  	0.077493 
3442.936560  	0.076947 
3444.865376  	0.076644 
3446.794192  	0.075705 
3448.723008  	0.074549 
3450.651824  	0.074157 
3452.580640  	0.073531 
3454.509456  	0.072931 
3456.438272  	0.072230 
3458.367088  	0.071607 
3460.295904  	0.070908 
3462.224720  	0.069946 
3464.153536  	0.069088 
3466.082352  	0.068310 
3468.011168  	0.067207 
3469.939984  	0.066506 
3471.868800  	0.065902 
3473.797616  	0.065098 
3475.726432  	0.064132 
3477.655248  	0.063483 
3479.584064  	0.062888 
3481.512880  	0.061938 
3483.441696  	0.060674 
3485.370512  	0.060246 
3487.299328  	0.059265 
3489.228144  	0.058315 
3491.156960  	0.057617 
3493.085776  	0.056929 
3495.014592  	0.056031 
3496.943408  	0.055078 
3498.872224  	0.054510 
3500.801040  	0.054252 
3502.729856  	0.053040 
3504.658672  	0.051771 
3506.587488  	0.051805 
3508.516304  	0.051352 
3510.445120  	0.049955 
3512.373936  	0.049197 
3514.302752  	0.048711 
3516.231568  	0.048512 
3518.160384  	0.047990 
3520.089200  	0.047396 
3522.018016  	0.046937 
3523.946832  	0.045987 
3525.875648  	0.045303 
3527.804464  	0.044176 
3529.733280  	0.043072 
3531.662096  	0.042670 
3533.590912  	0.042529 
3535.519728  	0.042037 
3537.448544  	0.041223 
3539.377360  	0.040694 
3541.306176  	0.040134 
3543.234992  	0.040002 
3545.163808  	0.039331 
3547.092624  	0.037747 
3549.021440  	0.036947 
3550.950256  	0.036865 
3552.879072  	0.035442 
3554.807888  	0.034780 
3556.736704  	0.034685 
3558.665520  	0.034364 
3560.594336  	0.033687 
3562.523152  	0.033159 
3564.451968  	0.033379 
3566.380784  	0.031763 
3568.309600  	0.028152 
3570.238416  	0.028598 
3572.167232  	0.029379 
3574.096048  	0.028736 
3576.024864  	0.027728 
3577.953680  	0.027049 
3579.882496  	0.026164 
3581.811312  	0.025700 
3583.740128  	0.025860 
3585.668944  	0.025876 
3587.597760  	0.022192 
3589.526576  	0.020077 
3591.455392  	0.021448 
3593.384208  	0.021429 
3595.313024  	0.019797 
3597.241840  	0.018518 
3599.170656  	0.017621 
3601.099472  	0.016349 
3603.028288  	0.016290 
3604.957104  	0.017174 
3606.885920  	0.016422 
3608.814736  	0.013657 
3610.743552  	0.013481 
3612.672368  	0.012658 
3614.601184  	0.010810 
3616.530000  	0.011699 
3618.458816  	0.009279 
3620.387632  	0.005611 
3622.316448  	0.006564 
3624.245264  	0.008029 
3626.174080  	0.008905 
3628.102896  	0.005583 
3630.031712  	-0.002026 
3631.960528  	0.001211 
3633.889344  	0.001677 
3635.818160  	0.000812 
3637.746976  	0.000300 
3639.675792  	-0.000311 
3641.604608  	-0.000340 
3643.533424  	-0.000264 
3645.462240  	0.000536 
3647.391056  	-0.002314 
3649.319872  	-0.009250 
3651.248688  	-0.013245 
3653.177504  	-0.008368 
3655.106320  	-0.006768 
3657.035136  	-0.011546 
3658.963952  	-0.011268 
3660.892768  	-0.010557 
3662.821584  	-0.010703 
3664.750400  	-0.010272 
3666.679216  	-0.009014 
3668.608032  	-0.010208 
3670.536848  	-0.016184 
3672.465664  	-0.013334 
3674.394480  	-0.012082 
3676.323296  	-0.021390 
3678.252112  	-0.017303 
3680.180928  	-0.014644 
3682.109744  	-0.013509 
3684.038560  	-0.012979 
3685.967376  	-0.011282 
3687.896192  	-0.013107 
3689.825008  	-0.018761 
3691.753824  	-0.018838 
3693.682640  	-0.015868 
3695.611456  	-0.013868 
3697.540272  	-0.013044 
3699.469088  	-0.011384 
3701.397904  	-0.012726 
3703.326720  	-0.013681 
3705.255536  	-0.011187 
3707.184352  	-0.009553 
3709.113168  	-0.010183 
3711.041984  	-0.013655 
3712.970800  	-0.015670 
3714.899616  	-0.012449 
3716.828432  	-0.009877 
3718.757248  	-0.009913 
3720.686064  	-0.010220 
3722.614880  	-0.011514 
3724.543696  	-0.011553 
3726.472512  	-0.012306 
3728.401328  	-0.011561 
3730.330144  	-0.009355 
3732.258960  	-0.010636 
3734.187776  	-0.011736 
3736.116592  	-0.015580 
3738.045408  	-0.015037 
3739.974224  	-0.011256 
3741.903040  	-0.007816 
3743.831856  	-0.010178 
3745.760672  	-0.016597 
3747.689488  	-0.010996 
3749.618304  	-0.012430 
3751.547120  	-0.017650 
3753.475936  	-0.017048 
3755.404752  	-0.012063 
3757.333568  	-0.010627 
3759.262384  	-0.012279 
3761.191200  	-0.013147 
3763.120016  	-0.009955 
3765.048832  	-0.010416 
3766.977648  	-0.011032 
3768.906464  	-0.011015 
3770.835280  	-0.013561 
3772.764096  	-0.011967 
3774.692912  	-0.010255 
3776.621728  	-0.009208 
3778.550544  	-0.010168 
3780.479360  	-0.013018 
3782.408176  	-0.011136 
3784.336992  	-0.011028 
3786.265808  	-0.011729 
3788.194624  	-0.010994 
3790.123440  	-0.010675 
3792.052256  	-0.010567 
3793.981072  	-0.009365 
3795.909888  	-0.010381 
3797.838704  	-0.011211 
3799.767520  	-0.009280 
3801.696336  	-0.015349 
3803.625152  	-0.014955 
3805.553968  	-0.010751 
3807.482784  	-0.014461 
3809.411600  	-0.013056 
3811.340416  	-0.010310 
3813.269232  	-0.008193 
3815.198048  	-0.010002 
3817.126864  	-0.014085 
3819.055680  	-0.010171 
3820.984496  	-0.014447 
3822.913312  	-0.016603 
3824.842128  	-0.011571 
3826.770944  	-0.011936 
3828.699760  	-0.011161 
3830.628576  	-0.010007 
3832.557392  	-0.011122 
3834.486208  	-0.010561 
3836.415024  	-0.010933 
3838.343840  	-0.014085 
3840.272656  	-0.015028 
3842.201472  	-0.013149 
3844.130288  	-0.013015 
3846.059104  	-0.011607 
3847.987920  	-0.009364 
3849.916736  	-0.007652 
3851.845552  	-0.007995 
3853.774368  	-0.019070 
3855.703184  	-0.018808 
3857.632000  	-0.013541 
3859.560816  	-0.010329 
3861.489632  	-0.009643 
3863.418448  	-0.010868 
3865.347264  	-0.012904 
3867.276080  	-0.010021 
3869.204896  	-0.010528 
3871.133712  	-0.014397 
3873.062528  	-0.011994 
3874.991344  	-0.013689 
3876.920160  	-0.010806 
3878.848976  	-0.008605 
3880.777792  	-0.011809 
3882.706608  	-0.010943 
3884.635424  	-0.009711 
3886.564240  	-0.013564 
3888.493056  	-0.010708 
3890.421872  	-0.010065 
3892.350688  	-0.013303 
3894.279504  	-0.011824 
3896.208320  	-0.009110 
3898.137136  	-0.008393 
3900.065952  	-0.010115 
3901.994768  	-0.010715 
3903.923584  	-0.012708 
3905.852400  	-0.014167 
3907.781216  	-0.012248 
3909.710032  	-0.010758 
3911.638848  	-0.010366 
3913.567664  	-0.009571 
3915.496480  	-0.008980 
3917.425296  	-0.010578 
3919.354112  	-0.011350 
3921.282928  	-0.010887 
3923.211744  	-0.009852 
3925.140560  	-0.010909 
3927.069376  	-0.010697 
3928.998192  	-0.009671 
3930.927008  	-0.009879 
3932.855824  	-0.011173 
3934.784640  	-0.011355 
3936.713456  	-0.010690 
3938.642272  	-0.010263 
3940.571088  	-0.009324 
3942.499904  	-0.010034 
3944.428720  	-0.010810 
3946.357536  	-0.009650 
3948.286352  	-0.009950 
3950.215168  	-0.010690 
3952.143984  	-0.010656 
3954.072800  	-0.010362 
3956.001616  	-0.010231 
3957.930432  	-0.010343 
3959.859248  	-0.010171 
3961.788064  	-0.010342 
3963.716880  	-0.010690 
3965.645696  	-0.010543 
3967.574512  	-0.010266 
3969.503328  	-0.010245 
3971.432144  	-0.010348 
3973.360960  	-0.010528 
3975.289776  	-0.010845 
3977.218592  	-0.010700 
3979.147408  	-0.010468 
3981.076224  	-0.010439 
3983.005040  	-0.010485 
3984.933856  	-0.010451 
3986.862672  	-0.010422 
3988.791488  	-0.010283 
3990.720304  	-0.010392 
3992.649120  	-0.010436 
3994.577936  	-0.010603 
3996.506752  	-0.010694 
3998.435568  	-0.010554 
4000.364384  	-0.010264 