##TITLE=No Description
##DATA TYPE=INFRARED SPECTRUM
##XUNITS=1/CM
##YUNITS=Abs
399.264912  	0.235432 
401.193728  	0.250011 
403.122544  	0.257065 
405.051360  	0.248535 
406.980176  	0.243463 
408.908992  	0.240156 
410.837808  	0.240448 
412.766624  	0.238369 
414.695440  	0.239304 
416.624256  	0.250013 
418.553072  	0.253762 
420.481888  	0.240170 
422.410704  	0.243328 
424.339520  	0.237364 
426.268336  	0.238297 
428.197152  	0.243683 
430.125968  	0.238249 
432.054784  	0.230088 
433.983600  	0.231376 
435.912416  	0.231709 
437.841232  	0.233577 
439.770048  	0.234690 
441.698864  	0.233855 
443.627680  	0.228982 
445.556496  	0.227992 
447.485312  	0.228589 
449.414128  	0.233033 
451.342944  	0.237154 
453.271760  	0.236217 
455.200576  	0.234122 
457.129392  	0.236508 
459.058208  	0.239299 
460.987024  	0.242434 
462.915840  	0.242575 
464.844656  	0.241315 
466.773472  	0.242048 
468.702288  	0.244954 
470.631104  	0.245468 
472.559920  	0.248617 
474.488736  	0.249042 
476.417552  	0.248112 
478.346368  	0.249645 
480.275184  	0.254617 
482.204000  	0.252898 
484.132816  	0.251976 
486.061632  	0.255216 
487.990448  	0.258977 
489.919264  	0.259128 
491.848080  	0.259993 
493.776896  	0.260827 
495.705712  	0.260749 
497.634528  	0.261491 
499.563344  	0.266268 
501.492160  	0.265894 
503.420976  	0.263275 
505.349792  	0.264100 
507.278608  	0.267315 
509.207424  	0.268608 
511.136240  	0.270028 
513.065056  	0.271762 
514.993872  	0.276826 
516.922688  	0.280736 
518.851504  	0.284125 
520.780320  	0.285132 
522.709136  	0.286685 
524.637952  	0.287097 
526.566768  	0.289226 
528.495584  	0.290075 
530.424400  	0.291323 
532.353216  	0.290787 
534.282032  	0.289584 
536.210848  	0.286020 
538.139664  	0.282130 
540.068480  	0.278717 
541.997296  	0.276587 
543.926112  	0.275454 
545.854928  	0.273982 
547.783744  	0.272126 
549.712560  	0.271845 
551.641376  	0.270328 
553.570192  	0.268964 
555.499008  	0.266441 
557.427824  	0.265924 
559.356640  	0.265228 
561.285456  	0.263480 
563.214272  	0.261818 
565.143088  	0.260336 
567.071904  	0.257543 
569.000720  	0.255635 
570.929536  	0.253974 
572.858352  	0.253021 
574.787168  	0.251711 
576.715984  	0.251532 
578.644800  	0.249846 
580.573616  	0.246508 
582.502432  	0.242102 
584.431248  	0.237572 
586.360064  	0.233941 
588.288880  	0.232365 
590.217696  	0.230721 
592.146512  	0.228940 
594.075328  	0.227512 
596.004144  	0.227140 
597.932960  	0.226774 
599.861776  	0.225880 
601.790592  	0.225447 
603.719408  	0.225579 
605.648224  	0.224895 
607.577040  	0.224440 
609.505856  	0.223640 
611.434672  	0.223475 
613.363488  	0.223396 
615.292304  	0.223251 
617.221120  	0.222584 
619.149936  	0.222620 
621.078752  	0.222036 
623.007568  	0.221702 
624.936384  	0.221286 
626.865200  	0.222000 
628.794016  	0.222228 
630.722832  	0.222368 
632.651648  	0.222656 
634.580464  	0.223701 
636.509280  	0.225387 
638.438096  	0.226468 
640.366912  	0.227069 
642.295728  	0.226760 
644.224544  	0.225788 
646.153360  	0.224888 
648.082176  	0.223206 
650.010992  	0.220920 
651.939808  	0.218062 
653.868624  	0.215856 
655.797440  	0.213382 
657.726256  	0.211337 
659.655072  	0.208585 
661.583888  	0.205298 
663.512704  	0.201685 
665.441520  	0.198113 
667.370336  	0.195750 
669.299152  	0.192668 
671.227968  	0.187748 
673.156784  	0.184490 
675.085600  	0.182777 
677.014416  	0.181319 
678.943232  	0.179449 
680.872048  	0.178156 
682.800864  	0.176819 
684.729680  	0.175610 
686.658496  	0.174991 
688.587312  	0.174652 
690.516128  	0.173378 
692.444944  	0.172451 
694.373760  	0.172070 
696.302576  	0.171892 
698.231392  	0.170667 
700.160208  	0.169068 
702.089024  	0.167822 
704.017840  	0.165973 
705.946656  	0.163631 
707.875472  	0.162041 
709.804288  	0.160719 
711.733104  	0.159692 
713.661920  	0.158619 
715.590736  	0.157943 
717.519552  	0.157811 
719.448368  	0.158388 
721.377184  	0.159827 
723.306000  	0.161548 
725.234816  	0.162846 
727.163632  	0.163306 
729.092448  	0.161802 
731.021264  	0.158754 
732.950080  	0.155976 
734.878896  	0.153243 
736.807712  	0.150550 
738.736528  	0.148868 
740.665344  	0.147203 
742.594160  	0.146285 
744.522976  	0.145482 
746.451792  	0.144746 
748.380608  	0.143977 
750.309424  	0.143592 
752.238240  	0.143281 
754.167056  	0.143178 
756.095872  	0.142629 
758.024688  	0.141907 
759.953504  	0.141851 
761.882320  	0.142908 
763.811136  	0.144392 
765.739952  	0.143862 
767.668768  	0.141501 
769.597584  	0.139197 
771.526400  	0.138800 
773.455216  	0.140870 
775.384032  	0.145383 
777.312848  	0.151519 
779.241664  	0.156184 
781.170480  	0.156440 
783.099296  	0.152366 
785.028112  	0.147613 
786.956928  	0.142946 
788.885744  	0.139184 
790.814560  	0.136038 
792.743376  	0.134332 
794.672192  	0.134202 
796.601008  	0.133671 
798.529824  	0.131075 
800.458640  	0.127588 
802.387456  	0.124563 
804.316272  	0.123237 
806.245088  	0.122694 
808.173904  	0.122413 
810.102720  	0.122427 
812.031536  	0.122780 
813.960352  	0.123861 
815.889168  	0.125335 
817.817984  	0.126597 
819.746800  	0.127663 
821.675616  	0.128957 
823.604432  	0.130521 
825.533248  	0.131897 
827.462064  	0.132940 
829.390880  	0.133296 
831.319696  	0.133323 
833.248512  	0.132788 
835.177328  	0.131577 
837.106144  	0.129505 
839.034960  	0.127217 
840.963776  	0.124299 
842.892592  	0.121185 
844.821408  	0.117452 
846.750224  	0.113920 
848.679040  	0.111586 
850.607856  	0.110256 
852.536672  	0.109158 
854.465488  	0.107977 
856.394304  	0.107406 
858.323120  	0.106737 
860.251936  	0.105718 
862.180752  	0.104429 
864.109568  	0.102897 
866.038384  	0.101175 
867.967200  	0.099638 
869.896016  	0.098203 
871.824832  	0.097297 
873.753648  	0.096898 
875.682464  	0.097168 
877.611280  	0.098788 
879.540096  	0.101593 
881.468912  	0.105252 
883.397728  	0.108955 
885.326544  	0.112034 
887.255360  	0.114204 
889.184176  	0.115156 
891.112992  	0.114974 
893.041808  	0.113991 
894.970624  	0.111987 
896.899440  	0.108789 
898.828256  	0.104875 
900.757072  	0.100954 
902.685888  	0.097126 
904.614704  	0.094904 
906.543520  	0.094958 
908.472336  	0.096497 
910.401152  	0.098891 
912.329968  	0.101845 
914.258784  	0.105065 
916.187600  	0.107694 
918.116416  	0.109908 
920.045232  	0.112005 
921.974048  	0.113541 
923.902864  	0.114557 
925.831680  	0.115318 
927.760496  	0.116539 
929.689312  	0.117949 
931.618128  	0.119477 
933.546944  	0.120534 
935.475760  	0.121058 
937.404576  	0.120921 
939.333392  	0.120232 
941.262208  	0.119727 
943.191024  	0.120270 
945.119840  	0.122791 
947.048656  	0.127727 
948.977472  	0.134956 
950.906288  	0.144244 
952.835104  	0.155790 
954.763920  	0.168997 
956.692736  	0.182509 
958.621552  	0.195166 
960.550368  	0.205352 
962.479184  	0.212152 
964.408000  	0.214234 
966.336816  	0.211534 
968.265632  	0.204073 
970.194448  	0.193263 
972.123264  	0.179815 
974.052080  	0.165169 
975.980896  	0.150552 
977.909712  	0.136756 
979.838528  	0.124316 
981.767344  	0.114043 
983.696160  	0.106329 
985.624976  	0.101255 
987.553792  	0.099198 
989.482608  	0.100302 
991.411424  	0.104000 
993.340240  	0.109691 
995.269056  	0.116237 
997.197872  	0.123133 
999.126688  	0.130098 
1001.055504  	0.137368 
1002.984320  	0.144526 
1004.913136  	0.151694 
1006.841952  	0.158780 
1008.770768  	0.165455 
1010.699584  	0.171091 
1012.628400  	0.175758 
1014.557216  	0.178893 
1016.486032  	0.180759 
1018.414848  	0.181647 
1020.343664  	0.181981 
1022.272480  	0.182242 
1024.201296  	0.182530 
1026.130112  	0.182011 
1028.058928  	0.182019 
1029.987744  	0.183433 
1031.916560  	0.185765 
1033.845376  	0.188053 
1035.774192  	0.191145 
1037.703008  	0.195695 
1039.631824  	0.202718 
1041.560640  	0.213342 
1043.489456  	0.228481 
1045.418272  	0.247097 
1047.347088  	0.266579 
1049.275904  	0.283548 
1051.204720  	0.296027 
1053.133536  	0.301773 
1055.062352  	0.302999 
1056.991168  	0.301766 
1058.919984  	0.300775 
1060.848800  	0.299715 
1062.777616  	0.298912 
1064.706432  	0.296971 
1066.635248  	0.294739 
1068.564064  	0.290686 
1070.492880  	0.284467 
1072.421696  	0.277492 
1074.350512  	0.272938 
1076.279328  	0.272056 
1078.208144  	0.275493 
1080.136960  	0.281124 
1082.065776  	0.286327 
1083.994592  	0.287538 
1085.923408  	0.284013 
1087.852224  	0.276120 
1089.781040  	0.266075 
1091.709856  	0.253968 
1093.638672  	0.240641 
1095.567488  	0.225836 
1097.496304  	0.211050 
1099.425120  	0.196035 
1101.353936  	0.181755 
1103.282752  	0.168338 
1105.211568  	0.156133 
1107.140384  	0.144743 
1109.069200  	0.134373 
1110.998016  	0.125127 
1112.926832  	0.116638 
1114.855648  	0.108619 
1116.784464  	0.101247 
1118.713280  	0.093936 
1120.642096  	0.086816 
1122.570912  	0.080244 
1124.499728  	0.074556 
1126.428544  	0.069646 
1128.357360  	0.065149 
1130.286176  	0.061268 
1132.214992  	0.058277 
1134.143808  	0.055838 
1136.072624  	0.053858 
1138.001440  	0.052266 
1139.930256  	0.050796 
1141.859072  	0.049176 
1143.787888  	0.047473 
1145.716704  	0.045755 
1147.645520  	0.044354 
1149.574336  	0.043543 
1151.503152  	0.043171 
1153.431968  	0.043133 
1155.360784  	0.043345 
1157.289600  	0.044002 
1159.218416  	0.044878 
1161.147232  	0.046184 
1163.076048  	0.047626 
1165.004864  	0.049271 
1166.933680  	0.050691 
1168.862496  	0.052354 
1170.791312  	0.054383 
1172.720128  	0.056582 
1174.648944  	0.059297 
1176.577760  	0.062253 
1178.506576  	0.065123 
1180.435392  	0.068031 
1182.364208  	0.071181 
1184.293024  	0.074630 
1186.221840  	0.078550 
1188.150656  	0.083108 
1190.079472  	0.088372 
1192.008288  	0.094638 
1193.937104  	0.101924 
1195.865920  	0.110158 
1197.794736  	0.119192 
1199.723552  	0.128370 
1201.652368  	0.138044 
1203.581184  	0.147810 
1205.510000  	0.157145 
1207.438816  	0.165637 
1209.367632  	0.173304 
1211.296448  	0.179502 
1213.225264  	0.184518 
1215.154080  	0.187845 
1217.082896  	0.189900 
1219.011712  	0.190579 
1220.940528  	0.190691 
1222.869344  	0.189703 
1224.798160  	0.187693 
1226.726976  	0.184845 
1228.655792  	0.181701 
1230.584608  	0.177622 
1232.513424  	0.173065 
1234.442240  	0.167865 
1236.371056  	0.162197 
1238.299872  	0.155785 
1240.228688  	0.148771 
1242.157504  	0.141815 
1244.086320  	0.134979 
1246.015136  	0.127833 
1247.943952  	0.120813 
1249.872768  	0.114158 
1251.801584  	0.107911 
1253.730400  	0.101494 
1255.659216  	0.095309 
1257.588032  	0.089476 
1259.516848  	0.084015 
1261.445664  	0.078903 
1263.374480  	0.074308 
1265.303296  	0.070364 
1267.232112  	0.067144 
1269.160928  	0.064776 
1271.089744  	0.063332 
1273.018560  	0.062732 
1274.947376  	0.062864 
1276.876192  	0.063504 
1278.805008  	0.064166 
1280.733824  	0.064045 
1282.662640  	0.062888 
1284.591456  	0.061167 
1286.520272  	0.059485 
1288.449088  	0.058497 
1290.377904  	0.058635 
1292.306720  	0.059607 
1294.235536  	0.060480 
1296.164352  	0.060428 
1298.093168  	0.058820 
1300.021984  	0.056201 
1301.950800  	0.053391 
1303.879616  	0.050529 
1305.808432  	0.047254 
1307.737248  	0.043673 
1309.666064  	0.040351 
1311.594880  	0.037695 
1313.523696  	0.035740 
1315.452512  	0.034376 
1317.381328  	0.033676 
1319.310144  	0.033651 
1321.238960  	0.034019 
1323.167776  	0.034823 
1325.096592  	0.035625 
1327.025408  	0.036156 
1328.954224  	0.035979 
1330.883040  	0.035232 
1332.811856  	0.034152 
1334.740672  	0.033021 
1336.669488  	0.032157 
1338.598304  	0.031863 
1340.527120  	0.031699 
1342.455936  	0.031345 
1344.384752  	0.031201 
1346.313568  	0.031457 
1348.242384  	0.032195 
1350.171200  	0.033411 
1352.100016  	0.034892 
1354.028832  	0.036544 
1355.957648  	0.038403 
1357.886464  	0.040089 
1359.815280  	0.041911 
1361.744096  	0.044116 
1363.672912  	0.046731 
1365.601728  	0.048513 
1367.530544  	0.050312 
1369.459360  	0.052112 
1371.388176  	0.052825 
1373.316992  	0.052511 
1375.245808  	0.051238 
1377.174624  	0.049087 
1379.103440  	0.046583 
1381.032256  	0.044079 
1382.961072  	0.042049 
1384.889888  	0.040364 
1386.818704  	0.039239 
1388.747520  	0.037870 
1390.676336  	0.035686 
1392.605152  	0.033359 
1394.533968  	0.032192 
1396.462784  	0.032369 
1398.391600  	0.032243 
1400.320416  	0.032600 
1402.249232  	0.032623 
1404.178048  	0.033111 
1406.106864  	0.034015 
1408.035680  	0.034986 
1409.964496  	0.036379 
1411.893312  	0.038425 
1413.822128  	0.040303 
1415.750944  	0.041963 
1417.679760  	0.043453 
1419.608576  	0.045477 
1421.537392  	0.045477 
1423.466208  	0.044741 
1425.395024  	0.043612 
1427.323840  	0.041562 
1429.252656  	0.039303 
1431.181472  	0.037678 
1433.110288  	0.036792 
1435.039104  	0.036526 
1436.967920  	0.038525 
1438.896736  	0.040141 
1440.825552  	0.040714 
1442.754368  	0.041399 
1444.683184  	0.041476 
1446.612000  	0.041395 
1448.540816  	0.041692 
1450.469632  	0.041799 
1452.398448  	0.041861 
1454.327264  	0.041527 
1456.256080  	0.041068 
1458.184896  	0.042335 
1460.113712  	0.042234 
1462.042528  	0.041432 
1463.971344  	0.040935 
1465.900160  	0.041826 
1467.828976  	0.042226 
1469.757792  	0.043010 
1471.686608  	0.045280 
1473.615424  	0.051307 
1475.544240  	0.055835 
1477.473056  	0.060846 
1479.401872  	0.064140 
1481.330688  	0.067542 
1483.259504  	0.070156 
1485.188320  	0.071803 
1487.117136  	0.072689 
1489.045952  	0.073628 
1490.974768  	0.073279 
1492.903584  	0.071016 
1494.832400  	0.067247 
1496.761216  	0.062245 
1498.690032  	0.056577 
1500.618848  	0.051796 
1502.547664  	0.047092 
1504.476480  	0.042690 
1506.405296  	0.039037 
1508.334112  	0.038637 
1510.262928  	0.037058 
1512.191744  	0.035759 
1514.120560  	0.034820 
1516.049376  	0.034641 
1517.978192  	0.035868 
1519.907008  	0.036613 
1521.835824  	0.040919 
1523.764640  	0.044772 
1525.693456  	0.047564 
1527.622272  	0.050158 
1529.551088  	0.050575 
1531.479904  	0.048967 
1533.408720  	0.046496 
1535.337536  	0.043637 
1537.266352  	0.040477 
1539.195168  	0.036948 
1541.123984  	0.034950 
1543.052800  	0.034174 
1544.981616  	0.033272 
1546.910432  	0.032212 
1548.839248  	0.031219 
1550.768064  	0.031411 
1552.696880  	0.030736 
1554.625696  	0.031026 
1556.554512  	0.029933 
1558.483328  	0.030533 
1560.412144  	0.037101 
1562.340960  	0.038217 
1564.269776  	0.039945 
1566.198592  	0.043419 
1568.127408  	0.045370 
1570.056224  	0.051139 
1571.985040  	0.055367 
1573.913856  	0.057156 
1575.842672  	0.059659 
1577.771488  	0.063306 
1579.700304  	0.062834 
1581.629120  	0.062098 
1583.557936  	0.061212 
1585.486752  	0.061425 
1587.415568  	0.062790 
1589.344384  	0.066177 
1591.273200  	0.070739 
1593.202016  	0.076426 
1595.130832  	0.082612 
1597.059648  	0.089497 
1598.988464  	0.095319 
1600.917280  	0.100810 
1602.846096  	0.104872 
1604.774912  	0.107897 
1606.703728  	0.108590 
1608.632544  	0.108460 
1610.561360  	0.106664 
1612.490176  	0.104769 
1614.418992  	0.101823 
1616.347808  	0.101380 
1618.276624  	0.103313 
1620.205440  	0.104048 
1622.134256  	0.105370 
1624.063072  	0.111757 
1625.991888  	0.116247 
1627.920704  	0.122997 
1629.849520  	0.131119 
1631.778336  	0.137427 
1633.707152  	0.141788 
1635.635968  	0.151663 
1637.564784  	0.162517 
1639.493600  	0.166980 
1641.422416  	0.170725 
1643.351232  	0.173410 
1645.280048  	0.174010 
1647.208864  	0.178699 
1649.137680  	0.180259 
1651.066496  	0.177662 
1652.995312  	0.177003 
1654.924128  	0.180934 
1656.852944  	0.178228 
1658.781760  	0.175950 
1660.710576  	0.173039 
1662.639392  	0.170345 
1664.568208  	0.167203 
1666.497024  	0.162966 
1668.425840  	0.157995 
1670.354656  	0.153824 
1672.283472  	0.149327 
1674.212288  	0.144912 
1676.141104  	0.141622 
1678.069920  	0.138651 
1679.998736  	0.136162 
1681.927552  	0.133772 
1683.856368  	0.132717 
1685.785184  	0.135565 
1687.714000  	0.134481 
1689.642816  	0.134541 
1691.571632  	0.134119 
1693.500448  	0.132711 
1695.429264  	0.131620 
1697.358080  	0.131813 
1699.286896  	0.130252 
1701.215712  	0.132034 
1703.144528  	0.130310 
1705.073344  	0.128179 
1707.002160  	0.125648 
1708.930976  	0.122446 
1710.859792  	0.117683 
1712.788608  	0.111698 
1714.717424  	0.103538 
1716.646240  	0.094004 
1718.575056  	0.082779 
1720.503872  	0.073463 
1722.432688  	0.064663 
1724.361504  	0.055024 
1726.290320  	0.046802 
1728.219136  	0.039506 
1730.147952  	0.033070 
1732.076768  	0.027596 
1734.005584  	0.023598 
1735.934400  	0.020201 
1737.863216  	0.017646 
1739.792032  	0.015276 
1741.720848  	0.013837 
1743.649664  	0.012260 
1745.578480  	0.010812 
1747.507296  	0.009368 
1749.436112  	0.008691 
1751.364928  	0.008370 
1753.293744  	0.007783 
1755.222560  	0.006794 
1757.151376  	0.006826 
1759.080192  	0.005960 
1761.009008  	0.005377 
1762.937824  	0.005233 
1764.866640  	0.004816 
1766.795456  	0.004103 
1768.724272  	0.003953 
1770.653088  	0.002847 
1772.581904  	0.003284 
1774.510720  	0.003511 
1776.439536  	0.003370 
1778.368352  	0.002948 
1780.297168  	0.002808 
1782.225984  	0.002630 
1784.154800  	0.002656 
1786.083616  	0.002419 
1788.012432  	0.002154 
1789.941248  	0.001768 
1791.870064  	0.001909 
1793.798880  	0.001912 
1795.727696  	0.001854 
1797.656512  	0.001190 
1799.585328  	0.000935 
1801.514144  	0.001352 
1803.442960  	0.001394 
1805.371776  	0.000952 
1807.300592  	0.000945 
1809.229408  	0.000777 
1811.158224  	0.000970 
1813.087040  	0.000830 
1815.015856  	0.000605 
1816.944672  	0.000451 
1818.873488  	0.000661 
1820.802304  	0.000430 
1822.731120  	0.000307 
1824.659936  	0.000254 
1826.588752  	0.000251 
1828.517568  	-0.000288 
1830.446384  	0.000434 
1832.375200  	0.000570 
1834.304016  	0.000620 
1836.232832  	0.000568 
1838.161648  	0.000552 
1840.090464  	0.000303 
1842.019280  	0.000275 
1843.948096  	0.000258 
1845.876912  	0.000543 
1847.805728  	0.000552 
1849.734544  	0.000752 
1851.663360  	0.000447 
1853.592176  	0.000366 
1855.520992  	-0.000053 
1857.449808  	0.000025 
1859.378624  	0.000122 
1861.307440  	0.000519 
1863.236256  	0.000344 
1865.165072  	-0.000075 
1867.093888  	-0.000378 
1869.022704  	0.000373 
1870.951520  	0.000251 
1872.880336  	-0.000007 
1874.809152  	-0.000276 
1876.737968  	-0.000293 
1878.666784  	-0.000444 
1880.595600  	-0.000030 
1882.524416  	-0.000084 
1884.453232  	-0.000021 
1886.382048  	-0.000154 
1888.310864  	0.000015 
1890.239680  	0.000003 
1892.168496  	-0.000269 
1894.097312  	-0.000688 
1896.026128  	-0.000151 
1897.954944  	0.000072 
1899.883760  	0.000027 
1901.812576  	-0.000140 
1903.741392  	-0.000016 
1905.670208  	-0.000242 
1907.599024  	0.000000 
1909.527840  	0.000158 
1911.456656  	0.000339 
1913.385472  	0.000391 
1915.314288  	0.000340 
1917.243104  	-0.000254 
1919.171920  	-0.000111 
1921.100736  	-0.000203 
1923.029552  	0.000131 
1924.958368  	-0.000802 
1926.887184  	-0.001093 
1928.816000  	-0.000653 
1930.744816  	-0.000327 
1932.673632  	-0.000623 
1934.602448  	-0.000567 
1936.531264  	-0.000716 
1938.460080  	-0.001155 
1940.388896  	-0.001705 
1942.317712  	-0.001027 
1944.246528  	-0.001062 
1946.175344  	-0.000782 
1948.104160  	-0.000685 
1950.032976  	-0.000942 
1951.961792  	-0.001388 
1953.890608  	-0.000798 
1955.819424  	-0.000977 
1957.748240  	-0.001407 
1959.677056  	-0.002667 
1961.605872  	-0.002174 
1963.534688  	-0.001721 
1965.463504  	-0.000941 
1967.392320  	-0.001590 
1969.321136  	-0.002298 
1971.249952  	-0.003363 
1973.178768  	-0.002841 
1975.107584  	-0.002961 
1977.036400  	-0.001873 
1978.965216  	-0.000504 
1980.894032  	0.000193 
1982.822848  	-0.000121 
1984.751664  	0.000049 
1986.680480  	-0.000421 
1988.609296  	-0.000712 
1990.538112  	-0.001127 
1992.466928  	-0.001049 
1994.395744  	-0.002294 
1996.324560  	-0.001520 
1998.253376  	-0.001027 
2000.182192  	-0.000589 
2002.111008  	-0.001173 
2004.039824  	-0.001815 
2005.968640  	-0.002494 
2007.897456  	-0.002096 
2009.826272  	-0.001730 
2011.755088  	-0.001333 
2013.683904  	-0.001327 
2015.612720  	-0.000752 
2017.541536  	-0.000201 
2019.470352  	0.000625 
2021.399168  	-0.000184 
2023.327984  	0.000369 
2025.256800  	-0.000339 
2027.185616  	-0.000608 
2029.114432  	-0.000955 
2031.043248  	-0.000292 
2032.972064  	0.000663 
2034.900880  	0.001430 
2036.829696  	0.000903 
2038.758512  	0.000994 
2040.687328  	0.000844 
2042.616144  	0.001932 
2044.544960  	0.001409 
2046.473776  	0.000817 
2048.402592  	0.001216 
2050.331408  	0.001402 
2052.260224  	-0.000185 
2054.189040  	-0.000751 
2056.117856  	-0.000078 
2058.046672  	0.000699 
2059.975488  	0.000530 
2061.904304  	0.000506 
2063.833120  	0.000094 
2065.761936  	0.000154 
2067.690752  	0.000242 
2069.619568  	0.000417 
2071.548384  	0.000300 
2073.477200  	0.000351 
2075.406016  	0.000263 
2077.334832  	0.000254 
2079.263648  	0.000300 
2081.192464  	0.000800 
2083.121280  	0.000306 
2085.050096  	0.000231 
2086.978912  	0.000169 
2088.907728  	0.000245 
2090.836544  	-0.000091 
2092.765360  	-0.000476 
2094.694176  	-0.000534 
2096.622992  	0.000279 
2098.551808  	0.000605 
2100.480624  	0.000187 
2102.409440  	-0.000118 
2104.338256  	0.000439 
2106.267072  	0.001155 
2108.195888  	0.001556 
2110.124704  	0.000818 
2112.053520  	0.000658 
2113.982336  	0.000896 
2115.911152  	0.001086 
2117.839968  	0.001267 
2119.768784  	0.000837 
2121.697600  	-0.000260 
2123.626416  	-0.000231 
2125.555232  	-0.000467 
2127.484048  	-0.000293 
2129.412864  	-0.000440 
2131.341680  	-0.000894 
2133.270496  	-0.000786 
2135.199312  	0.000739 
2137.128128  	0.000469 
2139.056944  	-0.000272 
2140.985760  	-0.000120 
2142.914576  	0.000625 
2144.843392  	0.000892 
2146.772208  	0.000751 
2148.701024  	0.000679 
2150.629840  	0.001167 
2152.558656  	0.000186 
2154.487472  	0.000036 
2156.416288  	0.000803 
2158.345104  	0.003334 
2160.273920  	0.005222 
2162.202736  	0.006029 
2164.131552  	0.004778 
2166.060368  	0.004454 
2167.989184  	0.003973 
2169.918000  	0.003964 
2171.846816  	0.003049 
2173.775632  	0.002636 
2175.704448  	0.002203 
2177.633264  	0.002282 
2179.562080  	0.001587 
2181.490896  	0.001392 
2183.419712  	0.001839 
2185.348528  	0.002166 
2187.277344  	0.002268 
2189.206160  	0.003207 
2191.134976  	0.003417 
2193.063792  	0.003678 
2194.992608  	0.003103 
2196.921424  	0.002601 
2198.850240  	0.002247 
2200.779056  	0.002728 
2202.707872  	0.002354 
2204.636688  	0.001942 
2206.565504  	0.002320 
2208.494320  	0.003134 
2210.423136  	0.002825 
2212.351952  	0.002512 
2214.280768  	0.002392 
2216.209584  	0.002317 
2218.138400  	0.001672 
2220.067216  	0.001738 
2221.996032  	0.001825 
2223.924848  	0.001853 
2225.853664  	0.001597 
2227.782480  	0.001469 
2229.711296  	0.001267 
2231.640112  	0.001293 
2233.568928  	0.000952 
2235.497744  	0.001089 
2237.426560  	0.001117 
2239.355376  	0.000708 
2241.284192  	0.000376 
2243.213008  	0.000507 
2245.141824  	0.000628 
2247.070640  	0.001397 
2248.999456  	0.001051 
2250.928272  	0.000625 
2252.857088  	0.000798 
2254.785904  	0.001216 
2256.714720  	0.001237 
2258.643536  	0.000909 
2260.572352  	0.000310 
2262.501168  	0.000449 
2264.429984  	0.000633 
2266.358800  	0.000733 
2268.287616  	0.001018 
2270.216432  	0.001194 
2272.145248  	0.000971 
2274.074064  	0.001016 
2276.002880  	0.001040 
2277.931696  	0.001111 
2279.860512  	0.001414 
2281.789328  	0.001943 
2283.718144  	0.002019 
2285.646960  	0.002158 
2287.575776  	0.002142 
2289.504592  	0.002027 
2291.433408  	0.001990 
2293.362224  	0.002304 
2295.291040  	0.002480 
2297.219856  	0.002653 
2299.148672  	0.002818 
2301.077488  	0.003077 
2303.006304  	0.003361 
2304.935120  	0.003647 
2306.863936  	0.003991 
2308.792752  	0.004380 
2310.721568  	0.004688 
2312.650384  	0.004834 
2314.579200  	0.004625 
2316.508016  	0.004702 
2318.436832  	0.005162 
2320.365648  	0.005859 
2322.294464  	0.006210 
2324.223280  	0.006074 
2326.152096  	0.005120 
2328.080912  	0.004741 
2330.009728  	0.005116 
2331.938544  	0.005296 
2333.867360  	0.004590 
2335.796176  	0.004078 
2337.724992  	0.003950 
2339.653808  	0.003876 
2341.582624  	0.004142 
2343.511440  	0.004825 
2345.440256  	0.005158 
2347.369072  	0.004865 
2349.297888  	0.004358 
2351.226704  	0.004276 
2353.155520  	0.004294 
2355.084336  	0.004526 
2357.013152  	0.004719 
2358.941968  	0.004840 
2360.870784  	0.005538 
2362.799600  	0.006290 
2364.728416  	0.006139 
2366.657232  	0.005920 
2368.586048  	0.005802 
2370.514864  	0.005526 
2372.443680  	0.005239 
2374.372496  	0.005014 
2376.301312  	0.004718 
2378.230128  	0.004585 
2380.158944  	0.004111 
2382.087760  	0.003309 
2384.016576  	0.002512 
2385.945392  	0.001955 
2387.874208  	0.001600 
2389.803024  	0.001663 
2391.731840  	0.001799 
2393.660656  	0.001700 
2395.589472  	0.001545 
2397.518288  	0.001671 
2399.447104  	0.001764 
2401.375920  	0.001916 
2403.304736  	0.002016 
2405.233552  	0.002019 
2407.162368  	0.002154 
2409.091184  	0.002245 
2411.020000  	0.002207 
2412.948816  	0.002155 
2414.877632  	0.002235 
2416.806448  	0.002432 
2418.735264  	0.002430 
2420.664080  	0.002587 
2422.592896  	0.002642 
2424.521712  	0.002796 
2426.450528  	0.002892 
2428.379344  	0.002979 
2430.308160  	0.003050 
2432.236976  	0.003143 
2434.165792  	0.003315 
2436.094608  	0.003460 
2438.023424  	0.003320 
2439.952240  	0.003184 
2441.881056  	0.003452 
2443.809872  	0.003568 
2445.738688  	0.003511 
2447.667504  	0.003685 
2449.596320  	0.003741 
2451.525136  	0.003710 
2453.453952  	0.003732 
2455.382768  	0.003896 
2457.311584  	0.004001 
2459.240400  	0.004109 
2461.169216  	0.004078 
2463.098032  	0.003993 
2465.026848  	0.003921 
2466.955664  	0.004073 
2468.884480  	0.004218 
2470.813296  	0.004316 
2472.742112  	0.004340 
2474.670928  	0.004374 
2476.599744  	0.004354 
2478.528560  	0.004641 
2480.457376  	0.004825 
2482.386192  	0.004698 
2484.315008  	0.004731 
2486.243824  	0.004798 
2488.172640  	0.005072 
2490.101456  	0.005438 
2492.030272  	0.005423 
2493.959088  	0.005271 
2495.887904  	0.005228 
2497.816720  	0.005540 
2499.745536  	0.005681 
2501.674352  	0.005850 
2503.603168  	0.006079 
2505.531984  	0.006208 
2507.460800  	0.006143 
2509.389616  	0.006208 
2511.318432  	0.006207 
2513.247248  	0.006009 
2515.176064  	0.005954 
2517.104880  	0.006441 
2519.033696  	0.006903 
2520.962512  	0.006878 
2522.891328  	0.006796 
2524.820144  	0.006926 
2526.748960  	0.006993 
2528.677776  	0.006958 
2530.606592  	0.006977 
2532.535408  	0.007104 
2534.464224  	0.007050 
2536.393040  	0.006968 
2538.321856  	0.007083 
2540.250672  	0.007288 
2542.179488  	0.007510 
2544.108304  	0.007787 
2546.037120  	0.007880 
2547.965936  	0.007968 
2549.894752  	0.007905 
2551.823568  	0.007724 
2553.752384  	0.007726 
2555.681200  	0.007928 
2557.610016  	0.008272 
2559.538832  	0.008364 
2561.467648  	0.008506 
2563.396464  	0.008574 
2565.325280  	0.008506 
2567.254096  	0.008641 
2569.182912  	0.008800 
2571.111728  	0.008969 
2573.040544  	0.009065 
2574.969360  	0.009343 
2576.898176  	0.009622 
2578.826992  	0.009717 
2580.755808  	0.009703 
2582.684624  	0.009816 
2584.613440  	0.009854 
2586.542256  	0.009820 
2588.471072  	0.009860 
2590.399888  	0.010018 
2592.328704  	0.010208 
2594.257520  	0.010362 
2596.186336  	0.010431 
2598.115152  	0.010442 
2600.043968  	0.010398 
2601.972784  	0.010490 
2603.901600  	0.010619 
2605.830416  	0.010780 
2607.759232  	0.010818 
2609.688048  	0.010789 
2611.616864  	0.010943 
2613.545680  	0.011258 
2615.474496  	0.011546 
2617.403312  	0.011632 
2619.332128  	0.011626 
2621.260944  	0.011725 
2623.189760  	0.011799 
2625.118576  	0.011984 
2627.047392  	0.012139 
2628.976208  	0.012323 
2630.905024  	0.012381 
2632.833840  	0.012487 
2634.762656  	0.012760 
2636.691472  	0.012977 
2638.620288  	0.013064 
2640.549104  	0.013243 
2642.477920  	0.013506 
2644.406736  	0.013634 
2646.335552  	0.013694 
2648.264368  	0.013880 
2650.193184  	0.014072 
2652.122000  	0.014342 
2654.050816  	0.014565 
2655.979632  	0.014656 
2657.908448  	0.014765 
2659.837264  	0.014906 
2661.766080  	0.015094 
2663.694896  	0.015130 
2665.623712  	0.015079 
2667.552528  	0.015350 
2669.481344  	0.015681 
2671.410160  	0.015845 
2673.338976  	0.015895 
2675.267792  	0.015969 
2677.196608  	0.016106 
2679.125424  	0.016283 
2681.054240  	0.016518 
2682.983056  	0.016693 
2684.911872  	0.016814 
2686.840688  	0.016894 
2688.769504  	0.017004 
2690.698320  	0.017128 
2692.627136  	0.017297 
2694.555952  	0.017474 
2696.484768  	0.017639 
2698.413584  	0.017801 
2700.342400  	0.017805 
2702.271216  	0.017950 
2704.200032  	0.018144 
2706.128848  	0.018318 
2708.057664  	0.018493 
2709.986480  	0.018608 
2711.915296  	0.018854 
2713.844112  	0.019027 
2715.772928  	0.019091 
2717.701744  	0.019105 
2719.630560  	0.019320 
2721.559376  	0.019563 
2723.488192  	0.019633 
2725.417008  	0.019837 
2727.345824  	0.020092 
2729.274640  	0.020215 
2731.203456  	0.020303 
2733.132272  	0.020503 
2735.061088  	0.020670 
2736.989904  	0.020857 
2738.918720  	0.021037 
2740.847536  	0.021092 
2742.776352  	0.021209 
2744.705168  	0.021339 
2746.633984  	0.021431 
2748.562800  	0.021621 
2750.491616  	0.021782 
2752.420432  	0.021893 
2754.349248  	0.021934 
2756.278064  	0.021985 
2758.206880  	0.022096 
2760.135696  	0.022085 
2762.064512  	0.022063 
2763.993328  	0.022183 
2765.922144  	0.022154 
2767.850960  	0.022127 
2769.779776  	0.022237 
2771.708592  	0.022236 
2773.637408  	0.022108 
2775.566224  	0.022043 
2777.495040  	0.022079 
2779.423856  	0.022088 
2781.352672  	0.022113 
2783.281488  	0.022138 
2785.210304  	0.022126 
2787.139120  	0.022165 
2789.067936  	0.022156 
2790.996752  	0.022040 
2792.925568  	0.021978 
2794.854384  	0.021889 
2796.783200  	0.021863 
2798.712016  	0.021987 
2800.640832  	0.022046 
2802.569648  	0.022022 
2804.498464  	0.022015 
2806.427280  	0.021985 
2808.356096  	0.021935 
2810.284912  	0.021932 
2812.213728  	0.021778 
2814.142544  	0.021804 
2816.071360  	0.021870 
2818.000176  	0.021994 
2819.928992  	0.022002 
2821.857808  	0.022019 
2823.786624  	0.022049 
2825.715440  	0.021986 
2827.644256  	0.021962 
2829.573072  	0.021895 
2831.501888  	0.021814 
2833.430704  	0.021682 
2835.359520  	0.021544 
2837.288336  	0.021474 
2839.217152  	0.021452 
2841.145968  	0.021401 
2843.074784  	0.021229 
2845.003600  	0.021122 
2846.932416  	0.021207 
2848.861232  	0.021257 
2850.790048  	0.021194 
2852.718864  	0.021165 
2854.647680  	0.021223 
2856.576496  	0.021304 
2858.505312  	0.021291 
2860.434128  	0.021204 
2862.362944  	0.021182 
2864.291760  	0.021230 
2866.220576  	0.021282 
2868.149392  	0.021423 
2870.078208  	0.021519 
2872.007024  	0.021745 
2873.935840  	0.022116 
2875.864656  	0.022418 
2877.793472  	0.022789 
2879.722288  	0.023129 
2881.651104  	0.023420 
2883.579920  	0.023580 
2885.508736  	0.023684 
2887.437552  	0.023995 
2889.366368  	0.024013 
2891.295184  	0.023826 
2893.224000  	0.023716 
2895.152816  	0.023731 
2897.081632  	0.023539 
2899.010448  	0.023021 
2900.939264  	0.022631 
2902.868080  	0.022879 
2904.796896  	0.023125 
2906.725712  	0.023212 
2908.654528  	0.023348 
2910.583344  	0.023766 
2912.512160  	0.024343 
2914.440976  	0.024695 
2916.369792  	0.025118 
2918.298608  	0.025677 
2920.227424  	0.026266 
2922.156240  	0.026753 
2924.085056  	0.027296 
2926.013872  	0.027863 
2927.942688  	0.028450 
2929.871504  	0.029142 
2931.800320  	0.029713 
2933.729136  	0.030305 
2935.657952  	0.031043 
2937.586768  	0.031655 
2939.515584  	0.032101 
2941.444400  	0.032595 
2943.373216  	0.033010 
2945.302032  	0.033144 
2947.230848  	0.033159 
2949.159664  	0.033202 
2951.088480  	0.033092 
2953.017296  	0.032826 
2954.946112  	0.032449 
2956.874928  	0.032181 
2958.803744  	0.031882 
2960.732560  	0.031433 
2962.661376  	0.030725 
2964.590192  	0.030322 
2966.519008  	0.029801 
2968.447824  	0.028931 
2970.376640  	0.028129 
2972.305456  	0.027456 
2974.234272  	0.026886 
2976.163088  	0.026375 
2978.091904  	0.025921 
2980.020720  	0.025598 
2981.949536  	0.025552 
2983.878352  	0.025607 
2985.807168  	0.025515 
2987.735984  	0.025514 
2989.664800  	0.025946 
2991.593616  	0.026863 
2993.522432  	0.027407 
2995.451248  	0.027788 
2997.380064  	0.028407 
2999.308880  	0.028921 
3001.237696  	0.029308 
3003.166512  	0.029702 
3005.095328  	0.030119 
3007.024144  	0.030458 
3008.952960  	0.030963 
3010.881776  	0.031493 
3012.810592  	0.031851 
3014.739408  	0.032231 
3016.668224  	0.032679 
3018.597040  	0.033204 
3020.525856  	0.033476 
3022.454672  	0.033927 
3024.383488  	0.034474 
3026.312304  	0.034865 
3028.241120  	0.035163 
3030.169936  	0.035547 
3032.098752  	0.035991 
3034.027568  	0.036249 
3035.956384  	0.036607 
3037.885200  	0.036974 
3039.814016  	0.037375 
3041.742832  	0.037630 
3043.671648  	0.037986 
3045.600464  	0.038534 
3047.529280  	0.038970 
3049.458096  	0.039365 
3051.386912  	0.039722 
3053.315728  	0.040094 
3055.244544  	0.040493 
3057.173360  	0.041192 
3059.102176  	0.041863 
3061.030992  	0.042387 
3062.959808  	0.042773 
3064.888624  	0.043326 
3066.817440  	0.044007 
3068.746256  	0.044636 
3070.675072  	0.045162 
3072.603888  	0.045709 
3074.532704  	0.046282 
3076.461520  	0.046776 
3078.390336  	0.047306 
3080.319152  	0.048007 
3082.247968  	0.048618 
3084.176784  	0.049107 
3086.105600  	0.049664 
3088.034416  	0.050366 
3089.963232  	0.051039 
3091.892048  	0.051600 
3093.820864  	0.052126 
3095.749680  	0.052912 
3097.678496  	0.053580 
3099.607312  	0.054310 
3101.536128  	0.055050 
3103.464944  	0.055615 
3105.393760  	0.056131 
3107.322576  	0.056631 
3109.251392  	0.057115 
3111.180208  	0.057749 
3113.109024  	0.058080 
3115.037840  	0.058309 
3116.966656  	0.058737 
3118.895472  	0.059346 
3120.824288  	0.059746 
3122.753104  	0.060145 
3124.681920  	0.060441 
3126.610736  	0.060769 
3128.539552  	0.061151 
3130.468368  	0.061319 
3132.397184  	0.061777 
3134.326000  	0.062148 
3136.254816  	0.062266 
3138.183632  	0.062621 
3140.112448  	0.063067 
3142.041264  	0.063477 
3143.970080  	0.063891 
3145.898896  	0.064389 
3147.827712  	0.064809 
3149.756528  	0.065004 
3151.685344  	0.065342 
3153.614160  	0.065702 
3155.542976  	0.066099 
3157.471792  	0.066557 
3159.400608  	0.066956 
3161.329424  	0.067287 
3163.258240  	0.067642 
3165.187056  	0.068058 
3167.115872  	0.068464 
3169.044688  	0.068927 
3170.973504  	0.069272 
3172.902320  	0.069415 
3174.831136  	0.069385 
3176.759952  	0.069447 
3178.688768  	0.069841 
3180.617584  	0.070176 
3182.546400  	0.070140 
3184.475216  	0.070047 
3186.404032  	0.070067 
3188.332848  	0.069906 
3190.261664  	0.069786 
3192.190480  	0.069722 
3194.119296  	0.069402 
3196.048112  	0.068985 
3197.976928  	0.068776 
3199.905744  	0.068845 
3201.834560  	0.068538 
3203.763376  	0.068228 
3205.692192  	0.068020 
3207.621008  	0.067483 
3209.549824  	0.067188 
3211.478640  	0.066968 
3213.407456  	0.066658 
3215.336272  	0.066403 
3217.265088  	0.065902 
3219.193904  	0.065597 
3221.122720  	0.065618 
3223.051536  	0.065546 
3224.980352  	0.065095 
3226.909168  	0.064643 
3228.837984  	0.064399 
3230.766800  	0.064280 
3232.695616  	0.064039 
3234.624432  	0.063676 
3236.553248  	0.063524 
3238.482064  	0.063432 
3240.410880  	0.063546 
3242.339696  	0.063553 
3244.268512  	0.063515 
3246.197328  	0.063845 
3248.126144  	0.063597 
3250.054960  	0.063608 
3251.983776  	0.063788 
3253.912592  	0.063939 
3255.841408  	0.064289 
3257.770224  	0.064689 
3259.699040  	0.064944 
3261.627856  	0.065156 
3263.556672  	0.065111 
3265.485488  	0.065445 
3267.414304  	0.065648 
3269.343120  	0.065702 
3271.271936  	0.065782 
3273.200752  	0.066001 
3275.129568  	0.066298 
3277.058384  	0.066498 
3278.987200  	0.066660 
3280.916016  	0.066804 
3282.844832  	0.066864 
3284.773648  	0.066855 
3286.702464  	0.066876 
3288.631280  	0.067037 
3290.560096  	0.067373 
3292.488912  	0.067992 
3294.417728  	0.068220 
3296.346544  	0.068256 
3298.275360  	0.068731 
3300.204176  	0.069087 
3302.132992  	0.069320 
3304.061808  	0.069606 
3305.990624  	0.069818 
3307.919440  	0.070011 
3309.848256  	0.070530 
3311.777072  	0.071182 
3313.705888  	0.071444 
3315.634704  	0.071486 
3317.563520  	0.071780 
3319.492336  	0.072111 
3321.421152  	0.072216 
3323.349968  	0.072385 
3325.278784  	0.072566 
3327.207600  	0.072691 
3329.136416  	0.072841 
3331.065232  	0.072881 
3332.994048  	0.073052 
3334.922864  	0.073312 
3336.851680  	0.073518 
3338.780496  	0.073368 
3340.709312  	0.072902 
3342.638128  	0.072730 
3344.566944  	0.072559 
3346.495760  	0.072281 
3348.424576  	0.071988 
3350.353392  	0.071794 
3352.282208  	0.071577 
3354.211024  	0.071215 
3356.139840  	0.070982 
3358.068656  	0.070909 
3359.997472  	0.070440 
3361.926288  	0.070057 
3363.855104  	0.069801 
3365.783920  	0.069781 
3367.712736  	0.069373 
3369.641552  	0.069004 
3371.570368  	0.068919 
3373.499184  	0.068486 
3375.428000  	0.067999 
3377.356816  	0.068005 
3379.285632  	0.067989 
3381.214448  	0.067747 
3383.143264  	0.067265 
3385.072080  	0.067131 
3387.000896  	0.066922 
3388.929712  	0.066428 
3390.858528  	0.065843 
3392.787344  	0.065741 
3394.716160  	0.065564 
3396.644976  	0.065281 
3398.573792  	0.065259 
3400.502608  	0.064896 
3402.431424  	0.064580 
3404.360240  	0.064242 
3406.289056  	0.063795 
3408.217872  	0.063351 
3410.146688  	0.062837 
3412.075504  	0.062543 
3414.004320  	0.062406 
3415.933136  	0.061992 
3417.861952  	0.061297 
3419.790768  	0.060882 
3421.719584  	0.060904 
3423.648400  	0.060569 
3425.577216  	0.060048 
3427.506032  	0.059684 
3429.434848  	0.059312 
3431.363664  	0.058900 
3433.292480  	0.058396 
3435.221296  	0.057854 
3437.150112  	0.057430 
3439.078928  	0.056949 
3441.007744  	0.056437 
3442.936560  	0.056264 
3444.865376  	0.055712 
3446.794192  	0.055580 
3448.723008  	0.055494 
3450.651824  	0.054361 
3452.580640  	0.053618 
3454.509456  	0.053295 
3456.438272  	0.052639 
3458.367088  	0.051901 
3460.295904  	0.051443 
3462.224720  	0.050988 
3464.153536  	0.050431 
3466.082352  	0.049722 
3468.011168  	0.049013 
3469.939984  	0.048323 
3471.868800  	0.047440 
3473.797616  	0.046687 
3475.726432  	0.046274 
3477.655248  	0.045551 
3479.584064  	0.044597 
3481.512880  	0.044311 
3483.441696  	0.044063 
3485.370512  	0.043129 
3487.299328  	0.042340 
3489.228144  	0.041825 
3491.156960  	0.040969 
3493.085776  	0.039900 
3495.014592  	0.039271 
3496.943408  	0.039081 
3498.872224  	0.038281 
3500.801040  	0.037135 
3502.729856  	0.037097 
3504.658672  	0.036929 
3506.587488  	0.035872 
3508.516304  	0.035247 
3510.445120  	0.035305 
3512.373936  	0.034711 
3514.302752  	0.033816 
3516.231568  	0.033112 
3518.160384  	0.032466 
3520.089200  	0.031617 
3522.018016  	0.031024 
3523.946832  	0.031097 
3525.875648  	0.030522 
3527.804464  	0.029993 
3529.733280  	0.029799 
3531.662096  	0.029366 
3533.590912  	0.028196 
3535.519728  	0.027712 
3537.448544  	0.027942 
3539.377360  	0.027078 
3541.306176  	0.026146 
3543.234992  	0.025733 
3545.163808  	0.025836 
3547.092624  	0.025835 
3549.021440  	0.024579 
3550.950256  	0.023409 
3552.879072  	0.023549 
3554.807888  	0.023114 
3556.736704  	0.022187 
3558.665520  	0.021592 
3560.594336  	0.021182 
3562.523152  	0.020435 
3564.451968  	0.019239 
3566.380784  	0.019669 
3568.309600  	0.021356 
3570.238416  	0.019920 
3572.167232  	0.018055 
3574.096048  	0.017259 
3576.024864  	0.016646 
3577.953680  	0.016163 
3579.882496  	0.015611 
3581.811312  	0.014905 
3583.740128  	0.013635 
3585.668944  	0.012625 
3587.597760  	0.013976 
3589.526576  	0.013934 
3591.455392  	0.011817 
3593.384208  	0.010937 
3595.313024  	0.011010 
3597.241840  	0.010285 
3599.170656  	0.009000 
3601.099472  	0.008799 
3603.028288  	0.008458 
3604.957104  	0.007014 
3606.885920  	0.006163 
3608.814736  	0.006575 
3610.743552  	0.005215 
3612.672368  	0.004222 
3614.601184  	0.003780 
3616.530000  	0.002023 
3618.458816  	0.001664 
3620.387632  	0.002888 
3622.316448  	0.001953 
3624.245264  	0.000192 
3626.174080  	-0.002058 
3628.102896  	-0.002311 
3630.031712  	0.000417 
3631.960528  	-0.001444 
3633.889344  	-0.002385 
3635.818160  	-0.003027 
3637.746976  	-0.004009 
3639.675792  	-0.004871 
3641.604608  	-0.005623 
3643.533424  	-0.006526 
3645.462240  	-0.008467 
3647.391056  	-0.009469 
3649.319872  	-0.008676 
3651.248688  	-0.007046 
3653.177504  	-0.008801 
3655.106320  	-0.009835 
3657.035136  	-0.008922 
3658.963952  	-0.009564 
3660.892768  	-0.010165 
3662.821584  	-0.010774 
3664.750400  	-0.011359 
3666.679216  	-0.012320 
3668.608032  	-0.013261 
3670.536848  	-0.011744 
3672.465664  	-0.012997 
3674.394480  	-0.014108 
3676.323296  	-0.011023 
3678.252112  	-0.011735 
3680.180928  	-0.011901 
3682.109744  	-0.012065 
3684.038560  	-0.012685 
3685.967376  	-0.013713 
3687.896192  	-0.013933 
3689.825008  	-0.012656 
3691.753824  	-0.011707 
3693.682640  	-0.011912 
3695.611456  	-0.012051 
3697.540272  	-0.011973 
3699.469088  	-0.012504 
3701.397904  	-0.012072 
3703.326720  	-0.011475 
3705.255536  	-0.011935 
3707.184352  	-0.012610 
3709.113168  	-0.013151 
3711.041984  	-0.012559 
3712.970800  	-0.011222 
3714.899616  	-0.011576 
3716.828432  	-0.012360 
3718.757248  	-0.012202 
3720.686064  	-0.012113 
3722.614880  	-0.011867 
3724.543696  	-0.011744 
3726.472512  	-0.011469 
3728.401328  	-0.011891 
3730.330144  	-0.013170 
3732.258960  	-0.013300 
3734.187776  	-0.012641 
3736.116592  	-0.010804 
3738.045408  	-0.011115 
3739.974224  	-0.012233 
3741.903040  	-0.013678 
3743.831856  	-0.013109 
3745.760672  	-0.011505 
3747.689488  	-0.013805 
3749.618304  	-0.014211 
3751.547120  	-0.012158 
3753.475936  	-0.011571 
3755.404752  	-0.012588 
3757.333568  	-0.012683 
3759.262384  	-0.012115 
3761.191200  	-0.011845 
3763.120016  	-0.012571 
3765.048832  	-0.012035 
3766.977648  	-0.011959 
3768.906464  	-0.012278 
3770.835280  	-0.011474 
3772.764096  	-0.011742 
3774.692912  	-0.012158 
3776.621728  	-0.012712 
3778.550544  	-0.012693 
3780.479360  	-0.011636 
3782.408176  	-0.011930 
3784.336992  	-0.011844 
3786.265808  	-0.011654 
3788.194624  	-0.011842 
3790.123440  	-0.011996 
3792.052256  	-0.012091 
3793.981072  	-0.012599 
3795.909888  	-0.012600 
3797.838704  	-0.012745 
3799.767520  	-0.013597 
3801.696336  	-0.012136 
3803.625152  	-0.012179 
3805.553968  	-0.013148 
3807.482784  	-0.012009 
3809.411600  	-0.012069 
3811.340416  	-0.012434 
3813.269232  	-0.013190 
3815.198048  	-0.013263 
3817.126864  	-0.012503 
3819.055680  	-0.013734 
3820.984496  	-0.012478 
3822.913312  	-0.011549 
3824.842128  	-0.012645 
3826.770944  	-0.012411 
3828.699760  	-0.012428 
3830.628576  	-0.012635 
3832.557392  	-0.012516 
3834.486208  	-0.013088 
3836.415024  	-0.013521 
3838.343840  	-0.012982 
3840.272656  	-0.012490 
3842.201472  	-0.012289 
3844.130288  	-0.011799 
3846.059104  	-0.012060 
3847.987920  	-0.012903 
3849.916736  	-0.014040 
3851.845552  	-0.014639 
3853.774368  	-0.011475 
3855.703184  	-0.011082 
3857.632000  	-0.011889 
3859.560816  	-0.012650 
3861.489632  	-0.013051 
3863.418448  	-0.012795 
3865.347264  	-0.011835 
3867.276080  	-0.013007 
3869.204896  	-0.013080 
3871.133712  	-0.012119 
3873.062528  	-0.012800 
3874.991344  	-0.011917 
3876.920160  	-0.012654 
3878.848976  	-0.013014 
3880.777792  	-0.011933 
3882.706608  	-0.012388 
3884.635424  	-0.012494 
3886.564240  	-0.011307 
3888.493056  	-0.012610 
3890.421872  	-0.012755 
3892.350688  	-0.011715 
3894.279504  	-0.011832 
3896.208320  	-0.012670 
3898.137136  	-0.012966 
3900.065952  	-0.012558 
3901.994768  	-0.012258 
3903.923584  	-0.011364 
3905.852400  	-0.011262 
3907.781216  	-0.012110 
3909.710032  	-0.012406 
3911.638848  	-0.012227 
3913.567664  	-0.012321 
3915.496480  	-0.012272 
3917.425296  	-0.011745 
3919.354112  	-0.011951 
3921.282928  	-0.012427 
3923.211744  	-0.012590 
3925.140560  	-0.011863 
3927.069376  	-0.012115 
3928.998192  	-0.012579 
3930.927008  	-0.012307 
3932.855824  	-0.011707 
3934.784640  	-0.011912 
3936.713456  	-0.012278 
3938.642272  	-0.012359 
3940.571088  	-0.012610 
3942.499904  	-0.012073 
3944.428720  	-0.011895 
3946.357536  	-0.012350 
3948.286352  	-0.012191 
3950.215168  	-0.011912 
3952.143984  	-0.012130 
3954.072800  	-0.012382 
3956.001616  	-0.012473 
3957.930432  	-0.012361 
3959.859248  	-0.012252 
3961.788064  	-0.012078 
3963.716880  	-0.011938 
3965.645696  	-0.012057 
3967.574512  	-0.012285 
3969.503328  	-0.012407 
3971.432144  	-0.012504 
3973.360960  	-0.012298 
3975.289776  	-0.012127 
3977.218592  	-0.012064 
3979.147408  	-0.012182 
3981.076224  	-0.012290 
3983.005040  	-0.012114 
3984.933856  	-0.012123 
3986.862672  	-0.012353 
3988.791488  	-0.012519 
3990.720304  	-0.012340 
3992.649120  	-0.012218 
3994.577936  	-0.012204 
3996.506752  	-0.012392 
3998.435568  	-0.012552 
4000.364384  	-0.012556 