##TITLE=No Description
##DATA TYPE=INFRARED SPECTRUM
##XUNITS=1/CM
##YUNITS=Abs
399.264912  	0.239148 
401.193728  	0.243039 
403.122544  	0.233368 
405.051360  	0.227508 
406.980176  	0.236064 
408.908992  	0.235165 
410.837808  	0.235632 
412.766624  	0.239351 
414.695440  	0.242724 
416.624256  	0.235955 
418.553072  	0.242498 
420.481888  	0.241644 
422.410704  	0.233642 
424.339520  	0.229474 
426.268336  	0.230228 
428.197152  	0.229066 
430.125968  	0.229988 
432.054784  	0.228388 
433.983600  	0.228640 
435.912416  	0.229314 
437.841232  	0.230225 
439.770048  	0.227843 
441.698864  	0.226678 
443.627680  	0.221739 
445.556496  	0.217269 
447.485312  	0.220596 
449.414128  	0.227057 
451.342944  	0.228417 
453.271760  	0.230030 
455.200576  	0.230431 
457.129392  	0.232287 
459.058208  	0.229978 
460.987024  	0.229097 
462.915840  	0.227773 
464.844656  	0.230390 
466.773472  	0.231277 
468.702288  	0.233016 
470.631104  	0.234027 
472.559920  	0.236576 
474.488736  	0.235973 
476.417552  	0.236466 
478.346368  	0.236686 
480.275184  	0.240638 
482.204000  	0.241069 
484.132816  	0.241986 
486.061632  	0.246989 
487.990448  	0.249680 
489.919264  	0.248837 
491.848080  	0.251872 
493.776896  	0.252852 
495.705712  	0.251478 
497.634528  	0.251006 
499.563344  	0.253060 
501.492160  	0.253755 
503.420976  	0.253358 
505.349792  	0.252521 
507.278608  	0.252964 
509.207424  	0.252932 
511.136240  	0.256089 
513.065056  	0.259211 
514.993872  	0.263261 
516.922688  	0.266616 
518.851504  	0.271658 
520.780320  	0.273401 
522.709136  	0.275492 
524.637952  	0.278134 
526.566768  	0.280561 
528.495584  	0.280139 
530.424400  	0.280240 
532.353216  	0.279006 
534.282032  	0.277637 
536.210848  	0.273935 
538.139664  	0.271079 
540.068480  	0.269324 
541.997296  	0.267172 
543.926112  	0.264029 
545.854928  	0.262683 
547.783744  	0.261760 
549.712560  	0.261124 
551.641376  	0.259892 
553.570192  	0.258528 
555.499008  	0.256318 
557.427824  	0.255101 
559.356640  	0.253471 
561.285456  	0.252813 
563.214272  	0.251375 
565.143088  	0.249904 
567.071904  	0.247600 
569.000720  	0.245589 
570.929536  	0.242569 
572.858352  	0.241214 
574.787168  	0.240190 
576.715984  	0.239362 
578.644800  	0.237554 
580.573616  	0.234391 
582.502432  	0.230981 
584.431248  	0.227473 
586.360064  	0.223911 
588.288880  	0.221982 
590.217696  	0.220520 
592.146512  	0.219408 
594.075328  	0.218819 
596.004144  	0.217982 
597.932960  	0.217041 
599.861776  	0.216557 
601.790592  	0.216200 
603.719408  	0.215960 
605.648224  	0.215703 
607.577040  	0.215499 
609.505856  	0.214628 
611.434672  	0.214486 
613.363488  	0.213531 
615.292304  	0.213165 
617.221120  	0.213045 
619.149936  	0.212791 
621.078752  	0.211694 
623.007568  	0.211327 
624.936384  	0.211063 
626.865200  	0.211089 
628.794016  	0.211186 
630.722832  	0.211659 
632.651648  	0.212413 
634.580464  	0.213309 
636.509280  	0.214715 
638.438096  	0.215760 
640.366912  	0.216589 
642.295728  	0.216506 
644.224544  	0.215431 
646.153360  	0.214455 
648.082176  	0.212724 
650.010992  	0.210575 
651.939808  	0.207887 
653.868624  	0.205997 
655.797440  	0.203238 
657.726256  	0.200814 
659.655072  	0.198117 
661.583888  	0.195228 
663.512704  	0.192090 
665.441520  	0.188822 
667.370336  	0.186125 
669.299152  	0.183197 
671.227968  	0.179064 
673.156784  	0.176235 
675.085600  	0.174517 
677.014416  	0.173019 
678.943232  	0.171648 
680.872048  	0.170742 
682.800864  	0.169357 
684.729680  	0.168237 
686.658496  	0.167073 
688.587312  	0.166454 
690.516128  	0.165311 
692.444944  	0.164714 
694.373760  	0.164259 
696.302576  	0.163940 
698.231392  	0.162380 
700.160208  	0.160916 
702.089024  	0.159819 
704.017840  	0.158142 
705.946656  	0.155786 
707.875472  	0.154335 
709.804288  	0.153088 
711.733104  	0.151827 
713.661920  	0.150582 
715.590736  	0.150011 
717.519552  	0.150090 
719.448368  	0.150743 
721.377184  	0.152103 
723.306000  	0.153582 
725.234816  	0.155065 
727.163632  	0.155287 
729.092448  	0.153999 
731.021264  	0.151559 
732.950080  	0.149028 
734.878896  	0.146645 
736.807712  	0.144017 
738.736528  	0.141873 
740.665344  	0.140313 
742.594160  	0.139397 
744.522976  	0.138553 
746.451792  	0.138392 
748.380608  	0.137766 
750.309424  	0.137142 
752.238240  	0.136569 
754.167056  	0.136517 
756.095872  	0.136053 
758.024688  	0.135547 
759.953504  	0.135659 
761.882320  	0.136607 
763.811136  	0.138011 
765.739952  	0.137231 
767.668768  	0.135310 
769.597584  	0.133653 
771.526400  	0.133417 
773.455216  	0.135319 
775.384032  	0.139365 
777.312848  	0.145212 
779.241664  	0.149687 
781.170480  	0.150506 
783.099296  	0.147472 
785.028112  	0.143131 
786.956928  	0.138814 
788.885744  	0.134920 
790.814560  	0.131533 
792.743376  	0.129911 
794.672192  	0.129869 
796.601008  	0.129392 
798.529824  	0.126963 
800.458640  	0.123669 
802.387456  	0.120969 
804.316272  	0.119484 
806.245088  	0.118956 
808.173904  	0.118890 
810.102720  	0.118995 
812.031536  	0.119485 
813.960352  	0.120323 
815.889168  	0.121216 
817.817984  	0.122338 
819.746800  	0.123359 
821.675616  	0.124302 
823.604432  	0.125591 
825.533248  	0.126850 
827.462064  	0.127591 
829.390880  	0.127478 
831.319696  	0.127656 
833.248512  	0.127229 
835.177328  	0.126145 
837.106144  	0.124230 
839.034960  	0.121992 
840.963776  	0.119621 
842.892592  	0.116811 
844.821408  	0.113473 
846.750224  	0.110739 
848.679040  	0.108337 
850.607856  	0.106484 
852.536672  	0.105566 
854.465488  	0.104606 
856.394304  	0.104160 
858.323120  	0.103720 
860.251936  	0.102697 
862.180752  	0.101288 
864.109568  	0.099708 
866.038384  	0.098070 
867.967200  	0.096491 
869.896016  	0.095260 
871.824832  	0.094062 
873.753648  	0.093550 
875.682464  	0.093942 
877.611280  	0.095363 
879.540096  	0.097570 
881.468912  	0.100787 
883.397728  	0.104128 
885.326544  	0.106738 
887.255360  	0.108443 
889.184176  	0.109132 
891.112992  	0.109063 
893.041808  	0.108223 
894.970624  	0.106502 
896.899440  	0.103656 
898.828256  	0.100136 
900.757072  	0.096565 
902.685888  	0.093259 
904.614704  	0.091388 
906.543520  	0.091368 
908.472336  	0.092658 
910.401152  	0.094906 
912.329968  	0.097912 
914.258784  	0.100983 
916.187600  	0.103537 
918.116416  	0.105626 
920.045232  	0.107530 
921.974048  	0.108833 
923.902864  	0.109689 
925.831680  	0.110331 
927.760496  	0.111242 
929.689312  	0.112241 
931.618128  	0.113185 
933.546944  	0.114048 
935.475760  	0.114682 
937.404576  	0.114657 
939.333392  	0.114082 
941.262208  	0.113807 
943.191024  	0.114621 
945.119840  	0.117187 
947.048656  	0.121630 
948.977472  	0.128112 
950.906288  	0.136443 
952.835104  	0.146630 
954.763920  	0.158022 
956.692736  	0.169555 
958.621552  	0.180335 
960.550368  	0.188565 
962.479184  	0.194249 
964.408000  	0.196074 
966.336816  	0.193555 
968.265632  	0.186816 
970.194448  	0.177051 
972.123264  	0.164979 
974.052080  	0.152054 
975.980896  	0.139129 
977.909712  	0.126846 
979.838528  	0.115666 
981.767344  	0.106636 
983.696160  	0.100111 
985.624976  	0.095914 
987.553792  	0.094514 
989.482608  	0.095670 
991.411424  	0.099130 
993.340240  	0.104585 
995.269056  	0.111053 
997.197872  	0.117621 
999.126688  	0.124236 
1001.055504  	0.131190 
1002.984320  	0.137880 
1004.913136  	0.144689 
1006.841952  	0.151144 
1008.770768  	0.157194 
1010.699584  	0.162166 
1012.628400  	0.166061 
1014.557216  	0.168846 
1016.486032  	0.170682 
1018.414848  	0.171504 
1020.343664  	0.171757 
1022.272480  	0.172007 
1024.201296  	0.172014 
1026.130112  	0.171577 
1028.058928  	0.171699 
1029.987744  	0.172859 
1031.916560  	0.174536 
1033.845376  	0.176310 
1035.774192  	0.178769 
1037.703008  	0.182268 
1039.631824  	0.187916 
1041.560640  	0.196403 
1043.489456  	0.209125 
1045.418272  	0.225127 
1047.347088  	0.242949 
1049.275904  	0.259280 
1051.204720  	0.271825 
1053.133536  	0.278917 
1055.062352  	0.282206 
1056.991168  	0.282436 
1058.919984  	0.282222 
1060.848800  	0.281753 
1062.777616  	0.281195 
1064.706432  	0.279338 
1066.635248  	0.276620 
1068.564064  	0.272496 
1070.492880  	0.266622 
1072.421696  	0.259790 
1074.350512  	0.255172 
1076.279328  	0.253585 
1078.208144  	0.255776 
1080.136960  	0.260016 
1082.065776  	0.263916 
1083.994592  	0.264827 
1085.923408  	0.262652 
1087.852224  	0.256206 
1089.781040  	0.247860 
1091.709856  	0.237482 
1093.638672  	0.225905 
1095.567488  	0.212861 
1097.496304  	0.199643 
1099.425120  	0.186017 
1101.353936  	0.173088 
1103.282752  	0.160812 
1105.211568  	0.149327 
1107.140384  	0.138352 
1109.069200  	0.128446 
1110.998016  	0.119495 
1112.926832  	0.111249 
1114.855648  	0.103763 
1116.784464  	0.096779 
1118.713280  	0.089746 
1120.642096  	0.082878 
1122.570912  	0.076776 
1124.499728  	0.071302 
1126.428544  	0.066372 
1128.357360  	0.062214 
1130.286176  	0.058603 
1132.214992  	0.055584 
1134.143808  	0.053172 
1136.072624  	0.051069 
1138.001440  	0.049326 
1139.930256  	0.047760 
1141.859072  	0.045915 
1143.787888  	0.044210 
1145.716704  	0.042672 
1147.645520  	0.041418 
1149.574336  	0.040621 
1151.503152  	0.040162 
1153.431968  	0.040198 
1155.360784  	0.040346 
1157.289600  	0.040833 
1159.218416  	0.041476 
1161.147232  	0.042758 
1163.076048  	0.044253 
1165.004864  	0.045586 
1166.933680  	0.046883 
1168.862496  	0.048522 
1170.791312  	0.050448 
1172.720128  	0.052632 
1174.648944  	0.055152 
1176.577760  	0.057501 
1178.506576  	0.060043 
1180.435392  	0.062840 
1182.364208  	0.065686 
1184.293024  	0.068875 
1186.221840  	0.072475 
1188.150656  	0.076731 
1190.079472  	0.081640 
1192.008288  	0.087316 
1193.937104  	0.093725 
1195.865920  	0.101191 
1197.794736  	0.109720 
1199.723552  	0.118428 
1201.652368  	0.127441 
1203.581184  	0.136469 
1205.510000  	0.145072 
1207.438816  	0.152986 
1209.367632  	0.160130 
1211.296448  	0.165903 
1213.225264  	0.171001 
1215.154080  	0.174356 
1217.082896  	0.176528 
1219.011712  	0.177426 
1220.940528  	0.177763 
1222.869344  	0.176974 
1224.798160  	0.175647 
1226.726976  	0.173375 
1228.655792  	0.170773 
1230.584608  	0.167350 
1232.513424  	0.163378 
1234.442240  	0.158749 
1236.371056  	0.153652 
1238.299872  	0.147941 
1240.228688  	0.141368 
1242.157504  	0.134818 
1244.086320  	0.128414 
1246.015136  	0.121718 
1247.943952  	0.115104 
1249.872768  	0.108791 
1251.801584  	0.102756 
1253.730400  	0.096553 
1255.659216  	0.090768 
1257.588032  	0.085266 
1259.516848  	0.080071 
1261.445664  	0.075147 
1263.374480  	0.070688 
1265.303296  	0.066852 
1267.232112  	0.063789 
1269.160928  	0.061504 
1271.089744  	0.060026 
1273.018560  	0.059433 
1274.947376  	0.059570 
1276.876192  	0.060054 
1278.805008  	0.060432 
1280.733824  	0.060176 
1282.662640  	0.058914 
1284.591456  	0.057242 
1286.520272  	0.055542 
1288.449088  	0.054452 
1290.377904  	0.054487 
1292.306720  	0.055168 
1294.235536  	0.055660 
1296.164352  	0.055404 
1298.093168  	0.053928 
1300.021984  	0.051387 
1301.950800  	0.048644 
1303.879616  	0.045896 
1305.808432  	0.042934 
1307.737248  	0.039802 
1309.666064  	0.036918 
1311.594880  	0.034613 
1313.523696  	0.032949 
1315.452512  	0.031751 
1317.381328  	0.031120 
1319.310144  	0.031158 
1321.238960  	0.031549 
1323.167776  	0.032333 
1325.096592  	0.033035 
1327.025408  	0.033403 
1328.954224  	0.033324 
1330.883040  	0.032680 
1332.811856  	0.031645 
1334.740672  	0.030605 
1336.669488  	0.029840 
1338.598304  	0.029637 
1340.527120  	0.029486 
1342.455936  	0.028880 
1344.384752  	0.028561 
1346.313568  	0.028807 
1348.242384  	0.029659 
1350.171200  	0.030889 
1352.100016  	0.032335 
1354.028832  	0.034001 
1355.957648  	0.035872 
1357.886464  	0.037453 
1359.815280  	0.039063 
1361.744096  	0.041317 
1363.672912  	0.044143 
1365.601728  	0.045579 
1367.530544  	0.046916 
1369.459360  	0.048427 
1371.388176  	0.048696 
1373.316992  	0.048188 
1375.245808  	0.047159 
1377.174624  	0.045032 
1379.103440  	0.042756 
1381.032256  	0.040376 
1382.961072  	0.038332 
1384.889888  	0.036524 
1386.818704  	0.035472 
1388.747520  	0.034312 
1390.676336  	0.032279 
1392.605152  	0.029967 
1394.533968  	0.028958 
1396.462784  	0.029351 
1398.391600  	0.029290 
1400.320416  	0.029830 
1402.249232  	0.029656 
1404.178048  	0.030309 
1406.106864  	0.031480 
1408.035680  	0.032334 
1409.964496  	0.033575 
1411.893312  	0.035622 
1413.822128  	0.037267 
1415.750944  	0.038734 
1417.679760  	0.040071 
1419.608576  	0.042114 
1421.537392  	0.041918 
1423.466208  	0.041043 
1425.395024  	0.040114 
1427.323840  	0.037956 
1429.252656  	0.035908 
1431.181472  	0.034618 
1433.110288  	0.033748 
1435.039104  	0.033190 
1436.967920  	0.035322 
1438.896736  	0.036655 
1440.825552  	0.036799 
1442.754368  	0.037228 
1444.683184  	0.037032 
1446.612000  	0.036875 
1448.540816  	0.037509 
1450.469632  	0.037558 
1452.398448  	0.037298 
1454.327264  	0.036549 
1456.256080  	0.036192 
1458.184896  	0.038766 
1460.113712  	0.038603 
1462.042528  	0.037388 
1463.971344  	0.036929 
1465.900160  	0.038635 
1467.828976  	0.039277 
1469.757792  	0.039849 
1471.686608  	0.042264 
1473.615424  	0.049083 
1475.544240  	0.053450 
1477.473056  	0.058240 
1479.401872  	0.061019 
1481.330688  	0.064068 
1483.259504  	0.066184 
1485.188320  	0.066900 
1487.117136  	0.067132 
1489.045952  	0.067888 
1490.974768  	0.067787 
1492.903584  	0.065102 
1494.832400  	0.061061 
1496.761216  	0.056863 
1498.690032  	0.052085 
1500.618848  	0.047746 
1502.547664  	0.043035 
1504.476480  	0.038340 
1506.405296  	0.035844 
1508.334112  	0.036664 
1510.262928  	0.034255 
1512.191744  	0.032663 
1514.120560  	0.031529 
1516.049376  	0.031338 
1517.978192  	0.032680 
1519.907008  	0.032924 
1521.835824  	0.037637 
1523.764640  	0.041106 
1525.693456  	0.043499 
1527.622272  	0.045977 
1529.551088  	0.046229 
1531.479904  	0.044500 
1533.408720  	0.042894 
1535.337536  	0.040616 
1537.266352  	0.036686 
1539.195168  	0.033172 
1541.123984  	0.032309 
1543.052800  	0.031381 
1544.981616  	0.030589 
1546.910432  	0.029422 
1548.839248  	0.028267 
1550.768064  	0.028639 
1552.696880  	0.027644 
1554.625696  	0.027852 
1556.554512  	0.026490 
1558.483328  	0.027666 
1560.412144  	0.035401 
1562.340960  	0.035590 
1564.269776  	0.036990 
1566.198592  	0.040299 
1568.127408  	0.042086 
1570.056224  	0.048468 
1571.985040  	0.052285 
1573.913856  	0.053191 
1575.842672  	0.055883 
1577.771488  	0.060206 
1579.700304  	0.059140 
1581.629120  	0.058160 
1583.557936  	0.057211 
1585.486752  	0.057505 
1587.415568  	0.058906 
1589.344384  	0.062116 
1591.273200  	0.066294 
1593.202016  	0.071654 
1595.130832  	0.077582 
1597.059648  	0.084025 
1598.988464  	0.089128 
1600.917280  	0.093921 
1602.846096  	0.097466 
1604.774912  	0.099884 
1606.703728  	0.100011 
1608.632544  	0.099702 
1610.561360  	0.098111 
1612.490176  	0.096230 
1614.418992  	0.092785 
1616.347808  	0.093011 
1618.276624  	0.096015 
1620.205440  	0.096084 
1622.134256  	0.097218 
1624.063072  	0.104384 
1625.991888  	0.108377 
1627.920704  	0.114916 
1629.849520  	0.122998 
1631.778336  	0.128211 
1633.707152  	0.131309 
1635.635968  	0.141935 
1637.564784  	0.153726 
1639.493600  	0.157045 
1641.422416  	0.160297 
1643.351232  	0.161989 
1645.280048  	0.161823 
1647.208864  	0.168091 
1649.137680  	0.169526 
1651.066496  	0.164287 
1652.995312  	0.165169 
1654.924128  	0.171561 
1656.852944  	0.166844 
1658.781760  	0.163711 
1660.710576  	0.160164 
1662.639392  	0.158047 
1664.568208  	0.155715 
1666.497024  	0.150738 
1668.425840  	0.145889 
1670.354656  	0.143587 
1672.283472  	0.139602 
1674.212288  	0.135232 
1676.141104  	0.133930 
1678.069920  	0.130759 
1679.998736  	0.128106 
1681.927552  	0.125336 
1683.856368  	0.125344 
1685.785184  	0.129793 
1687.714000  	0.127419 
1689.642816  	0.127290 
1691.571632  	0.126586 
1693.500448  	0.124020 
1695.429264  	0.122865 
1697.358080  	0.123455 
1699.286896  	0.120923 
1701.215712  	0.123585 
1703.144528  	0.120275 
1705.073344  	0.117401 
1707.002160  	0.115120 
1708.930976  	0.111477 
1710.859792  	0.106416 
1712.788608  	0.100152 
1714.717424  	0.092571 
1716.646240  	0.084252 
1718.575056  	0.074981 
1720.503872  	0.066377 
1722.432688  	0.058209 
1724.361504  	0.049697 
1726.290320  	0.042118 
1728.219136  	0.035344 
1730.147952  	0.029568 
1732.076768  	0.024429 
1734.005584  	0.021281 
1735.934400  	0.018436 
1737.863216  	0.015476 
1739.792032  	0.013311 
1741.720848  	0.011983 
1743.649664  	0.010540 
1745.578480  	0.009216 
1747.507296  	0.007869 
1749.436112  	0.007317 
1751.364928  	0.007262 
1753.293744  	0.006542 
1755.222560  	0.005270 
1757.151376  	0.005341 
1759.080192  	0.004621 
1761.009008  	0.004280 
1762.937824  	0.004407 
1764.866640  	0.003847 
1766.795456  	0.003023 
1768.724272  	0.002994 
1770.653088  	0.001667 
1772.581904  	0.002173 
1774.510720  	0.002555 
1776.439536  	0.002526 
1778.368352  	0.002043 
1780.297168  	0.001920 
1782.225984  	0.001882 
1784.154800  	0.001924 
1786.083616  	0.001747 
1788.012432  	0.001207 
1789.941248  	0.000717 
1791.870064  	0.001151 
1793.798880  	0.001495 
1795.727696  	0.001329 
1797.656512  	0.000579 
1799.585328  	0.000196 
1801.514144  	0.000703 
1803.442960  	0.000893 
1805.371776  	0.000404 
1807.300592  	0.000238 
1809.229408  	0.000112 
1811.158224  	0.000270 
1813.087040  	0.000104 
1815.015856  	-0.000196 
1816.944672  	-0.000328 
1818.873488  	-0.000133 
1820.802304  	-0.000200 
1822.731120  	-0.000316 
1824.659936  	-0.000345 
1826.588752  	-0.000266 
1828.517568  	-0.000849 
1830.446384  	-0.000206 
1832.375200  	-0.000189 
1834.304016  	-0.000164 
1836.232832  	-0.000235 
1838.161648  	-0.000358 
1840.090464  	-0.000610 
1842.019280  	-0.000770 
1843.948096  	-0.000456 
1845.876912  	0.000032 
1847.805728  	-0.000175 
1849.734544  	-0.000211 
1851.663360  	-0.000580 
1853.592176  	-0.000512 
1855.520992  	-0.000784 
1857.449808  	-0.000716 
1859.378624  	-0.000753 
1861.307440  	-0.000345 
1863.236256  	-0.000599 
1865.165072  	-0.001040 
1867.093888  	-0.001261 
1869.022704  	-0.000528 
1870.951520  	-0.000490 
1872.880336  	-0.000822 
1874.809152  	-0.001207 
1876.737968  	-0.001078 
1878.666784  	-0.000858 
1880.595600  	-0.000736 
1882.524416  	-0.000952 
1884.453232  	-0.000893 
1886.382048  	-0.001172 
1888.310864  	-0.001024 
1890.239680  	-0.000594 
1892.168496  	-0.000853 
1894.097312  	-0.001456 
1896.026128  	-0.001136 
1897.954944  	-0.000859 
1899.883760  	-0.000740 
1901.812576  	-0.000939 
1903.741392  	-0.000825 
1905.670208  	-0.000936 
1907.599024  	-0.000865 
1909.527840  	-0.000862 
1911.456656  	-0.000648 
1913.385472  	-0.000844 
1915.314288  	-0.001226 
1917.243104  	-0.001418 
1919.171920  	-0.000508 
1921.100736  	-0.000753 
1923.029552  	-0.000799 
1924.958368  	-0.001827 
1926.887184  	-0.001991 
1928.816000  	-0.001327 
1930.744816  	-0.001132 
1932.673632  	-0.001565 
1934.602448  	-0.001587 
1936.531264  	-0.001541 
1938.460080  	-0.001507 
1940.388896  	-0.001880 
1942.317712  	-0.001365 
1944.246528  	-0.001322 
1946.175344  	-0.001410 
1948.104160  	-0.001513 
1950.032976  	-0.002061 
1951.961792  	-0.002287 
1953.890608  	-0.001219 
1955.819424  	-0.001289 
1957.748240  	-0.001258 
1959.677056  	-0.002276 
1961.605872  	-0.002371 
1963.534688  	-0.002040 
1965.463504  	-0.002134 
1967.392320  	-0.003521 
1969.321136  	-0.002682 
1971.249952  	-0.002258 
1973.178768  	-0.001887 
1975.107584  	-0.002095 
1977.036400  	-0.001314 
1978.965216  	0.000308 
1980.894032  	0.000136 
1982.822848  	-0.001176 
1984.751664  	-0.001407 
1986.680480  	-0.001854 
1988.609296  	-0.000565 
1990.538112  	-0.000858 
1992.466928  	-0.001635 
1994.395744  	-0.002541 
1996.324560  	-0.002244 
1998.253376  	-0.001635 
2000.182192  	-0.001632 
2002.111008  	-0.002542 
2004.039824  	-0.002084 
2005.968640  	-0.002329 
2007.897456  	-0.001620 
2009.826272  	-0.000837 
2011.755088  	-0.000898 
2013.683904  	-0.001707 
2015.612720  	-0.000892 
2017.541536  	-0.000601 
2019.470352  	-0.000347 
2021.399168  	-0.000689 
2023.327984  	0.000771 
2025.256800  	0.000563 
2027.185616  	0.000195 
2029.114432  	-0.000724 
2031.043248  	-0.000993 
2032.972064  	-0.000417 
2034.900880  	0.000532 
2036.829696  	0.000415 
2038.758512  	0.000448 
2040.687328  	0.000180 
2042.616144  	0.000987 
2044.544960  	0.000553 
2046.473776  	0.000298 
2048.402592  	-0.000213 
2050.331408  	-0.000221 
2052.260224  	-0.001065 
2054.189040  	-0.001333 
2056.117856  	-0.000856 
2058.046672  	-0.000523 
2059.975488  	-0.000625 
2061.904304  	-0.000757 
2063.833120  	-0.000969 
2065.761936  	0.000196 
2067.690752  	0.000185 
2069.619568  	-0.000649 
2071.548384  	-0.000774 
2073.477200  	-0.000263 
2075.406016  	-0.000454 
2077.334832  	0.000183 
2079.263648  	0.000436 
2081.192464  	0.000455 
2083.121280  	-0.000161 
2085.050096  	-0.000369 
2086.978912  	-0.000555 
2088.907728  	-0.000216 
2090.836544  	-0.000437 
2092.765360  	-0.000566 
2094.694176  	-0.000702 
2096.622992  	-0.000352 
2098.551808  	0.000046 
2100.480624  	0.000071 
2102.409440  	-0.000062 
2104.338256  	-0.000072 
2106.267072  	0.000168 
2108.195888  	0.000685 
2110.124704  	0.000185 
2112.053520  	-0.000142 
2113.982336  	0.000009 
2115.911152  	0.000260 
2117.839968  	0.000316 
2119.768784  	0.000065 
2121.697600  	-0.000627 
2123.626416  	-0.000753 
2125.555232  	-0.001047 
2127.484048  	-0.001203 
2129.412864  	-0.001632 
2131.341680  	-0.001375 
2133.270496  	-0.001229 
2135.199312  	-0.000495 
2137.128128  	-0.000188 
2139.056944  	-0.000269 
2140.985760  	-0.000792 
2142.914576  	-0.000474 
2144.843392  	-0.000224 
2146.772208  	0.000330 
2148.701024  	0.000367 
2150.629840  	0.000404 
2152.558656  	-0.000778 
2154.487472  	-0.001022 
2156.416288  	-0.000961 
2158.345104  	0.001635 
2160.273920  	0.004398 
2162.202736  	0.005379 
2164.131552  	0.005044 
2166.060368  	0.003910 
2167.989184  	0.002472 
2169.918000  	0.002464 
2171.846816  	0.002995 
2173.775632  	0.002425 
2175.704448  	0.001531 
2177.633264  	0.001231 
2179.562080  	0.000893 
2181.490896  	0.001195 
2183.419712  	0.001968 
2185.348528  	0.001556 
2187.277344  	0.001319 
2189.206160  	0.001929 
2191.134976  	0.002656 
2193.063792  	0.003401 
2194.992608  	0.002079 
2196.921424  	0.001685 
2198.850240  	0.002180 
2200.779056  	0.002083 
2202.707872  	0.001022 
2204.636688  	0.000651 
2206.565504  	0.001423 
2208.494320  	0.001738 
2210.423136  	0.001322 
2212.351952  	0.001699 
2214.280768  	0.002038 
2216.209584  	0.001610 
2218.138400  	0.001038 
2220.067216  	0.001201 
2221.996032  	0.001175 
2223.924848  	0.001314 
2225.853664  	0.000833 
2227.782480  	0.000401 
2229.711296  	0.000739 
2231.640112  	0.000428 
2233.568928  	-0.000294 
2235.497744  	0.000138 
2237.426560  	0.000262 
2239.355376  	0.000394 
2241.284192  	0.000225 
2243.213008  	0.000235 
2245.141824  	0.000380 
2247.070640  	0.000603 
2248.999456  	0.000233 
2250.928272  	-0.000343 
2252.857088  	-0.000706 
2254.785904  	-0.000176 
2256.714720  	0.000335 
2258.643536  	0.000334 
2260.572352  	0.000058 
2262.501168  	0.000235 
2264.429984  	0.000128 
2266.358800  	-0.000038 
2268.287616  	0.000159 
2270.216432  	0.000381 
2272.145248  	0.000364 
2274.074064  	0.000596 
2276.002880  	0.000654 
2277.931696  	0.000725 
2279.860512  	0.000742 
2281.789328  	0.000917 
2283.718144  	0.001076 
2285.646960  	0.001225 
2287.575776  	0.001200 
2289.504592  	0.001366 
2291.433408  	0.001681 
2293.362224  	0.002114 
2295.291040  	0.002476 
2297.219856  	0.002520 
2299.148672  	0.002396 
2301.077488  	0.002710 
2303.006304  	0.002810 
2304.935120  	0.002939 
2306.863936  	0.003501 
2308.792752  	0.003959 
2310.721568  	0.004320 
2312.650384  	0.004468 
2314.579200  	0.004124 
2316.508016  	0.004218 
2318.436832  	0.004686 
2320.365648  	0.005459 
2322.294464  	0.006099 
2324.223280  	0.005739 
2326.152096  	0.004336 
2328.080912  	0.003860 
2330.009728  	0.004236 
2331.938544  	0.004462 
2333.867360  	0.003825 
2335.796176  	0.003540 
2337.724992  	0.003778 
2339.653808  	0.003967 
2341.582624  	0.004023 
2343.511440  	0.004393 
2345.440256  	0.004925 
2347.369072  	0.004437 
2349.297888  	0.003440 
2351.226704  	0.003332 
2353.155520  	0.003739 
2355.084336  	0.004250 
2357.013152  	0.004841 
2358.941968  	0.005168 
2360.870784  	0.005637 
2362.799600  	0.005772 
2364.728416  	0.005672 
2366.657232  	0.005598 
2368.586048  	0.005478 
2370.514864  	0.005730 
2372.443680  	0.005295 
2374.372496  	0.004595 
2376.301312  	0.004417 
2378.230128  	0.004215 
2380.158944  	0.003626 
2382.087760  	0.002894 
2384.016576  	0.002064 
2385.945392  	0.001569 
2387.874208  	0.001270 
2389.803024  	0.001083 
2391.731840  	0.001027 
2393.660656  	0.000962 
2395.589472  	0.000901 
2397.518288  	0.000865 
2399.447104  	0.000873 
2401.375920  	0.001169 
2403.304736  	0.001414 
2405.233552  	0.001329 
2407.162368  	0.001200 
2409.091184  	0.001335 
2411.020000  	0.001472 
2412.948816  	0.001568 
2414.877632  	0.001652 
2416.806448  	0.001845 
2418.735264  	0.001738 
2420.664080  	0.001711 
2422.592896  	0.001846 
2424.521712  	0.002050 
2426.450528  	0.002154 
2428.379344  	0.002290 
2430.308160  	0.002391 
2432.236976  	0.002404 
2434.165792  	0.002378 
2436.094608  	0.002554 
2438.023424  	0.002508 
2439.952240  	0.002474 
2441.881056  	0.002736 
2443.809872  	0.002954 
2445.738688  	0.003041 
2447.667504  	0.003147 
2449.596320  	0.003116 
2451.525136  	0.003139 
2453.453952  	0.003023 
2455.382768  	0.003068 
2457.311584  	0.003203 
2459.240400  	0.003049 
2461.169216  	0.002978 
2463.098032  	0.003146 
2465.026848  	0.003114 
2466.955664  	0.003184 
2468.884480  	0.003470 
2470.813296  	0.003653 
2472.742112  	0.003625 
2474.670928  	0.003735 
2476.599744  	0.003716 
2478.528560  	0.003798 
2480.457376  	0.003949 
2482.386192  	0.003793 
2484.315008  	0.003708 
2486.243824  	0.003860 
2488.172640  	0.004164 
2490.101456  	0.004465 
2492.030272  	0.004514 
2493.959088  	0.004372 
2495.887904  	0.004515 
2497.816720  	0.004755 
2499.745536  	0.004737 
2501.674352  	0.004825 
2503.603168  	0.005013 
2505.531984  	0.005102 
2507.460800  	0.005123 
2509.389616  	0.005363 
2511.318432  	0.005292 
2513.247248  	0.005112 
2515.176064  	0.005154 
2517.104880  	0.005467 
2519.033696  	0.005756 
2520.962512  	0.005802 
2522.891328  	0.005715 
2524.820144  	0.005846 
2526.748960  	0.006027 
2528.677776  	0.006123 
2530.606592  	0.006145 
2532.535408  	0.006228 
2534.464224  	0.006238 
2536.393040  	0.006219 
2538.321856  	0.006294 
2540.250672  	0.006202 
2542.179488  	0.006112 
2544.108304  	0.006276 
2546.037120  	0.006385 
2547.965936  	0.006486 
2549.894752  	0.006442 
2551.823568  	0.006534 
2553.752384  	0.006493 
2555.681200  	0.006632 
2557.610016  	0.006917 
2559.538832  	0.007069 
2561.467648  	0.007186 
2563.396464  	0.007262 
2565.325280  	0.007262 
2567.254096  	0.007368 
2569.182912  	0.007409 
2571.111728  	0.007578 
2573.040544  	0.007841 
2574.969360  	0.008015 
2576.898176  	0.008193 
2578.826992  	0.008311 
2580.755808  	0.008209 
2582.684624  	0.008338 
2584.613440  	0.008475 
2586.542256  	0.008559 
2588.471072  	0.008665 
2590.399888  	0.008698 
2592.328704  	0.008645 
2594.257520  	0.008674 
2596.186336  	0.008727 
2598.115152  	0.008787 
2600.043968  	0.008914 
2601.972784  	0.008990 
2603.901600  	0.009067 
2605.830416  	0.009179 
2607.759232  	0.009271 
2609.688048  	0.009357 
2611.616864  	0.009517 
2613.545680  	0.009768 
2615.474496  	0.009870 
2617.403312  	0.009928 
2619.332128  	0.010016 
2621.260944  	0.010119 
2623.189760  	0.010241 
2625.118576  	0.010402 
2627.047392  	0.010552 
2628.976208  	0.010641 
2630.905024  	0.010635 
2632.833840  	0.010795 
2634.762656  	0.010968 
2636.691472  	0.011128 
2638.620288  	0.011359 
2640.549104  	0.011564 
2642.477920  	0.011693 
2644.406736  	0.011692 
2646.335552  	0.011842 
2648.264368  	0.012047 
2650.193184  	0.012190 
2652.122000  	0.012358 
2654.050816  	0.012515 
2655.979632  	0.012653 
2657.908448  	0.012742 
2659.837264  	0.012739 
2661.766080  	0.012877 
2663.694896  	0.012958 
2665.623712  	0.012961 
2667.552528  	0.013134 
2669.481344  	0.013435 
2671.410160  	0.013711 
2673.338976  	0.013727 
2675.267792  	0.013740 
2677.196608  	0.013849 
2679.125424  	0.013988 
2681.054240  	0.014151 
2682.983056  	0.014233 
2684.911872  	0.014349 
2686.840688  	0.014519 
2688.769504  	0.014677 
2690.698320  	0.014746 
2692.627136  	0.014838 
2694.555952  	0.014895 
2696.484768  	0.014998 
2698.413584  	0.015258 
2700.342400  	0.015422 
2702.271216  	0.015546 
2704.200032  	0.015700 
2706.128848  	0.015771 
2708.057664  	0.015883 
2709.986480  	0.016059 
2711.915296  	0.016218 
2713.844112  	0.016341 
2715.772928  	0.016461 
2717.701744  	0.016516 
2719.630560  	0.016603 
2721.559376  	0.016836 
2723.488192  	0.016956 
2725.417008  	0.017073 
2727.345824  	0.017248 
2729.274640  	0.017371 
2731.203456  	0.017491 
2733.132272  	0.017646 
2735.061088  	0.017791 
2736.989904  	0.017897 
2738.918720  	0.018100 
2740.847536  	0.018231 
2742.776352  	0.018366 
2744.705168  	0.018455 
2746.633984  	0.018485 
2748.562800  	0.018654 
2750.491616  	0.018889 
2752.420432  	0.019020 
2754.349248  	0.019032 
2756.278064  	0.019057 
2758.206880  	0.019056 
2760.135696  	0.019119 
2762.064512  	0.019220 
2763.993328  	0.019323 
2765.922144  	0.019234 
2767.850960  	0.019231 
2769.779776  	0.019321 
2771.708592  	0.019278 
2773.637408  	0.019215 
2775.566224  	0.019163 
2777.495040  	0.019239 
2779.423856  	0.019291 
2781.352672  	0.019233 
2783.281488  	0.019183 
2785.210304  	0.019302 
2787.139120  	0.019411 
2789.067936  	0.019398 
2790.996752  	0.019302 
2792.925568  	0.019203 
2794.854384  	0.019179 
2796.783200  	0.019202 
2798.712016  	0.019310 
2800.640832  	0.019375 
2802.569648  	0.019356 
2804.498464  	0.019289 
2806.427280  	0.019313 
2808.356096  	0.019375 
2810.284912  	0.019490 
2812.213728  	0.019432 
2814.142544  	0.019406 
2816.071360  	0.019394 
2818.000176  	0.019454 
2819.928992  	0.019505 
2821.857808  	0.019484 
2823.786624  	0.019439 
2825.715440  	0.019374 
2827.644256  	0.019398 
2829.573072  	0.019417 
2831.501888  	0.019352 
2833.430704  	0.019163 
2835.359520  	0.018952 
2837.288336  	0.018926 
2839.217152  	0.018939 
2841.145968  	0.018897 
2843.074784  	0.018769 
2845.003600  	0.018694 
2846.932416  	0.018680 
2848.861232  	0.018675 
2850.790048  	0.018664 
2852.718864  	0.018656 
2854.647680  	0.018618 
2856.576496  	0.018597 
2858.505312  	0.018637 
2860.434128  	0.018749 
2862.362944  	0.018789 
2864.291760  	0.018661 
2866.220576  	0.018674 
2868.149392  	0.018795 
2870.078208  	0.018779 
2872.007024  	0.018943 
2873.935840  	0.019272 
2875.864656  	0.019527 
2877.793472  	0.019861 
2879.722288  	0.020266 
2881.651104  	0.020586 
2883.579920  	0.020714 
2885.508736  	0.020798 
2887.437552  	0.021003 
2889.366368  	0.021112 
2891.295184  	0.020997 
2893.224000  	0.020839 
2895.152816  	0.020883 
2897.081632  	0.020689 
2899.010448  	0.020156 
2900.939264  	0.019825 
2902.868080  	0.020020 
2904.796896  	0.020219 
2906.725712  	0.020308 
2908.654528  	0.020378 
2910.583344  	0.020701 
2912.512160  	0.021179 
2914.440976  	0.021689 
2916.369792  	0.022232 
2918.298608  	0.022533 
2920.227424  	0.022930 
2922.156240  	0.023418 
2924.085056  	0.023933 
2926.013872  	0.024494 
2927.942688  	0.025183 
2929.871504  	0.025888 
2931.800320  	0.026460 
2933.729136  	0.027059 
2935.657952  	0.027592 
2937.586768  	0.028015 
2939.515584  	0.028443 
2941.444400  	0.028779 
2943.373216  	0.029084 
2945.302032  	0.029237 
2947.230848  	0.029220 
2949.159664  	0.029275 
2951.088480  	0.029220 
2953.017296  	0.028886 
2954.946112  	0.028467 
2956.874928  	0.028173 
2958.803744  	0.027773 
2960.732560  	0.027366 
2962.661376  	0.026740 
2964.590192  	0.026199 
2966.519008  	0.025603 
2968.447824  	0.024813 
2970.376640  	0.024029 
2972.305456  	0.023381 
2974.234272  	0.022799 
2976.163088  	0.022249 
2978.091904  	0.021749 
2980.020720  	0.021505 
2981.949536  	0.021476 
2983.878352  	0.021543 
2985.807168  	0.021427 
2987.735984  	0.021420 
2989.664800  	0.021941 
2991.593616  	0.022775 
2993.522432  	0.023209 
2995.451248  	0.023635 
2997.380064  	0.024261 
2999.308880  	0.024775 
3001.237696  	0.025201 
3003.166512  	0.025529 
3005.095328  	0.025838 
3007.024144  	0.026162 
3008.952960  	0.026586 
3010.881776  	0.026992 
3012.810592  	0.027352 
3014.739408  	0.027687 
3016.668224  	0.028080 
3018.597040  	0.028457 
3020.525856  	0.028702 
3022.454672  	0.029080 
3024.383488  	0.029491 
3026.312304  	0.029920 
3028.241120  	0.030177 
3030.169936  	0.030559 
3032.098752  	0.030957 
3034.027568  	0.031190 
3035.956384  	0.031380 
3037.885200  	0.031546 
3039.814016  	0.031934 
3041.742832  	0.032291 
3043.671648  	0.032612 
3045.600464  	0.033112 
3047.529280  	0.033360 
3049.458096  	0.033561 
3051.386912  	0.033869 
3053.315728  	0.034125 
3055.244544  	0.034415 
3057.173360  	0.035019 
3059.102176  	0.035353 
3061.030992  	0.035553 
3062.959808  	0.035940 
3064.888624  	0.036702 
3066.817440  	0.037340 
3068.746256  	0.037760 
3070.675072  	0.038043 
3072.603888  	0.038390 
3074.532704  	0.038873 
3076.461520  	0.039348 
3078.390336  	0.039830 
3080.319152  	0.040384 
3082.247968  	0.040808 
3084.176784  	0.041280 
3086.105600  	0.041719 
3088.034416  	0.042206 
3089.963232  	0.042756 
3091.892048  	0.043287 
3093.820864  	0.043625 
3095.749680  	0.044110 
3097.678496  	0.044614 
3099.607312  	0.045256 
3101.536128  	0.045834 
3103.464944  	0.046331 
3105.393760  	0.046904 
3107.322576  	0.047398 
3109.251392  	0.047738 
3111.180208  	0.048063 
3113.109024  	0.048334 
3115.037840  	0.048597 
3116.966656  	0.048793 
3118.895472  	0.049105 
3120.824288  	0.049249 
3122.753104  	0.049434 
3124.681920  	0.049835 
3126.610736  	0.050172 
3128.539552  	0.050376 
3130.468368  	0.050480 
3132.397184  	0.050865 
3134.326000  	0.051303 
3136.254816  	0.051379 
3138.183632  	0.051535 
3140.112448  	0.051875 
3142.041264  	0.052070 
3143.970080  	0.052177 
3145.898896  	0.052444 
3147.827712  	0.052891 
3149.756528  	0.053218 
3151.685344  	0.053462 
3153.614160  	0.053894 
3155.542976  	0.054306 
3157.471792  	0.054585 
3159.400608  	0.054754 
3161.329424  	0.055080 
3163.258240  	0.055466 
3165.187056  	0.055565 
3167.115872  	0.055832 
3169.044688  	0.056442 
3170.973504  	0.056755 
3172.902320  	0.056653 
3174.831136  	0.056511 
3176.759952  	0.056595 
3178.688768  	0.056981 
3180.617584  	0.057194 
3182.546400  	0.057031 
3184.475216  	0.056839 
3186.404032  	0.056939 
3188.332848  	0.056965 
3190.261664  	0.056883 
3192.190480  	0.056593 
3194.119296  	0.056290 
3196.048112  	0.056246 
3197.976928  	0.056196 
3199.905744  	0.055988 
3201.834560  	0.055629 
3203.763376  	0.055390 
3205.692192  	0.055021 
3207.621008  	0.054407 
3209.549824  	0.054112 
3211.478640  	0.053914 
3213.407456  	0.053683 
3215.336272  	0.053635 
3217.265088  	0.053101 
3219.193904  	0.052878 
3221.122720  	0.052961 
3223.051536  	0.052609 
3224.980352  	0.052047 
3226.909168  	0.051811 
3228.837984  	0.051452 
3230.766800  	0.051149 
3232.695616  	0.050978 
3234.624432  	0.050769 
3236.553248  	0.050742 
3238.482064  	0.050665 
3240.410880  	0.050758 
3242.339696  	0.050672 
3244.268512  	0.050641 
3246.197328  	0.050945 
3248.126144  	0.050682 
3250.054960  	0.050557 
3251.983776  	0.050592 
3253.912592  	0.051071 
3255.841408  	0.051370 
3257.770224  	0.051562 
3259.699040  	0.051787 
3261.627856  	0.051874 
3263.556672  	0.051834 
3265.485488  	0.052102 
3267.414304  	0.052180 
3269.343120  	0.052092 
3271.271936  	0.052315 
3273.200752  	0.052676 
3275.129568  	0.052874 
3277.058384  	0.053077 
3278.987200  	0.053237 
3280.916016  	0.053362 
3282.844832  	0.053439 
3284.773648  	0.053527 
3286.702464  	0.053494 
3288.631280  	0.053524 
3290.560096  	0.053791 
3292.488912  	0.054456 
3294.417728  	0.054758 
3296.346544  	0.054781 
3298.275360  	0.055256 
3300.204176  	0.055704 
3302.132992  	0.055955 
3304.061808  	0.056181 
3305.990624  	0.056164 
3307.919440  	0.056216 
3309.848256  	0.056601 
3311.777072  	0.057050 
3313.705888  	0.057478 
3315.634704  	0.057702 
3317.563520  	0.058022 
3319.492336  	0.058524 
3321.421152  	0.058653 
3323.349968  	0.058758 
3325.278784  	0.058926 
3327.207600  	0.059005 
3329.136416  	0.059084 
3331.065232  	0.059124 
3332.994048  	0.059211 
3334.922864  	0.059453 
3336.851680  	0.059821 
3338.780496  	0.059753 
3340.709312  	0.059421 
3342.638128  	0.059200 
3344.566944  	0.058890 
3346.495760  	0.058661 
3348.424576  	0.058600 
3350.353392  	0.058524 
3352.282208  	0.058244 
3354.211024  	0.057867 
3356.139840  	0.057715 
3358.068656  	0.057646 
3359.997472  	0.057317 
3361.926288  	0.056918 
3363.855104  	0.056532 
3365.783920  	0.056461 
3367.712736  	0.056194 
3369.641552  	0.055898 
3371.570368  	0.055676 
3373.499184  	0.055466 
3375.428000  	0.055028 
3377.356816  	0.054895 
3379.285632  	0.054941 
3381.214448  	0.054562 
3383.143264  	0.054179 
3385.072080  	0.054209 
3387.000896  	0.053929 
3388.929712  	0.053507 
3390.858528  	0.052927 
3392.787344  	0.052908 
3394.716160  	0.052711 
3396.644976  	0.052471 
3398.573792  	0.052497 
3400.502608  	0.052103 
3402.431424  	0.051865 
3404.360240  	0.051698 
3406.289056  	0.051296 
3408.217872  	0.050970 
3410.146688  	0.050687 
3412.075504  	0.050356 
3414.004320  	0.050129 
3415.933136  	0.049804 
3417.861952  	0.049214 
3419.790768  	0.049098 
3421.719584  	0.049335 
3423.648400  	0.049010 
3425.577216  	0.048330 
3427.506032  	0.047775 
3429.434848  	0.047412 
3431.363664  	0.047056 
3433.292480  	0.046734 
3435.221296  	0.046517 
3437.150112  	0.045987 
3439.078928  	0.045416 
3441.007744  	0.045240 
3442.936560  	0.045012 
3444.865376  	0.044181 
3446.794192  	0.044491 
3448.723008  	0.044930 
3450.651824  	0.043820 
3452.580640  	0.043017 
3454.509456  	0.042652 
3456.438272  	0.042179 
3458.367088  	0.041622 
3460.295904  	0.041292 
3462.224720  	0.041062 
3464.153536  	0.040637 
3466.082352  	0.040118 
3468.011168  	0.039513 
3469.939984  	0.038684 
3471.868800  	0.037946 
3473.797616  	0.037260 
3475.726432  	0.036843 
3477.655248  	0.036295 
3479.584064  	0.035526 
3481.512880  	0.035193 
3483.441696  	0.034936 
3485.370512  	0.033944 
3487.299328  	0.033533 
3489.228144  	0.033385 
3491.156960  	0.032594 
3493.085776  	0.031633 
3495.014592  	0.030963 
3496.943408  	0.030863 
3498.872224  	0.030095 
3500.801040  	0.028897 
3502.729856  	0.029043 
3504.658672  	0.029306 
3506.587488  	0.028136 
3508.516304  	0.027512 
3510.445120  	0.027979 
3512.373936  	0.027434 
3514.302752  	0.026389 
3516.231568  	0.025748 
3518.160384  	0.025362 
3520.089200  	0.024612 
3522.018016  	0.024028 
3523.946832  	0.024338 
3525.875648  	0.023741 
3527.804464  	0.023454 
3529.733280  	0.023416 
3531.662096  	0.022803 
3533.590912  	0.021706 
3535.519728  	0.021420 
3537.448544  	0.021737 
3539.377360  	0.020890 
3541.306176  	0.019913 
3543.234992  	0.019328 
3545.163808  	0.020004 
3547.092624  	0.020607 
3549.021440  	0.019352 
3550.950256  	0.017932 
3552.879072  	0.018371 
3554.807888  	0.018020 
3556.736704  	0.016955 
3558.665520  	0.016416 
3560.594336  	0.016210 
3562.523152  	0.015216 
3564.451968  	0.013685 
3566.380784  	0.014855 
3568.309600  	0.017499 
3570.238416  	0.015578 
3572.167232  	0.013595 
3574.096048  	0.012915 
3576.024864  	0.012360 
3577.953680  	0.011914 
3579.882496  	0.011695 
3581.811312  	0.011086 
3583.740128  	0.009413 
3585.668944  	0.008365 
3587.597760  	0.010648 
3589.526576  	0.011005 
3591.455392  	0.008331 
3593.384208  	0.007508 
3595.313024  	0.008067 
3597.241840  	0.007437 
3599.170656  	0.006350 
3601.099472  	0.006402 
3603.028288  	0.005611 
3604.957104  	0.003821 
3606.885920  	0.003150 
3608.814736  	0.004168 
3610.743552  	0.002779 
3612.672368  	0.001712 
3614.601184  	0.001694 
3616.530000  	-0.000404 
3618.458816  	-0.000587 
3620.387632  	0.001155 
3622.316448  	0.000262 
3624.245264  	-0.001833 
3626.174080  	-0.004636 
3628.102896  	-0.004515 
3630.031712  	-0.000203 
3631.960528  	-0.002642 
3633.889344  	-0.003739 
3635.818160  	-0.004446 
3637.746976  	-0.005541 
3639.675792  	-0.006257 
3641.604608  	-0.006901 
3643.533424  	-0.007873 
3645.462240  	-0.010316 
3647.391056  	-0.011132 
3649.319872  	-0.008619 
3651.248688  	-0.006243 
3653.177504  	-0.009346 
3655.106320  	-0.010840 
3657.035136  	-0.009294 
3658.963952  	-0.009822 
3660.892768  	-0.010364 
3662.821584  	-0.011042 
3664.750400  	-0.011686 
3666.679216  	-0.012845 
3668.608032  	-0.013726 
3670.536848  	-0.011379 
3672.465664  	-0.013281 
3674.394480  	-0.014223 
3676.323296  	-0.009609 
3678.252112  	-0.011099 
3680.180928  	-0.011398 
3682.109744  	-0.011788 
3684.038560  	-0.012574 
3685.967376  	-0.013956 
3687.896192  	-0.014157 
3689.825008  	-0.012116 
3691.753824  	-0.010919 
3693.682640  	-0.011289 
3695.611456  	-0.011623 
3697.540272  	-0.011707 
3699.469088  	-0.012289 
3701.397904  	-0.011567 
3703.326720  	-0.010901 
3705.255536  	-0.011660 
3707.184352  	-0.012557 
3709.113168  	-0.012949 
3711.041984  	-0.011661 
3712.970800  	-0.009929 
3714.899616  	-0.010653 
3716.828432  	-0.011696 
3718.757248  	-0.011683 
3720.686064  	-0.011887 
3722.614880  	-0.011733 
3724.543696  	-0.011324 
3726.472512  	-0.010473 
3728.401328  	-0.011116 
3730.330144  	-0.012972 
3732.258960  	-0.013079 
3734.187776  	-0.012036 
3736.116592  	-0.009398 
3738.045408  	-0.010215 
3739.974224  	-0.011924 
3741.903040  	-0.013714 
3743.831856  	-0.012756 
3745.760672  	-0.010422 
3747.689488  	-0.013208 
3749.618304  	-0.013104 
3751.547120  	-0.010621 
3753.475936  	-0.010001 
3755.404752  	-0.011778 
3757.333568  	-0.012144 
3759.262384  	-0.011056 
3761.191200  	-0.010434 
3763.120016  	-0.011730 
3765.048832  	-0.011428 
3766.977648  	-0.011616 
3768.906464  	-0.011830 
3770.835280  	-0.010394 
3772.764096  	-0.010799 
3774.692912  	-0.011486 
3776.621728  	-0.012214 
3778.550544  	-0.011924 
3780.479360  	-0.010626 
3782.408176  	-0.011565 
3784.336992  	-0.011497 
3786.265808  	-0.010926 
3788.194624  	-0.011229 
3790.123440  	-0.011617 
3792.052256  	-0.011757 
3793.981072  	-0.012371 
3795.909888  	-0.012194 
3797.838704  	-0.012245 
3799.767520  	-0.013520 
3801.696336  	-0.011183 
3803.625152  	-0.011302 
3805.553968  	-0.012838 
3807.482784  	-0.010946 
3809.411600  	-0.011173 
3811.340416  	-0.011870 
3813.269232  	-0.013235 
3815.198048  	-0.013131 
3817.126864  	-0.011774 
3819.055680  	-0.013554 
3820.984496  	-0.011596 
3822.913312  	-0.010422 
3824.842128  	-0.012118 
3826.770944  	-0.011899 
3828.699760  	-0.012124 
3830.628576  	-0.012565 
3832.557392  	-0.012436 
3834.486208  	-0.013000 
3836.415024  	-0.013243 
3838.343840  	-0.012130 
3840.272656  	-0.011408 
3842.201472  	-0.011618 
3844.130288  	-0.011334 
3846.059104  	-0.011721 
3847.987920  	-0.012805 
3849.916736  	-0.014134 
3851.845552  	-0.014459 
3853.774368  	-0.009620 
3855.703184  	-0.009671 
3857.632000  	-0.011035 
3859.560816  	-0.012094 
3861.489632  	-0.012540 
3863.418448  	-0.012124 
3865.347264  	-0.010936 
3867.276080  	-0.012796 
3869.204896  	-0.012713 
3871.133712  	-0.010952 
3873.062528  	-0.012073 
3874.991344  	-0.011081 
3876.920160  	-0.012014 
3878.848976  	-0.012453 
3880.777792  	-0.010989 
3882.706608  	-0.011740 
3884.635424  	-0.011964 
3886.564240  	-0.010279 
3888.493056  	-0.012078 
3890.421872  	-0.012198 
3892.350688  	-0.010836 
3894.279504  	-0.011385 
3896.208320  	-0.012604 
3898.137136  	-0.012766 
3900.065952  	-0.011866 
3901.994768  	-0.011544 
3903.923584  	-0.010574 
3905.852400  	-0.010336 
3907.781216  	-0.011277 
3909.710032  	-0.011685 
3911.638848  	-0.011602 
3913.567664  	-0.011896 
3915.496480  	-0.011895 
3917.425296  	-0.010991 
3919.354112  	-0.011162 
3921.282928  	-0.011634 
3923.211744  	-0.011896 
3925.140560  	-0.011152 
3927.069376  	-0.011583 
3928.998192  	-0.012068 
3930.927008  	-0.011473 
3932.855824  	-0.010713 
3934.784640  	-0.011286 
3936.713456  	-0.011707 
3938.642272  	-0.011630 
3940.571088  	-0.011754 
3942.499904  	-0.011054 
3944.428720  	-0.011101 
3946.357536  	-0.011905 
3948.286352  	-0.011640 
3950.215168  	-0.011353 
3952.143984  	-0.011674 
3954.072800  	-0.011955 
3956.001616  	-0.011952 
3957.930432  	-0.011819 
3959.859248  	-0.011815 
3961.788064  	-0.011664 
3963.716880  	-0.011578 
3965.645696  	-0.011749 
3967.574512  	-0.011833 
3969.503328  	-0.011700 
3971.432144  	-0.011602 
3973.360960  	-0.011607 
3975.289776  	-0.011556 
3977.218592  	-0.011515 
3979.147408  	-0.011597 
3981.076224  	-0.011628 
3983.005040  	-0.011588 
3984.933856  	-0.011619 
3986.862672  	-0.011772 
3988.791488  	-0.011863 
3990.720304  	-0.011698 
3992.649120  	-0.011633 
3994.577936  	-0.011566 
3996.506752  	-0.011651 
3998.435568  	-0.011787 
4000.364384  	-0.011793 