##TITLE=No Description
##DATA TYPE=INFRARED SPECTRUM
##XUNITS=1/CM
##YUNITS=Abs
399.264912  	0.168923 
401.193728  	0.169999 
403.122544  	0.159774 
405.051360  	0.150947 
406.980176  	0.157049 
408.908992  	0.162569 
410.837808  	0.163557 
412.766624  	0.166562 
414.695440  	0.164940 
416.624256  	0.159231 
418.553072  	0.163754 
420.481888  	0.163019 
422.410704  	0.158232 
424.339520  	0.154652 
426.268336  	0.154303 
428.197152  	0.157611 
430.125968  	0.159102 
432.054784  	0.155758 
433.983600  	0.154892 
435.912416  	0.155077 
437.841232  	0.154342 
439.770048  	0.152190 
441.698864  	0.153831 
443.627680  	0.151292 
445.556496  	0.151451 
447.485312  	0.153485 
449.414128  	0.155061 
451.342944  	0.156694 
453.271760  	0.154390 
455.200576  	0.149154 
457.129392  	0.150524 
459.058208  	0.155201 
460.987024  	0.156084 
462.915840  	0.152561 
464.844656  	0.152613 
466.773472  	0.152601 
468.702288  	0.154880 
470.631104  	0.158624 
472.559920  	0.161143 
474.488736  	0.159294 
476.417552  	0.159193 
478.346368  	0.159386 
480.275184  	0.162802 
482.204000  	0.163270 
484.132816  	0.162702 
486.061632  	0.163137 
487.990448  	0.165991 
489.919264  	0.166397 
491.848080  	0.168207 
493.776896  	0.168363 
495.705712  	0.166856 
497.634528  	0.166414 
499.563344  	0.168073 
501.492160  	0.167537 
503.420976  	0.166751 
505.349792  	0.165371 
507.278608  	0.165971 
509.207424  	0.166761 
511.136240  	0.169079 
513.065056  	0.170684 
514.993872  	0.173001 
516.922688  	0.174006 
518.851504  	0.177382 
520.780320  	0.178338 
522.709136  	0.179438 
524.637952  	0.180968 
526.566768  	0.183415 
528.495584  	0.182263 
530.424400  	0.180884 
532.353216  	0.179853 
534.282032  	0.178314 
536.210848  	0.175825 
538.139664  	0.173736 
540.068480  	0.172307 
541.997296  	0.170999 
543.926112  	0.169190 
545.854928  	0.169012 
547.783744  	0.167955 
549.712560  	0.166792 
551.641376  	0.164965 
553.570192  	0.164044 
555.499008  	0.162914 
557.427824  	0.162518 
559.356640  	0.161450 
561.285456  	0.160907 
563.214272  	0.159583 
565.143088  	0.158067 
567.071904  	0.155570 
569.000720  	0.154320 
570.929536  	0.153075 
572.858352  	0.151469 
574.787168  	0.150525 
576.715984  	0.150030 
578.644800  	0.149205 
580.573616  	0.147598 
582.502432  	0.144847 
584.431248  	0.141442 
586.360064  	0.138665 
588.288880  	0.136882 
590.217696  	0.135543 
592.146512  	0.134976 
594.075328  	0.134501 
596.004144  	0.133697 
597.932960  	0.132858 
599.861776  	0.132154 
601.790592  	0.131290 
603.719408  	0.131608 
605.648224  	0.131820 
607.577040  	0.131465 
609.505856  	0.130742 
611.434672  	0.130379 
613.363488  	0.130028 
615.292304  	0.129747 
617.221120  	0.129175 
619.149936  	0.128969 
621.078752  	0.128267 
623.007568  	0.128309 
624.936384  	0.128712 
626.865200  	0.128460 
628.794016  	0.128147 
630.722832  	0.128616 
632.651648  	0.129027 
634.580464  	0.129252 
636.509280  	0.130098 
638.438096  	0.130299 
640.366912  	0.130821 
642.295728  	0.131051 
644.224544  	0.130319 
646.153360  	0.129526 
648.082176  	0.127900 
650.010992  	0.126459 
651.939808  	0.124430 
653.868624  	0.122748 
655.797440  	0.120517 
657.726256  	0.119309 
659.655072  	0.117424 
661.583888  	0.115542 
663.512704  	0.113912 
665.441520  	0.110736 
667.370336  	0.108481 
669.299152  	0.109553 
671.227968  	0.105476 
673.156784  	0.102634 
675.085600  	0.101448 
677.014416  	0.100228 
678.943232  	0.099399 
680.872048  	0.099197 
682.800864  	0.098334 
684.729680  	0.098006 
686.658496  	0.097642 
688.587312  	0.097486 
690.516128  	0.096395 
692.444944  	0.095657 
694.373760  	0.095187 
696.302576  	0.094985 
698.231392  	0.093876 
700.160208  	0.093100 
702.089024  	0.092353 
704.017840  	0.091074 
705.946656  	0.089437 
707.875472  	0.088181 
709.804288  	0.087335 
711.733104  	0.086414 
713.661920  	0.085398 
715.590736  	0.085055 
717.519552  	0.085616 
719.448368  	0.086559 
721.377184  	0.087713 
723.306000  	0.088729 
725.234816  	0.089731 
727.163632  	0.089873 
729.092448  	0.088927 
731.021264  	0.087566 
732.950080  	0.085859 
734.878896  	0.084477 
736.807712  	0.082575 
738.736528  	0.081270 
740.665344  	0.080432 
742.594160  	0.080096 
744.522976  	0.079408 
746.451792  	0.078839 
748.380608  	0.078346 
750.309424  	0.078026 
752.238240  	0.077667 
754.167056  	0.077736 
756.095872  	0.077496 
758.024688  	0.077002 
759.953504  	0.077240 
761.882320  	0.077905 
763.811136  	0.078902 
765.739952  	0.078345 
767.668768  	0.076992 
769.597584  	0.076209 
771.526400  	0.076504 
773.455216  	0.077864 
775.384032  	0.080541 
777.312848  	0.084703 
779.241664  	0.087768 
781.170480  	0.088359 
783.099296  	0.086145 
785.028112  	0.083539 
786.956928  	0.080861 
788.885744  	0.078281 
790.814560  	0.076234 
792.743376  	0.075561 
794.672192  	0.075687 
796.601008  	0.075190 
798.529824  	0.073567 
800.458640  	0.071333 
802.387456  	0.069580 
804.316272  	0.068726 
806.245088  	0.068254 
808.173904  	0.068171 
810.102720  	0.068524 
812.031536  	0.068753 
813.960352  	0.069396 
815.889168  	0.070255 
817.817984  	0.070860 
819.746800  	0.071413 
821.675616  	0.071998 
823.604432  	0.072841 
825.533248  	0.073710 
827.462064  	0.074287 
829.390880  	0.074426 
831.319696  	0.074618 
833.248512  	0.074355 
835.177328  	0.073832 
837.106144  	0.072453 
839.034960  	0.071192 
840.963776  	0.069762 
842.892592  	0.068052 
844.821408  	0.066196 
846.750224  	0.064339 
848.679040  	0.062922 
850.607856  	0.061806 
852.536672  	0.061428 
854.465488  	0.060767 
856.394304  	0.060281 
858.323120  	0.059839 
860.251936  	0.059103 
862.180752  	0.058447 
864.109568  	0.057348 
866.038384  	0.056016 
867.967200  	0.054874 
869.896016  	0.054007 
871.824832  	0.053055 
873.753648  	0.052625 
875.682464  	0.052660 
877.611280  	0.053316 
879.540096  	0.054914 
881.468912  	0.057673 
883.397728  	0.060155 
885.326544  	0.062116 
887.255360  	0.063782 
889.184176  	0.064498 
891.112992  	0.064512 
893.041808  	0.064153 
894.970624  	0.063172 
896.899440  	0.061428 
898.828256  	0.059353 
900.757072  	0.057170 
902.685888  	0.054996 
904.614704  	0.054006 
906.543520  	0.054243 
908.472336  	0.055454 
910.401152  	0.057100 
912.329968  	0.059175 
914.258784  	0.061300 
916.187600  	0.063235 
918.116416  	0.064739 
920.045232  	0.065939 
921.974048  	0.066870 
923.902864  	0.067463 
925.831680  	0.067791 
927.760496  	0.068261 
929.689312  	0.068928 
931.618128  	0.069602 
933.546944  	0.070154 
935.475760  	0.070475 
937.404576  	0.070492 
939.333392  	0.070193 
941.262208  	0.070027 
943.191024  	0.070848 
945.119840  	0.072682 
947.048656  	0.075710 
948.977472  	0.080179 
950.906288  	0.085647 
952.835104  	0.092148 
954.763920  	0.099544 
956.692736  	0.106796 
958.621552  	0.113469 
960.550368  	0.118462 
962.479184  	0.122078 
964.408000  	0.122957 
966.336816  	0.120999 
968.265632  	0.116539 
970.194448  	0.110354 
972.123264  	0.102842 
974.052080  	0.094541 
975.980896  	0.086177 
977.909712  	0.078274 
979.838528  	0.071152 
981.767344  	0.065380 
983.696160  	0.061156 
985.624976  	0.058398 
987.553792  	0.057565 
989.482608  	0.058443 
991.411424  	0.060757 
993.340240  	0.064518 
995.269056  	0.068725 
997.197872  	0.073099 
999.126688  	0.077341 
1001.055504  	0.081815 
1002.984320  	0.086100 
1004.913136  	0.090451 
1006.841952  	0.094379 
1008.770768  	0.098094 
1010.699584  	0.101370 
1012.628400  	0.103860 
1014.557216  	0.105402 
1016.486032  	0.106310 
1018.414848  	0.106866 
1020.343664  	0.106923 
1022.272480  	0.106875 
1024.201296  	0.106862 
1026.130112  	0.106188 
1028.058928  	0.105790 
1029.987744  	0.106307 
1031.916560  	0.107013 
1033.845376  	0.107364 
1035.774192  	0.107955 
1037.703008  	0.109003 
1039.631824  	0.111653 
1041.560640  	0.116067 
1043.489456  	0.122958 
1045.418272  	0.131899 
1047.347088  	0.142071 
1049.275904  	0.151524 
1051.204720  	0.158802 
1053.133536  	0.163055 
1055.062352  	0.164980 
1056.991168  	0.165337 
1058.919984  	0.165289 
1060.848800  	0.164968 
1062.777616  	0.164341 
1064.706432  	0.162782 
1066.635248  	0.161065 
1068.564064  	0.158976 
1070.492880  	0.155691 
1072.421696  	0.151619 
1074.350512  	0.148758 
1076.279328  	0.147614 
1078.208144  	0.148920 
1080.136960  	0.150904 
1082.065776  	0.152782 
1083.994592  	0.153198 
1085.923408  	0.151788 
1087.852224  	0.148201 
1089.781040  	0.143777 
1091.709856  	0.138438 
1093.638672  	0.132239 
1095.567488  	0.124996 
1097.496304  	0.117472 
1099.425120  	0.109464 
1101.353936  	0.101868 
1103.282752  	0.094566 
1105.211568  	0.087526 
1107.140384  	0.081040 
1109.069200  	0.075143 
1110.998016  	0.069478 
1112.926832  	0.064258 
1114.855648  	0.059386 
1116.784464  	0.054930 
1118.713280  	0.050648 
1120.642096  	0.046534 
1122.570912  	0.042576 
1124.499728  	0.039085 
1126.428544  	0.036124 
1128.357360  	0.033571 
1130.286176  	0.031068 
1132.214992  	0.029161 
1134.143808  	0.027618 
1136.072624  	0.026315 
1138.001440  	0.025104 
1139.930256  	0.024023 
1141.859072  	0.022954 
1143.787888  	0.022080 
1145.716704  	0.021102 
1147.645520  	0.020069 
1149.574336  	0.019291 
1151.503152  	0.018954 
1153.431968  	0.019141 
1155.360784  	0.019285 
1157.289600  	0.019406 
1159.218416  	0.019847 
1161.147232  	0.020790 
1163.076048  	0.021902 
1165.004864  	0.022909 
1166.933680  	0.023871 
1168.862496  	0.024894 
1170.791312  	0.026252 
1172.720128  	0.027757 
1174.648944  	0.029526 
1176.577760  	0.031201 
1178.506576  	0.032902 
1180.435392  	0.034625 
1182.364208  	0.036590 
1184.293024  	0.038824 
1186.221840  	0.041064 
1188.150656  	0.043861 
1190.079472  	0.047192 
1192.008288  	0.050926 
1193.937104  	0.055120 
1195.865920  	0.059902 
1197.794736  	0.065027 
1199.723552  	0.070317 
1201.652368  	0.075976 
1203.581184  	0.081520 
1205.510000  	0.086661 
1207.438816  	0.091265 
1209.367632  	0.095667 
1211.296448  	0.099093 
1213.225264  	0.101683 
1215.154080  	0.103092 
1217.082896  	0.104294 
1219.011712  	0.104621 
1220.940528  	0.104647 
1222.869344  	0.104139 
1224.798160  	0.103088 
1226.726976  	0.101576 
1228.655792  	0.099882 
1230.584608  	0.097856 
1232.513424  	0.095461 
1234.442240  	0.092723 
1236.371056  	0.089856 
1238.299872  	0.086484 
1240.228688  	0.082593 
1242.157504  	0.078745 
1244.086320  	0.075121 
1246.015136  	0.071041 
1247.943952  	0.066896 
1249.872768  	0.062946 
1251.801584  	0.059383 
1253.730400  	0.055555 
1255.659216  	0.051896 
1257.588032  	0.048394 
1259.516848  	0.045151 
1261.445664  	0.042199 
1263.374480  	0.039465 
1265.303296  	0.037057 
1267.232112  	0.035116 
1269.160928  	0.033615 
1271.089744  	0.032562 
1273.018560  	0.032085 
1274.947376  	0.032185 
1276.876192  	0.032447 
1278.805008  	0.032598 
1280.733824  	0.032495 
1282.662640  	0.031783 
1284.591456  	0.030696 
1286.520272  	0.029623 
1288.449088  	0.028913 
1290.377904  	0.029076 
1292.306720  	0.029567 
1294.235536  	0.029699 
1296.164352  	0.029392 
1298.093168  	0.028420 
1300.021984  	0.026792 
1301.950800  	0.025136 
1303.879616  	0.023389 
1305.808432  	0.021456 
1307.737248  	0.019438 
1309.666064  	0.017542 
1311.594880  	0.016013 
1313.523696  	0.014967 
1315.452512  	0.014148 
1317.381328  	0.013685 
1319.310144  	0.013774 
1321.238960  	0.013953 
1323.167776  	0.014334 
1325.096592  	0.014797 
1327.025408  	0.015063 
1328.954224  	0.015046 
1330.883040  	0.014642 
1332.811856  	0.013966 
1334.740672  	0.013205 
1336.669488  	0.012738 
1338.598304  	0.012755 
1340.527120  	0.012804 
1342.455936  	0.012285 
1344.384752  	0.012116 
1346.313568  	0.012289 
1348.242384  	0.012780 
1350.171200  	0.013575 
1352.100016  	0.014524 
1354.028832  	0.015646 
1355.957648  	0.016856 
1357.886464  	0.017783 
1359.815280  	0.018732 
1361.744096  	0.020279 
1363.672912  	0.022333 
1365.601728  	0.023029 
1367.530544  	0.023603 
1369.459360  	0.024563 
1371.388176  	0.024513 
1373.316992  	0.023945 
1375.245808  	0.023305 
1377.174624  	0.021634 
1379.103440  	0.020083 
1381.032256  	0.018476 
1382.961072  	0.017112 
1384.889888  	0.015827 
1386.818704  	0.015386 
1388.747520  	0.014943 
1390.676336  	0.013350 
1392.605152  	0.011342 
1394.533968  	0.010700 
1396.462784  	0.011415 
1398.391600  	0.011363 
1400.320416  	0.011869 
1402.249232  	0.011482 
1404.178048  	0.011763 
1406.106864  	0.012814 
1408.035680  	0.013416 
1409.964496  	0.014190 
1411.893312  	0.015550 
1413.822128  	0.016586 
1415.750944  	0.017340 
1417.679760  	0.018062 
1419.608576  	0.020177 
1421.537392  	0.020003 
1423.466208  	0.019132 
1425.395024  	0.018795 
1427.323840  	0.017217 
1429.252656  	0.015905 
1431.181472  	0.015324 
1433.110288  	0.014644 
1435.039104  	0.013826 
1436.967920  	0.015856 
1438.896736  	0.016936 
1440.825552  	0.016743 
1442.754368  	0.016891 
1444.683184  	0.016581 
1446.612000  	0.016299 
1448.540816  	0.016906 
1450.469632  	0.016761 
1452.398448  	0.016328 
1454.327264  	0.015368 
1456.256080  	0.014927 
1458.184896  	0.017870 
1460.113712  	0.018023 
1462.042528  	0.016713 
1463.971344  	0.016181 
1465.900160  	0.018007 
1467.828976  	0.018539 
1469.757792  	0.018334 
1471.686608  	0.019517 
1473.615424  	0.024925 
1475.544240  	0.028065 
1477.473056  	0.031169 
1479.401872  	0.032485 
1481.330688  	0.034377 
1483.259504  	0.035638 
1485.188320  	0.035514 
1487.117136  	0.035190 
1489.045952  	0.035806 
1490.974768  	0.036856 
1492.903584  	0.034765 
1494.832400  	0.031222 
1496.761216  	0.028741 
1498.690032  	0.026363 
1500.618848  	0.023804 
1502.547664  	0.020347 
1504.476480  	0.016033 
1506.405296  	0.013953 
1508.334112  	0.016860 
1510.262928  	0.015297 
1512.191744  	0.014026 
1514.120560  	0.012856 
1516.049376  	0.012388 
1517.978192  	0.013509 
1519.907008  	0.012984 
1521.835824  	0.016257 
1523.764640  	0.018759 
1525.693456  	0.020182 
1527.622272  	0.022205 
1529.551088  	0.022337 
1531.479904  	0.020498 
1533.408720  	0.019586 
1535.337536  	0.018577 
1537.266352  	0.014706 
1539.195168  	0.011200 
1541.123984  	0.012190 
1543.052800  	0.012530 
1544.981616  	0.012447 
1546.910432  	0.011505 
1548.839248  	0.010329 
1550.768064  	0.010715 
1552.696880  	0.009719 
1554.625696  	0.009644 
1556.554512  	0.007674 
1558.483328  	0.007587 
1560.412144  	0.015656 
1562.340960  	0.015218 
1564.269776  	0.015836 
1566.198592  	0.018039 
1568.127408  	0.018499 
1570.056224  	0.023317 
1571.985040  	0.025768 
1573.913856  	0.025130 
1575.842672  	0.026897 
1577.771488  	0.030959 
1579.700304  	0.029803 
1581.629120  	0.029018 
1583.557936  	0.028508 
1585.486752  	0.028727 
1587.415568  	0.029482 
1589.344384  	0.031351 
1591.273200  	0.033761 
1593.202016  	0.036777 
1595.130832  	0.040225 
1597.059648  	0.044010 
1598.988464  	0.046659 
1600.917280  	0.049134 
1602.846096  	0.050933 
1604.774912  	0.052054 
1606.703728  	0.051619 
1608.632544  	0.051439 
1610.561360  	0.050550 
1612.490176  	0.048871 
1614.418992  	0.045175 
1616.347808  	0.045566 
1618.276624  	0.049287 
1620.205440  	0.047758 
1622.134256  	0.047092 
1624.063072  	0.052499 
1625.991888  	0.054324 
1627.920704  	0.058102 
1629.849520  	0.063166 
1631.778336  	0.064575 
1633.707152  	0.063987 
1635.635968  	0.071553 
1637.564784  	0.081356 
1639.493600  	0.081365 
1641.422416  	0.082173 
1643.351232  	0.081205 
1645.280048  	0.078971 
1647.208864  	0.086026 
1649.137680  	0.087519 
1651.066496  	0.078943 
1652.995312  	0.081590 
1654.924128  	0.092871 
1656.852944  	0.086932 
1658.781760  	0.083488 
1660.710576  	0.080436 
1662.639392  	0.080542 
1664.568208  	0.080829 
1666.497024  	0.075841 
1668.425840  	0.072547 
1670.354656  	0.074241 
1672.283472  	0.072076 
1674.212288  	0.068078 
1676.141104  	0.069933 
1678.069920  	0.067461 
1679.998736  	0.065378 
1681.927552  	0.062145 
1683.856368  	0.062957 
1685.785184  	0.070612 
1687.714000  	0.067371 
1689.642816  	0.067199 
1691.571632  	0.066819 
1693.500448  	0.063398 
1695.429264  	0.062516 
1697.358080  	0.064306 
1699.286896  	0.061139 
1701.215712  	0.067083 
1703.144528  	0.063591 
1705.073344  	0.061216 
1707.002160  	0.061116 
1708.930976  	0.058729 
1710.859792  	0.055483 
1712.788608  	0.051160 
1714.717424  	0.046231 
1716.646240  	0.041957 
1718.575056  	0.038981 
1720.503872  	0.033806 
1722.432688  	0.028317 
1724.361504  	0.023715 
1726.290320  	0.019198 
1728.219136  	0.015020 
1730.147952  	0.011532 
1732.076768  	0.007847 
1734.005584  	0.005973 
1735.934400  	0.005339 
1737.863216  	0.002954 
1739.792032  	0.001566 
1741.720848  	0.000947 
1743.649664  	0.000264 
1745.578480  	-0.000803 
1747.507296  	-0.001774 
1749.436112  	-0.001978 
1751.364928  	-0.001474 
1753.293744  	-0.001752 
1755.222560  	-0.002772 
1757.151376  	-0.002754 
1759.080192  	-0.003207 
1761.009008  	-0.003522 
1762.937824  	-0.003171 
1764.866640  	-0.003536 
1766.795456  	-0.004079 
1768.724272  	-0.004236 
1770.653088  	-0.005482 
1772.581904  	-0.004924 
1774.510720  	-0.004051 
1776.439536  	-0.004023 
1778.368352  	-0.004397 
1780.297168  	-0.004528 
1782.225984  	-0.004445 
1784.154800  	-0.004469 
1786.083616  	-0.004581 
1788.012432  	-0.004922 
1789.941248  	-0.005166 
1791.870064  	-0.005021 
1793.798880  	-0.004837 
1795.727696  	-0.004936 
1797.656512  	-0.005372 
1799.585328  	-0.005697 
1801.514144  	-0.005209 
1803.442960  	-0.005148 
1805.371776  	-0.005506 
1807.300592  	-0.005575 
1809.229408  	-0.005778 
1811.158224  	-0.005685 
1813.087040  	-0.005500 
1815.015856  	-0.005612 
1816.944672  	-0.005680 
1818.873488  	-0.005612 
1820.802304  	-0.005582 
1822.731120  	-0.005731 
1824.659936  	-0.005727 
1826.588752  	-0.005866 
1828.517568  	-0.006579 
1830.446384  	-0.005866 
1832.375200  	-0.005551 
1834.304016  	-0.005565 
1836.232832  	-0.005496 
1838.161648  	-0.005684 
1840.090464  	-0.006035 
1842.019280  	-0.006282 
1843.948096  	-0.005931 
1845.876912  	-0.005476 
1847.805728  	-0.005501 
1849.734544  	-0.005513 
1851.663360  	-0.005788 
1853.592176  	-0.005823 
1855.520992  	-0.006199 
1857.449808  	-0.006136 
1859.378624  	-0.005742 
1861.307440  	-0.005295 
1863.236256  	-0.005620 
1865.165072  	-0.006225 
1867.093888  	-0.006614 
1869.022704  	-0.006009 
1870.951520  	-0.005946 
1872.880336  	-0.006095 
1874.809152  	-0.006213 
1876.737968  	-0.006175 
1878.666784  	-0.006196 
1880.595600  	-0.006065 
1882.524416  	-0.006143 
1884.453232  	-0.006447 
1886.382048  	-0.006699 
1888.310864  	-0.006336 
1890.239680  	-0.005838 
1892.168496  	-0.006172 
1894.097312  	-0.006542 
1896.026128  	-0.006115 
1897.954944  	-0.005608 
1899.883760  	-0.005881 
1901.812576  	-0.006360 
1903.741392  	-0.006332 
1905.670208  	-0.006302 
1907.599024  	-0.006257 
1909.527840  	-0.006140 
1911.456656  	-0.005895 
1913.385472  	-0.005918 
1915.314288  	-0.006314 
1917.243104  	-0.006621 
1919.171920  	-0.006144 
1921.100736  	-0.006243 
1923.029552  	-0.005943 
1924.958368  	-0.006679 
1926.887184  	-0.007199 
1928.816000  	-0.006529 
1930.744816  	-0.006243 
1932.673632  	-0.006698 
1934.602448  	-0.007261 
1936.531264  	-0.007580 
1938.460080  	-0.007757 
1940.388896  	-0.008117 
1942.317712  	-0.007359 
1944.246528  	-0.007238 
1946.175344  	-0.007378 
1948.104160  	-0.007293 
1950.032976  	-0.008158 
1951.961792  	-0.008394 
1953.890608  	-0.007932 
1955.819424  	-0.007720 
1957.748240  	-0.007533 
1959.677056  	-0.008132 
1961.605872  	-0.008134 
1963.534688  	-0.008129 
1965.463504  	-0.007768 
1967.392320  	-0.009036 
1969.321136  	-0.009592 
1971.249952  	-0.009873 
1973.178768  	-0.009744 
1975.107584  	-0.010042 
1977.036400  	-0.009534 
1978.965216  	-0.008179 
1980.894032  	-0.007370 
1982.822848  	-0.007953 
1984.751664  	-0.008135 
1986.680480  	-0.007851 
1988.609296  	-0.007222 
1990.538112  	-0.007493 
1992.466928  	-0.007568 
1994.395744  	-0.008568 
1996.324560  	-0.008824 
1998.253376  	-0.008442 
2000.182192  	-0.008395 
2002.111008  	-0.008328 
2004.039824  	-0.008150 
2005.968640  	-0.008180 
2007.897456  	-0.007253 
2009.826272  	-0.006724 
2011.755088  	-0.007454 
2013.683904  	-0.007977 
2015.612720  	-0.007480 
2017.541536  	-0.006785 
2019.470352  	-0.006853 
2021.399168  	-0.007236 
2023.327984  	-0.006516 
2025.256800  	-0.007183 
2027.185616  	-0.007827 
2029.114432  	-0.007763 
2031.043248  	-0.008327 
2032.972064  	-0.008390 
2034.900880  	-0.007818 
2036.829696  	-0.007699 
2038.758512  	-0.005729 
2040.687328  	-0.004956 
2042.616144  	-0.005740 
2044.544960  	-0.006795 
2046.473776  	-0.006881 
2048.402592  	-0.006270 
2050.331408  	-0.006136 
2052.260224  	-0.006761 
2054.189040  	-0.006804 
2056.117856  	-0.006634 
2058.046672  	-0.006557 
2059.975488  	-0.007034 
2061.904304  	-0.007216 
2063.833120  	-0.007218 
2065.761936  	-0.006563 
2067.690752  	-0.006264 
2069.619568  	-0.006737 
2071.548384  	-0.006861 
2073.477200  	-0.006147 
2075.406016  	-0.006211 
2077.334832  	-0.006038 
2079.263648  	-0.006044 
2081.192464  	-0.005756 
2083.121280  	-0.005973 
2085.050096  	-0.006577 
2086.978912  	-0.006556 
2088.907728  	-0.006087 
2090.836544  	-0.006327 
2092.765360  	-0.006531 
2094.694176  	-0.006893 
2096.622992  	-0.006560 
2098.551808  	-0.005739 
2100.480624  	-0.005857 
2102.409440  	-0.006221 
2104.338256  	-0.006039 
2106.267072  	-0.005674 
2108.195888  	-0.005363 
2110.124704  	-0.005659 
2112.053520  	-0.006240 
2113.982336  	-0.006241 
2115.911152  	-0.006012 
2117.839968  	-0.005933 
2119.768784  	-0.006169 
2121.697600  	-0.006953 
2123.626416  	-0.007182 
2125.555232  	-0.007024 
2127.484048  	-0.007078 
2129.412864  	-0.007385 
2131.341680  	-0.007722 
2133.270496  	-0.007629 
2135.199312  	-0.006957 
2137.128128  	-0.007156 
2139.056944  	-0.007371 
2140.985760  	-0.007466 
2142.914576  	-0.006834 
2144.843392  	-0.006200 
2146.772208  	-0.006139 
2148.701024  	-0.006488 
2150.629840  	-0.006573 
2152.558656  	-0.006620 
2154.487472  	-0.006295 
2156.416288  	-0.005416 
2158.345104  	-0.002724 
2160.273920  	-0.001453 
2162.202736  	-0.002410 
2164.131552  	-0.003402 
2166.060368  	-0.004000 
2167.989184  	-0.004357 
2169.918000  	-0.004505 
2171.846816  	-0.004771 
2173.775632  	-0.005668 
2175.704448  	-0.005654 
2177.633264  	-0.005314 
2179.562080  	-0.006022 
2181.490896  	-0.005955 
2183.419712  	-0.004789 
2185.348528  	-0.004847 
2187.277344  	-0.004803 
2189.206160  	-0.003910 
2191.134976  	-0.004154 
2193.063792  	-0.004093 
2194.992608  	-0.004107 
2196.921424  	-0.004451 
2198.850240  	-0.004202 
2200.779056  	-0.003842 
2202.707872  	-0.004518 
2204.636688  	-0.005314 
2206.565504  	-0.004952 
2208.494320  	-0.004182 
2210.423136  	-0.004788 
2212.351952  	-0.005721 
2214.280768  	-0.005346 
2216.209584  	-0.004902 
2218.138400  	-0.005416 
2220.067216  	-0.005235 
2221.996032  	-0.004759 
2223.924848  	-0.004604 
2225.853664  	-0.005072 
2227.782480  	-0.005372 
2229.711296  	-0.004840 
2231.640112  	-0.005340 
2233.568928  	-0.005916 
2235.497744  	-0.005707 
2237.426560  	-0.005612 
2239.355376  	-0.005933 
2241.284192  	-0.005997 
2243.213008  	-0.005911 
2245.141824  	-0.005971 
2247.070640  	-0.005299 
2248.999456  	-0.005290 
2250.928272  	-0.005435 
2252.857088  	-0.005486 
2254.785904  	-0.005364 
2256.714720  	-0.005051 
2258.643536  	-0.005524 
2260.572352  	-0.005874 
2262.501168  	-0.005753 
2264.429984  	-0.005638 
2266.358800  	-0.005407 
2268.287616  	-0.005186 
2270.216432  	-0.005083 
2272.145248  	-0.005249 
2274.074064  	-0.005330 
2276.002880  	-0.005223 
2277.931696  	-0.004984 
2279.860512  	-0.004796 
2281.789328  	-0.004580 
2283.718144  	-0.004474 
2285.646960  	-0.004326 
2287.575776  	-0.004345 
2289.504592  	-0.004417 
2291.433408  	-0.004391 
2293.362224  	-0.004077 
2295.291040  	-0.003657 
2297.219856  	-0.003481 
2299.148672  	-0.003517 
2301.077488  	-0.003189 
2303.006304  	-0.002847 
2304.935120  	-0.002768 
2306.863936  	-0.002577 
2308.792752  	-0.002246 
2310.721568  	-0.001960 
2312.650384  	-0.001898 
2314.579200  	-0.002137 
2316.508016  	-0.002190 
2318.436832  	-0.001991 
2320.365648  	-0.001473 
2322.294464  	-0.001162 
2324.223280  	-0.001451 
2326.152096  	-0.002447 
2328.080912  	-0.002529 
2330.009728  	-0.002250 
2331.938544  	-0.002699 
2333.867360  	-0.003386 
2335.796176  	-0.003589 
2337.724992  	-0.003550 
2339.653808  	-0.003785 
2341.582624  	-0.003603 
2343.511440  	-0.002919 
2345.440256  	-0.002155 
2347.369072  	-0.002140 
2349.297888  	-0.002892 
2351.226704  	-0.003239 
2353.155520  	-0.003183 
2355.084336  	-0.003378 
2357.013152  	-0.003235 
2358.941968  	-0.002615 
2360.870784  	-0.002149 
2362.799600  	-0.002167 
2364.728416  	-0.002297 
2366.657232  	-0.002107 
2368.586048  	-0.001757 
2370.514864  	-0.001559 
2372.443680  	-0.001643 
2374.372496  	-0.001853 
2376.301312  	-0.001927 
2378.230128  	-0.001885 
2380.158944  	-0.002358 
2382.087760  	-0.003191 
2384.016576  	-0.003839 
2385.945392  	-0.004373 
2387.874208  	-0.004597 
2389.803024  	-0.004532 
2391.731840  	-0.004655 
2393.660656  	-0.004756 
2395.589472  	-0.004760 
2397.518288  	-0.004805 
2399.447104  	-0.004809 
2401.375920  	-0.004552 
2403.304736  	-0.004244 
2405.233552  	-0.004207 
2407.162368  	-0.004159 
2409.091184  	-0.004108 
2411.020000  	-0.004213 
2412.948816  	-0.004387 
2414.877632  	-0.004404 
2416.806448  	-0.004245 
2418.735264  	-0.004394 
2420.664080  	-0.004420 
2422.592896  	-0.004288 
2424.521712  	-0.004107 
2426.450528  	-0.004004 
2428.379344  	-0.003838 
2430.308160  	-0.003743 
2432.236976  	-0.003836 
2434.165792  	-0.003859 
2436.094608  	-0.003709 
2438.023424  	-0.003763 
2439.952240  	-0.003924 
2441.881056  	-0.003626 
2443.809872  	-0.003284 
2445.738688  	-0.003291 
2447.667504  	-0.003250 
2449.596320  	-0.003311 
2451.525136  	-0.003345 
2453.453952  	-0.003209 
2455.382768  	-0.003131 
2457.311584  	-0.003170 
2459.240400  	-0.003180 
2461.169216  	-0.003287 
2463.098032  	-0.003238 
2465.026848  	-0.003316 
2466.955664  	-0.003407 
2468.884480  	-0.003235 
2470.813296  	-0.003073 
2472.742112  	-0.003130 
2474.670928  	-0.002979 
2476.599744  	-0.003046 
2478.528560  	-0.002978 
2480.457376  	-0.002880 
2482.386192  	-0.003015 
2484.315008  	-0.002980 
2486.243824  	-0.002826 
2488.172640  	-0.002687 
2490.101456  	-0.002360 
2492.030272  	-0.002373 
2493.959088  	-0.002500 
2495.887904  	-0.002336 
2497.816720  	-0.002164 
2499.745536  	-0.002180 
2501.674352  	-0.002193 
2503.603168  	-0.002195 
2505.531984  	-0.002314 
2507.460800  	-0.002322 
2509.389616  	-0.001992 
2511.318432  	-0.002102 
2513.247248  	-0.002360 
2515.176064  	-0.002365 
2517.104880  	-0.002109 
2519.033696  	-0.001891 
2520.962512  	-0.001826 
2522.891328  	-0.001653 
2524.820144  	-0.001639 
2526.748960  	-0.001802 
2528.677776  	-0.001725 
2530.606592  	-0.001788 
2532.535408  	-0.001728 
2534.464224  	-0.001672 
2536.393040  	-0.001722 
2538.321856  	-0.001649 
2540.250672  	-0.001720 
2542.179488  	-0.001700 
2544.108304  	-0.001398 
2546.037120  	-0.001254 
2547.965936  	-0.001143 
2549.894752  	-0.001136 
2551.823568  	-0.001285 
2553.752384  	-0.001376 
2555.681200  	-0.001271 
2557.610016  	-0.001152 
2559.538832  	-0.001156 
2561.467648  	-0.001076 
2563.396464  	-0.000963 
2565.325280  	-0.000865 
2567.254096  	-0.000767 
2569.182912  	-0.000697 
2571.111728  	-0.000512 
2573.040544  	-0.000458 
2574.969360  	-0.000186 
2576.898176  	0.000003 
2578.826992  	-0.000162 
2580.755808  	-0.000279 
2582.684624  	-0.000189 
2584.613440  	-0.000222 
2586.542256  	-0.000358 
2588.471072  	-0.000450 
2590.399888  	-0.000356 
2592.328704  	-0.000183 
2594.257520  	0.000033 
2596.186336  	0.000176 
2598.115152  	0.000213 
2600.043968  	0.000185 
2601.972784  	0.000074 
2603.901600  	0.000052 
2605.830416  	0.000232 
2607.759232  	0.000345 
2609.688048  	0.000327 
2611.616864  	0.000397 
2613.545680  	0.000543 
2615.474496  	0.000574 
2617.403312  	0.000521 
2619.332128  	0.000606 
2621.260944  	0.000720 
2623.189760  	0.000757 
2625.118576  	0.000823 
2627.047392  	0.000880 
2628.976208  	0.000965 
2630.905024  	0.001059 
2632.833840  	0.001163 
2634.762656  	0.001269 
2636.691472  	0.001400 
2638.620288  	0.001579 
2640.549104  	0.001666 
2642.477920  	0.001767 
2644.406736  	0.001817 
2646.335552  	0.001836 
2648.264368  	0.001885 
2650.193184  	0.001953 
2652.122000  	0.002030 
2654.050816  	0.002074 
2655.979632  	0.002135 
2657.908448  	0.002233 
2659.837264  	0.002283 
2661.766080  	0.002364 
2663.694896  	0.002330 
2665.623712  	0.002297 
2667.552528  	0.002466 
2669.481344  	0.002598 
2671.410160  	0.002732 
2673.338976  	0.002764 
2675.267792  	0.002748 
2677.196608  	0.002836 
2679.125424  	0.002924 
2681.054240  	0.003030 
2682.983056  	0.003086 
2684.911872  	0.003136 
2686.840688  	0.003152 
2688.769504  	0.003237 
2690.698320  	0.003319 
2692.627136  	0.003382 
2694.555952  	0.003472 
2696.484768  	0.003520 
2698.413584  	0.003590 
2700.342400  	0.003586 
2702.271216  	0.003686 
2704.200032  	0.003795 
2706.128848  	0.003856 
2708.057664  	0.003964 
2709.986480  	0.004060 
2711.915296  	0.004147 
2713.844112  	0.004219 
2715.772928  	0.004272 
2717.701744  	0.004250 
2719.630560  	0.004243 
2721.559376  	0.004453 
2723.488192  	0.004571 
2725.417008  	0.004595 
2727.345824  	0.004672 
2729.274640  	0.004665 
2731.203456  	0.004692 
2733.132272  	0.004871 
2735.061088  	0.005107 
2736.989904  	0.005169 
2738.918720  	0.005217 
2740.847536  	0.005251 
2742.776352  	0.005325 
2744.705168  	0.005334 
2746.633984  	0.005268 
2748.562800  	0.005334 
2750.491616  	0.005410 
2752.420432  	0.005494 
2754.349248  	0.005521 
2756.278064  	0.005599 
2758.206880  	0.005634 
2760.135696  	0.005612 
2762.064512  	0.005674 
2763.993328  	0.005713 
2765.922144  	0.005622 
2767.850960  	0.005622 
2769.779776  	0.005754 
2771.708592  	0.005743 
2773.637408  	0.005622 
2775.566224  	0.005542 
2777.495040  	0.005593 
2779.423856  	0.005576 
2781.352672  	0.005554 
2783.281488  	0.005555 
2785.210304  	0.005527 
2787.139120  	0.005595 
2789.067936  	0.005664 
2790.996752  	0.005612 
2792.925568  	0.005470 
2794.854384  	0.005388 
2796.783200  	0.005396 
2798.712016  	0.005421 
2800.640832  	0.005485 
2802.569648  	0.005511 
2804.498464  	0.005487 
2806.427280  	0.005481 
2808.356096  	0.005495 
2810.284912  	0.005494 
2812.213728  	0.005371 
2814.142544  	0.005331 
2816.071360  	0.005416 
2818.000176  	0.005420 
2819.928992  	0.005253 
2821.857808  	0.005190 
2823.786624  	0.005194 
2825.715440  	0.005258 
2827.644256  	0.005228 
2829.573072  	0.005088 
2831.501888  	0.004936 
2833.430704  	0.004827 
2835.359520  	0.004681 
2837.288336  	0.004597 
2839.217152  	0.004602 
2841.145968  	0.004491 
2843.074784  	0.004365 
2845.003600  	0.004309 
2846.932416  	0.004194 
2848.861232  	0.004120 
2850.790048  	0.004036 
2852.718864  	0.003936 
2854.647680  	0.003862 
2856.576496  	0.003779 
2858.505312  	0.003728 
2860.434128  	0.003623 
2862.362944  	0.003580 
2864.291760  	0.003456 
2866.220576  	0.003305 
2868.149392  	0.003256 
2870.078208  	0.003165 
2872.007024  	0.003196 
2873.935840  	0.003361 
2875.864656  	0.003480 
2877.793472  	0.003594 
2879.722288  	0.003657 
2881.651104  	0.003808 
2883.579920  	0.003866 
2885.508736  	0.003822 
2887.437552  	0.003914 
2889.366368  	0.003791 
2891.295184  	0.003515 
2893.224000  	0.003341 
2895.152816  	0.003388 
2897.081632  	0.003140 
2899.010448  	0.002585 
2900.939264  	0.002201 
2902.868080  	0.002504 
2904.796896  	0.002735 
2906.725712  	0.002649 
2908.654528  	0.002645 
2910.583344  	0.002894 
2912.512160  	0.003400 
2914.440976  	0.003801 
2916.369792  	0.003959 
2918.298608  	0.004236 
2920.227424  	0.004485 
2922.156240  	0.004670 
2924.085056  	0.005034 
2926.013872  	0.005375 
2927.942688  	0.005641 
2929.871504  	0.005995 
2931.800320  	0.006372 
2933.729136  	0.006757 
2935.657952  	0.007070 
2937.586768  	0.007246 
2939.515584  	0.007467 
2941.444400  	0.007694 
2943.373216  	0.007818 
2945.302032  	0.007789 
2947.230848  	0.007758 
2949.159664  	0.007726 
2951.088480  	0.007502 
2953.017296  	0.007217 
2954.946112  	0.006910 
2956.874928  	0.006675 
2958.803744  	0.006260 
2960.732560  	0.005899 
2962.661376  	0.005442 
2964.590192  	0.004981 
2966.519008  	0.004459 
2968.447824  	0.003801 
2970.376640  	0.003160 
2972.305456  	0.002543 
2974.234272  	0.002104 
2976.163088  	0.001668 
2978.091904  	0.001193 
2980.020720  	0.000830 
2981.949536  	0.000881 
2983.878352  	0.000947 
2985.807168  	0.000853 
2987.735984  	0.000891 
2989.664800  	0.001269 
2991.593616  	0.002125 
2993.522432  	0.002676 
2995.451248  	0.002967 
2997.380064  	0.003298 
2999.308880  	0.003652 
3001.237696  	0.004016 
3003.166512  	0.004293 
3005.095328  	0.004600 
3007.024144  	0.004818 
3008.952960  	0.005135 
3010.881776  	0.005454 
3012.810592  	0.005582 
3014.739408  	0.005703 
3016.668224  	0.005880 
3018.597040  	0.006132 
3020.525856  	0.006289 
3022.454672  	0.006583 
3024.383488  	0.006824 
3026.312304  	0.007066 
3028.241120  	0.007140 
3030.169936  	0.007147 
3032.098752  	0.007317 
3034.027568  	0.007376 
3035.956384  	0.007525 
3037.885200  	0.007551 
3039.814016  	0.007489 
3041.742832  	0.007552 
3043.671648  	0.007775 
3045.600464  	0.008150 
3047.529280  	0.008207 
3049.458096  	0.008168 
3051.386912  	0.008172 
3053.315728  	0.008127 
3055.244544  	0.008038 
3057.173360  	0.008398 
3059.102176  	0.008597 
3061.030992  	0.008612 
3062.959808  	0.008635 
3064.888624  	0.008744 
3066.817440  	0.008980 
3068.746256  	0.009069 
3070.675072  	0.009069 
3072.603888  	0.009181 
3074.532704  	0.009292 
3076.461520  	0.009462 
3078.390336  	0.009581 
3080.319152  	0.009686 
3082.247968  	0.009831 
3084.176784  	0.009978 
3086.105600  	0.010060 
3088.034416  	0.010167 
3089.963232  	0.010307 
3091.892048  	0.010415 
3093.820864  	0.010382 
3095.749680  	0.010563 
3097.678496  	0.010766 
3099.607312  	0.010953 
3101.536128  	0.011218 
3103.464944  	0.011201 
3105.393760  	0.011104 
3107.322576  	0.011195 
3109.251392  	0.011172 
3111.180208  	0.011281 
3113.109024  	0.011388 
3115.037840  	0.011129 
3116.966656  	0.011121 
3118.895472  	0.011300 
3120.824288  	0.011281 
3122.753104  	0.011200 
3124.681920  	0.011100 
3126.610736  	0.011077 
3128.539552  	0.011078 
3130.468368  	0.010766 
3132.397184  	0.010711 
3134.326000  	0.010803 
3136.254816  	0.010619 
3138.183632  	0.010455 
3140.112448  	0.010425 
3142.041264  	0.010313 
3143.970080  	0.010299 
3145.898896  	0.010255 
3147.827712  	0.010147 
3149.756528  	0.010136 
3151.685344  	0.010390 
3153.614160  	0.010421 
3155.542976  	0.010311 
3157.471792  	0.010286 
3159.400608  	0.010166 
3161.329424  	0.010081 
3163.258240  	0.009967 
3165.187056  	0.009843 
3167.115872  	0.009906 
3169.044688  	0.009956 
3170.973504  	0.009867 
3172.902320  	0.009706 
3174.831136  	0.009424 
3176.759952  	0.009241 
3178.688768  	0.009497 
3180.617584  	0.009547 
3182.546400  	0.009066 
3184.475216  	0.008801 
3186.404032  	0.008725 
3188.332848  	0.008447 
3190.261664  	0.008062 
3192.190480  	0.007822 
3194.119296  	0.007601 
3196.048112  	0.007302 
3197.976928  	0.007267 
3199.905744  	0.007194 
3201.834560  	0.006750 
3203.763376  	0.006299 
3205.692192  	0.006032 
3207.621008  	0.005585 
3209.549824  	0.005473 
3211.478640  	0.005334 
3213.407456  	0.004989 
3215.336272  	0.005035 
3217.265088  	0.004549 
3219.193904  	0.004299 
3221.122720  	0.004424 
3223.051536  	0.004194 
3224.980352  	0.003717 
3226.909168  	0.003262 
3228.837984  	0.003034 
3230.766800  	0.003020 
3232.695616  	0.002837 
3234.624432  	0.002465 
3236.553248  	0.002222 
3238.482064  	0.002161 
3240.410880  	0.002293 
3242.339696  	0.002135 
3244.268512  	0.002030 
3246.197328  	0.002356 
3248.126144  	0.002081 
3250.054960  	0.001952 
3251.983776  	0.001913 
3253.912592  	0.002100 
3255.841408  	0.002281 
3257.770224  	0.002368 
3259.699040  	0.002429 
3261.627856  	0.002423 
3263.556672  	0.002376 
3265.485488  	0.002652 
3267.414304  	0.002784 
3269.343120  	0.002855 
3271.271936  	0.002863 
3273.200752  	0.002885 
3275.129568  	0.003303 
3277.058384  	0.003439 
3278.987200  	0.003299 
3280.916016  	0.003288 
3282.844832  	0.003395 
3284.773648  	0.003405 
3286.702464  	0.003314 
3288.631280  	0.003292 
3290.560096  	0.003298 
3292.488912  	0.003692 
3294.417728  	0.003930 
3296.346544  	0.003887 
3298.275360  	0.004172 
3300.204176  	0.004217 
3302.132992  	0.004431 
3304.061808  	0.004596 
3305.990624  	0.004430 
3307.919440  	0.004417 
3309.848256  	0.004855 
3311.777072  	0.005172 
3313.705888  	0.005367 
3315.634704  	0.005432 
3317.563520  	0.005493 
3319.492336  	0.005682 
3321.421152  	0.005709 
3323.349968  	0.005808 
3325.278784  	0.006022 
3327.207600  	0.006117 
3329.136416  	0.006043 
3331.065232  	0.006033 
3332.994048  	0.006156 
3334.922864  	0.006478 
3336.851680  	0.006880 
3338.780496  	0.006620 
3340.709312  	0.006182 
3342.638128  	0.006169 
3344.566944  	0.006140 
3346.495760  	0.005965 
3348.424576  	0.005718 
3350.353392  	0.005606 
3352.282208  	0.005508 
3354.211024  	0.005345 
3356.139840  	0.005341 
3358.068656  	0.005347 
3359.997472  	0.005086 
3361.926288  	0.004966 
3363.855104  	0.004860 
3365.783920  	0.004895 
3367.712736  	0.004638 
3369.641552  	0.004397 
3371.570368  	0.004314 
3373.499184  	0.004099 
3375.428000  	0.003827 
3377.356816  	0.003909 
3379.285632  	0.004251 
3381.214448  	0.004208 
3383.143264  	0.003900 
3385.072080  	0.004059 
3387.000896  	0.004034 
3388.929712  	0.003687 
3390.858528  	0.003304 
3392.787344  	0.003690 
3394.716160  	0.003776 
3396.644976  	0.003677 
3398.573792  	0.003852 
3400.502608  	0.003440 
3402.431424  	0.003362 
3404.360240  	0.003491 
3406.289056  	0.003347 
3408.217872  	0.003259 
3410.146688  	0.003142 
3412.075504  	0.002919 
3414.004320  	0.003026 
3415.933136  	0.002873 
3417.861952  	0.002377 
3419.790768  	0.002378 
3421.719584  	0.002862 
3423.648400  	0.002806 
3425.577216  	0.002596 
3427.506032  	0.002491 
3429.434848  	0.002453 
3431.363664  	0.002507 
3433.292480  	0.002455 
3435.221296  	0.002312 
3437.150112  	0.002226 
3439.078928  	0.002098 
3441.007744  	0.001877 
3442.936560  	0.001952 
3444.865376  	0.001428 
3446.794192  	0.001840 
3448.723008  	0.002696 
3450.651824  	0.001761 
3452.580640  	0.001348 
3454.509456  	0.001555 
3456.438272  	0.001438 
3458.367088  	0.001026 
3460.295904  	0.001011 
3462.224720  	0.001400 
3464.153536  	0.001235 
3466.082352  	0.000853 
3468.011168  	0.000787 
3469.939984  	0.000343 
3471.868800  	-0.000156 
3473.797616  	-0.000397 
3475.726432  	-0.000145 
3477.655248  	-0.000442 
3479.584064  	-0.000927 
3481.512880  	-0.000724 
3483.441696  	-0.000534 
3485.370512  	-0.001334 
3487.299328  	-0.001379 
3489.228144  	-0.001048 
3491.156960  	-0.001478 
3493.085776  	-0.002014 
3495.014592  	-0.002166 
3496.943408  	-0.001897 
3498.872224  	-0.002168 
3500.801040  	-0.003077 
3502.729856  	-0.002496 
3504.658672  	-0.001578 
3506.587488  	-0.002603 
3508.516304  	-0.003190 
3510.445120  	-0.002377 
3512.373936  	-0.002511 
3514.302752  	-0.003003 
3516.231568  	-0.003412 
3518.160384  	-0.003464 
3520.089200  	-0.004037 
3522.018016  	-0.004546 
3523.946832  	-0.003978 
3525.875648  	-0.004303 
3527.804464  	-0.004239 
3529.733280  	-0.003668 
3531.662096  	-0.003794 
3533.590912  	-0.004610 
3535.519728  	-0.004481 
3537.448544  	-0.003801 
3539.377360  	-0.004565 
3541.306176  	-0.005239 
3543.234992  	-0.005588 
3545.163808  	-0.004808 
3547.092624  	-0.003678 
3549.021440  	-0.004418 
3550.950256  	-0.005659 
3552.879072  	-0.004803 
3554.807888  	-0.004767 
3556.736704  	-0.005520 
3558.665520  	-0.005885 
3560.594336  	-0.005877 
3562.523152  	-0.006692 
3564.451968  	-0.007841 
3566.380784  	-0.006149 
3568.309600  	-0.002943 
3570.238416  	-0.004612 
3572.167232  	-0.006302 
3574.096048  	-0.006822 
3576.024864  	-0.006975 
3577.953680  	-0.007130 
3579.882496  	-0.007153 
3581.811312  	-0.007376 
3583.740128  	-0.008589 
3585.668944  	-0.009550 
3587.597760  	-0.006900 
3589.526576  	-0.005949 
3591.455392  	-0.008555 
3593.384208  	-0.009344 
3595.313024  	-0.008500 
3597.241840  	-0.008657 
3599.170656  	-0.009329 
3601.099472  	-0.008915 
3603.028288  	-0.009257 
3604.957104  	-0.010842 
3606.885920  	-0.011234 
3608.814736  	-0.009845 
3610.743552  	-0.010834 
3612.672368  	-0.011413 
3614.601184  	-0.011091 
3616.530000  	-0.012997 
3618.458816  	-0.012550 
3620.387632  	-0.010201 
3622.316448  	-0.011038 
3624.245264  	-0.013053 
3626.174080  	-0.015791 
3628.102896  	-0.015609 
3630.031712  	-0.010561 
3631.960528  	-0.012543 
3633.889344  	-0.013171 
3635.818160  	-0.013353 
3637.746976  	-0.014237 
3639.675792  	-0.014618 
3641.604608  	-0.014953 
3643.533424  	-0.015775 
3645.462240  	-0.017865 
3647.391056  	-0.018508 
3649.319872  	-0.016529 
3651.248688  	-0.013813 
3653.177504  	-0.015907 
3655.106320  	-0.017047 
3657.035136  	-0.015183 
3658.963952  	-0.015453 
3660.892768  	-0.015891 
3662.821584  	-0.016366 
3664.750400  	-0.016798 
3666.679216  	-0.017838 
3668.608032  	-0.018709 
3670.536848  	-0.016559 
3672.465664  	-0.018130 
3674.394480  	-0.019466 
3676.323296  	-0.014975 
3678.252112  	-0.015490 
3680.180928  	-0.015627 
3682.109744  	-0.015695 
3684.038560  	-0.016160 
3685.967376  	-0.017480 
3687.896192  	-0.018034 
3689.825008  	-0.016650 
3691.753824  	-0.015091 
3693.682640  	-0.015089 
3695.611456  	-0.015207 
3697.540272  	-0.015168 
3699.469088  	-0.015864 
3701.397904  	-0.015368 
3703.326720  	-0.014533 
3705.255536  	-0.015072 
3707.184352  	-0.016059 
3709.113168  	-0.016781 
3711.041984  	-0.015611 
3712.970800  	-0.013602 
3714.899616  	-0.013873 
3716.828432  	-0.014844 
3718.757248  	-0.014902 
3720.686064  	-0.015241 
3722.614880  	-0.015176 
3724.543696  	-0.014833 
3726.472512  	-0.013913 
3728.401328  	-0.014313 
3730.330144  	-0.016172 
3732.258960  	-0.016556 
3734.187776  	-0.015758 
3736.116592  	-0.013420 
3738.045408  	-0.013763 
3739.974224  	-0.015183 
3741.903040  	-0.016915 
3743.831856  	-0.016464 
3745.760672  	-0.014439 
3747.689488  	-0.016795 
3749.618304  	-0.016831 
3751.547120  	-0.014275 
3753.475936  	-0.013141 
3755.404752  	-0.014576 
3757.333568  	-0.015109 
3759.262384  	-0.014473 
3761.191200  	-0.013778 
3763.120016  	-0.014837 
3765.048832  	-0.014573 
3766.977648  	-0.014316 
3768.906464  	-0.014315 
3770.835280  	-0.013229 
3772.764096  	-0.013659 
3774.692912  	-0.014317 
3776.621728  	-0.014826 
3778.550544  	-0.014682 
3780.479360  	-0.013565 
3782.408176  	-0.014220 
3784.336992  	-0.014277 
3786.265808  	-0.013784 
3788.194624  	-0.013752 
3790.123440  	-0.013911 
3792.052256  	-0.014220 
3793.981072  	-0.015017 
3795.909888  	-0.014972 
3797.838704  	-0.014971 
3799.767520  	-0.016027 
3801.696336  	-0.014221 
3803.625152  	-0.014366 
3805.553968  	-0.015723 
3807.482784  	-0.014024 
3809.411600  	-0.013946 
3811.340416  	-0.014374 
3813.269232  	-0.015405 
3815.198048  	-0.015518 
3817.126864  	-0.014475 
3819.055680  	-0.016217 
3820.984496  	-0.014727 
3822.913312  	-0.013336 
3824.842128  	-0.014717 
3826.770944  	-0.014510 
3828.699760  	-0.014596 
3830.628576  	-0.015054 
3832.557392  	-0.015020 
3834.486208  	-0.015651 
3836.415024  	-0.016047 
3838.343840  	-0.014996 
3840.272656  	-0.014181 
3842.201472  	-0.014086 
3844.130288  	-0.013657 
3846.059104  	-0.014026 
3847.987920  	-0.015141 
3849.916736  	-0.016612 
3851.845552  	-0.017394 
3853.774368  	-0.013284 
3855.703184  	-0.012666 
3857.632000  	-0.013654 
3859.560816  	-0.014849 
3861.489632  	-0.015355 
3863.418448  	-0.014970 
3865.347264  	-0.013748 
3867.276080  	-0.015222 
3869.204896  	-0.015344 
3871.133712  	-0.013755 
3873.062528  	-0.014638 
3874.991344  	-0.013653 
3876.920160  	-0.014530 
3878.848976  	-0.015162 
3880.777792  	-0.013998 
3882.706608  	-0.014625 
3884.635424  	-0.014729 
3886.564240  	-0.012870 
3888.493056  	-0.014549 
3890.421872  	-0.015074 
3892.350688  	-0.013755 
3894.279504  	-0.013907 
3896.208320  	-0.014944 
3898.137136  	-0.015165 
3900.065952  	-0.014510 
3901.994768  	-0.014356 
3903.923584  	-0.013250 
3905.852400  	-0.012758 
3907.781216  	-0.013795 
3909.710032  	-0.014393 
3911.638848  	-0.014265 
3913.567664  	-0.014327 
3915.496480  	-0.014392 
3917.425296  	-0.013882 
3919.354112  	-0.014007 
3921.282928  	-0.014386 
3923.211744  	-0.014391 
3925.140560  	-0.013613 
3927.069376  	-0.014124 
3928.998192  	-0.014666 
3930.927008  	-0.014087 
3932.855824  	-0.013301 
3934.784640  	-0.013794 
3936.713456  	-0.014276 
3938.642272  	-0.014309 
3940.571088  	-0.014605 
3942.499904  	-0.013922 
3944.428720  	-0.013704 
3946.357536  	-0.014324 
3948.286352  	-0.014165 
3950.215168  	-0.013862 
3952.143984  	-0.014147 
3954.072800  	-0.014241 
3956.001616  	-0.014310 
3957.930432  	-0.014354 
3959.859248  	-0.014329 
3961.788064  	-0.014078 
3963.716880  	-0.013976 
3965.645696  	-0.014054 
3967.574512  	-0.014230 
3969.503328  	-0.014331 
3971.432144  	-0.014308 
3973.360960  	-0.014108 
3975.289776  	-0.014078 
3977.218592  	-0.014259 
3979.147408  	-0.014324 
3981.076224  	-0.014329 
3983.005040  	-0.014145 
3984.933856  	-0.014061 
3986.862672  	-0.014262 
3988.791488  	-0.014428 
3990.720304  	-0.014379 
3992.649120  	-0.014169 
3994.577936  	-0.014011 
3996.506752  	-0.014150 
3998.435568  	-0.014333 
4000.364384  	-0.014504 