##TITLE=No Description
##DATA TYPE=INFRARED SPECTRUM
##XUNITS=1/CM
##YUNITS=Abs
399.264912  	0.586820 
401.193728  	0.586593 
403.122544  	0.592873 
405.051360  	0.577804 
406.980176  	0.579967 
408.908992  	0.580782 
410.837808  	0.585928 
412.766624  	0.581178 
414.695440  	0.581122 
416.624256  	0.569916 
418.553072  	0.564067 
420.481888  	0.559823 
422.410704  	0.558932 
424.339520  	0.551241 
426.268336  	0.550497 
428.197152  	0.549365 
430.125968  	0.558274 
432.054784  	0.554131 
433.983600  	0.550694 
435.912416  	0.541936 
437.841232  	0.540462 
439.770048  	0.539519 
441.698864  	0.544099 
443.627680  	0.541474 
445.556496  	0.535604 
447.485312  	0.530440 
449.414128  	0.533298 
451.342944  	0.533749 
453.271760  	0.533259 
455.200576  	0.529655 
457.129392  	0.531304 
459.058208  	0.529434 
460.987024  	0.535498 
462.915840  	0.535432 
464.844656  	0.533033 
466.773472  	0.527375 
468.702288  	0.528744 
470.631104  	0.530165 
472.559920  	0.532028 
474.488736  	0.528921 
476.417552  	0.530105 
478.346368  	0.529784 
480.275184  	0.532012 
482.204000  	0.528364 
484.132816  	0.524415 
486.061632  	0.522261 
487.990448  	0.525825 
489.919264  	0.522050 
491.848080  	0.521146 
493.776896  	0.515442 
495.705712  	0.515928 
497.634528  	0.517222 
499.563344  	0.519729 
501.492160  	0.515178 
503.420976  	0.515460 
505.349792  	0.515581 
507.278608  	0.518635 
509.207424  	0.518180 
511.136240  	0.518014 
513.065056  	0.515691 
514.993872  	0.515612 
516.922688  	0.514965 
518.851504  	0.518076 
520.780320  	0.517383 
522.709136  	0.517799 
524.637952  	0.517864 
526.566768  	0.517804 
528.495584  	0.516091 
530.424400  	0.515263 
532.353216  	0.510560 
534.282032  	0.506701 
536.210848  	0.501593 
538.139664  	0.496319 
540.068480  	0.488888 
541.997296  	0.483422 
543.926112  	0.478078 
545.854928  	0.474611 
547.783744  	0.469854 
549.712560  	0.467775 
551.641376  	0.465807 
553.570192  	0.461255 
555.499008  	0.457239 
557.427824  	0.455826 
559.356640  	0.451562 
561.285456  	0.447939 
563.214272  	0.443958 
565.143088  	0.440525 
567.071904  	0.436940 
569.000720  	0.433506 
570.929536  	0.430343 
572.858352  	0.427480 
574.787168  	0.423790 
576.715984  	0.421721 
578.644800  	0.418312 
580.573616  	0.414249 
582.502432  	0.409410 
584.431248  	0.406344 
586.360064  	0.403246 
588.288880  	0.400936 
590.217696  	0.397908 
592.146512  	0.395908 
594.075328  	0.394029 
596.004144  	0.392281 
597.932960  	0.389532 
599.861776  	0.387784 
601.790592  	0.386101 
603.719408  	0.384822 
605.648224  	0.382470 
607.577040  	0.380874 
609.505856  	0.379469 
611.434672  	0.377916 
613.363488  	0.375972 
615.292304  	0.374487 
617.221120  	0.372413 
619.149936  	0.371651 
621.078752  	0.370377 
623.007568  	0.369022 
624.936384  	0.367371 
626.865200  	0.366504 
628.794016  	0.365025 
630.722832  	0.364195 
632.651648  	0.362982 
634.580464  	0.362464 
636.509280  	0.362739 
638.438096  	0.363840 
640.366912  	0.363493 
642.295728  	0.361757 
644.224544  	0.358567 
646.153360  	0.355504 
648.082176  	0.351500 
650.010992  	0.347520 
651.939808  	0.343948 
653.868624  	0.340316 
655.797440  	0.336139 
657.726256  	0.332607 
659.655072  	0.329156 
661.583888  	0.325072 
663.512704  	0.320846 
665.441520  	0.318531 
667.370336  	0.312583 
669.299152  	0.304594 
671.227968  	0.304156 
673.156784  	0.301946 
675.085600  	0.299034 
677.014416  	0.296333 
678.943232  	0.294273 
680.872048  	0.292547 
682.800864  	0.290668 
684.729680  	0.288445 
686.658496  	0.287294 
688.587312  	0.286782 
690.516128  	0.284921 
692.444944  	0.283338 
694.373760  	0.282174 
696.302576  	0.279975 
698.231392  	0.277519 
700.160208  	0.275529 
702.089024  	0.273322 
704.017840  	0.271078 
705.946656  	0.268761 
707.875472  	0.266611 
709.804288  	0.264836 
711.733104  	0.263065 
713.661920  	0.260763 
715.590736  	0.258994 
717.519552  	0.258440 
719.448368  	0.258544 
721.377184  	0.258495 
723.306000  	0.259316 
725.234816  	0.259713 
727.163632  	0.259425 
729.092448  	0.257603 
731.021264  	0.254412 
732.950080  	0.250892 
734.878896  	0.247959 
736.807712  	0.244763 
738.736528  	0.241962 
740.665344  	0.240039 
742.594160  	0.238692 
744.522976  	0.237307 
746.451792  	0.235587 
748.380608  	0.233894 
750.309424  	0.232496 
752.238240  	0.231429 
754.167056  	0.230892 
756.095872  	0.229776 
758.024688  	0.228641 
759.953504  	0.228130 
761.882320  	0.228876 
763.811136  	0.229305 
765.739952  	0.228451 
767.668768  	0.226001 
769.597584  	0.223620 
771.526400  	0.222913 
773.455216  	0.224026 
775.384032  	0.227270 
777.312848  	0.232312 
779.241664  	0.236399 
781.170480  	0.236570 
783.099296  	0.232961 
785.028112  	0.227896 
786.956928  	0.222224 
788.885744  	0.217415 
790.814560  	0.213830 
792.743376  	0.210751 
794.672192  	0.209119 
796.601008  	0.208460 
798.529824  	0.205814 
800.458640  	0.201637 
802.387456  	0.198107 
804.316272  	0.195796 
806.245088  	0.194380 
808.173904  	0.193814 
810.102720  	0.193557 
812.031536  	0.193176 
813.960352  	0.193280 
815.889168  	0.193665 
817.817984  	0.193923 
819.746800  	0.194224 
821.675616  	0.194484 
823.604432  	0.194532 
825.533248  	0.194094 
827.462064  	0.193304 
829.390880  	0.192467 
831.319696  	0.191262 
833.248512  	0.189437 
835.177328  	0.187129 
837.106144  	0.184287 
839.034960  	0.180947 
840.963776  	0.177619 
842.892592  	0.174335 
844.821408  	0.170908 
846.750224  	0.167755 
848.679040  	0.164998 
850.607856  	0.162708 
852.536672  	0.160766 
854.465488  	0.159305 
856.394304  	0.158078 
858.323120  	0.156953 
860.251936  	0.154983 
862.180752  	0.152526 
864.109568  	0.150034 
866.038384  	0.147393 
867.967200  	0.145367 
869.896016  	0.143568 
871.824832  	0.142572 
873.753648  	0.142399 
875.682464  	0.142956 
877.611280  	0.143383 
879.540096  	0.144171 
881.468912  	0.146129 
883.397728  	0.147568 
885.326544  	0.148615 
887.255360  	0.148945 
889.184176  	0.147782 
891.112992  	0.145593 
893.041808  	0.143616 
894.970624  	0.141316 
896.899440  	0.138111 
898.828256  	0.133970 
900.757072  	0.129958 
902.685888  	0.127117 
904.614704  	0.125420 
906.543520  	0.125286 
908.472336  	0.126477 
910.401152  	0.128824 
912.329968  	0.131823 
914.258784  	0.135127 
916.187600  	0.138217 
918.116416  	0.140603 
920.045232  	0.142228 
921.974048  	0.143257 
923.902864  	0.143692 
925.831680  	0.143503 
927.760496  	0.143372 
929.689312  	0.143654 
931.618128  	0.144431 
933.546944  	0.145050 
935.475760  	0.145283 
937.404576  	0.145092 
939.333392  	0.144701 
941.262208  	0.144936 
943.191024  	0.146584 
945.119840  	0.150243 
947.048656  	0.156154 
948.977472  	0.163879 
950.906288  	0.173085 
952.835104  	0.183634 
954.763920  	0.194802 
956.692736  	0.205334 
958.621552  	0.214477 
960.550368  	0.220720 
962.479184  	0.223730 
964.408000  	0.223028 
966.336816  	0.218483 
968.265632  	0.210249 
970.194448  	0.199214 
972.123264  	0.186450 
974.052080  	0.172898 
975.980896  	0.159510 
977.909712  	0.147157 
979.838528  	0.136202 
981.767344  	0.127126 
983.696160  	0.120214 
985.624976  	0.115930 
987.553792  	0.114346 
989.482608  	0.115473 
991.411424  	0.119005 
993.340240  	0.124161 
995.269056  	0.130769 
997.197872  	0.137984 
999.126688  	0.145057 
1001.055504  	0.152194 
1002.984320  	0.159362 
1004.913136  	0.166260 
1006.841952  	0.172802 
1008.770768  	0.178357 
1010.699584  	0.182370 
1012.628400  	0.184864 
1014.557216  	0.185681 
1016.486032  	0.185703 
1018.414848  	0.185198 
1020.343664  	0.184687 
1022.272480  	0.184068 
1024.201296  	0.182801 
1026.130112  	0.179530 
1028.058928  	0.178148 
1029.987744  	0.181055 
1031.916560  	0.182986 
1033.845376  	0.184290 
1035.774192  	0.185862 
1037.703008  	0.188735 
1039.631824  	0.194991 
1041.560640  	0.203929 
1043.489456  	0.215858 
1045.418272  	0.230417 
1047.347088  	0.246624 
1049.275904  	0.261807 
1051.204720  	0.274088 
1053.133536  	0.282192 
1055.062352  	0.286099 
1056.991168  	0.285882 
1058.919984  	0.286903 
1060.848800  	0.288018 
1062.777616  	0.285362 
1064.706432  	0.278936 
1066.635248  	0.273240 
1068.564064  	0.270903 
1070.492880  	0.265891 
1072.421696  	0.258098 
1074.350512  	0.252402 
1076.279328  	0.250177 
1078.208144  	0.252144 
1080.136960  	0.256646 
1082.065776  	0.261814 
1083.994592  	0.265479 
1085.923408  	0.266409 
1087.852224  	0.263857 
1089.781040  	0.259271 
1091.709856  	0.253205 
1093.638672  	0.244862 
1095.567488  	0.233831 
1097.496304  	0.221677 
1099.425120  	0.208825 
1101.353936  	0.195782 
1103.282752  	0.183144 
1105.211568  	0.171441 
1107.140384  	0.160131 
1109.069200  	0.149114 
1110.998016  	0.138882 
1112.926832  	0.129743 
1114.855648  	0.121245 
1116.784464  	0.113245 
1118.713280  	0.105731 
1120.642096  	0.098696 
1122.570912  	0.092319 
1124.499728  	0.086224 
1126.428544  	0.080671 
1128.357360  	0.075670 
1130.286176  	0.071604 
1132.214992  	0.068005 
1134.143808  	0.064990 
1136.072624  	0.062417 
1138.001440  	0.060347 
1139.930256  	0.057863 
1141.859072  	0.055451 
1143.787888  	0.052948 
1145.716704  	0.050505 
1147.645520  	0.048277 
1149.574336  	0.046644 
1151.503152  	0.045232 
1153.431968  	0.044613 
1155.360784  	0.044798 
1157.289600  	0.045832 
1159.218416  	0.047311 
1161.147232  	0.049275 
1163.076048  	0.051413 
1165.004864  	0.053894 
1166.933680  	0.056278 
1168.862496  	0.058796 
1170.791312  	0.061277 
1172.720128  	0.064344 
1174.648944  	0.067267 
1176.577760  	0.070092 
1178.506576  	0.072775 
1180.435392  	0.075559 
1182.364208  	0.078258 
1184.293024  	0.081417 
1186.221840  	0.084800 
1188.150656  	0.088868 
1190.079472  	0.093444 
1192.008288  	0.098951 
1193.937104  	0.105723 
1195.865920  	0.113593 
1197.794736  	0.122179 
1199.723552  	0.131592 
1201.652368  	0.141149 
1203.581184  	0.150693 
1205.510000  	0.160166 
1207.438816  	0.169179 
1209.367632  	0.177694 
1211.296448  	0.185175 
1213.225264  	0.191375 
1215.154080  	0.195844 
1217.082896  	0.199036 
1219.011712  	0.201088 
1220.940528  	0.202864 
1222.869344  	0.203700 
1224.798160  	0.203602 
1226.726976  	0.202910 
1228.655792  	0.201671 
1230.584608  	0.199821 
1232.513424  	0.197448 
1234.442240  	0.194405 
1236.371056  	0.190551 
1238.299872  	0.185463 
1240.228688  	0.178198 
1242.157504  	0.170770 
1244.086320  	0.164448 
1246.015136  	0.156695 
1247.943952  	0.148178 
1249.872768  	0.139649 
1251.801584  	0.132321 
1253.730400  	0.124960 
1255.659216  	0.117686 
1257.588032  	0.110952 
1259.516848  	0.104614 
1261.445664  	0.098713 
1263.374480  	0.093312 
1265.303296  	0.088771 
1267.232112  	0.085095 
1269.160928  	0.082214 
1271.089744  	0.080121 
1273.018560  	0.079152 
1274.947376  	0.078999 
1276.876192  	0.079208 
1278.805008  	0.079075 
1280.733824  	0.077911 
1282.662640  	0.075904 
1284.591456  	0.073508 
1286.520272  	0.071110 
1288.449088  	0.069518 
1290.377904  	0.068885 
1292.306720  	0.068967 
1294.235536  	0.068869 
1296.164352  	0.067722 
1298.093168  	0.065325 
1300.021984  	0.062426 
1301.950800  	0.059288 
1303.879616  	0.056146 
1305.808432  	0.052775 
1307.737248  	0.049562 
1309.666064  	0.046566 
1311.594880  	0.044196 
1313.523696  	0.042236 
1315.452512  	0.041083 
1317.381328  	0.040441 
1319.310144  	0.040347 
1321.238960  	0.040633 
1323.167776  	0.041472 
1325.096592  	0.042428 
1327.025408  	0.043103 
1328.954224  	0.043104 
1330.883040  	0.042715 
1332.811856  	0.041955 
1334.740672  	0.041331 
1336.669488  	0.040823 
1338.598304  	0.040311 
1340.527120  	0.038976 
1342.455936  	0.038177 
1344.384752  	0.037983 
1346.313568  	0.038308 
1348.242384  	0.039037 
1350.171200  	0.040263 
1352.100016  	0.041851 
1354.028832  	0.043814 
1355.957648  	0.045637 
1357.886464  	0.047855 
1359.815280  	0.050247 
1361.744096  	0.052284 
1363.672912  	0.053462 
1365.601728  	0.055093 
1367.530544  	0.056512 
1369.459360  	0.056805 
1371.388176  	0.056799 
1373.316992  	0.055490 
1375.245808  	0.052029 
1377.174624  	0.049372 
1379.103440  	0.046357 
1381.032256  	0.043484 
1382.961072  	0.041417 
1384.889888  	0.040760 
1386.818704  	0.039541 
1388.747520  	0.037472 
1390.676336  	0.035551 
1392.605152  	0.032755 
1394.533968  	0.030658 
1396.462784  	0.033024 
1398.391600  	0.034278 
1400.320416  	0.033608 
1402.249232  	0.034216 
1404.178048  	0.034856 
1406.106864  	0.035398 
1408.035680  	0.037385 
1409.964496  	0.039870 
1411.893312  	0.042754 
1413.822128  	0.045901 
1415.750944  	0.049478 
1417.679760  	0.051958 
1419.608576  	0.051512 
1421.537392  	0.051987 
1423.466208  	0.052108 
1425.395024  	0.050126 
1427.323840  	0.049172 
1429.252656  	0.046848 
1431.181472  	0.044735 
1433.110288  	0.044638 
1435.039104  	0.045758 
1436.967920  	0.044380 
1438.896736  	0.045038 
1440.825552  	0.046503 
1442.754368  	0.047149 
1444.683184  	0.047459 
1446.612000  	0.047503 
1448.540816  	0.046195 
1450.469632  	0.046635 
1452.398448  	0.047634 
1454.327264  	0.049453 
1456.256080  	0.049551 
1458.184896  	0.046032 
1460.113712  	0.046944 
1462.042528  	0.049064 
1463.971344  	0.049373 
1465.900160  	0.049297 
1467.828976  	0.052044 
1469.757792  	0.056178 
1471.686608  	0.059932 
1473.615424  	0.064879 
1475.544240  	0.070935 
1477.473056  	0.076592 
1479.401872  	0.080916 
1481.330688  	0.084073 
1483.259504  	0.086193 
1485.188320  	0.088036 
1487.117136  	0.088168 
1489.045952  	0.086873 
1490.974768  	0.082856 
1492.903584  	0.081189 
1494.832400  	0.078820 
1496.761216  	0.072310 
1498.690032  	0.065691 
1500.618848  	0.061125 
1502.547664  	0.058084 
1504.476480  	0.056326 
1506.405296  	0.049979 
1508.334112  	0.043104 
1510.262928  	0.043382 
1512.191744  	0.042407 
1514.120560  	0.042015 
1516.049376  	0.041785 
1517.978192  	0.041339 
1519.907008  	0.043692 
1521.835824  	0.044063 
1523.764640  	0.047750 
1525.693456  	0.051454 
1527.622272  	0.053213 
1529.551088  	0.054389 
1531.479904  	0.054949 
1533.408720  	0.051169 
1535.337536  	0.047602 
1537.266352  	0.047816 
1539.195168  	0.043083 
1541.123984  	0.034505 
1543.052800  	0.033920 
1544.981616  	0.032777 
1546.910432  	0.032671 
1548.839248  	0.033231 
1550.768064  	0.032831 
1552.696880  	0.033735 
1554.625696  	0.034883 
1556.554512  	0.037088 
1558.483328  	0.036897 
1560.412144  	0.036698 
1562.340960  	0.043763 
1564.269776  	0.048301 
1566.198592  	0.053733 
1568.127408  	0.058723 
1570.056224  	0.063711 
1571.985040  	0.070411 
1573.913856  	0.076410 
1575.842672  	0.077992 
1577.771488  	0.079257 
1579.700304  	0.080887 
1581.629120  	0.080720 
1583.557936  	0.080047 
1585.486752  	0.080881 
1587.415568  	0.083401 
1589.344384  	0.088006 
1591.273200  	0.094096 
1593.202016  	0.101569 
1595.130832  	0.109275 
1597.059648  	0.117397 
1598.988464  	0.124370 
1600.917280  	0.130515 
1602.846096  	0.134328 
1604.774912  	0.136757 
1606.703728  	0.136986 
1608.632544  	0.136102 
1610.561360  	0.133919 
1612.490176  	0.132658 
1614.418992  	0.131660 
1616.347808  	0.129608 
1618.276624  	0.129647 
1620.205440  	0.134427 
1622.134256  	0.138154 
1624.063072  	0.143778 
1625.991888  	0.151003 
1627.920704  	0.159473 
1629.849520  	0.169245 
1631.778336  	0.179369 
1633.707152  	0.187179 
1635.635968  	0.194978 
1637.564784  	0.204084 
1639.493600  	0.211909 
1641.422416  	0.217094 
1643.351232  	0.221624 
1645.280048  	0.223017 
1647.208864  	0.221871 
1649.137680  	0.222572 
1651.066496  	0.224431 
1652.995312  	0.216811 
1654.924128  	0.212648 
1656.852944  	0.213190 
1658.781760  	0.211227 
1660.710576  	0.207748 
1662.639392  	0.202055 
1664.568208  	0.197240 
1666.497024  	0.195263 
1668.425840  	0.190015 
1670.354656  	0.182376 
1672.283472  	0.179097 
1674.212288  	0.176443 
1676.141104  	0.170813 
1678.069920  	0.169876 
1679.998736  	0.168904 
1681.927552  	0.168562 
1683.856368  	0.164143 
1685.785184  	0.161459 
1687.714000  	0.163205 
1689.642816  	0.162307 
1691.571632  	0.160723 
1693.500448  	0.160520 
1695.429264  	0.156581 
1697.358080  	0.152940 
1699.286896  	0.150926 
1701.215712  	0.143052 
1703.144528  	0.142540 
1705.073344  	0.138471 
1707.002160  	0.131618 
1708.930976  	0.126995 
1710.859792  	0.121082 
1712.788608  	0.114629 
1714.717424  	0.106727 
1716.646240  	0.095976 
1718.575056  	0.081265 
1720.503872  	0.073601 
1722.432688  	0.067307 
1724.361504  	0.058113 
1726.290320  	0.050937 
1728.219136  	0.044888 
1730.147952  	0.039224 
1732.076768  	0.035220 
1734.005584  	0.027904 
1735.934400  	0.021945 
1737.863216  	0.022692 
1739.792032  	0.019073 
1741.720848  	0.017391 
1743.649664  	0.016285 
1745.578480  	0.015671 
1747.507296  	0.014412 
1749.436112  	0.013129 
1751.364928  	0.010938 
1753.293744  	0.010558 
1755.222560  	0.010956 
1757.151376  	0.009778 
1759.080192  	0.009413 
1761.009008  	0.009162 
1762.937824  	0.007225 
1764.866640  	0.007926 
1766.795456  	0.008394 
1768.724272  	0.007940 
1770.653088  	0.007348 
1772.581904  	0.004760 
1774.510720  	0.004550 
1776.439536  	0.005782 
1778.368352  	0.006066 
1780.297168  	0.005667 
1782.225984  	0.004993 
1784.154800  	0.005320 
1786.083616  	0.004577 
1788.012432  	0.005321 
1789.941248  	0.005914 
1791.870064  	0.004687 
1793.798880  	0.003011 
1795.727696  	0.004226 
1797.656512  	0.004188 
1799.585328  	0.004158 
1801.514144  	0.003447 
1803.442960  	0.003504 
1805.371776  	0.003521 
1807.300592  	0.003852 
1809.229408  	0.003384 
1811.158224  	0.002930 
1813.087040  	0.002623 
1815.015856  	0.003226 
1816.944672  	0.003109 
1818.873488  	0.003292 
1820.802304  	0.003167 
1822.731120  	0.003920 
1824.659936  	0.003271 
1826.588752  	0.002819 
1828.517568  	0.002918 
1830.446384  	0.001851 
1832.375200  	0.001793 
1834.304016  	0.002669 
1836.232832  	0.002730 
1838.161648  	0.002979 
1840.090464  	0.002928 
1842.019280  	0.003886 
1843.948096  	0.002449 
1845.876912  	0.001780 
1847.805728  	0.002278 
1849.734544  	0.002466 
1851.663360  	0.002564 
1853.592176  	0.002625 
1855.520992  	0.002274 
1857.449808  	0.002470 
1859.378624  	0.002424 
1861.307440  	0.002416 
1863.236256  	0.002260 
1865.165072  	0.002968 
1867.093888  	0.002872 
1869.022704  	0.001754 
1870.951520  	0.001161 
1872.880336  	0.002103 
1874.809152  	0.002036 
1876.737968  	0.002152 
1878.666784  	0.001605 
1880.595600  	0.002082 
1882.524416  	0.001920 
1884.453232  	0.001974 
1886.382048  	0.001920 
1888.310864  	0.002238 
1890.239680  	0.001340 
1892.168496  	0.001699 
1894.097312  	0.001582 
1896.026128  	0.001735 
1897.954944  	0.001727 
1899.883760  	0.001961 
1901.812576  	0.001564 
1903.741392  	0.001589 
1905.670208  	0.001777 
1907.599024  	0.002378 
1909.527840  	0.001923 
1911.456656  	0.002090 
1913.385472  	0.001991 
1915.314288  	0.002604 
1917.243104  	0.001953 
1919.171920  	0.001475 
1921.100736  	0.001919 
1923.029552  	0.002095 
1924.958368  	0.001485 
1926.887184  	0.001882 
1928.816000  	0.001606 
1930.744816  	0.001544 
1932.673632  	0.001233 
1934.602448  	0.001916 
1936.531264  	0.002064 
1938.460080  	0.002625 
1940.388896  	0.002225 
1942.317712  	0.001954 
1944.246528  	0.001309 
1946.175344  	0.002137 
1948.104160  	0.001783 
1950.032976  	0.001932 
1951.961792  	0.001556 
1953.890608  	0.001995 
1955.819424  	0.001421 
1957.748240  	0.001801 
1959.677056  	0.001290 
1961.605872  	0.001382 
1963.534688  	0.001116 
1965.463504  	0.002511 
1967.392320  	0.002237 
1969.321136  	0.002542 
1971.249952  	0.001999 
1973.178768  	0.002907 
1975.107584  	0.002684 
1977.036400  	0.003647 
1978.965216  	0.004158 
1980.894032  	0.004311 
1982.822848  	0.003468 
1984.751664  	0.003891 
1986.680480  	0.002692 
1988.609296  	0.002291 
1990.538112  	0.001938 
1992.466928  	0.002542 
1994.395744  	0.001498 
1996.324560  	0.001712 
1998.253376  	0.001037 
2000.182192  	0.001023 
2002.111008  	0.001318 
2004.039824  	0.002767 
2005.968640  	0.002019 
2007.897456  	0.002510 
2009.826272  	0.002292 
2011.755088  	0.002824 
2013.683904  	0.002131 
2015.612720  	0.002703 
2017.541536  	0.002075 
2019.470352  	0.003312 
2021.399168  	0.002547 
2023.327984  	0.001750 
2025.256800  	0.002055 
2027.185616  	0.003950 
2029.114432  	0.003477 
2031.043248  	0.003970 
2032.972064  	0.003718 
2034.900880  	0.003596 
2036.829696  	0.002419 
2038.758512  	0.003031 
2040.687328  	0.002382 
2042.616144  	0.003250 
2044.544960  	0.003186 
2046.473776  	0.002697 
2048.402592  	0.002267 
2050.331408  	0.002887 
2052.260224  	0.002001 
2054.189040  	0.001472 
2056.117856  	0.001103 
2058.046672  	0.002209 
2059.975488  	0.002121 
2061.904304  	0.001500 
2063.833120  	0.001190 
2065.761936  	0.001533 
2067.690752  	0.001387 
2069.619568  	0.001910 
2071.548384  	0.001963 
2073.477200  	0.001797 
2075.406016  	0.001653 
2077.334832  	0.002215 
2079.263648  	0.001948 
2081.192464  	0.002165 
2083.121280  	0.002231 
2085.050096  	0.002254 
2086.978912  	0.002087 
2088.907728  	0.002101 
2090.836544  	0.001660 
2092.765360  	0.001946 
2094.694176  	0.002147 
2096.622992  	0.002429 
2098.551808  	0.002510 
2100.480624  	0.002977 
2102.409440  	0.002699 
2104.338256  	0.002495 
2106.267072  	0.002578 
2108.195888  	0.002586 
2110.124704  	0.002222 
2112.053520  	0.002260 
2113.982336  	0.002217 
2115.911152  	0.002440 
2117.839968  	0.002465 
2119.768784  	0.002463 
2121.697600  	0.002031 
2123.626416  	0.001701 
2125.555232  	0.001242 
2127.484048  	0.001880 
2129.412864  	0.002150 
2131.341680  	0.001834 
2133.270496  	0.001354 
2135.199312  	0.002188 
2137.128128  	0.002207 
2139.056944  	0.002457 
2140.985760  	0.002349 
2142.914576  	0.002654 
2144.843392  	0.002256 
2146.772208  	0.002319 
2148.701024  	0.002032 
2150.629840  	0.002994 
2152.558656  	0.002643 
2154.487472  	0.002480 
2156.416288  	0.001638 
2158.345104  	0.003004 
2160.273920  	0.005604 
2162.202736  	0.006732 
2164.131552  	0.004911 
2166.060368  	0.004273 
2167.989184  	0.004693 
2169.918000  	0.006637 
2171.846816  	0.005859 
2173.775632  	0.005112 
2175.704448  	0.004608 
2177.633264  	0.004361 
2179.562080  	0.004184 
2181.490896  	0.004695 
2183.419712  	0.003194 
2185.348528  	0.003321 
2187.277344  	0.003935 
2189.206160  	0.004084 
2191.134976  	0.003616 
2193.063792  	0.003831 
2194.992608  	0.003723 
2196.921424  	0.003599 
2198.850240  	0.003180 
2200.779056  	0.003253 
2202.707872  	0.002689 
2204.636688  	0.003272 
2206.565504  	0.004162 
2208.494320  	0.004330 
2210.423136  	0.003017 
2212.351952  	0.002795 
2214.280768  	0.002802 
2216.209584  	0.003077 
2218.138400  	0.002389 
2220.067216  	0.002799 
2221.996032  	0.003078 
2223.924848  	0.003211 
2225.853664  	0.002847 
2227.782480  	0.002943 
2229.711296  	0.002376 
2231.640112  	0.001606 
2233.568928  	0.001357 
2235.497744  	0.002020 
2237.426560  	0.001660 
2239.355376  	0.001684 
2241.284192  	0.001409 
2243.213008  	0.001632 
2245.141824  	0.001932 
2247.070640  	0.002039 
2248.999456  	0.001826 
2250.928272  	0.001796 
2252.857088  	0.001506 
2254.785904  	0.001277 
2256.714720  	0.000703 
2258.643536  	0.000847 
2260.572352  	0.000876 
2262.501168  	0.000766 
2264.429984  	0.000704 
2266.358800  	0.001025 
2268.287616  	0.000990 
2270.216432  	0.001188 
2272.145248  	0.001411 
2274.074064  	0.001218 
2276.002880  	0.000963 
2277.931696  	0.001194 
2279.860512  	0.001121 
2281.789328  	0.001089 
2283.718144  	0.001078 
2285.646960  	0.001364 
2287.575776  	0.001360 
2289.504592  	0.001051 
2291.433408  	0.000645 
2293.362224  	0.000673 
2295.291040  	0.000750 
2297.219856  	0.001009 
2299.148672  	0.000825 
2301.077488  	0.000622 
2303.006304  	0.000477 
2304.935120  	0.000466 
2306.863936  	0.000186 
2308.792752  	0.000026 
2310.721568  	-0.000504 
2312.650384  	-0.000932 
2314.579200  	-0.001250 
2316.508016  	-0.001774 
2318.436832  	-0.002623 
2320.365648  	-0.003629 
2322.294464  	-0.004774 
2324.223280  	-0.005625 
2326.152096  	-0.006731 
2328.080912  	-0.007945 
2330.009728  	-0.009456 
2331.938544  	-0.010633 
2333.867360  	-0.011240 
2335.796176  	-0.011814 
2337.724992  	-0.012276 
2339.653808  	-0.012090 
2341.582624  	-0.012742 
2343.511440  	-0.012930 
2345.440256  	-0.012087 
2347.369072  	-0.008605 
2349.297888  	-0.005437 
2351.226704  	-0.006483 
2353.155520  	-0.010324 
2355.084336  	-0.012908 
2357.013152  	-0.015165 
2358.941968  	-0.016733 
2360.870784  	-0.017628 
2362.799600  	-0.017476 
2364.728416  	-0.017440 
2366.657232  	-0.015801 
2368.586048  	-0.013239 
2370.514864  	-0.011063 
2372.443680  	-0.009324 
2374.372496  	-0.007194 
2376.301312  	-0.005083 
2378.230128  	-0.003206 
2380.158944  	-0.001978 
2382.087760  	-0.000893 
2384.016576  	-0.000299 
2385.945392  	-0.000041 
2387.874208  	0.000040 
2389.803024  	0.000214 
2391.731840  	0.000053 
2393.660656  	0.000143 
2395.589472  	0.000236 
2397.518288  	0.000329 
2399.447104  	0.000196 
2401.375920  	0.000137 
2403.304736  	0.000043 
2405.233552  	0.000254 
2407.162368  	0.000435 
2409.091184  	0.000441 
2411.020000  	0.000292 
2412.948816  	0.000261 
2414.877632  	0.000387 
2416.806448  	0.000522 
2418.735264  	0.000299 
2420.664080  	0.000215 
2422.592896  	0.000342 
2424.521712  	0.000380 
2426.450528  	0.000067 
2428.379344  	0.000144 
2430.308160  	0.000335 
2432.236976  	0.000540 
2434.165792  	0.000449 
2436.094608  	0.000401 
2438.023424  	0.000600 
2439.952240  	0.000911 
2441.881056  	0.000916 
2443.809872  	0.000850 
2445.738688  	0.000719 
2447.667504  	0.000791 
2449.596320  	0.000844 
2451.525136  	0.000998 
2453.453952  	0.001110 
2455.382768  	0.001108 
2457.311584  	0.000969 
2459.240400  	0.001030 
2461.169216  	0.000873 
2463.098032  	0.000707 
2465.026848  	0.000698 
2466.955664  	0.000747 
2468.884480  	0.000735 
2470.813296  	0.000856 
2472.742112  	0.000909 
2474.670928  	0.000905 
2476.599744  	0.000856 
2478.528560  	0.001007 
2480.457376  	0.001028 
2482.386192  	0.000919 
2484.315008  	0.000963 
2486.243824  	0.001002 
2488.172640  	0.000887 
2490.101456  	0.001136 
2492.030272  	0.001378 
2493.959088  	0.001449 
2495.887904  	0.001446 
2497.816720  	0.001431 
2499.745536  	0.001577 
2501.674352  	0.001761 
2503.603168  	0.001840 
2505.531984  	0.001778 
2507.460800  	0.001566 
2509.389616  	0.001688 
2511.318432  	0.001812 
2513.247248  	0.001906 
2515.176064  	0.001823 
2517.104880  	0.001963 
2519.033696  	0.001874 
2520.962512  	0.001844 
2522.891328  	0.001908 
2524.820144  	0.001945 
2526.748960  	0.002180 
2528.677776  	0.002566 
2530.606592  	0.002371 
2532.535408  	0.002310 
2534.464224  	0.002392 
2536.393040  	0.002471 
2538.321856  	0.002492 
2540.250672  	0.002404 
2542.179488  	0.002221 
2544.108304  	0.002338 
2546.037120  	0.002513 
2547.965936  	0.002638 
2549.894752  	0.002695 
2551.823568  	0.002734 
2553.752384  	0.002794 
2555.681200  	0.003100 
2557.610016  	0.003159 
2559.538832  	0.003231 
2561.467648  	0.003309 
2563.396464  	0.003383 
2565.325280  	0.003487 
2567.254096  	0.003476 
2569.182912  	0.003427 
2571.111728  	0.003457 
2573.040544  	0.003587 
2574.969360  	0.003746 
2576.898176  	0.003846 
2578.826992  	0.003749 
2580.755808  	0.003779 
2582.684624  	0.004077 
2584.613440  	0.004286 
2586.542256  	0.004501 
2588.471072  	0.004604 
2590.399888  	0.004548 
2592.328704  	0.004419 
2594.257520  	0.004211 
2596.186336  	0.004268 
2598.115152  	0.004396 
2600.043968  	0.004357 
2601.972784  	0.004540 
2603.901600  	0.004699 
2605.830416  	0.004889 
2607.759232  	0.004919 
2609.688048  	0.004958 
2611.616864  	0.005068 
2613.545680  	0.005280 
2615.474496  	0.005343 
2617.403312  	0.005446 
2619.332128  	0.005562 
2621.260944  	0.005645 
2623.189760  	0.005760 
2625.118576  	0.005854 
2627.047392  	0.005749 
2628.976208  	0.005814 
2630.905024  	0.005924 
2632.833840  	0.006121 
2634.762656  	0.006228 
2636.691472  	0.006329 
2638.620288  	0.006499 
2640.549104  	0.006700 
2642.477920  	0.006779 
2644.406736  	0.006939 
2646.335552  	0.007046 
2648.264368  	0.007173 
2650.193184  	0.007159 
2652.122000  	0.007241 
2654.050816  	0.007554 
2655.979632  	0.007762 
2657.908448  	0.007750 
2659.837264  	0.007839 
2661.766080  	0.008043 
2663.694896  	0.008247 
2665.623712  	0.008195 
2667.552528  	0.008310 
2669.481344  	0.008480 
2671.410160  	0.008541 
2673.338976  	0.008620 
2675.267792  	0.008815 
2677.196608  	0.008968 
2679.125424  	0.009091 
2681.054240  	0.009227 
2682.983056  	0.009375 
2684.911872  	0.009380 
2686.840688  	0.009474 
2688.769504  	0.009573 
2690.698320  	0.009653 
2692.627136  	0.009736 
2694.555952  	0.009867 
2696.484768  	0.010020 
2698.413584  	0.010137 
2700.342400  	0.010260 
2702.271216  	0.010467 
2704.200032  	0.010669 
2706.128848  	0.010714 
2708.057664  	0.010656 
2709.986480  	0.010850 
2711.915296  	0.011040 
2713.844112  	0.011232 
2715.772928  	0.011348 
2717.701744  	0.011468 
2719.630560  	0.011647 
2721.559376  	0.011729 
2723.488192  	0.011827 
2725.417008  	0.011969 
2727.345824  	0.012123 
2729.274640  	0.012282 
2731.203456  	0.012399 
2733.132272  	0.012569 
2735.061088  	0.012695 
2736.989904  	0.012931 
2738.918720  	0.013027 
2740.847536  	0.013075 
2742.776352  	0.013077 
2744.705168  	0.013133 
2746.633984  	0.013285 
2748.562800  	0.013401 
2750.491616  	0.013530 
2752.420432  	0.013748 
2754.349248  	0.013707 
2756.278064  	0.013625 
2758.206880  	0.013605 
2760.135696  	0.013621 
2762.064512  	0.013645 
2763.993328  	0.013666 
2765.922144  	0.013697 
2767.850960  	0.013783 
2769.779776  	0.013746 
2771.708592  	0.013767 
2773.637408  	0.013734 
2775.566224  	0.013721 
2777.495040  	0.013745 
2779.423856  	0.013844 
2781.352672  	0.013852 
2783.281488  	0.013812 
2785.210304  	0.013794 
2787.139120  	0.013830 
2789.067936  	0.013796 
2790.996752  	0.013852 
2792.925568  	0.013782 
2794.854384  	0.013722 
2796.783200  	0.013705 
2798.712016  	0.013682 
2800.640832  	0.013641 
2802.569648  	0.013682 
2804.498464  	0.013697 
2806.427280  	0.013717 
2808.356096  	0.013766 
2810.284912  	0.013867 
2812.213728  	0.013892 
2814.142544  	0.013824 
2816.071360  	0.013809 
2818.000176  	0.013732 
2819.928992  	0.013688 
2821.857808  	0.013622 
2823.786624  	0.013486 
2825.715440  	0.013485 
2827.644256  	0.013345 
2829.573072  	0.013150 
2831.501888  	0.012843 
2833.430704  	0.012505 
2835.359520  	0.012185 
2837.288336  	0.011927 
2839.217152  	0.011594 
2841.145968  	0.011308 
2843.074784  	0.010941 
2845.003600  	0.010462 
2846.932416  	0.010030 
2848.861232  	0.009682 
2850.790048  	0.009189 
2852.718864  	0.008633 
2854.647680  	0.008254 
2856.576496  	0.007748 
2858.505312  	0.007192 
2860.434128  	0.006691 
2862.362944  	0.006049 
2864.291760  	0.005360 
2866.220576  	0.004793 
2868.149392  	0.004494 
2870.078208  	0.004272 
2872.007024  	0.004269 
2873.935840  	0.004482 
2875.864656  	0.004544 
2877.793472  	0.004492 
2879.722288  	0.004402 
2881.651104  	0.004036 
2883.579920  	0.003755 
2885.508736  	0.003947 
2887.437552  	0.004368 
2889.366368  	0.004455 
2891.295184  	0.004293 
2893.224000  	0.004085 
2895.152816  	0.004026 
2897.081632  	0.003732 
2899.010448  	0.002150 
2900.939264  	0.000675 
2902.868080  	0.001891 
2904.796896  	0.003195 
2906.725712  	0.003777 
2908.654528  	0.004398 
2910.583344  	0.004877 
2912.512160  	0.005489 
2914.440976  	0.006543 
2916.369792  	0.007340 
2918.298608  	0.007913 
2920.227424  	0.008440 
2922.156240  	0.009167 
2924.085056  	0.009966 
2926.013872  	0.010976 
2927.942688  	0.012125 
2929.871504  	0.013245 
2931.800320  	0.014253 
2933.729136  	0.015045 
2935.657952  	0.015717 
2937.586768  	0.016499 
2939.515584  	0.017254 
2941.444400  	0.017506 
2943.373216  	0.017540 
2945.302032  	0.017856 
2947.230848  	0.018125 
2949.159664  	0.017848 
2951.088480  	0.017327 
2953.017296  	0.016848 
2954.946112  	0.016154 
2956.874928  	0.015431 
2958.803744  	0.014695 
2960.732560  	0.014045 
2962.661376  	0.013383 
2964.590192  	0.012441 
2966.519008  	0.011309 
2968.447824  	0.010225 
2970.376640  	0.009334 
2972.305456  	0.008766 
2974.234272  	0.008902 
2976.163088  	0.009269 
2978.091904  	0.009248 
2980.020720  	0.009191 
2981.949536  	0.009497 
2983.878352  	0.009495 
2985.807168  	0.008602 
2987.735984  	0.007544 
2989.664800  	0.007765 
2991.593616  	0.010833 
2993.522432  	0.012948 
2995.451248  	0.013459 
2997.380064  	0.014240 
2999.308880  	0.015445 
3001.237696  	0.016878 
3003.166512  	0.018458 
3005.095328  	0.019834 
3007.024144  	0.021258 
3008.952960  	0.022723 
3010.881776  	0.024245 
3012.810592  	0.025575 
3014.739408  	0.026903 
3016.668224  	0.028173 
3018.597040  	0.029509 
3020.525856  	0.030747 
3022.454672  	0.031790 
3024.383488  	0.032921 
3026.312304  	0.033980 
3028.241120  	0.034956 
3030.169936  	0.035983 
3032.098752  	0.036799 
3034.027568  	0.037683 
3035.956384  	0.038680 
3037.885200  	0.039572 
3039.814016  	0.040180 
3041.742832  	0.040819 
3043.671648  	0.041409 
3045.600464  	0.042053 
3047.529280  	0.042585 
3049.458096  	0.043262 
3051.386912  	0.044104 
3053.315728  	0.044840 
3055.244544  	0.045455 
3057.173360  	0.046136 
3059.102176  	0.046820 
3061.030992  	0.047541 
3062.959808  	0.048403 
3064.888624  	0.049157 
3066.817440  	0.049868 
3068.746256  	0.050830 
3070.675072  	0.051807 
3072.603888  	0.052587 
3074.532704  	0.053375 
3076.461520  	0.054191 
3078.390336  	0.054922 
3080.319152  	0.055581 
3082.247968  	0.056344 
3084.176784  	0.057130 
3086.105600  	0.058035 
3088.034416  	0.058874 
3089.963232  	0.059756 
3091.892048  	0.060596 
3093.820864  	0.061538 
3095.749680  	0.062365 
3097.678496  	0.063117 
3099.607312  	0.063923 
3101.536128  	0.064881 
3103.464944  	0.065880 
3105.393760  	0.066642 
3107.322576  	0.067481 
3109.251392  	0.068299 
3111.180208  	0.068999 
3113.109024  	0.069890 
3115.037840  	0.070784 
3116.966656  	0.071438 
3118.895472  	0.072013 
3120.824288  	0.072743 
3122.753104  	0.073471 
3124.681920  	0.074075 
3126.610736  	0.074752 
3128.539552  	0.075539 
3130.468368  	0.076331 
3132.397184  	0.077015 
3134.326000  	0.077730 
3136.254816  	0.078249 
3138.183632  	0.078752 
3140.112448  	0.079413 
3142.041264  	0.080089 
3143.970080  	0.080701 
3145.898896  	0.081346 
3147.827712  	0.082051 
3149.756528  	0.082585 
3151.685344  	0.083115 
3153.614160  	0.083872 
3155.542976  	0.084678 
3157.471792  	0.085396 
3159.400608  	0.086163 
3161.329424  	0.086968 
3163.258240  	0.087352 
3165.187056  	0.087786 
3167.115872  	0.088536 
3169.044688  	0.089286 
3170.973504  	0.089694 
3172.902320  	0.089912 
3174.831136  	0.090411 
3176.759952  	0.091027 
3178.688768  	0.091377 
3180.617584  	0.091736 
3182.546400  	0.092231 
3184.475216  	0.092586 
3186.404032  	0.092689 
3188.332848  	0.092900 
3190.261664  	0.093056 
3192.190480  	0.093285 
3194.119296  	0.093253 
3196.048112  	0.093212 
3197.976928  	0.093140 
3199.905744  	0.093229 
3201.834560  	0.093149 
3203.763376  	0.093058 
3205.692192  	0.093113 
3207.621008  	0.092988 
3209.549824  	0.092942 
3211.478640  	0.093025 
3213.407456  	0.092902 
3215.336272  	0.092651 
3217.265088  	0.092474 
3219.193904  	0.092267 
3221.122720  	0.092129 
3223.051536  	0.092048 
3224.980352  	0.091934 
3226.909168  	0.091956 
3228.837984  	0.091764 
3230.766800  	0.091504 
3232.695616  	0.091350 
3234.624432  	0.091191 
3236.553248  	0.091011 
3238.482064  	0.091083 
3240.410880  	0.091159 
3242.339696  	0.091226 
3244.268512  	0.091021 
3246.197328  	0.091084 
3248.126144  	0.091412 
3250.054960  	0.091669 
3251.983776  	0.091848 
3253.912592  	0.091911 
3255.841408  	0.092172 
3257.770224  	0.092590 
3259.699040  	0.092804 
3261.627856  	0.092951 
3263.556672  	0.093033 
3265.485488  	0.093209 
3267.414304  	0.093672 
3269.343120  	0.094096 
3271.271936  	0.094307 
3273.200752  	0.094251 
3275.129568  	0.094098 
3277.058384  	0.094362 
3278.987200  	0.094731 
3280.916016  	0.095099 
3282.844832  	0.095279 
3284.773648  	0.095443 
3286.702464  	0.095629 
3288.631280  	0.095949 
3290.560096  	0.096423 
3292.488912  	0.096815 
3294.417728  	0.097090 
3296.346544  	0.097401 
3298.275360  	0.097494 
3300.204176  	0.097853 
3302.132992  	0.098279 
3304.061808  	0.098651 
3305.990624  	0.099143 
3307.919440  	0.099511 
3309.848256  	0.099738 
3311.777072  	0.100079 
3313.705888  	0.100295 
3315.634704  	0.100720 
3317.563520  	0.101155 
3319.492336  	0.101460 
3321.421152  	0.101508 
3323.349968  	0.101644 
3325.278784  	0.101818 
3327.207600  	0.102029 
3329.136416  	0.101992 
3331.065232  	0.102071 
3332.994048  	0.102354 
3334.922864  	0.102437 
3336.851680  	0.102239 
3338.780496  	0.102106 
3340.709312  	0.102005 
3342.638128  	0.101910 
3344.566944  	0.101750 
3346.495760  	0.101569 
3348.424576  	0.101067 
3350.353392  	0.100553 
3352.282208  	0.100401 
3354.211024  	0.100165 
3356.139840  	0.099708 
3358.068656  	0.099314 
3359.997472  	0.099035 
3361.926288  	0.098624 
3363.855104  	0.098204 
3365.783920  	0.097662 
3367.712736  	0.097171 
3369.641552  	0.096900 
3371.570368  	0.096528 
3373.499184  	0.095934 
3375.428000  	0.095333 
3377.356816  	0.095050 
3379.285632  	0.094831 
3381.214448  	0.094368 
3383.143264  	0.093963 
3385.072080  	0.093532 
3387.000896  	0.093042 
3388.929712  	0.092786 
3390.858528  	0.092401 
3392.787344  	0.091696 
3394.716160  	0.091203 
3396.644976  	0.090810 
3398.573792  	0.090200 
3400.502608  	0.089906 
3402.431424  	0.089620 
3404.360240  	0.088952 
3406.289056  	0.088325 
3408.217872  	0.087969 
3410.146688  	0.087488 
3412.075504  	0.087132 
3414.004320  	0.086539 
3415.933136  	0.086022 
3417.861952  	0.085468 
3419.790768  	0.084767 
3421.719584  	0.083929 
3423.648400  	0.083527 
3425.577216  	0.083015 
3427.506032  	0.082409 
3429.434848  	0.081946 
3431.363664  	0.081341 
3433.292480  	0.080657 
3435.221296  	0.079925 
3437.150112  	0.079262 
3439.078928  	0.078784 
3441.007744  	0.078239 
3442.936560  	0.077639 
3444.865376  	0.077173 
3446.794192  	0.076024 
3448.723008  	0.075122 
3450.651824  	0.074636 
3452.580640  	0.073786 
3454.509456  	0.073251 
3456.438272  	0.072564 
3458.367088  	0.071929 
3460.295904  	0.071159 
3462.224720  	0.070085 
3464.153536  	0.069298 
3466.082352  	0.068916 
3468.011168  	0.068067 
3469.939984  	0.067236 
3471.868800  	0.066459 
3473.797616  	0.065540 
3475.726432  	0.064751 
3477.655248  	0.064140 
3479.584064  	0.063495 
3481.512880  	0.062347 
3483.441696  	0.061210 
3485.370512  	0.060782 
3487.299328  	0.059946 
3489.228144  	0.059008 
3491.156960  	0.058157 
3493.085776  	0.057404 
3495.014592  	0.056435 
3496.943408  	0.055387 
3498.872224  	0.054711 
3500.801040  	0.054399 
3502.729856  	0.053481 
3504.658672  	0.052244 
3506.587488  	0.052119 
3508.516304  	0.051621 
3510.445120  	0.050145 
3512.373936  	0.049502 
3514.302752  	0.049111 
3516.231568  	0.048805 
3518.160384  	0.048290 
3520.089200  	0.047744 
3522.018016  	0.047168 
3523.946832  	0.046263 
3525.875648  	0.045628 
3527.804464  	0.044567 
3529.733280  	0.043636 
3531.662096  	0.043197 
3533.590912  	0.042818 
3535.519728  	0.042196 
3537.448544  	0.041401 
3539.377360  	0.040899 
3541.306176  	0.040469 
3543.234992  	0.040134 
3545.163808  	0.039353 
3547.092624  	0.037938 
3549.021440  	0.037327 
3550.950256  	0.037174 
3552.879072  	0.035758 
3554.807888  	0.035123 
3556.736704  	0.035011 
3558.665520  	0.034670 
3560.594336  	0.033998 
3562.523152  	0.033484 
3564.451968  	0.033626 
3566.380784  	0.031945 
3568.309600  	0.028612 
3570.238416  	0.028954 
3572.167232  	0.029528 
3574.096048  	0.028884 
3576.024864  	0.027829 
3577.953680  	0.027123 
3579.882496  	0.026501 
3581.811312  	0.026097 
3583.740128  	0.026117 
3585.668944  	0.026012 
3587.597760  	0.022586 
3589.526576  	0.020587 
3591.455392  	0.021795 
3593.384208  	0.021587 
3595.313024  	0.019821 
3597.241840  	0.018743 
3599.170656  	0.018099 
3601.099472  	0.016706 
3603.028288  	0.016379 
3604.957104  	0.017077 
3606.885920  	0.016286 
3608.814736  	0.013816 
3610.743552  	0.013868 
3612.672368  	0.013051 
3614.601184  	0.011208 
3616.530000  	0.011890 
3618.458816  	0.009716 
3620.387632  	0.006607 
3622.316448  	0.007130 
3624.245264  	0.007969 
3626.174080  	0.008968 
3628.102896  	0.006419 
3630.031712  	-0.000809 
3631.960528  	0.001754 
3633.889344  	0.002083 
3635.818160  	0.001155 
3637.746976  	0.000612 
3639.675792  	0.000224 
3641.604608  	-0.000134 
3643.533424  	-0.000181 
3645.462240  	0.000731 
3647.391056  	-0.001391 
3649.319872  	-0.007293 
3651.248688  	-0.011539 
3653.177504  	-0.007785 
3655.106320  	-0.006613 
3657.035136  	-0.010836 
3658.963952  	-0.010697 
3660.892768  	-0.010360 
3662.821584  	-0.010539 
3664.750400  	-0.010084 
3666.679216  	-0.008610 
3668.608032  	-0.009281 
3670.536848  	-0.014679 
3672.465664  	-0.012209 
3674.394480  	-0.010978 
3676.323296  	-0.019047 
3678.252112  	-0.015903 
3680.180928  	-0.013965 
3682.109744  	-0.013237 
3684.038560  	-0.012842 
3685.967376  	-0.011169 
3687.896192  	-0.012424 
3689.825008  	-0.017171 
3691.753824  	-0.017470 
3693.682640  	-0.015080 
3695.611456  	-0.013697 
3697.540272  	-0.012969 
3699.469088  	-0.011539 
3701.397904  	-0.012603 
3703.326720  	-0.013298 
3705.255536  	-0.011278 
3707.184352  	-0.009822 
3709.113168  	-0.010018 
3711.041984  	-0.012829 
3712.970800  	-0.014790 
3714.899616  	-0.012097 
3716.828432  	-0.009867 
3718.757248  	-0.009954 
3720.686064  	-0.010246 
3722.614880  	-0.011153 
3724.543696  	-0.011015 
3726.472512  	-0.011767 
3728.401328  	-0.011116 
3730.330144  	-0.008985 
3732.258960  	-0.009998 
3734.187776  	-0.010677 
3736.116592  	-0.014031 
3738.045408  	-0.013581 
3739.974224  	-0.010479 
3741.903040  	-0.007476 
3743.831856  	-0.009461 
3745.760672  	-0.014572 
3747.689488  	-0.009557 
3749.618304  	-0.010684 
3751.547120  	-0.015153 
3753.475936  	-0.015172 
3755.404752  	-0.011347 
3757.333568  	-0.010221 
3759.262384  	-0.011689 
3761.191200  	-0.012593 
3763.120016  	-0.009912 
3765.048832  	-0.010208 
3766.977648  	-0.010389 
3768.906464  	-0.010565 
3770.835280  	-0.012926 
3772.764096  	-0.011618 
3774.692912  	-0.010244 
3776.621728  	-0.009368 
3778.550544  	-0.010252 
3780.479360  	-0.012734 
3782.408176  	-0.010968 
3784.336992  	-0.010921 
3786.265808  	-0.011635 
3788.194624  	-0.011250 
3790.123440  	-0.010866 
3792.052256  	-0.010382 
3793.981072  	-0.009226 
3795.909888  	-0.010347 
3797.838704  	-0.010669 
3799.767520  	-0.008747 
3801.696336  	-0.014160 
3803.625152  	-0.013863 
3805.553968  	-0.010558 
3807.482784  	-0.013782 
3809.411600  	-0.012409 
3811.340416  	-0.010306 
3813.269232  	-0.008465 
3815.198048  	-0.009963 
3817.126864  	-0.013273 
3819.055680  	-0.009794 
3820.984496  	-0.013423 
3822.913312  	-0.015128 
3824.842128  	-0.010923 
3826.770944  	-0.011383 
3828.699760  	-0.010886 
3830.628576  	-0.010174 
3832.557392  	-0.011021 
3834.486208  	-0.010089 
3836.415024  	-0.010256 
3838.343840  	-0.013053 
3840.272656  	-0.013861 
3842.201472  	-0.012546 
3844.130288  	-0.012814 
3846.059104  	-0.011644 
3847.987920  	-0.009292 
3849.916736  	-0.007405 
3851.845552  	-0.007595 
3853.774368  	-0.017350 
3855.703184  	-0.017322 
3857.632000  	-0.013017 
3859.560816  	-0.010271 
3861.489632  	-0.009544 
3863.418448  	-0.010582 
3865.347264  	-0.012471 
3867.276080  	-0.009885 
3869.204896  	-0.010301 
3871.133712  	-0.013499 
3873.062528  	-0.011559 
3874.991344  	-0.013019 
3876.920160  	-0.010354 
3878.848976  	-0.008450 
3880.777792  	-0.011392 
3882.706608  	-0.010822 
3884.635424  	-0.009986 
3886.564240  	-0.013186 
3888.493056  	-0.010624 
3890.421872  	-0.010136 
3892.350688  	-0.013002 
3894.279504  	-0.011930 
3896.208320  	-0.009611 
3898.137136  	-0.008703 
3900.065952  	-0.009895 
3901.994768  	-0.010336 
3903.923584  	-0.012267 
3905.852400  	-0.013670 
3907.781216  	-0.012124 
3909.710032  	-0.010981 
3911.638848  	-0.010713 
3913.567664  	-0.010036 
3915.496480  	-0.009591 
3917.425296  	-0.010920 
3919.354112  	-0.011339 
3921.282928  	-0.010947 
3923.211744  	-0.010187 
3925.140560  	-0.011036 
3927.069376  	-0.010790 
3928.998192  	-0.009958 
3930.927008  	-0.010111 
3932.855824  	-0.011178 
3934.784640  	-0.011317 
3936.713456  	-0.010895 
3938.642272  	-0.010595 
3940.571088  	-0.009793 
3942.499904  	-0.010371 
3944.428720  	-0.011046 
3946.357536  	-0.010207 
3948.286352  	-0.010323 
3950.215168  	-0.010919 
3952.143984  	-0.010960 
3954.072800  	-0.010682 
3956.001616  	-0.010612 
3957.930432  	-0.010706 
3959.859248  	-0.010701 
3961.788064  	-0.010974 
3963.716880  	-0.011223 
3965.645696  	-0.011210 
3967.574512  	-0.011054 
3969.503328  	-0.010774 
3971.432144  	-0.010763 
3973.360960  	-0.010856 
3975.289776  	-0.011025 
3977.218592  	-0.010986 
3979.147408  	-0.010987 
3981.076224  	-0.011044 
3983.005040  	-0.010987 
3984.933856  	-0.010928 
3986.862672  	-0.010864 
3988.791488  	-0.010636 
3990.720304  	-0.010699 
3992.649120  	-0.010836 
3994.577936  	-0.011096 
3996.506752  	-0.011129 
3998.435568  	-0.011113 
4000.364384  	-0.011022 