##TITLE=No Description
##DATA TYPE=INFRARED SPECTRUM
##XUNITS=1/CM
##YUNITS=Abs
399.264912  	0.552831 
401.193728  	0.560048 
403.122544  	0.571938 
405.051360  	0.561825 
406.980176  	0.567364 
408.908992  	0.560348 
410.837808  	0.564517 
412.766624  	0.558423 
414.695440  	0.550126 
416.624256  	0.540819 
418.553072  	0.543555 
420.481888  	0.525346 
422.410704  	0.521118 
424.339520  	0.528987 
426.268336  	0.538279 
428.197152  	0.531533 
430.125968  	0.529604 
432.054784  	0.522799 
433.983600  	0.520698 
435.912416  	0.515921 
437.841232  	0.520288 
439.770048  	0.518136 
441.698864  	0.516794 
443.627680  	0.512511 
445.556496  	0.506160 
447.485312  	0.499467 
449.414128  	0.500600 
451.342944  	0.501893 
453.271760  	0.506110 
455.200576  	0.505507 
457.129392  	0.505436 
459.058208  	0.506392 
460.987024  	0.509069 
462.915840  	0.505389 
464.844656  	0.505125 
466.773472  	0.500648 
468.702288  	0.503259 
470.631104  	0.502971 
472.559920  	0.505092 
474.488736  	0.504213 
476.417552  	0.501131 
478.346368  	0.495136 
480.275184  	0.497931 
482.204000  	0.496825 
484.132816  	0.493893 
486.061632  	0.493170 
487.990448  	0.495011 
489.919264  	0.493571 
491.848080  	0.490374 
493.776896  	0.484466 
495.705712  	0.482733 
497.634528  	0.483273 
499.563344  	0.486566 
501.492160  	0.483715 
503.420976  	0.484223 
505.349792  	0.483467 
507.278608  	0.484308 
509.207424  	0.482595 
511.136240  	0.484062 
513.065056  	0.483266 
514.993872  	0.484989 
516.922688  	0.484982 
518.851504  	0.486685 
520.780320  	0.484825 
522.709136  	0.485139 
524.637952  	0.485681 
526.566768  	0.485826 
528.495584  	0.481981 
530.424400  	0.480759 
532.353216  	0.475684 
534.282032  	0.469173 
536.210848  	0.462544 
538.139664  	0.460007 
540.068480  	0.456728 
541.997296  	0.453410 
543.926112  	0.449595 
545.854928  	0.446971 
547.783744  	0.443021 
549.712560  	0.440216 
551.641376  	0.437141 
553.570192  	0.434658 
555.499008  	0.431430 
557.427824  	0.428767 
559.356640  	0.424481 
561.285456  	0.421703 
563.214272  	0.418816 
565.143088  	0.415675 
567.071904  	0.411364 
569.000720  	0.409386 
570.929536  	0.406032 
572.858352  	0.402612 
574.787168  	0.399184 
576.715984  	0.397290 
578.644800  	0.394046 
580.573616  	0.390588 
582.502432  	0.386422 
584.431248  	0.383621 
586.360064  	0.380402 
588.288880  	0.377922 
590.217696  	0.375608 
592.146512  	0.373934 
594.075328  	0.371302 
596.004144  	0.369147 
597.932960  	0.367146 
599.861776  	0.366021 
601.790592  	0.364460 
603.719408  	0.362906 
605.648224  	0.361137 
607.577040  	0.359743 
609.505856  	0.357873 
611.434672  	0.356596 
613.363488  	0.354541 
615.292304  	0.353368 
617.221120  	0.351571 
619.149936  	0.349868 
621.078752  	0.347722 
623.007568  	0.346787 
624.936384  	0.344998 
626.865200  	0.343235 
628.794016  	0.342157 
630.722832  	0.341950 
632.651648  	0.341584 
634.580464  	0.341322 
636.509280  	0.340928 
638.438096  	0.340670 
640.366912  	0.339483 
642.295728  	0.338809 
644.224544  	0.337151 
646.153360  	0.334072 
648.082176  	0.329266 
650.010992  	0.325713 
651.939808  	0.322726 
653.868624  	0.319076 
655.797440  	0.315269 
657.726256  	0.312072 
659.655072  	0.308544 
661.583888  	0.305342 
663.512704  	0.301500 
665.441520  	0.298824 
667.370336  	0.293723 
669.299152  	0.287617 
671.227968  	0.286490 
673.156784  	0.284015 
675.085600  	0.281119 
677.014416  	0.278844 
678.943232  	0.276803 
680.872048  	0.275201 
682.800864  	0.273595 
684.729680  	0.271907 
686.658496  	0.269814 
688.587312  	0.268176 
690.516128  	0.266616 
692.444944  	0.265561 
694.373760  	0.264391 
696.302576  	0.262291 
698.231392  	0.259848 
700.160208  	0.258179 
702.089024  	0.256244 
704.017840  	0.254347 
705.946656  	0.252037 
707.875472  	0.249738 
709.804288  	0.247303 
711.733104  	0.245366 
713.661920  	0.243621 
715.590736  	0.241902 
717.519552  	0.241161 
719.448368  	0.241089 
721.377184  	0.241168 
723.306000  	0.241165 
725.234816  	0.241109 
727.163632  	0.240664 
729.092448  	0.238770 
731.021264  	0.235932 
732.950080  	0.232920 
734.878896  	0.230235 
736.807712  	0.227776 
738.736528  	0.225458 
740.665344  	0.223410 
742.594160  	0.221682 
744.522976  	0.219971 
746.451792  	0.218368 
748.380608  	0.216738 
750.309424  	0.215836 
752.238240  	0.214850 
754.167056  	0.213785 
756.095872  	0.212424 
758.024688  	0.211501 
759.953504  	0.210721 
761.882320  	0.210690 
763.811136  	0.210839 
765.739952  	0.209672 
767.668768  	0.207270 
769.597584  	0.205137 
771.526400  	0.203931 
773.455216  	0.204468 
775.384032  	0.206883 
777.312848  	0.210625 
779.241664  	0.213816 
781.170480  	0.214134 
783.099296  	0.211389 
785.028112  	0.206634 
786.956928  	0.201264 
788.885744  	0.196695 
790.814560  	0.193392 
792.743376  	0.191310 
794.672192  	0.190085 
796.601008  	0.189149 
798.529824  	0.186579 
800.458640  	0.182587 
802.387456  	0.179192 
804.316272  	0.177119 
806.245088  	0.175842 
808.173904  	0.174895 
810.102720  	0.174304 
812.031536  	0.174081 
813.960352  	0.174201 
815.889168  	0.174022 
817.817984  	0.173872 
819.746800  	0.174236 
821.675616  	0.174222 
823.604432  	0.173875 
825.533248  	0.173450 
827.462064  	0.173081 
829.390880  	0.171974 
831.319696  	0.170542 
833.248512  	0.168685 
835.177328  	0.166838 
837.106144  	0.164919 
839.034960  	0.162273 
840.963776  	0.158843 
842.892592  	0.155233 
844.821408  	0.151871 
846.750224  	0.149240 
848.679040  	0.146832 
850.607856  	0.144877 
852.536672  	0.143356 
854.465488  	0.141771 
856.394304  	0.140316 
858.323120  	0.139161 
860.251936  	0.137242 
862.180752  	0.135092 
864.109568  	0.132885 
866.038384  	0.130843 
867.967200  	0.128986 
869.896016  	0.127296 
871.824832  	0.126367 
873.753648  	0.126163 
875.682464  	0.126541 
877.611280  	0.126806 
879.540096  	0.127323 
881.468912  	0.128886 
883.397728  	0.130166 
885.326544  	0.131183 
887.255360  	0.131172 
889.184176  	0.130222 
891.112992  	0.128458 
893.041808  	0.126912 
894.970624  	0.124920 
896.899440  	0.121990 
898.828256  	0.118275 
900.757072  	0.114864 
902.685888  	0.112335 
904.614704  	0.110639 
906.543520  	0.110559 
908.472336  	0.111560 
910.401152  	0.113566 
912.329968  	0.115918 
914.258784  	0.118477 
916.187600  	0.120675 
918.116416  	0.122457 
920.045232  	0.123888 
921.974048  	0.124631 
923.902864  	0.124692 
925.831680  	0.124244 
927.760496  	0.124059 
929.689312  	0.124249 
931.618128  	0.124643 
933.546944  	0.124791 
935.475760  	0.124790 
937.404576  	0.124531 
939.333392  	0.123946 
941.262208  	0.123693 
943.191024  	0.124526 
945.119840  	0.127234 
947.048656  	0.131653 
948.977472  	0.137725 
950.906288  	0.145357 
952.835104  	0.153935 
954.763920  	0.162946 
956.692736  	0.171664 
958.621552  	0.179264 
960.550368  	0.184497 
962.479184  	0.187263 
964.408000  	0.186697 
966.336816  	0.182990 
968.265632  	0.176304 
970.194448  	0.167052 
972.123264  	0.156079 
974.052080  	0.144578 
975.980896  	0.133403 
977.909712  	0.122861 
979.838528  	0.113332 
981.767344  	0.105442 
983.696160  	0.099434 
985.624976  	0.095577 
987.553792  	0.093921 
989.482608  	0.094634 
991.411424  	0.097227 
993.340240  	0.101000 
995.269056  	0.105673 
997.197872  	0.110938 
999.126688  	0.116515 
1001.055504  	0.121875 
1002.984320  	0.127124 
1004.913136  	0.132456 
1006.841952  	0.137800 
1008.770768  	0.142267 
1010.699584  	0.145449 
1012.628400  	0.147208 
1014.557216  	0.147710 
1016.486032  	0.147862 
1018.414848  	0.147745 
1020.343664  	0.147293 
1022.272480  	0.146435 
1024.201296  	0.145240 
1026.130112  	0.142291 
1028.058928  	0.141068 
1029.987744  	0.143552 
1031.916560  	0.144821 
1033.845376  	0.145352 
1035.774192  	0.145901 
1037.703008  	0.147710 
1039.631824  	0.152593 
1041.560640  	0.159552 
1043.489456  	0.168944 
1045.418272  	0.180568 
1047.347088  	0.193738 
1049.275904  	0.206131 
1051.204720  	0.216281 
1053.133536  	0.222817 
1055.062352  	0.225937 
1056.991168  	0.226049 
1058.919984  	0.227781 
1060.848800  	0.229532 
1062.777616  	0.227929 
1064.706432  	0.222798 
1066.635248  	0.218738 
1068.564064  	0.218107 
1070.492880  	0.214387 
1072.421696  	0.208003 
1074.350512  	0.203244 
1076.279328  	0.201754 
1078.208144  	0.204024 
1080.136960  	0.208598 
1082.065776  	0.214074 
1083.994592  	0.218406 
1085.923408  	0.220458 
1087.852224  	0.219280 
1089.781040  	0.216173 
1091.709856  	0.212014 
1093.638672  	0.205717 
1095.567488  	0.196791 
1097.496304  	0.186816 
1099.425120  	0.176046 
1101.353936  	0.164963 
1103.282752  	0.154104 
1105.211568  	0.143897 
1107.140384  	0.133988 
1109.069200  	0.124567 
1110.998016  	0.115764 
1112.926832  	0.108013 
1114.855648  	0.100862 
1116.784464  	0.094004 
1118.713280  	0.087575 
1120.642096  	0.081566 
1122.570912  	0.075962 
1124.499728  	0.070816 
1126.428544  	0.066233 
1128.357360  	0.062088 
1130.286176  	0.058830 
1132.214992  	0.056035 
1134.143808  	0.053432 
1136.072624  	0.051156 
1138.001440  	0.049516 
1139.930256  	0.047455 
1141.859072  	0.045373 
1143.787888  	0.043365 
1145.716704  	0.041559 
1147.645520  	0.039705 
1149.574336  	0.038113 
1151.503152  	0.036911 
1153.431968  	0.036475 
1155.360784  	0.036636 
1157.289600  	0.037338 
1159.218416  	0.038304 
1161.147232  	0.039926 
1163.076048  	0.041753 
1165.004864  	0.043609 
1166.933680  	0.045320 
1168.862496  	0.047391 
1170.791312  	0.049379 
1172.720128  	0.051658 
1174.648944  	0.053879 
1176.577760  	0.056073 
1178.506576  	0.058143 
1180.435392  	0.060306 
1182.364208  	0.062474 
1184.293024  	0.064879 
1186.221840  	0.067438 
1188.150656  	0.070689 
1190.079472  	0.074365 
1192.008288  	0.078654 
1193.937104  	0.083963 
1195.865920  	0.090327 
1197.794736  	0.097064 
1199.723552  	0.104355 
1201.652368  	0.111842 
1203.581184  	0.119678 
1205.510000  	0.127439 
1207.438816  	0.134729 
1209.367632  	0.141502 
1211.296448  	0.147374 
1213.225264  	0.152264 
1215.154080  	0.155947 
1217.082896  	0.158891 
1219.011712  	0.160870 
1220.940528  	0.162334 
1222.869344  	0.163159 
1224.798160  	0.163260 
1226.726976  	0.162747 
1228.655792  	0.162169 
1230.584608  	0.161012 
1232.513424  	0.159442 
1234.442240  	0.157323 
1236.371056  	0.154480 
1238.299872  	0.150657 
1240.228688  	0.144700 
1242.157504  	0.138554 
1244.086320  	0.133622 
1246.015136  	0.127443 
1247.943952  	0.120346 
1249.872768  	0.113318 
1251.801584  	0.107348 
1253.730400  	0.101265 
1255.659216  	0.095301 
1257.588032  	0.089685 
1259.516848  	0.084353 
1261.445664  	0.079524 
1263.374480  	0.075115 
1265.303296  	0.071245 
1267.232112  	0.068236 
1269.160928  	0.065953 
1271.089744  	0.064228 
1273.018560  	0.063394 
1274.947376  	0.063153 
1276.876192  	0.063243 
1278.805008  	0.063183 
1280.733824  	0.062302 
1282.662640  	0.060662 
1284.591456  	0.058723 
1286.520272  	0.056840 
1288.449088  	0.055559 
1290.377904  	0.054996 
1292.306720  	0.055203 
1294.235536  	0.055242 
1296.164352  	0.054384 
1298.093168  	0.052604 
1300.021984  	0.050164 
1301.950800  	0.047518 
1303.879616  	0.045040 
1305.808432  	0.042236 
1307.737248  	0.039441 
1309.666064  	0.036883 
1311.594880  	0.034791 
1313.523696  	0.033099 
1315.452512  	0.032074 
1317.381328  	0.031468 
1319.310144  	0.031417 
1321.238960  	0.031631 
1323.167776  	0.032292 
1325.096592  	0.033039 
1327.025408  	0.033552 
1328.954224  	0.033537 
1330.883040  	0.033134 
1332.811856  	0.032371 
1334.740672  	0.031772 
1336.669488  	0.031260 
1338.598304  	0.030751 
1340.527120  	0.029771 
1342.455936  	0.029226 
1344.384752  	0.029108 
1346.313568  	0.029275 
1348.242384  	0.029755 
1350.171200  	0.030763 
1352.100016  	0.031983 
1354.028832  	0.033401 
1355.957648  	0.034741 
1357.886464  	0.036448 
1359.815280  	0.038239 
1361.744096  	0.039704 
1363.672912  	0.040547 
1365.601728  	0.041829 
1367.530544  	0.042972 
1369.459360  	0.043138 
1371.388176  	0.042999 
1373.316992  	0.041939 
1375.245808  	0.039185 
1377.174624  	0.036919 
1379.103440  	0.034400 
1381.032256  	0.032060 
1382.961072  	0.030388 
1384.889888  	0.029801 
1386.818704  	0.028950 
1388.747520  	0.027433 
1390.676336  	0.025740 
1392.605152  	0.022958 
1394.533968  	0.020979 
1396.462784  	0.023366 
1398.391600  	0.024639 
1400.320416  	0.024060 
1402.249232  	0.024355 
1404.178048  	0.024564 
1406.106864  	0.024793 
1408.035680  	0.026402 
1409.964496  	0.028434 
1411.893312  	0.030893 
1413.822128  	0.033645 
1415.750944  	0.036703 
1417.679760  	0.038713 
1419.608576  	0.038641 
1421.537392  	0.039280 
1423.466208  	0.039501 
1425.395024  	0.038087 
1427.323840  	0.037261 
1429.252656  	0.035357 
1431.181472  	0.033790 
1433.110288  	0.033638 
1435.039104  	0.034436 
1436.967920  	0.033571 
1438.896736  	0.034122 
1440.825552  	0.035252 
1442.754368  	0.035762 
1444.683184  	0.036009 
1446.612000  	0.036030 
1448.540816  	0.034858 
1450.469632  	0.035149 
1452.398448  	0.035863 
1454.327264  	0.037167 
1456.256080  	0.037304 
1458.184896  	0.034768 
1460.113712  	0.035516 
1462.042528  	0.037155 
1463.971344  	0.037328 
1465.900160  	0.037159 
1467.828976  	0.039043 
1469.757792  	0.042019 
1471.686608  	0.044763 
1473.615424  	0.048340 
1475.544240  	0.053066 
1477.473056  	0.057662 
1479.401872  	0.061235 
1481.330688  	0.063904 
1483.259504  	0.065713 
1485.188320  	0.067363 
1487.117136  	0.067628 
1489.045952  	0.066761 
1490.974768  	0.064059 
1492.903584  	0.062836 
1494.832400  	0.060907 
1496.761216  	0.055778 
1498.690032  	0.050468 
1500.618848  	0.046762 
1502.547664  	0.044227 
1504.476480  	0.042673 
1506.405296  	0.037745 
1508.334112  	0.032377 
1510.262928  	0.032390 
1512.191744  	0.031573 
1514.120560  	0.031366 
1516.049376  	0.031148 
1517.978192  	0.030654 
1519.907008  	0.032590 
1521.835824  	0.032983 
1523.764640  	0.035706 
1525.693456  	0.038659 
1527.622272  	0.040122 
1529.551088  	0.041052 
1531.479904  	0.041391 
1533.408720  	0.038410 
1535.337536  	0.035626 
1537.266352  	0.035592 
1539.195168  	0.031804 
1541.123984  	0.025270 
1543.052800  	0.024893 
1544.981616  	0.024059 
1546.910432  	0.023947 
1548.839248  	0.024402 
1550.768064  	0.024171 
1552.696880  	0.024849 
1554.625696  	0.025594 
1556.554512  	0.027211 
1558.483328  	0.027197 
1560.412144  	0.026861 
1562.340960  	0.032145 
1564.269776  	0.035571 
1566.198592  	0.039642 
1568.127408  	0.043422 
1570.056224  	0.047160 
1571.985040  	0.052124 
1573.913856  	0.056621 
1575.842672  	0.057981 
1577.771488  	0.059139 
1579.700304  	0.060395 
1581.629120  	0.060318 
1583.557936  	0.059864 
1585.486752  	0.060412 
1587.415568  	0.062070 
1589.344384  	0.065392 
1591.273200  	0.070036 
1593.202016  	0.075796 
1595.130832  	0.081721 
1597.059648  	0.088003 
1598.988464  	0.093465 
1600.917280  	0.098309 
1602.846096  	0.101523 
1604.774912  	0.103679 
1606.703728  	0.104077 
1608.632544  	0.103539 
1610.561360  	0.101894 
1612.490176  	0.100907 
1614.418992  	0.099931 
1616.347808  	0.098177 
1618.276624  	0.097986 
1620.205440  	0.101279 
1622.134256  	0.104006 
1624.063072  	0.108263 
1625.991888  	0.113450 
1627.920704  	0.119776 
1629.849520  	0.127262 
1631.778336  	0.135086 
1633.707152  	0.141306 
1635.635968  	0.148104 
1637.564784  	0.155582 
1639.493600  	0.161736 
1641.422416  	0.166269 
1643.351232  	0.170473 
1645.280048  	0.172084 
1647.208864  	0.172278 
1649.137680  	0.173515 
1651.066496  	0.174997 
1652.995312  	0.170523 
1654.924128  	0.168273 
1656.852944  	0.168447 
1658.781760  	0.167212 
1660.710576  	0.164842 
1662.639392  	0.160946 
1664.568208  	0.157593 
1666.497024  	0.155998 
1668.425840  	0.152044 
1670.354656  	0.146281 
1672.283472  	0.143472 
1674.212288  	0.141245 
1676.141104  	0.136919 
1678.069920  	0.135872 
1679.998736  	0.134921 
1681.927552  	0.134543 
1683.856368  	0.131650 
1685.785184  	0.129893 
1687.714000  	0.130957 
1689.642816  	0.130639 
1691.571632  	0.129771 
1693.500448  	0.129571 
1695.429264  	0.126773 
1697.358080  	0.124300 
1699.286896  	0.122848 
1701.215712  	0.117891 
1703.144528  	0.117475 
1705.073344  	0.114582 
1707.002160  	0.109593 
1708.930976  	0.106042 
1710.859792  	0.101245 
1712.788608  	0.095835 
1714.717424  	0.089207 
1716.646240  	0.080583 
1718.575056  	0.068635 
1720.503872  	0.061849 
1722.432688  	0.056273 
1724.361504  	0.048448 
1726.290320  	0.042255 
1728.219136  	0.037027 
1730.147952  	0.032138 
1732.076768  	0.028774 
1734.005584  	0.022923 
1735.934400  	0.017895 
1737.863216  	0.018423 
1739.792032  	0.015525 
1741.720848  	0.013940 
1743.649664  	0.012918 
1745.578480  	0.012425 
1747.507296  	0.011448 
1749.436112  	0.010285 
1751.364928  	0.008583 
1753.293744  	0.008463 
1755.222560  	0.008862 
1757.151376  	0.007953 
1759.080192  	0.007656 
1761.009008  	0.007461 
1762.937824  	0.005821 
1764.866640  	0.006183 
1766.795456  	0.006498 
1768.724272  	0.006093 
1770.653088  	0.005694 
1772.581904  	0.003696 
1774.510720  	0.003453 
1776.439536  	0.004405 
1778.368352  	0.004622 
1780.297168  	0.004260 
1782.225984  	0.003678 
1784.154800  	0.003920 
1786.083616  	0.003392 
1788.012432  	0.004042 
1789.941248  	0.004524 
1791.870064  	0.003521 
1793.798880  	0.002054 
1795.727696  	0.003053 
1797.656512  	0.003156 
1799.585328  	0.003129 
1801.514144  	0.002555 
1803.442960  	0.002777 
1805.371776  	0.002727 
1807.300592  	0.002816 
1809.229408  	0.002490 
1811.158224  	0.002064 
1813.087040  	0.001812 
1815.015856  	0.002402 
1816.944672  	0.002240 
1818.873488  	0.002186 
1820.802304  	0.002163 
1822.731120  	0.002890 
1824.659936  	0.002231 
1826.588752  	0.001694 
1828.517568  	0.001821 
1830.446384  	0.001269 
1832.375200  	0.001227 
1834.304016  	0.001916 
1836.232832  	0.001964 
1838.161648  	0.002030 
1840.090464  	0.001909 
1842.019280  	0.002582 
1843.948096  	0.001557 
1845.876912  	0.001071 
1847.805728  	0.001450 
1849.734544  	0.001596 
1851.663360  	0.001516 
1853.592176  	0.001533 
1855.520992  	0.001484 
1857.449808  	0.001732 
1859.378624  	0.001559 
1861.307440  	0.001456 
1863.236256  	0.001270 
1865.165072  	0.001564 
1867.093888  	0.001677 
1869.022704  	0.001041 
1870.951520  	0.000560 
1872.880336  	0.001276 
1874.809152  	0.001201 
1876.737968  	0.001459 
1878.666784  	0.001158 
1880.595600  	0.001282 
1882.524416  	0.001182 
1884.453232  	0.001360 
1886.382048  	0.001100 
1888.310864  	0.001270 
1890.239680  	0.000688 
1892.168496  	0.000944 
1894.097312  	0.000967 
1896.026128  	0.000902 
1897.954944  	0.000954 
1899.883760  	0.001098 
1901.812576  	0.000580 
1903.741392  	0.000508 
1905.670208  	0.000654 
1907.599024  	0.001091 
1909.527840  	0.000709 
1911.456656  	0.000929 
1913.385472  	0.000981 
1915.314288  	0.001518 
1917.243104  	0.001300 
1919.171920  	0.000872 
1921.100736  	0.000792 
1923.029552  	0.001123 
1924.958368  	0.000871 
1926.887184  	0.001089 
1928.816000  	0.000668 
1930.744816  	0.000915 
1932.673632  	0.000537 
1934.602448  	0.000525 
1936.531264  	0.001073 
1938.460080  	0.001891 
1940.388896  	0.001433 
1942.317712  	0.000874 
1944.246528  	0.000124 
1946.175344  	0.000844 
1948.104160  	0.000970 
1950.032976  	0.001171 
1951.961792  	0.001149 
1953.890608  	0.001519 
1955.819424  	0.000902 
1957.748240  	0.001153 
1959.677056  	0.001104 
1961.605872  	0.001730 
1963.534688  	0.001791 
1965.463504  	0.002973 
1967.392320  	0.002054 
1969.321136  	0.001773 
1971.249952  	0.001705 
1973.178768  	0.002804 
1975.107584  	0.001713 
1977.036400  	0.002277 
1978.965216  	0.003460 
1980.894032  	0.003110 
1982.822848  	0.001618 
1984.751664  	0.001970 
1986.680480  	0.001787 
1988.609296  	0.002557 
1990.538112  	0.002299 
1992.466928  	0.002493 
1994.395744  	0.001183 
1996.324560  	0.001023 
1998.253376  	0.000787 
2000.182192  	0.000763 
2002.111008  	0.000682 
2004.039824  	0.001776 
2005.968640  	0.001455 
2007.897456  	0.002204 
2009.826272  	0.002203 
2011.755088  	0.002180 
2013.683904  	0.001094 
2015.612720  	0.000983 
2017.541536  	0.000770 
2019.470352  	0.001387 
2021.399168  	0.000863 
2023.327984  	0.001157 
2025.256800  	0.001916 
2027.185616  	0.002968 
2029.114432  	0.002525 
2031.043248  	0.003314 
2032.972064  	0.002925 
2034.900880  	0.002648 
2036.829696  	0.001667 
2038.758512  	0.002794 
2040.687328  	0.002144 
2042.616144  	0.002232 
2044.544960  	0.002069 
2046.473776  	0.002431 
2048.402592  	0.001696 
2050.331408  	0.001547 
2052.260224  	0.000990 
2054.189040  	0.000770 
2056.117856  	0.000505 
2058.046672  	0.001057 
2059.975488  	0.000325 
2061.904304  	0.000281 
2063.833120  	-0.000029 
2065.761936  	-0.000170 
2067.690752  	-0.000431 
2069.619568  	0.000392 
2071.548384  	0.000706 
2073.477200  	0.000630 
2075.406016  	0.000947 
2077.334832  	0.001609 
2079.263648  	0.001062 
2081.192464  	0.000960 
2083.121280  	0.000725 
2085.050096  	0.000266 
2086.978912  	0.000042 
2088.907728  	0.000682 
2090.836544  	0.000809 
2092.765360  	0.000948 
2094.694176  	0.001006 
2096.622992  	0.001061 
2098.551808  	0.001110 
2100.480624  	0.001706 
2102.409440  	0.001575 
2104.338256  	0.001431 
2106.267072  	0.001529 
2108.195888  	0.001700 
2110.124704  	0.001369 
2112.053520  	0.001545 
2113.982336  	0.001660 
2115.911152  	0.001602 
2117.839968  	0.001239 
2119.768784  	0.001028 
2121.697600  	0.000715 
2123.626416  	0.000856 
2125.555232  	0.000454 
2127.484048  	0.000679 
2129.412864  	0.000583 
2131.341680  	0.000385 
2133.270496  	-0.000057 
2135.199312  	0.000580 
2137.128128  	0.001243 
2139.056944  	0.001663 
2140.985760  	0.001144 
2142.914576  	0.001225 
2144.843392  	0.000960 
2146.772208  	0.000632 
2148.701024  	0.000483 
2150.629840  	0.001765 
2152.558656  	0.002225 
2154.487472  	0.002329 
2156.416288  	0.001253 
2158.345104  	0.002055 
2160.273920  	0.003430 
2162.202736  	0.004058 
2164.131552  	0.003321 
2166.060368  	0.003846 
2167.989184  	0.004926 
2169.918000  	0.004787 
2171.846816  	0.003460 
2173.775632  	0.003256 
2175.704448  	0.003183 
2177.633264  	0.002908 
2179.562080  	0.002056 
2181.490896  	0.002572 
2183.419712  	0.001832 
2185.348528  	0.001419 
2187.277344  	0.002339 
2189.206160  	0.002973 
2191.134976  	0.002105 
2193.063792  	0.001945 
2194.992608  	0.001912 
2196.921424  	0.002222 
2198.850240  	0.002395 
2200.779056  	0.002098 
2202.707872  	0.001362 
2204.636688  	0.001229 
2206.565504  	0.001679 
2208.494320  	0.002033 
2210.423136  	0.001018 
2212.351952  	0.000914 
2214.280768  	0.000957 
2216.209584  	0.001390 
2218.138400  	0.000998 
2220.067216  	0.000924 
2221.996032  	0.001322 
2223.924848  	0.002300 
2225.853664  	0.002183 
2227.782480  	0.001801 
2229.711296  	0.000750 
2231.640112  	0.000419 
2233.568928  	0.000362 
2235.497744  	0.000644 
2237.426560  	0.000263 
2239.355376  	0.000615 
2241.284192  	0.000687 
2243.213008  	0.000769 
2245.141824  	0.000702 
2247.070640  	0.000852 
2248.999456  	0.000663 
2250.928272  	0.000612 
2252.857088  	0.000206 
2254.785904  	0.000029 
2256.714720  	-0.000537 
2258.643536  	-0.000792 
2260.572352  	-0.000696 
2262.501168  	-0.000238 
2264.429984  	0.000115 
2266.358800  	0.000490 
2268.287616  	0.000502 
2270.216432  	0.000437 
2272.145248  	0.000192 
2274.074064  	0.000177 
2276.002880  	0.000285 
2277.931696  	0.000531 
2279.860512  	0.000316 
2281.789328  	0.000385 
2283.718144  	0.000422 
2285.646960  	0.000482 
2287.575776  	0.000508 
2289.504592  	0.000194 
2291.433408  	-0.000262 
2293.362224  	-0.000167 
2295.291040  	0.000070 
2297.219856  	0.000208 
2299.148672  	0.000028 
2301.077488  	0.000184 
2303.006304  	0.000210 
2304.935120  	0.000200 
2306.863936  	0.000055 
2308.792752  	-0.000063 
2310.721568  	-0.000473 
2312.650384  	-0.000660 
2314.579200  	-0.000786 
2316.508016  	-0.001005 
2318.436832  	-0.001591 
2320.365648  	-0.002281 
2322.294464  	-0.002827 
2324.223280  	-0.003461 
2326.152096  	-0.004172 
2328.080912  	-0.004725 
2330.009728  	-0.005595 
2331.938544  	-0.006540 
2333.867360  	-0.007056 
2335.796176  	-0.007370 
2337.724992  	-0.007825 
2339.653808  	-0.007776 
2341.582624  	-0.008185 
2343.511440  	-0.008515 
2345.440256  	-0.008302 
2347.369072  	-0.005801 
2349.297888  	-0.003336 
2351.226704  	-0.003691 
2353.155520  	-0.006151 
2355.084336  	-0.008409 
2357.013152  	-0.009835 
2358.941968  	-0.010359 
2360.870784  	-0.011659 
2362.799600  	-0.011527 
2364.728416  	-0.011401 
2366.657232  	-0.010269 
2368.586048  	-0.008660 
2370.514864  	-0.007361 
2372.443680  	-0.006327 
2374.372496  	-0.004975 
2376.301312  	-0.003667 
2378.230128  	-0.002585 
2380.158944  	-0.001981 
2382.087760  	-0.001387 
2384.016576  	-0.000966 
2385.945392  	-0.000815 
2387.874208  	-0.000921 
2389.803024  	-0.000962 
2391.731840  	-0.001039 
2393.660656  	-0.001058 
2395.589472  	-0.001024 
2397.518288  	-0.000857 
2399.447104  	-0.000995 
2401.375920  	-0.000932 
2403.304736  	-0.000933 
2405.233552  	-0.000776 
2407.162368  	-0.000901 
2409.091184  	-0.000888 
2411.020000  	-0.000872 
2412.948816  	-0.000902 
2414.877632  	-0.000918 
2416.806448  	-0.000766 
2418.735264  	-0.000808 
2420.664080  	-0.000936 
2422.592896  	-0.000917 
2424.521712  	-0.000881 
2426.450528  	-0.001044 
2428.379344  	-0.000905 
2430.308160  	-0.000727 
2432.236976  	-0.000799 
2434.165792  	-0.000970 
2436.094608  	-0.000970 
2438.023424  	-0.000832 
2439.952240  	-0.000537 
2441.881056  	-0.000501 
2443.809872  	-0.000495 
2445.738688  	-0.000325 
2447.667504  	-0.000129 
2449.596320  	-0.000236 
2451.525136  	-0.000168 
2453.453952  	-0.000185 
2455.382768  	-0.000315 
2457.311584  	-0.000490 
2459.240400  	-0.000454 
2461.169216  	-0.000382 
2463.098032  	-0.000367 
2465.026848  	-0.000418 
2466.955664  	-0.000434 
2468.884480  	-0.000631 
2470.813296  	-0.000821 
2472.742112  	-0.000706 
2474.670928  	-0.000525 
2476.599744  	-0.000537 
2478.528560  	-0.000482 
2480.457376  	-0.000537 
2482.386192  	-0.000555 
2484.315008  	-0.000466 
2486.243824  	-0.000354 
2488.172640  	-0.000297 
2490.101456  	-0.000025 
2492.030272  	0.000033 
2493.959088  	-0.000007 
2495.887904  	0.000027 
2497.816720  	0.000080 
2499.745536  	-0.000019 
2501.674352  	0.000071 
2503.603168  	0.000285 
2505.531984  	0.000238 
2507.460800  	-0.000047 
2509.389616  	0.000099 
2511.318432  	0.000310 
2513.247248  	0.000489 
2515.176064  	0.000586 
2517.104880  	0.000602 
2519.033696  	0.000418 
2520.962512  	0.000469 
2522.891328  	0.000513 
2524.820144  	0.000374 
2526.748960  	0.000472 
2528.677776  	0.000767 
2530.606592  	0.000838 
2532.535408  	0.000693 
2534.464224  	0.000681 
2536.393040  	0.000833 
2538.321856  	0.000955 
2540.250672  	0.001079 
2542.179488  	0.001148 
2544.108304  	0.001065 
2546.037120  	0.000870 
2547.965936  	0.000803 
2549.894752  	0.000875 
2551.823568  	0.001100 
2553.752384  	0.001361 
2555.681200  	0.001571 
2557.610016  	0.001374 
2559.538832  	0.001401 
2561.467648  	0.001730 
2563.396464  	0.001825 
2565.325280  	0.001852 
2567.254096  	0.001769 
2569.182912  	0.001774 
2571.111728  	0.001836 
2573.040544  	0.001857 
2574.969360  	0.002039 
2576.898176  	0.002175 
2578.826992  	0.002008 
2580.755808  	0.001917 
2582.684624  	0.002146 
2584.613440  	0.002319 
2586.542256  	0.002339 
2588.471072  	0.002407 
2590.399888  	0.002507 
2592.328704  	0.002482 
2594.257520  	0.002375 
2596.186336  	0.002420 
2598.115152  	0.002451 
2600.043968  	0.002334 
2601.972784  	0.002516 
2603.901600  	0.002648 
2605.830416  	0.002668 
2607.759232  	0.002744 
2609.688048  	0.002987 
2611.616864  	0.003187 
2613.545680  	0.003181 
2615.474496  	0.003148 
2617.403312  	0.003209 
2619.332128  	0.003312 
2621.260944  	0.003320 
2623.189760  	0.003265 
2625.118576  	0.003355 
2627.047392  	0.003415 
2628.976208  	0.003489 
2630.905024  	0.003477 
2632.833840  	0.003472 
2634.762656  	0.003670 
2636.691472  	0.003780 
2638.620288  	0.003871 
2640.549104  	0.004000 
2642.477920  	0.003981 
2644.406736  	0.004121 
2646.335552  	0.004218 
2648.264368  	0.004284 
2650.193184  	0.004351 
2652.122000  	0.004468 
2654.050816  	0.004622 
2655.979632  	0.004780 
2657.908448  	0.004830 
2659.837264  	0.004879 
2661.766080  	0.004951 
2663.694896  	0.005012 
2665.623712  	0.004975 
2667.552528  	0.005129 
2669.481344  	0.005278 
2671.410160  	0.005297 
2673.338976  	0.005334 
2675.267792  	0.005463 
2677.196608  	0.005635 
2679.125424  	0.005768 
2681.054240  	0.005820 
2682.983056  	0.005925 
2684.911872  	0.005949 
2686.840688  	0.006012 
2688.769504  	0.006127 
2690.698320  	0.006120 
2692.627136  	0.006138 
2694.555952  	0.006229 
2696.484768  	0.006319 
2698.413584  	0.006343 
2700.342400  	0.006366 
2702.271216  	0.006540 
2704.200032  	0.006727 
2706.128848  	0.006804 
2708.057664  	0.006800 
2709.986480  	0.006951 
2711.915296  	0.007130 
2713.844112  	0.007191 
2715.772928  	0.007130 
2717.701744  	0.007170 
2719.630560  	0.007359 
2721.559376  	0.007521 
2723.488192  	0.007652 
2725.417008  	0.007780 
2727.345824  	0.007869 
2729.274640  	0.007830 
2731.203456  	0.007814 
2733.132272  	0.008032 
2735.061088  	0.008178 
2736.989904  	0.008249 
2738.918720  	0.008236 
2740.847536  	0.008270 
2742.776352  	0.008232 
2744.705168  	0.008325 
2746.633984  	0.008439 
2748.562800  	0.008455 
2750.491616  	0.008491 
2752.420432  	0.008606 
2754.349248  	0.008596 
2756.278064  	0.008589 
2758.206880  	0.008479 
2760.135696  	0.008413 
2762.064512  	0.008492 
2763.993328  	0.008601 
2765.922144  	0.008576 
2767.850960  	0.008561 
2769.779776  	0.008569 
2771.708592  	0.008624 
2773.637408  	0.008539 
2775.566224  	0.008473 
2777.495040  	0.008412 
2779.423856  	0.008430 
2781.352672  	0.008515 
2783.281488  	0.008516 
2785.210304  	0.008451 
2787.139120  	0.008440 
2789.067936  	0.008397 
2790.996752  	0.008367 
2792.925568  	0.008287 
2794.854384  	0.008291 
2796.783200  	0.008259 
2798.712016  	0.008182 
2800.640832  	0.008084 
2802.569648  	0.008221 
2804.498464  	0.008324 
2806.427280  	0.008225 
2808.356096  	0.008116 
2810.284912  	0.008135 
2812.213728  	0.008210 
2814.142544  	0.008140 
2816.071360  	0.008046 
2818.000176  	0.007921 
2819.928992  	0.007932 
2821.857808  	0.007937 
2823.786624  	0.007705 
2825.715440  	0.007601 
2827.644256  	0.007521 
2829.573072  	0.007374 
2831.501888  	0.007146 
2833.430704  	0.006825 
2835.359520  	0.006508 
2837.288336  	0.006269 
2839.217152  	0.005920 
2841.145968  	0.005538 
2843.074784  	0.005161 
2845.003600  	0.004779 
2846.932416  	0.004385 
2848.861232  	0.003997 
2850.790048  	0.003559 
2852.718864  	0.003089 
2854.647680  	0.002628 
2856.576496  	0.002115 
2858.505312  	0.001484 
2860.434128  	0.000875 
2862.362944  	0.000177 
2864.291760  	-0.000629 
2866.220576  	-0.001235 
2868.149392  	-0.001453 
2870.078208  	-0.001599 
2872.007024  	-0.001667 
2873.935840  	-0.001674 
2875.864656  	-0.001762 
2877.793472  	-0.001996 
2879.722288  	-0.002293 
2881.651104  	-0.002753 
2883.579920  	-0.003034 
2885.508736  	-0.002970 
2887.437552  	-0.002743 
2889.366368  	-0.002695 
2891.295184  	-0.003036 
2893.224000  	-0.003321 
2895.152816  	-0.003194 
2897.081632  	-0.003463 
2899.010448  	-0.005154 
2900.939264  	-0.006715 
2902.868080  	-0.005531 
2904.796896  	-0.004201 
2906.725712  	-0.003689 
2908.654528  	-0.003234 
2910.583344  	-0.002971 
2912.512160  	-0.002496 
2914.440976  	-0.001434 
2916.369792  	-0.000677 
2918.298608  	-0.000249 
2920.227424  	0.000051 
2922.156240  	0.000475 
2924.085056  	0.001110 
2926.013872  	0.001952 
2927.942688  	0.002955 
2929.871504  	0.003899 
2931.800320  	0.004619 
2933.729136  	0.005314 
2935.657952  	0.005772 
2937.586768  	0.006261 
2939.515584  	0.006858 
2941.444400  	0.007187 
2943.373216  	0.007251 
2945.302032  	0.007471 
2947.230848  	0.007561 
2949.159664  	0.007191 
2951.088480  	0.006645 
2953.017296  	0.006173 
2954.946112  	0.005622 
2956.874928  	0.004961 
2958.803744  	0.004208 
2960.732560  	0.003680 
2962.661376  	0.003055 
2964.590192  	0.002071 
2966.519008  	0.000952 
2968.447824  	-0.000015 
2970.376640  	-0.000822 
2972.305456  	-0.001351 
2974.234272  	-0.001009 
2976.163088  	-0.000525 
2978.091904  	-0.000596 
2980.020720  	-0.000731 
2981.949536  	-0.000458 
2983.878352  	-0.000566 
2985.807168  	-0.001468 
2987.735984  	-0.002239 
2989.664800  	-0.001833 
2991.593616  	0.000986 
2993.522432  	0.002891 
2995.451248  	0.003436 
2997.380064  	0.004189 
2999.308880  	0.005246 
3001.237696  	0.006445 
3003.166512  	0.007811 
3005.095328  	0.009127 
3007.024144  	0.010491 
3008.952960  	0.011904 
3010.881776  	0.013175 
3012.810592  	0.014494 
3014.739408  	0.015819 
3016.668224  	0.016836 
3018.597040  	0.017898 
3020.525856  	0.019000 
3022.454672  	0.019997 
3024.383488  	0.020908 
3026.312304  	0.021789 
3028.241120  	0.022794 
3030.169936  	0.023593 
3032.098752  	0.024235 
3034.027568  	0.025011 
3035.956384  	0.025796 
3037.885200  	0.026572 
3039.814016  	0.027128 
3041.742832  	0.027730 
3043.671648  	0.028124 
3045.600464  	0.028574 
3047.529280  	0.029114 
3049.458096  	0.029584 
3051.386912  	0.030209 
3053.315728  	0.030750 
3055.244544  	0.031218 
3057.173360  	0.031774 
3059.102176  	0.032249 
3061.030992  	0.032824 
3062.959808  	0.033506 
3064.888624  	0.033945 
3066.817440  	0.034459 
3068.746256  	0.035188 
3070.675072  	0.035856 
3072.603888  	0.036471 
3074.532704  	0.037046 
3076.461520  	0.037734 
3078.390336  	0.038331 
3080.319152  	0.038916 
3082.247968  	0.039601 
3084.176784  	0.040187 
3086.105600  	0.040772 
3088.034416  	0.041441 
3089.963232  	0.042155 
3091.892048  	0.042601 
3093.820864  	0.043142 
3095.749680  	0.043761 
3097.678496  	0.044379 
3099.607312  	0.045166 
3101.536128  	0.046050 
3103.464944  	0.046881 
3105.393760  	0.047483 
3107.322576  	0.048184 
3109.251392  	0.048816 
3111.180208  	0.049306 
3113.109024  	0.049805 
3115.037840  	0.050315 
3116.966656  	0.050834 
3118.895472  	0.051351 
3120.824288  	0.051962 
3122.753104  	0.052568 
3124.681920  	0.053024 
3126.610736  	0.053448 
3128.539552  	0.054021 
3130.468368  	0.054629 
3132.397184  	0.055117 
3134.326000  	0.055717 
3136.254816  	0.056169 
3138.183632  	0.056560 
3140.112448  	0.056930 
3142.041264  	0.057391 
3143.970080  	0.058003 
3145.898896  	0.058566 
3147.827712  	0.059060 
3149.756528  	0.059537 
3151.685344  	0.060045 
3153.614160  	0.060682 
3155.542976  	0.061303 
3157.471792  	0.061782 
3159.400608  	0.062351 
3161.329424  	0.062799 
3163.258240  	0.063202 
3165.187056  	0.063747 
3167.115872  	0.064244 
3169.044688  	0.064695 
3170.973504  	0.064940 
3172.902320  	0.065162 
3174.831136  	0.065739 
3176.759952  	0.066309 
3178.688768  	0.066477 
3180.617584  	0.066623 
3182.546400  	0.066914 
3184.475216  	0.067093 
3186.404032  	0.067194 
3188.332848  	0.067418 
3190.261664  	0.067749 
3192.190480  	0.067853 
3194.119296  	0.067762 
3196.048112  	0.067891 
3197.976928  	0.067796 
3199.905744  	0.067715 
3201.834560  	0.067741 
3203.763376  	0.067822 
3205.692192  	0.067894 
3207.621008  	0.067734 
3209.549824  	0.067589 
3211.478640  	0.067539 
3213.407456  	0.067552 
3215.336272  	0.067524 
3217.265088  	0.067425 
3219.193904  	0.067225 
3221.122720  	0.066965 
3223.051536  	0.066782 
3224.980352  	0.066771 
3226.909168  	0.066875 
3228.837984  	0.066683 
3230.766800  	0.066474 
3232.695616  	0.066474 
3234.624432  	0.066429 
3236.553248  	0.066329 
3238.482064  	0.066473 
3240.410880  	0.066525 
3242.339696  	0.066459 
3244.268512  	0.066285 
3246.197328  	0.066490 
3248.126144  	0.066802 
3250.054960  	0.066806 
3251.983776  	0.067013 
3253.912592  	0.067223 
3255.841408  	0.067127 
3257.770224  	0.067210 
3259.699040  	0.067441 
3261.627856  	0.067632 
3263.556672  	0.067800 
3265.485488  	0.068040 
3267.414304  	0.068308 
3269.343120  	0.068687 
3271.271936  	0.068820 
3273.200752  	0.068823 
3275.129568  	0.068907 
3277.058384  	0.069098 
3278.987200  	0.069335 
3280.916016  	0.069589 
3282.844832  	0.069744 
3284.773648  	0.069921 
3286.702464  	0.070188 
3288.631280  	0.070383 
3290.560096  	0.070599 
3292.488912  	0.070939 
3294.417728  	0.071181 
3296.346544  	0.071358 
3298.275360  	0.071530 
3300.204176  	0.071909 
3302.132992  	0.072213 
3304.061808  	0.072379 
3305.990624  	0.072549 
3307.919440  	0.072787 
3309.848256  	0.073043 
3311.777072  	0.073444 
3313.705888  	0.073809 
3315.634704  	0.074310 
3317.563520  	0.074537 
3319.492336  	0.074566 
3321.421152  	0.074661 
3323.349968  	0.074915 
3325.278784  	0.075237 
3327.207600  	0.075348 
3329.136416  	0.075107 
3331.065232  	0.075094 
3332.994048  	0.075274 
3334.922864  	0.075440 
3336.851680  	0.075502 
3338.780496  	0.075597 
3340.709312  	0.075573 
3342.638128  	0.075478 
3344.566944  	0.075212 
3346.495760  	0.074910 
3348.424576  	0.074629 
3350.353392  	0.074377 
3352.282208  	0.074184 
3354.211024  	0.073956 
3356.139840  	0.073797 
3358.068656  	0.073715 
3359.997472  	0.073473 
3361.926288  	0.072969 
3363.855104  	0.072611 
3365.783920  	0.072458 
3367.712736  	0.072120 
3369.641552  	0.071895 
3371.570368  	0.071496 
3373.499184  	0.071042 
3375.428000  	0.070797 
3377.356816  	0.070559 
3379.285632  	0.070448 
3381.214448  	0.070122 
3383.143264  	0.069557 
3385.072080  	0.069091 
3387.000896  	0.068774 
3388.929712  	0.068586 
3390.858528  	0.068403 
3392.787344  	0.068080 
3394.716160  	0.067690 
3396.644976  	0.067396 
3398.573792  	0.066991 
3400.502608  	0.066888 
3402.431424  	0.066661 
3404.360240  	0.066076 
3406.289056  	0.065479 
3408.217872  	0.065143 
3410.146688  	0.064807 
3412.075504  	0.064504 
3414.004320  	0.064051 
3415.933136  	0.063652 
3417.861952  	0.063170 
3419.790768  	0.062726 
3421.719584  	0.062303 
3423.648400  	0.062021 
3425.577216  	0.061460 
3427.506032  	0.061059 
3429.434848  	0.060882 
3431.363664  	0.060370 
3433.292480  	0.059607 
3435.221296  	0.058997 
3437.150112  	0.058601 
3439.078928  	0.058234 
3441.007744  	0.057738 
3442.936560  	0.057295 
3444.865376  	0.056981 
3446.794192  	0.056127 
3448.723008  	0.055313 
3450.651824  	0.055021 
3452.580640  	0.054549 
3454.509456  	0.054137 
3456.438272  	0.053687 
3458.367088  	0.053161 
3460.295904  	0.052643 
3462.224720  	0.051900 
3464.153536  	0.051156 
3466.082352  	0.050621 
3468.011168  	0.049860 
3469.939984  	0.049282 
3471.868800  	0.048913 
3473.797616  	0.048191 
3475.726432  	0.047353 
3477.655248  	0.046779 
3479.584064  	0.046254 
3481.512880  	0.045570 
3483.441696  	0.044777 
3485.370512  	0.044306 
3487.299328  	0.043422 
3489.228144  	0.042725 
3491.156960  	0.042257 
3493.085776  	0.041706 
3495.014592  	0.041038 
3496.943408  	0.040354 
3498.872224  	0.039865 
3500.801040  	0.039525 
3502.729856  	0.038547 
3504.658672  	0.037767 
3506.587488  	0.037944 
3508.516304  	0.037558 
3510.445120  	0.036355 
3512.373936  	0.035796 
3514.302752  	0.035510 
3516.231568  	0.035253 
3518.160384  	0.034640 
3520.089200  	0.033944 
3522.018016  	0.033517 
3523.946832  	0.033005 
3525.875648  	0.032450 
3527.804464  	0.031775 
3529.733280  	0.031142 
3531.662096  	0.030731 
3533.590912  	0.030393 
3535.519728  	0.029922 
3537.448544  	0.029307 
3539.377360  	0.028968 
3541.306176  	0.028568 
3543.234992  	0.028312 
3545.163808  	0.027487 
3547.092624  	0.026376 
3549.021440  	0.026128 
3550.950256  	0.026197 
3552.879072  	0.025135 
3554.807888  	0.024538 
3556.736704  	0.024273 
3558.665520  	0.023770 
3560.594336  	0.023197 
3562.523152  	0.022910 
3564.451968  	0.022928 
3566.380784  	0.021704 
3568.309600  	0.019466 
3570.238416  	0.019745 
3572.167232  	0.020267 
3574.096048  	0.019670 
3576.024864  	0.018925 
3577.953680  	0.018600 
3579.882496  	0.017766 
3581.811312  	0.017237 
3583.740128  	0.017189 
3585.668944  	0.017113 
3587.597760  	0.014729 
3589.526576  	0.013367 
3591.455392  	0.013954 
3593.384208  	0.013588 
3595.313024  	0.012477 
3597.241840  	0.011906 
3599.170656  	0.011456 
3601.099472  	0.010362 
3603.028288  	0.009867 
3604.957104  	0.010251 
3606.885920  	0.009832 
3608.814736  	0.008117 
3610.743552  	0.007923 
3612.672368  	0.007105 
3614.601184  	0.005585 
3616.530000  	0.006118 
3618.458816  	0.004618 
3620.387632  	0.002269 
3622.316448  	0.002719 
3624.245264  	0.003271 
3626.174080  	0.003864 
3628.102896  	0.001764 
3630.031712  	-0.003614 
3631.960528  	-0.001648 
3633.889344  	-0.001594 
3635.818160  	-0.002290 
3637.746976  	-0.002615 
3639.675792  	-0.003156 
3641.604608  	-0.003501 
3643.533424  	-0.003394 
3645.462240  	-0.002677 
3647.391056  	-0.004766 
3649.319872  	-0.009558 
3651.248688  	-0.012468 
3653.177504  	-0.009493 
3655.106320  	-0.008815 
3657.035136  	-0.012208 
3658.963952  	-0.012031 
3660.892768  	-0.011583 
3662.821584  	-0.011762 
3664.750400  	-0.011587 
3666.679216  	-0.010498 
3668.608032  	-0.011150 
3670.536848  	-0.015325 
3672.465664  	-0.013344 
3674.394480  	-0.012336 
3676.323296  	-0.018629 
3678.252112  	-0.015986 
3680.180928  	-0.014218 
3682.109744  	-0.013662 
3684.038560  	-0.013340 
3685.967376  	-0.012083 
3687.896192  	-0.013129 
3689.825008  	-0.016746 
3691.753824  	-0.017012 
3693.682640  	-0.015028 
3695.611456  	-0.013791 
3697.540272  	-0.013207 
3699.469088  	-0.011912 
3701.397904  	-0.012574 
3703.326720  	-0.013054 
3705.255536  	-0.011277 
3707.184352  	-0.009879 
3709.113168  	-0.009864 
3711.041984  	-0.012179 
3712.970800  	-0.014039 
3714.899616  	-0.012131 
3716.828432  	-0.010298 
3718.757248  	-0.010108 
3720.686064  	-0.010238 
3722.614880  	-0.011099 
3724.543696  	-0.011112 
3726.472512  	-0.011622 
3728.401328  	-0.011221 
3730.330144  	-0.009604 
3732.258960  	-0.010081 
3734.187776  	-0.010639 
3736.116592  	-0.013408 
3738.045408  	-0.013127 
3739.974224  	-0.010760 
3741.903040  	-0.008448 
3743.831856  	-0.009938 
3745.760672  	-0.013909 
3747.689488  	-0.010130 
3749.618304  	-0.011146 
3751.547120  	-0.014684 
3753.475936  	-0.014531 
3755.404752  	-0.011434 
3757.333568  	-0.010523 
3759.262384  	-0.011633 
3761.191200  	-0.012254 
3763.120016  	-0.010222 
3765.048832  	-0.010687 
3766.977648  	-0.010901 
3768.906464  	-0.010903 
3770.835280  	-0.012640 
3772.764096  	-0.011541 
3774.692912  	-0.010471 
3776.621728  	-0.009778 
3778.550544  	-0.010403 
3780.479360  	-0.012319 
3782.408176  	-0.010996 
3784.336992  	-0.011043 
3786.265808  	-0.011539 
3788.194624  	-0.011350 
3790.123440  	-0.011164 
3792.052256  	-0.010909 
3793.981072  	-0.009828 
3795.909888  	-0.010495 
3797.838704  	-0.010962 
3799.767520  	-0.009490 
3801.696336  	-0.013360 
3803.625152  	-0.013325 
3805.553968  	-0.010664 
3807.482784  	-0.012924 
3809.411600  	-0.012349 
3811.340416  	-0.010885 
3813.269232  	-0.009461 
3815.198048  	-0.010522 
3817.126864  	-0.013433 
3819.055680  	-0.010689 
3820.984496  	-0.013049 
3822.913312  	-0.014715 
3824.842128  	-0.011365 
3826.770944  	-0.011480 
3828.699760  	-0.010914 
3830.628576  	-0.010015 
3832.557392  	-0.010675 
3834.486208  	-0.010168 
3836.415024  	-0.010365 
3838.343840  	-0.012090 
3840.272656  	-0.012363 
3842.201472  	-0.011465 
3844.130288  	-0.011761 
3846.059104  	-0.011047 
3847.987920  	-0.009921 
3849.916736  	-0.008401 
3851.845552  	-0.007417 
3853.774368  	-0.014686 
3855.703184  	-0.015755 
3857.632000  	-0.012808 
3859.560816  	-0.010654 
3861.489632  	-0.010135 
3863.418448  	-0.010924 
3865.347264  	-0.012360 
3867.276080  	-0.010444 
3869.204896  	-0.010592 
3871.133712  	-0.012990 
3873.062528  	-0.011516 
3874.991344  	-0.012812 
3876.920160  	-0.010947 
3878.848976  	-0.009461 
3880.777792  	-0.011571 
3882.706608  	-0.010906 
3884.635424  	-0.010258 
3886.564240  	-0.012944 
3888.493056  	-0.010978 
3890.421872  	-0.010626 
3892.350688  	-0.012985 
3894.279504  	-0.012138 
3896.208320  	-0.010310 
3898.137136  	-0.009690 
3900.065952  	-0.010612 
3901.994768  	-0.010847 
3903.923584  	-0.012341 
3905.852400  	-0.013298 
3907.781216  	-0.012025 
3909.710032  	-0.011218 
3911.638848  	-0.011013 
3913.567664  	-0.010537 
3915.496480  	-0.010199 
3917.425296  	-0.011292 
3919.354112  	-0.011897 
3921.282928  	-0.011500 
3923.211744  	-0.010744 
3925.140560  	-0.011341 
3927.069376  	-0.011120 
3928.998192  	-0.010585 
3930.927008  	-0.010781 
3932.855824  	-0.011725 
3934.784640  	-0.011806 
3936.713456  	-0.011286 
3938.642272  	-0.011102 
3940.571088  	-0.010586 
3942.499904  	-0.011096 
3944.428720  	-0.011527 
3946.357536  	-0.010720 
3948.286352  	-0.010901 
3950.215168  	-0.011342 
3952.143984  	-0.011275 
3954.072800  	-0.011042 
3956.001616  	-0.010965 
3957.930432  	-0.011041 
3959.859248  	-0.010980 
3961.788064  	-0.011156 
3963.716880  	-0.011381 
3965.645696  	-0.011206 
3967.574512  	-0.011056 
3969.503328  	-0.011139 
3971.432144  	-0.011352 
3973.360960  	-0.011396 
3975.289776  	-0.011527 
3977.218592  	-0.011459 
3979.147408  	-0.011346 
3981.076224  	-0.011333 
3983.005040  	-0.011260 
3984.933856  	-0.011188 
3986.862672  	-0.011318 
3988.791488  	-0.011218 
3990.720304  	-0.011261 
3992.649120  	-0.011360 
3994.577936  	-0.011448 
3996.506752  	-0.011406 
3998.435568  	-0.011400 
4000.364384  	-0.011400 