##TITLE=No Description
##DATA TYPE=INFRARED SPECTRUM
##XUNITS=1/CM
##YUNITS=Abs
399.264912  	0.605993 
401.193728  	0.585069 
403.122544  	0.613173 
405.051360  	0.599613 
406.980176  	0.585504 
408.908992  	0.576631 
410.837808  	0.581126 
412.766624  	0.579338 
414.695440  	0.589105 
416.624256  	0.581185 
418.553072  	0.559887 
420.481888  	0.560428 
422.410704  	0.571562 
424.339520  	0.568336 
426.268336  	0.566762 
428.197152  	0.566255 
430.125968  	0.567558 
432.054784  	0.554798 
433.983600  	0.545987 
435.912416  	0.545119 
437.841232  	0.549130 
439.770048  	0.540408 
441.698864  	0.535254 
443.627680  	0.532528 
445.556496  	0.533504 
447.485312  	0.531687 
449.414128  	0.538494 
451.342944  	0.537911 
453.271760  	0.535202 
455.200576  	0.532736 
457.129392  	0.538553 
459.058208  	0.536076 
460.987024  	0.540966 
462.915840  	0.539320 
464.844656  	0.538693 
466.773472  	0.535902 
468.702288  	0.535480 
470.631104  	0.533382 
472.559920  	0.536406 
474.488736  	0.535861 
476.417552  	0.535876 
478.346368  	0.531512 
480.275184  	0.529426 
482.204000  	0.523024 
484.132816  	0.523649 
486.061632  	0.527199 
487.990448  	0.530203 
489.919264  	0.526998 
491.848080  	0.527311 
493.776896  	0.522619 
495.705712  	0.519951 
497.634528  	0.518871 
499.563344  	0.516519 
501.492160  	0.510885 
503.420976  	0.513885 
505.349792  	0.515308 
507.278608  	0.515517 
509.207424  	0.513730 
511.136240  	0.517626 
513.065056  	0.517762 
514.993872  	0.517886 
516.922688  	0.519645 
518.851504  	0.523240 
520.780320  	0.521682 
522.709136  	0.519068 
524.637952  	0.515875 
526.566768  	0.516279 
528.495584  	0.515975 
530.424400  	0.516495 
532.353216  	0.512801 
534.282032  	0.507805 
536.210848  	0.500640 
538.139664  	0.496453 
540.068480  	0.492535 
541.997296  	0.486979 
543.926112  	0.480831 
545.854928  	0.477854 
547.783744  	0.473123 
549.712560  	0.468692 
551.641376  	0.465667 
553.570192  	0.463687 
555.499008  	0.460219 
557.427824  	0.456807 
559.356640  	0.452449 
561.285456  	0.448376 
563.214272  	0.443928 
565.143088  	0.441856 
567.071904  	0.438730 
569.000720  	0.434457 
570.929536  	0.430732 
572.858352  	0.428370 
574.787168  	0.424655 
576.715984  	0.423355 
578.644800  	0.419707 
580.573616  	0.415115 
582.502432  	0.410576 
584.431248  	0.407239 
586.360064  	0.403595 
588.288880  	0.401407 
590.217696  	0.398914 
592.146512  	0.396248 
594.075328  	0.392968 
596.004144  	0.391350 
597.932960  	0.389648 
599.861776  	0.388150 
601.790592  	0.385900 
603.719408  	0.384020 
605.648224  	0.382910 
607.577040  	0.382562 
609.505856  	0.381305 
611.434672  	0.379930 
613.363488  	0.377448 
615.292304  	0.375980 
617.221120  	0.374478 
619.149936  	0.373718 
621.078752  	0.372127 
623.007568  	0.370261 
624.936384  	0.368310 
626.865200  	0.366854 
628.794016  	0.365965 
630.722832  	0.365347 
632.651648  	0.364201 
634.580464  	0.364776 
636.509280  	0.365554 
638.438096  	0.365552 
640.366912  	0.364131 
642.295728  	0.362203 
644.224544  	0.359630 
646.153360  	0.357227 
648.082176  	0.353176 
650.010992  	0.349314 
651.939808  	0.345647 
653.868624  	0.342218 
655.797440  	0.338364 
657.726256  	0.334376 
659.655072  	0.329748 
661.583888  	0.325692 
663.512704  	0.321905 
665.441520  	0.319025 
667.370336  	0.312886 
669.299152  	0.305665 
671.227968  	0.304415 
673.156784  	0.302263 
675.085600  	0.299865 
677.014416  	0.297604 
678.943232  	0.295308 
680.872048  	0.293475 
682.800864  	0.291770 
684.729680  	0.290121 
686.658496  	0.288194 
688.587312  	0.287176 
690.516128  	0.285822 
692.444944  	0.284168 
694.373760  	0.282840 
696.302576  	0.281286 
698.231392  	0.278934 
700.160208  	0.276597 
702.089024  	0.274530 
704.017840  	0.272094 
705.946656  	0.269278 
707.875472  	0.267135 
709.804288  	0.265443 
711.733104  	0.263452 
713.661920  	0.261181 
715.590736  	0.259617 
717.519552  	0.258877 
719.448368  	0.258969 
721.377184  	0.259557 
723.306000  	0.260638 
725.234816  	0.261028 
727.163632  	0.260801 
729.092448  	0.259019 
731.021264  	0.255713 
732.950080  	0.252259 
734.878896  	0.249209 
736.807712  	0.246183 
738.736528  	0.243625 
740.665344  	0.241258 
742.594160  	0.239277 
744.522976  	0.237716 
746.451792  	0.236353 
748.380608  	0.235038 
750.309424  	0.233904 
752.238240  	0.232571 
754.167056  	0.231838 
756.095872  	0.230967 
758.024688  	0.230042 
759.953504  	0.229572 
761.882320  	0.230515 
763.811136  	0.231269 
765.739952  	0.230041 
767.668768  	0.227384 
769.597584  	0.225013 
771.526400  	0.223885 
773.455216  	0.225350 
775.384032  	0.229188 
777.312848  	0.234786 
779.241664  	0.239168 
781.170480  	0.239672 
783.099296  	0.236022 
785.028112  	0.230345 
786.956928  	0.224030 
788.885744  	0.218673 
790.814560  	0.215039 
792.743376  	0.212695 
794.672192  	0.211563 
796.601008  	0.210938 
798.529824  	0.208202 
800.458640  	0.203590 
802.387456  	0.199786 
804.316272  	0.197839 
806.245088  	0.196726 
808.173904  	0.195833 
810.102720  	0.195473 
812.031536  	0.195696 
813.960352  	0.196243 
815.889168  	0.196602 
817.817984  	0.196716 
819.746800  	0.197041 
821.675616  	0.197476 
823.604432  	0.197551 
825.533248  	0.197260 
827.462064  	0.197025 
829.390880  	0.196201 
831.319696  	0.194996 
833.248512  	0.193062 
835.177328  	0.190751 
837.106144  	0.188424 
839.034960  	0.185459 
840.963776  	0.181926 
842.892592  	0.178211 
844.821408  	0.174747 
846.750224  	0.171555 
848.679040  	0.168821 
850.607856  	0.166629 
852.536672  	0.164750 
854.465488  	0.163148 
856.394304  	0.161984 
858.323120  	0.160888 
860.251936  	0.159165 
862.180752  	0.157086 
864.109568  	0.154392 
866.038384  	0.152113 
867.967200  	0.150457 
869.896016  	0.148603 
871.824832  	0.147488 
873.753648  	0.147412 
875.682464  	0.148035 
877.611280  	0.148554 
879.540096  	0.149552 
881.468912  	0.151906 
883.397728  	0.153527 
885.326544  	0.154607 
887.255360  	0.154985 
889.184176  	0.154135 
891.112992  	0.152283 
893.041808  	0.150431 
894.970624  	0.147876 
896.899440  	0.144305 
898.828256  	0.139924 
900.757072  	0.135645 
902.685888  	0.132541 
904.614704  	0.130716 
906.543520  	0.130655 
908.472336  	0.132042 
910.401152  	0.134580 
912.329968  	0.137744 
914.258784  	0.140947 
916.187600  	0.143743 
918.116416  	0.146246 
920.045232  	0.147965 
921.974048  	0.148836 
923.902864  	0.149216 
925.831680  	0.148960 
927.760496  	0.148875 
929.689312  	0.149048 
931.618128  	0.149750 
933.546944  	0.150490 
935.475760  	0.150729 
937.404576  	0.150421 
939.333392  	0.149956 
941.262208  	0.149813 
943.191024  	0.151242 
945.119840  	0.155067 
947.048656  	0.161085 
948.977472  	0.168836 
950.906288  	0.178667 
952.835104  	0.189865 
954.763920  	0.201596 
956.692736  	0.212734 
958.621552  	0.222333 
960.550368  	0.228989 
962.479184  	0.232228 
964.408000  	0.231126 
966.336816  	0.226163 
968.265632  	0.217451 
970.194448  	0.205811 
972.123264  	0.192447 
974.052080  	0.178620 
975.980896  	0.164925 
977.909712  	0.152093 
979.838528  	0.140681 
981.767344  	0.131339 
983.696160  	0.124228 
985.624976  	0.119909 
987.553792  	0.118448 
989.482608  	0.119688 
991.411424  	0.123384 
993.340240  	0.128764 
995.269056  	0.135412 
997.197872  	0.142752 
999.126688  	0.150151 
1001.055504  	0.157620 
1002.984320  	0.164896 
1004.913136  	0.172140 
1006.841952  	0.179146 
1008.770768  	0.184892 
1010.699584  	0.189074 
1012.628400  	0.191883 
1014.557216  	0.193019 
1016.486032  	0.193292 
1018.414848  	0.192966 
1020.343664  	0.192388 
1022.272480  	0.191589 
1024.201296  	0.190324 
1026.130112  	0.187164 
1028.058928  	0.186266 
1029.987744  	0.189190 
1031.916560  	0.191341 
1033.845376  	0.192888 
1035.774192  	0.194722 
1037.703008  	0.197949 
1039.631824  	0.204798 
1041.560640  	0.214510 
1043.489456  	0.227065 
1045.418272  	0.242125 
1047.347088  	0.259149 
1049.275904  	0.274730 
1051.204720  	0.286864 
1053.133536  	0.294424 
1055.062352  	0.297485 
1056.991168  	0.296928 
1058.919984  	0.297795 
1060.848800  	0.298524 
1062.777616  	0.295695 
1064.706432  	0.289231 
1066.635248  	0.284007 
1068.564064  	0.281656 
1070.492880  	0.276388 
1072.421696  	0.268303 
1074.350512  	0.262570 
1076.279328  	0.260335 
1078.208144  	0.262309 
1080.136960  	0.267162 
1082.065776  	0.272611 
1083.994592  	0.276131 
1085.923408  	0.276907 
1087.852224  	0.274090 
1089.781040  	0.268943 
1091.709856  	0.262092 
1093.638672  	0.253211 
1095.567488  	0.241927 
1097.496304  	0.229232 
1099.425120  	0.215833 
1101.353936  	0.202685 
1103.282752  	0.189540 
1105.211568  	0.177023 
1107.140384  	0.165138 
1109.069200  	0.153936 
1110.998016  	0.143642 
1112.926832  	0.134062 
1114.855648  	0.125257 
1116.784464  	0.117121 
1118.713280  	0.109440 
1120.642096  	0.102207 
1122.570912  	0.095472 
1124.499728  	0.089137 
1126.428544  	0.083548 
1128.357360  	0.078605 
1130.286176  	0.074503 
1132.214992  	0.071000 
1134.143808  	0.067981 
1136.072624  	0.065357 
1138.001440  	0.063167 
1139.930256  	0.060696 
1141.859072  	0.058236 
1143.787888  	0.055631 
1145.716704  	0.053305 
1147.645520  	0.051037 
1149.574336  	0.049158 
1151.503152  	0.047878 
1153.431968  	0.047508 
1155.360784  	0.047656 
1157.289600  	0.048570 
1159.218416  	0.049918 
1161.147232  	0.052045 
1163.076048  	0.054520 
1165.004864  	0.056888 
1166.933680  	0.059104 
1168.862496  	0.061719 
1170.791312  	0.064384 
1172.720128  	0.067526 
1174.648944  	0.070513 
1176.577760  	0.073478 
1178.506576  	0.076333 
1180.435392  	0.079274 
1182.364208  	0.082252 
1184.293024  	0.085478 
1186.221840  	0.088967 
1188.150656  	0.093022 
1190.079472  	0.097761 
1192.008288  	0.103575 
1193.937104  	0.110525 
1195.865920  	0.118590 
1197.794736  	0.127421 
1199.723552  	0.136919 
1201.652368  	0.146746 
1203.581184  	0.156604 
1205.510000  	0.166460 
1207.438816  	0.175965 
1209.367632  	0.184615 
1211.296448  	0.191997 
1213.225264  	0.198261 
1215.154080  	0.202961 
1217.082896  	0.206400 
1219.011712  	0.208600 
1220.940528  	0.210218 
1222.869344  	0.210989 
1224.798160  	0.210984 
1226.726976  	0.210093 
1228.655792  	0.208893 
1230.584608  	0.206972 
1232.513424  	0.204588 
1234.442240  	0.201401 
1236.371056  	0.197332 
1238.299872  	0.192075 
1240.228688  	0.184784 
1242.157504  	0.177012 
1244.086320  	0.170469 
1246.015136  	0.162824 
1247.943952  	0.154256 
1249.872768  	0.145629 
1251.801584  	0.138117 
1253.730400  	0.130545 
1255.659216  	0.123022 
1257.588032  	0.116019 
1259.516848  	0.109534 
1261.445664  	0.103496 
1263.374480  	0.098043 
1265.303296  	0.093314 
1267.232112  	0.089489 
1269.160928  	0.086549 
1271.089744  	0.084407 
1273.018560  	0.083319 
1274.947376  	0.083032 
1276.876192  	0.083152 
1278.805008  	0.082981 
1280.733824  	0.081856 
1282.662640  	0.079844 
1284.591456  	0.077303 
1286.520272  	0.074854 
1288.449088  	0.073242 
1290.377904  	0.072571 
1292.306720  	0.072728 
1294.235536  	0.072715 
1296.164352  	0.071606 
1298.093168  	0.069276 
1300.021984  	0.066201 
1301.950800  	0.062904 
1303.879616  	0.059727 
1305.808432  	0.056287 
1307.737248  	0.052878 
1309.666064  	0.049682 
1311.594880  	0.047060 
1313.523696  	0.045066 
1315.452512  	0.043842 
1317.381328  	0.043096 
1319.310144  	0.043021 
1321.238960  	0.043463 
1323.167776  	0.044395 
1325.096592  	0.045335 
1327.025408  	0.045987 
1328.954224  	0.046049 
1330.883040  	0.045702 
1332.811856  	0.044838 
1334.740672  	0.043943 
1336.669488  	0.043147 
1338.598304  	0.042471 
1340.527120  	0.041501 
1342.455936  	0.040984 
1344.384752  	0.040826 
1346.313568  	0.041040 
1348.242384  	0.041664 
1350.171200  	0.042980 
1352.100016  	0.044629 
1354.028832  	0.046558 
1355.957648  	0.048443 
1357.886464  	0.050558 
1359.815280  	0.052671 
1361.744096  	0.054554 
1363.672912  	0.056317 
1365.601728  	0.058236 
1367.530544  	0.059652 
1369.459360  	0.060132 
1371.388176  	0.059948 
1373.316992  	0.058529 
1375.245808  	0.055589 
1377.174624  	0.052901 
1379.103440  	0.049831 
1381.032256  	0.047031 
1382.961072  	0.044964 
1384.889888  	0.043829 
1386.818704  	0.042527 
1388.747520  	0.040935 
1390.676336  	0.038891 
1392.605152  	0.035737 
1394.533968  	0.033718 
1396.462784  	0.036098 
1398.391600  	0.037326 
1400.320416  	0.037189 
1402.249232  	0.037527 
1404.178048  	0.037998 
1406.106864  	0.038803 
1408.035680  	0.040771 
1409.964496  	0.043090 
1411.893312  	0.045941 
1413.822128  	0.049003 
1415.750944  	0.052084 
1417.679760  	0.054111 
1419.608576  	0.054718 
1421.537392  	0.055381 
1423.466208  	0.055173 
1425.395024  	0.053490 
1427.323840  	0.052060 
1429.252656  	0.049616 
1431.181472  	0.047733 
1433.110288  	0.047313 
1435.039104  	0.047827 
1436.967920  	0.047669 
1438.896736  	0.048787 
1440.825552  	0.049854 
1442.754368  	0.050492 
1444.683184  	0.050685 
1446.612000  	0.050626 
1448.540816  	0.049695 
1450.469632  	0.050070 
1452.398448  	0.050731 
1454.327264  	0.051599 
1456.256080  	0.051403 
1458.184896  	0.050059 
1460.113712  	0.050863 
1462.042528  	0.052126 
1463.971344  	0.052262 
1465.900160  	0.052816 
1467.828976  	0.055083 
1469.757792  	0.058278 
1471.686608  	0.061689 
1473.615424  	0.067610 
1475.544240  	0.073739 
1477.473056  	0.079746 
1479.401872  	0.084000 
1481.330688  	0.087334 
1483.259504  	0.089624 
1485.188320  	0.091085 
1487.117136  	0.090958 
1489.045952  	0.089845 
1490.974768  	0.086920 
1492.903584  	0.084889 
1494.832400  	0.081630 
1496.761216  	0.075273 
1498.690032  	0.068898 
1500.618848  	0.064085 
1502.547664  	0.060206 
1504.476480  	0.057140 
1506.405296  	0.050972 
1508.334112  	0.045663 
1510.262928  	0.045231 
1512.191744  	0.044041 
1514.120560  	0.043291 
1516.049376  	0.042767 
1517.978192  	0.042891 
1519.907008  	0.044717 
1521.835824  	0.046468 
1523.764640  	0.050077 
1525.693456  	0.053394 
1527.622272  	0.055706 
1529.551088  	0.056763 
1531.479904  	0.056335 
1533.408720  	0.052872 
1535.337536  	0.049614 
1537.266352  	0.048254 
1539.195168  	0.043499 
1541.123984  	0.036868 
1543.052800  	0.036105 
1544.981616  	0.035090 
1546.910432  	0.034748 
1548.839248  	0.034639 
1550.768064  	0.034592 
1552.696880  	0.035225 
1554.625696  	0.036340 
1556.554512  	0.037728 
1558.483328  	0.038357 
1560.412144  	0.041387 
1562.340960  	0.046759 
1564.269776  	0.050717 
1566.198592  	0.056218 
1568.127408  	0.060867 
1570.056224  	0.066990 
1571.985040  	0.073536 
1573.913856  	0.078504 
1575.842672  	0.080874 
1577.771488  	0.083407 
1579.700304  	0.084329 
1581.629120  	0.083885 
1583.557936  	0.083214 
1585.486752  	0.084129 
1587.415568  	0.086467 
1589.344384  	0.090984 
1591.273200  	0.097082 
1593.202016  	0.104673 
1595.130832  	0.112518 
1597.059648  	0.120864 
1598.988464  	0.127898 
1600.917280  	0.134057 
1602.846096  	0.137973 
1604.774912  	0.140438 
1606.703728  	0.140598 
1608.632544  	0.139946 
1610.561360  	0.137875 
1612.490176  	0.136345 
1614.418992  	0.134604 
1616.347808  	0.133139 
1618.276624  	0.133882 
1620.205440  	0.137385 
1622.134256  	0.140638 
1624.063072  	0.147164 
1625.991888  	0.153986 
1627.920704  	0.162333 
1629.849520  	0.172101 
1631.778336  	0.181585 
1633.707152  	0.188798 
1635.635968  	0.198063 
1637.564784  	0.208063 
1639.493600  	0.214915 
1641.422416  	0.219737 
1643.351232  	0.223675 
1645.280048  	0.224675 
1647.208864  	0.225005 
1649.137680  	0.225792 
1651.066496  	0.225839 
1652.995312  	0.220073 
1654.924128  	0.218009 
1656.852944  	0.217017 
1658.781760  	0.214311 
1660.710576  	0.210487 
1662.639392  	0.205604 
1664.568208  	0.201117 
1666.497024  	0.198101 
1668.425840  	0.192879 
1670.354656  	0.186293 
1672.283472  	0.182635 
1674.212288  	0.179365 
1676.141104  	0.174411 
1678.069920  	0.172854 
1679.998736  	0.171211 
1681.927552  	0.169987 
1683.856368  	0.166644 
1685.785184  	0.165817 
1687.714000  	0.166368 
1689.642816  	0.165508 
1691.571632  	0.164261 
1693.500448  	0.163320 
1695.429264  	0.159719 
1697.358080  	0.156826 
1699.286896  	0.154264 
1701.215712  	0.148644 
1703.144528  	0.147363 
1705.073344  	0.143371 
1707.002160  	0.137417 
1708.930976  	0.132531 
1710.859792  	0.126207 
1712.788608  	0.119145 
1714.717424  	0.110738 
1716.646240  	0.100339 
1718.575056  	0.087056 
1720.503872  	0.078582 
1722.432688  	0.071426 
1724.361504  	0.062104 
1726.290320  	0.054484 
1728.219136  	0.047831 
1730.147952  	0.041815 
1732.076768  	0.037170 
1734.005584  	0.030946 
1735.934400  	0.025839 
1737.863216  	0.025405 
1739.792032  	0.022287 
1741.720848  	0.020429 
1743.649664  	0.018860 
1745.578480  	0.017923 
1747.507296  	0.016491 
1749.436112  	0.015314 
1751.364928  	0.013855 
1753.293744  	0.013606 
1755.222560  	0.013502 
1757.151376  	0.012709 
1759.080192  	0.012090 
1761.009008  	0.011731 
1762.937824  	0.010417 
1764.866640  	0.010575 
1766.795456  	0.010480 
1768.724272  	0.010036 
1770.653088  	0.009266 
1772.581904  	0.007835 
1774.510720  	0.007678 
1776.439536  	0.008456 
1778.368352  	0.008462 
1780.297168  	0.008168 
1782.225984  	0.007796 
1784.154800  	0.007889 
1786.083616  	0.007278 
1788.012432  	0.007715 
1789.941248  	0.007748 
1791.870064  	0.006952 
1793.798880  	0.005937 
1795.727696  	0.006739 
1797.656512  	0.006745 
1799.585328  	0.006678 
1801.514144  	0.006011 
1803.442960  	0.006143 
1805.371776  	0.006063 
1807.300592  	0.006212 
1809.229408  	0.005888 
1811.158224  	0.005628 
1813.087040  	0.005337 
1815.015856  	0.005626 
1816.944672  	0.005403 
1818.873488  	0.005570 
1820.802304  	0.005525 
1822.731120  	0.006012 
1824.659936  	0.005266 
1826.588752  	0.004782 
1828.517568  	0.004654 
1830.446384  	0.004561 
1832.375200  	0.004696 
1834.304016  	0.005145 
1836.232832  	0.005080 
1838.161648  	0.005281 
1840.090464  	0.004980 
1842.019280  	0.005302 
1843.948096  	0.004375 
1845.876912  	0.004064 
1847.805728  	0.004567 
1849.734544  	0.004976 
1851.663360  	0.004833 
1853.592176  	0.004880 
1855.520992  	0.004571 
1857.449808  	0.004719 
1859.378624  	0.004375 
1861.307440  	0.004279 
1863.236256  	0.004298 
1865.165072  	0.004741 
1867.093888  	0.004630 
1869.022704  	0.004348 
1870.951520  	0.003864 
1872.880336  	0.004409 
1874.809152  	0.004295 
1876.737968  	0.004161 
1878.666784  	0.003839 
1880.595600  	0.004354 
1882.524416  	0.004285 
1884.453232  	0.004323 
1886.382048  	0.003862 
1888.310864  	0.003931 
1890.239680  	0.003578 
1892.168496  	0.004013 
1894.097312  	0.003836 
1896.026128  	0.003757 
1897.954944  	0.003620 
1899.883760  	0.004035 
1901.812576  	0.003663 
1903.741392  	0.003455 
1905.670208  	0.003392 
1907.599024  	0.003525 
1909.527840  	0.003308 
1911.456656  	0.003953 
1913.385472  	0.003927 
1915.314288  	0.004428 
1917.243104  	0.003947 
1919.171920  	0.003711 
1921.100736  	0.003596 
1923.029552  	0.003615 
1924.958368  	0.003507 
1926.887184  	0.003932 
1928.816000  	0.003405 
1930.744816  	0.003492 
1932.673632  	0.003274 
1934.602448  	0.003702 
1936.531264  	0.003298 
1938.460080  	0.003783 
1940.388896  	0.003474 
1942.317712  	0.003078 
1944.246528  	0.002835 
1946.175344  	0.003771 
1948.104160  	0.003315 
1950.032976  	0.003677 
1951.961792  	0.003238 
1953.890608  	0.003613 
1955.819424  	0.003129 
1957.748240  	0.003992 
1959.677056  	0.003495 
1961.605872  	0.003413 
1963.534688  	0.003056 
1965.463504  	0.003426 
1967.392320  	0.002638 
1969.321136  	0.002672 
1971.249952  	0.003051 
1973.178768  	0.004171 
1975.107584  	0.003077 
1977.036400  	0.004604 
1978.965216  	0.005955 
1980.894032  	0.005683 
1982.822848  	0.004756 
1984.751664  	0.005047 
1986.680480  	0.003435 
1988.609296  	0.003768 
1990.538112  	0.003581 
1992.466928  	0.004190 
1994.395744  	0.003273 
1996.324560  	0.002895 
1998.253376  	0.002916 
2000.182192  	0.002621 
2002.111008  	0.002324 
2004.039824  	0.003562 
2005.968640  	0.003036 
2007.897456  	0.004311 
2009.826272  	0.004442 
2011.755088  	0.004422 
2013.683904  	0.003499 
2015.612720  	0.004192 
2017.541536  	0.003392 
2019.470352  	0.003735 
2021.399168  	0.002681 
2023.327984  	0.002632 
2025.256800  	0.003337 
2027.185616  	0.004891 
2029.114432  	0.004735 
2031.043248  	0.005402 
2032.972064  	0.004966 
2034.900880  	0.004572 
2036.829696  	0.003677 
2038.758512  	0.005297 
2040.687328  	0.004609 
2042.616144  	0.005038 
2044.544960  	0.005067 
2046.473776  	0.005032 
2048.402592  	0.004617 
2050.331408  	0.004650 
2052.260224  	0.003830 
2054.189040  	0.003792 
2056.117856  	0.003426 
2058.046672  	0.003389 
2059.975488  	0.002945 
2061.904304  	0.002811 
2063.833120  	0.003108 
2065.761936  	0.003645 
2067.690752  	0.003752 
2069.619568  	0.004415 
2071.548384  	0.004236 
2073.477200  	0.003932 
2075.406016  	0.003830 
2077.334832  	0.004110 
2079.263648  	0.003828 
2081.192464  	0.003982 
2083.121280  	0.004039 
2085.050096  	0.003991 
2086.978912  	0.004032 
2088.907728  	0.004060 
2090.836544  	0.003845 
2092.765360  	0.004135 
2094.694176  	0.004428 
2096.622992  	0.004931 
2098.551808  	0.005010 
2100.480624  	0.005128 
2102.409440  	0.004854 
2104.338256  	0.004770 
2106.267072  	0.004614 
2108.195888  	0.004956 
2110.124704  	0.004687 
2112.053520  	0.004636 
2113.982336  	0.004421 
2115.911152  	0.004670 
2117.839968  	0.004409 
2119.768784  	0.004438 
2121.697600  	0.004587 
2123.626416  	0.004639 
2125.555232  	0.003970 
2127.484048  	0.003809 
2129.412864  	0.003474 
2131.341680  	0.003310 
2133.270496  	0.002967 
2135.199312  	0.003599 
2137.128128  	0.004694 
2139.056944  	0.005368 
2140.985760  	0.004530 
2142.914576  	0.004992 
2144.843392  	0.005646 
2146.772208  	0.005172 
2148.701024  	0.003747 
2150.629840  	0.004063 
2152.558656  	0.003906 
2154.487472  	0.004800 
2156.416288  	0.004564 
2158.345104  	0.005562 
2160.273920  	0.006389 
2162.202736  	0.006724 
2164.131552  	0.006359 
2166.060368  	0.006287 
2167.989184  	0.006549 
2169.918000  	0.006944 
2171.846816  	0.006010 
2173.775632  	0.006119 
2175.704448  	0.005870 
2177.633264  	0.006228 
2179.562080  	0.005805 
2181.490896  	0.005706 
2183.419712  	0.004789 
2185.348528  	0.005014 
2187.277344  	0.005713 
2189.206160  	0.005132 
2191.134976  	0.003981 
2193.063792  	0.004851 
2194.992608  	0.005317 
2196.921424  	0.005589 
2198.850240  	0.005731 
2200.779056  	0.005388 
2202.707872  	0.004884 
2204.636688  	0.005019 
2206.565504  	0.005272 
2208.494320  	0.005542 
2210.423136  	0.004801 
2212.351952  	0.004478 
2214.280768  	0.004126 
2216.209584  	0.004228 
2218.138400  	0.003419 
2220.067216  	0.003745 
2221.996032  	0.004085 
2223.924848  	0.004438 
2225.853664  	0.004523 
2227.782480  	0.004519 
2229.711296  	0.004002 
2231.640112  	0.003907 
2233.568928  	0.003903 
2235.497744  	0.004178 
2237.426560  	0.003810 
2239.355376  	0.004046 
2241.284192  	0.004039 
2243.213008  	0.004247 
2245.141824  	0.003986 
2247.070640  	0.003770 
2248.999456  	0.003804 
2250.928272  	0.003728 
2252.857088  	0.003096 
2254.785904  	0.003000 
2256.714720  	0.002899 
2258.643536  	0.002862 
2260.572352  	0.002582 
2262.501168  	0.002897 
2264.429984  	0.003266 
2266.358800  	0.003475 
2268.287616  	0.003229 
2270.216432  	0.003396 
2272.145248  	0.003463 
2274.074064  	0.003223 
2276.002880  	0.003175 
2277.931696  	0.003527 
2279.860512  	0.003690 
2281.789328  	0.003919 
2283.718144  	0.003816 
2285.646960  	0.004032 
2287.575776  	0.003974 
2289.504592  	0.003733 
2291.433408  	0.003320 
2293.362224  	0.003213 
2295.291040  	0.003280 
2297.219856  	0.003496 
2299.148672  	0.003262 
2301.077488  	0.003024 
2303.006304  	0.002768 
2304.935120  	0.002660 
2306.863936  	0.002385 
2308.792752  	0.002325 
2310.721568  	0.001920 
2312.650384  	0.001656 
2314.579200  	0.001329 
2316.508016  	0.000719 
2318.436832  	0.000169 
2320.365648  	-0.000341 
2322.294464  	-0.001024 
2324.223280  	-0.001717 
2326.152096  	-0.002853 
2328.080912  	-0.003880 
2330.009728  	-0.004865 
2331.938544  	-0.005365 
2333.867360  	-0.005626 
2335.796176  	-0.006012 
2337.724992  	-0.006721 
2339.653808  	-0.006827 
2341.582624  	-0.007368 
2343.511440  	-0.007564 
2345.440256  	-0.006788 
2347.369072  	-0.004116 
2349.297888  	-0.002115 
2351.226704  	-0.003033 
2353.155520  	-0.005752 
2355.084336  	-0.007923 
2357.013152  	-0.009870 
2358.941968  	-0.011068 
2360.870784  	-0.011657 
2362.799600  	-0.011344 
2364.728416  	-0.011236 
2366.657232  	-0.010012 
2368.586048  	-0.008091 
2370.514864  	-0.006405 
2372.443680  	-0.004866 
2374.372496  	-0.003211 
2376.301312  	-0.001650 
2378.230128  	-0.000165 
2380.158944  	0.000929 
2382.087760  	0.001735 
2384.016576  	0.002188 
2385.945392  	0.002453 
2387.874208  	0.002593 
2389.803024  	0.002592 
2391.731840  	0.002468 
2393.660656  	0.002380 
2395.589472  	0.002325 
2397.518288  	0.002573 
2399.447104  	0.002585 
2401.375920  	0.002528 
2403.304736  	0.002355 
2405.233552  	0.002587 
2407.162368  	0.002592 
2409.091184  	0.002592 
2411.020000  	0.002701 
2412.948816  	0.002718 
2414.877632  	0.002739 
2416.806448  	0.002950 
2418.735264  	0.002766 
2420.664080  	0.002613 
2422.592896  	0.002602 
2424.521712  	0.002701 
2426.450528  	0.002662 
2428.379344  	0.002785 
2430.308160  	0.002921 
2432.236976  	0.003023 
2434.165792  	0.002832 
2436.094608  	0.002669 
2438.023424  	0.002715 
2439.952240  	0.003006 
2441.881056  	0.003077 
2443.809872  	0.003039 
2445.738688  	0.003156 
2447.667504  	0.003399 
2449.596320  	0.003317 
2451.525136  	0.003414 
2453.453952  	0.003556 
2455.382768  	0.003519 
2457.311584  	0.003210 
2459.240400  	0.003045 
2461.169216  	0.003183 
2463.098032  	0.003159 
2465.026848  	0.003019 
2466.955664  	0.003110 
2468.884480  	0.002984 
2470.813296  	0.003009 
2472.742112  	0.003039 
2474.670928  	0.003031 
2476.599744  	0.002942 
2478.528560  	0.003287 
2480.457376  	0.003384 
2482.386192  	0.003276 
2484.315008  	0.003412 
2486.243824  	0.003346 
2488.172640  	0.003227 
2490.101456  	0.003361 
2492.030272  	0.003472 
2493.959088  	0.003600 
2495.887904  	0.003493 
2497.816720  	0.003382 
2499.745536  	0.003615 
2501.674352  	0.003885 
2503.603168  	0.004128 
2505.531984  	0.004092 
2507.460800  	0.003684 
2509.389616  	0.003708 
2511.318432  	0.003978 
2513.247248  	0.004227 
2515.176064  	0.004206 
2517.104880  	0.004163 
2519.033696  	0.003934 
2520.962512  	0.003882 
2522.891328  	0.004333 
2524.820144  	0.004624 
2526.748960  	0.004645 
2528.677776  	0.004752 
2530.606592  	0.004633 
2532.535408  	0.004560 
2534.464224  	0.004447 
2536.393040  	0.004508 
2538.321856  	0.004728 
2540.250672  	0.004950 
2542.179488  	0.004903 
2544.108304  	0.004984 
2546.037120  	0.005100 
2547.965936  	0.005041 
2549.894752  	0.004964 
2551.823568  	0.004934 
2553.752384  	0.004918 
2555.681200  	0.005251 
2557.610016  	0.005413 
2559.538832  	0.005366 
2561.467648  	0.005476 
2563.396464  	0.005600 
2565.325280  	0.005754 
2567.254096  	0.005833 
2569.182912  	0.005856 
2571.111728  	0.005927 
2573.040544  	0.005935 
2574.969360  	0.006150 
2576.898176  	0.006469 
2578.826992  	0.006514 
2580.755808  	0.006361 
2582.684624  	0.006514 
2584.613440  	0.006727 
2586.542256  	0.006828 
2588.471072  	0.006814 
2590.399888  	0.006781 
2592.328704  	0.006765 
2594.257520  	0.006874 
2596.186336  	0.006877 
2598.115152  	0.006918 
2600.043968  	0.006901 
2601.972784  	0.007090 
2603.901600  	0.007250 
2605.830416  	0.007230 
2607.759232  	0.007324 
2609.688048  	0.007518 
2611.616864  	0.007631 
2613.545680  	0.007879 
2615.474496  	0.007941 
2617.403312  	0.007967 
2619.332128  	0.008095 
2621.260944  	0.008229 
2623.189760  	0.008359 
2625.118576  	0.008433 
2627.047392  	0.008396 
2628.976208  	0.008493 
2630.905024  	0.008590 
2632.833840  	0.008759 
2634.762656  	0.008877 
2636.691472  	0.008937 
2638.620288  	0.009116 
2640.549104  	0.009358 
2642.477920  	0.009422 
2644.406736  	0.009541 
2646.335552  	0.009689 
2648.264368  	0.009917 
2650.193184  	0.009980 
2652.122000  	0.010080 
2654.050816  	0.010291 
2655.979632  	0.010413 
2657.908448  	0.010521 
2659.837264  	0.010624 
2661.766080  	0.010708 
2663.694896  	0.010811 
2665.623712  	0.010888 
2667.552528  	0.011018 
2669.481344  	0.011055 
2671.410160  	0.011098 
2673.338976  	0.011254 
2675.267792  	0.011478 
2677.196608  	0.011720 
2679.125424  	0.011808 
2681.054240  	0.011893 
2682.983056  	0.012093 
2684.911872  	0.012169 
2686.840688  	0.012197 
2688.769504  	0.012316 
2690.698320  	0.012449 
2692.627136  	0.012535 
2694.555952  	0.012601 
2696.484768  	0.012730 
2698.413584  	0.012834 
2700.342400  	0.012919 
2702.271216  	0.013163 
2704.200032  	0.013392 
2706.128848  	0.013449 
2708.057664  	0.013429 
2709.986480  	0.013553 
2711.915296  	0.013752 
2713.844112  	0.013919 
2715.772928  	0.013995 
2717.701744  	0.014132 
2719.630560  	0.014364 
2721.559376  	0.014552 
2723.488192  	0.014675 
2725.417008  	0.014884 
2727.345824  	0.015019 
2729.274640  	0.015029 
2731.203456  	0.015146 
2733.132272  	0.015300 
2735.061088  	0.015376 
2736.989904  	0.015583 
2738.918720  	0.015729 
2740.847536  	0.015710 
2742.776352  	0.015694 
2744.705168  	0.015899 
2746.633984  	0.015997 
2748.562800  	0.016032 
2750.491616  	0.016131 
2752.420432  	0.016321 
2754.349248  	0.016275 
2756.278064  	0.016113 
2758.206880  	0.016066 
2760.135696  	0.016190 
2762.064512  	0.016293 
2763.993328  	0.016356 
2765.922144  	0.016307 
2767.850960  	0.016308 
2769.779776  	0.016264 
2771.708592  	0.016245 
2773.637408  	0.016217 
2775.566224  	0.016160 
2777.495040  	0.016140 
2779.423856  	0.016195 
2781.352672  	0.016210 
2783.281488  	0.016195 
2785.210304  	0.016213 
2787.139120  	0.016223 
2789.067936  	0.016252 
2790.996752  	0.016314 
2792.925568  	0.016155 
2794.854384  	0.016064 
2796.783200  	0.016081 
2798.712016  	0.016021 
2800.640832  	0.015982 
2802.569648  	0.016125 
2804.498464  	0.016132 
2806.427280  	0.016123 
2808.356096  	0.016131 
2810.284912  	0.016257 
2812.213728  	0.016245 
2814.142544  	0.016143 
2816.071360  	0.016150 
2818.000176  	0.016048 
2819.928992  	0.015906 
2821.857808  	0.015836 
2823.786624  	0.015772 
2825.715440  	0.015676 
2827.644256  	0.015503 
2829.573072  	0.015416 
2831.501888  	0.015141 
2833.430704  	0.014790 
2835.359520  	0.014551 
2837.288336  	0.014292 
2839.217152  	0.013876 
2841.145968  	0.013415 
2843.074784  	0.013070 
2845.003600  	0.012584 
2846.932416  	0.012087 
2848.861232  	0.011836 
2850.790048  	0.011542 
2852.718864  	0.011072 
2854.647680  	0.010565 
2856.576496  	0.010112 
2858.505312  	0.009533 
2860.434128  	0.009041 
2862.362944  	0.008503 
2864.291760  	0.007889 
2866.220576  	0.007422 
2868.149392  	0.007127 
2870.078208  	0.006914 
2872.007024  	0.006978 
2873.935840  	0.007180 
2875.864656  	0.007340 
2877.793472  	0.007283 
2879.722288  	0.007119 
2881.651104  	0.006893 
2883.579920  	0.006805 
2885.508736  	0.007074 
2887.437552  	0.007370 
2889.366368  	0.007510 
2891.295184  	0.007432 
2893.224000  	0.007271 
2895.152816  	0.007252 
2897.081632  	0.006827 
2899.010448  	0.005226 
2900.939264  	0.003914 
2902.868080  	0.005062 
2904.796896  	0.006259 
2906.725712  	0.006686 
2908.654528  	0.007257 
2910.583344  	0.007800 
2912.512160  	0.008350 
2914.440976  	0.009459 
2916.369792  	0.010381 
2918.298608  	0.010858 
2920.227424  	0.011252 
2922.156240  	0.011989 
2924.085056  	0.012953 
2926.013872  	0.013910 
2927.942688  	0.014898 
2929.871504  	0.015945 
2931.800320  	0.016944 
2933.729136  	0.017826 
2935.657952  	0.018584 
2937.586768  	0.019378 
2939.515584  	0.020184 
2941.444400  	0.020554 
2943.373216  	0.020711 
2945.302032  	0.021015 
2947.230848  	0.021194 
2949.159664  	0.020905 
2951.088480  	0.020442 
2953.017296  	0.020016 
2954.946112  	0.019406 
2956.874928  	0.018748 
2958.803744  	0.018041 
2960.732560  	0.017433 
2962.661376  	0.016769 
2964.590192  	0.015912 
2966.519008  	0.014880 
2968.447824  	0.013918 
2970.376640  	0.013066 
2972.305456  	0.012585 
2974.234272  	0.012767 
2976.163088  	0.013045 
2978.091904  	0.013152 
2980.020720  	0.013253 
2981.949536  	0.013433 
2983.878352  	0.013282 
2985.807168  	0.012507 
2987.735984  	0.011641 
2989.664800  	0.011879 
2991.593616  	0.014648 
2993.522432  	0.016523 
2995.451248  	0.017025 
2997.380064  	0.017811 
2999.308880  	0.019120 
3001.237696  	0.020360 
3003.166512  	0.021751 
3005.095328  	0.023230 
3007.024144  	0.024517 
3008.952960  	0.025783 
3010.881776  	0.027205 
3012.810592  	0.028659 
3014.739408  	0.029916 
3016.668224  	0.031003 
3018.597040  	0.032315 
3020.525856  	0.033508 
3022.454672  	0.034486 
3024.383488  	0.035391 
3026.312304  	0.036307 
3028.241120  	0.037446 
3030.169936  	0.038519 
3032.098752  	0.039409 
3034.027568  	0.040255 
3035.956384  	0.040953 
3037.885200  	0.041824 
3039.814016  	0.042712 
3041.742832  	0.043436 
3043.671648  	0.044052 
3045.600464  	0.044686 
3047.529280  	0.045200 
3049.458096  	0.045861 
3051.386912  	0.046695 
3053.315728  	0.047331 
3055.244544  	0.048055 
3057.173360  	0.048828 
3059.102176  	0.049464 
3061.030992  	0.050209 
3062.959808  	0.051027 
3064.888624  	0.051847 
3066.817440  	0.052702 
3068.746256  	0.053688 
3070.675072  	0.054623 
3072.603888  	0.055347 
3074.532704  	0.056095 
3076.461520  	0.056898 
3078.390336  	0.057657 
3080.319152  	0.058429 
3082.247968  	0.059381 
3084.176784  	0.060288 
3086.105600  	0.061122 
3088.034416  	0.062010 
3089.963232  	0.062902 
3091.892048  	0.063667 
3093.820864  	0.064428 
3095.749680  	0.065318 
3097.678496  	0.066329 
3099.607312  	0.067329 
3101.536128  	0.068232 
3103.464944  	0.069206 
3105.393760  	0.070010 
3107.322576  	0.070892 
3109.251392  	0.071880 
3111.180208  	0.072611 
3113.109024  	0.073342 
3115.037840  	0.074126 
3116.966656  	0.074881 
3118.895472  	0.075555 
3120.824288  	0.076303 
3122.753104  	0.077036 
3124.681920  	0.077682 
3126.610736  	0.078242 
3128.539552  	0.078942 
3130.468368  	0.079607 
3132.397184  	0.080265 
3134.326000  	0.081042 
3136.254816  	0.081682 
3138.183632  	0.082335 
3140.112448  	0.082930 
3142.041264  	0.083554 
3143.970080  	0.084042 
3145.898896  	0.084742 
3147.827712  	0.085627 
3149.756528  	0.086230 
3151.685344  	0.086729 
3153.614160  	0.087430 
3155.542976  	0.088183 
3157.471792  	0.088914 
3159.400608  	0.089702 
3161.329424  	0.090224 
3163.258240  	0.090657 
3165.187056  	0.091248 
3167.115872  	0.091959 
3169.044688  	0.092526 
3170.973504  	0.093021 
3172.902320  	0.093397 
3174.831136  	0.093815 
3176.759952  	0.094372 
3178.688768  	0.094766 
3180.617584  	0.095162 
3182.546400  	0.095534 
3184.475216  	0.095753 
3186.404032  	0.095788 
3188.332848  	0.095946 
3190.261664  	0.096243 
3192.190480  	0.096389 
3194.119296  	0.096349 
3196.048112  	0.096453 
3197.976928  	0.096448 
3199.905744  	0.096422 
3201.834560  	0.096230 
3203.763376  	0.096311 
3205.692192  	0.096290 
3207.621008  	0.096052 
3209.549824  	0.095861 
3211.478640  	0.095732 
3213.407456  	0.095455 
3215.336272  	0.095158 
3217.265088  	0.095058 
3219.193904  	0.094937 
3221.122720  	0.094827 
3223.051536  	0.094777 
3224.980352  	0.094600 
3226.909168  	0.094479 
3228.837984  	0.094225 
3230.766800  	0.094059 
3232.695616  	0.094039 
3234.624432  	0.093811 
3236.553248  	0.093632 
3238.482064  	0.093657 
3240.410880  	0.093700 
3242.339696  	0.093885 
3244.268512  	0.093672 
3246.197328  	0.093790 
3248.126144  	0.094212 
3250.054960  	0.094347 
3251.983776  	0.094478 
3253.912592  	0.094815 
3255.841408  	0.094905 
3257.770224  	0.094997 
3259.699040  	0.095307 
3261.627856  	0.095576 
3263.556672  	0.095832 
3265.485488  	0.096025 
3267.414304  	0.096161 
3269.343120  	0.096565 
3271.271936  	0.096860 
3273.200752  	0.096864 
3275.129568  	0.096872 
3277.058384  	0.097181 
3278.987200  	0.097455 
3280.916016  	0.097611 
3282.844832  	0.097847 
3284.773648  	0.098214 
3286.702464  	0.098401 
3288.631280  	0.098775 
3290.560096  	0.099211 
3292.488912  	0.099608 
3294.417728  	0.099832 
3296.346544  	0.100097 
3298.275360  	0.100351 
3300.204176  	0.100715 
3302.132992  	0.101079 
3304.061808  	0.101192 
3305.990624  	0.101504 
3307.919440  	0.102065 
3309.848256  	0.102400 
3311.777072  	0.102559 
3313.705888  	0.102809 
3315.634704  	0.103384 
3317.563520  	0.103696 
3319.492336  	0.103891 
3321.421152  	0.104023 
3323.349968  	0.104269 
3325.278784  	0.104468 
3327.207600  	0.104653 
3329.136416  	0.104708 
3331.065232  	0.104777 
3332.994048  	0.104715 
3334.922864  	0.104884 
3336.851680  	0.104939 
3338.780496  	0.104855 
3340.709312  	0.104728 
3342.638128  	0.104536 
3344.566944  	0.104127 
3346.495760  	0.103985 
3348.424576  	0.103680 
3350.353392  	0.103285 
3352.282208  	0.102985 
3354.211024  	0.102555 
3356.139840  	0.102115 
3358.068656  	0.102040 
3359.997472  	0.101749 
3361.926288  	0.101143 
3363.855104  	0.100731 
3365.783920  	0.100423 
3367.712736  	0.099925 
3369.641552  	0.099571 
3371.570368  	0.098975 
3373.499184  	0.098477 
3375.428000  	0.098060 
3377.356816  	0.097574 
3379.285632  	0.097346 
3381.214448  	0.097049 
3383.143264  	0.096615 
3385.072080  	0.096238 
3387.000896  	0.095694 
3388.929712  	0.095190 
3390.858528  	0.094724 
3392.787344  	0.094135 
3394.716160  	0.093696 
3396.644976  	0.093362 
3398.573792  	0.092950 
3400.502608  	0.092613 
3402.431424  	0.092145 
3404.360240  	0.091453 
3406.289056  	0.090707 
3408.217872  	0.090312 
3410.146688  	0.089811 
3412.075504  	0.089348 
3414.004320  	0.088864 
3415.933136  	0.088562 
3417.861952  	0.087874 
3419.790768  	0.087032 
3421.719584  	0.086521 
3423.648400  	0.086126 
3425.577216  	0.085527 
3427.506032  	0.084835 
3429.434848  	0.084150 
3431.363664  	0.083586 
3433.292480  	0.083037 
3435.221296  	0.082348 
3437.150112  	0.081636 
3439.078928  	0.081137 
3441.007744  	0.080407 
3442.936560  	0.079770 
3444.865376  	0.079357 
3446.794192  	0.078395 
3448.723008  	0.077397 
3450.651824  	0.076844 
3452.580640  	0.076322 
3454.509456  	0.075874 
3456.438272  	0.075093 
3458.367088  	0.074262 
3460.295904  	0.073339 
3462.224720  	0.072419 
3464.153536  	0.071775 
3466.082352  	0.071191 
3468.011168  	0.070325 
3469.939984  	0.069549 
3471.868800  	0.068830 
3473.797616  	0.068111 
3475.726432  	0.067075 
3477.655248  	0.066157 
3479.584064  	0.065402 
3481.512880  	0.064572 
3483.441696  	0.063663 
3485.370512  	0.062980 
3487.299328  	0.062004 
3489.228144  	0.061128 
3491.156960  	0.060190 
3493.085776  	0.059240 
3495.014592  	0.058431 
3496.943408  	0.057674 
3498.872224  	0.056831 
3500.801040  	0.056248 
3502.729856  	0.055333 
3504.658672  	0.054429 
3506.587488  	0.054168 
3508.516304  	0.053511 
3510.445120  	0.052371 
3512.373936  	0.051600 
3514.302752  	0.051126 
3516.231568  	0.050657 
3518.160384  	0.049941 
3520.089200  	0.049298 
3522.018016  	0.048656 
3523.946832  	0.047930 
3525.875648  	0.047264 
3527.804464  	0.046246 
3529.733280  	0.045354 
3531.662096  	0.044921 
3533.590912  	0.044535 
3535.519728  	0.043798 
3537.448544  	0.043019 
3539.377360  	0.042481 
3541.306176  	0.041869 
3543.234992  	0.041431 
3545.163808  	0.040613 
3547.092624  	0.039622 
3549.021440  	0.039052 
3550.950256  	0.038469 
3552.879072  	0.037331 
3554.807888  	0.036656 
3556.736704  	0.036463 
3558.665520  	0.036148 
3560.594336  	0.035322 
3562.523152  	0.034464 
3564.451968  	0.033922 
3566.380784  	0.032757 
3568.309600  	0.031011 
3570.238416  	0.030968 
3572.167232  	0.031054 
3574.096048  	0.030339 
3576.024864  	0.029423 
3577.953680  	0.028694 
3579.882496  	0.027857 
3581.811312  	0.027217 
3583.740128  	0.026565 
3585.668944  	0.026051 
3587.597760  	0.024110 
3589.526576  	0.022895 
3591.455392  	0.023060 
3593.384208  	0.022492 
3595.313024  	0.021218 
3597.241840  	0.020097 
3599.170656  	0.019240 
3601.099472  	0.018481 
3603.028288  	0.018025 
3604.957104  	0.017862 
3606.885920  	0.016857 
3608.814736  	0.015153 
3610.743552  	0.014608 
3612.672368  	0.013684 
3614.601184  	0.012362 
3616.530000  	0.012272 
3618.458816  	0.010627 
3620.387632  	0.008800 
3622.316448  	0.008923 
3624.245264  	0.008900 
3626.174080  	0.008534 
3628.102896  	0.006421 
3630.031712  	0.002481 
3631.960528  	0.003652 
3633.889344  	0.003449 
3635.818160  	0.002620 
3637.746976  	0.001873 
3639.675792  	0.001267 
3641.604608  	0.000875 
3643.533424  	0.000519 
3645.462240  	0.000336 
3647.391056  	-0.001593 
3649.319872  	-0.005534 
3651.248688  	-0.007971 
3653.177504  	-0.006256 
3655.106320  	-0.006089 
3657.035136  	-0.008467 
3658.963952  	-0.008575 
3660.892768  	-0.008777 
3662.821584  	-0.009100 
3664.750400  	-0.009084 
3666.679216  	-0.008825 
3668.608032  	-0.009862 
3670.536848  	-0.012687 
3672.465664  	-0.011491 
3674.394480  	-0.011162 
3676.323296  	-0.015484 
3678.252112  	-0.013517 
3680.180928  	-0.012278 
3682.109744  	-0.011956 
3684.038560  	-0.011955 
3685.967376  	-0.011358 
3687.896192  	-0.012360 
3689.825008  	-0.014876 
3691.753824  	-0.014810 
3693.682640  	-0.013491 
3695.611456  	-0.012626 
3697.540272  	-0.011928 
3699.469088  	-0.010932 
3701.397904  	-0.011400 
3703.326720  	-0.011628 
3705.255536  	-0.010444 
3707.184352  	-0.009633 
3709.113168  	-0.009903 
3711.041984  	-0.011522 
3712.970800  	-0.012108 
3714.899616  	-0.010652 
3716.828432  	-0.009471 
3718.757248  	-0.009496 
3720.686064  	-0.009882 
3722.614880  	-0.010452 
3724.543696  	-0.010432 
3726.472512  	-0.010664 
3728.401328  	-0.010274 
3730.330144  	-0.009476 
3732.258960  	-0.010132 
3734.187776  	-0.010847 
3736.116592  	-0.012379 
3738.045408  	-0.011720 
3739.974224  	-0.009955 
3741.903040  	-0.008540 
3743.831856  	-0.009764 
3745.760672  	-0.012276 
3747.689488  	-0.009766 
3749.618304  	-0.010761 
3751.547120  	-0.013132 
3753.475936  	-0.012845 
3755.404752  	-0.010940 
3757.333568  	-0.010236 
3759.262384  	-0.010728 
3761.191200  	-0.010951 
3763.120016  	-0.009544 
3765.048832  	-0.009849 
3766.977648  	-0.010018 
3768.906464  	-0.010091 
3770.835280  	-0.011233 
3772.764096  	-0.010405 
3774.692912  	-0.009619 
3776.621728  	-0.009271 
3778.550544  	-0.009920 
3780.479360  	-0.011209 
3782.408176  	-0.010159 
3784.336992  	-0.010101 
3786.265808  	-0.010446 
3788.194624  	-0.010136 
3790.123440  	-0.010017 
3792.052256  	-0.009927 
3793.981072  	-0.009394 
3795.909888  	-0.010071 
3797.838704  	-0.010365 
3799.767520  	-0.009618 
3801.696336  	-0.012241 
3803.625152  	-0.011827 
3805.553968  	-0.010261 
3807.482784  	-0.011849 
3809.411600  	-0.010986 
3811.340416  	-0.009835 
3813.269232  	-0.009098 
3815.198048  	-0.010158 
3817.126864  	-0.011799 
3819.055680  	-0.010089 
3820.984496  	-0.011917 
3822.913312  	-0.012506 
3824.842128  	-0.010477 
3826.770944  	-0.010882 
3828.699760  	-0.010565 
3830.628576  	-0.010101 
3832.557392  	-0.010498 
3834.486208  	-0.010145 
3836.415024  	-0.010434 
3838.343840  	-0.011879 
3840.272656  	-0.012309 
3842.201472  	-0.011361 
3844.130288  	-0.011373 
3846.059104  	-0.010716 
3847.987920  	-0.009779 
3849.916736  	-0.009115 
3851.845552  	-0.009435 
3853.774368  	-0.014144 
3855.703184  	-0.013863 
3857.632000  	-0.011608 
3859.560816  	-0.010195 
3861.489632  	-0.009928 
3863.418448  	-0.010560 
3865.347264  	-0.011321 
3867.276080  	-0.010059 
3869.204896  	-0.010626 
3871.133712  	-0.012193 
3873.062528  	-0.011109 
3874.991344  	-0.011918 
3876.920160  	-0.010473 
3878.848976  	-0.009386 
3880.777792  	-0.010832 
3882.706608  	-0.010526 
3884.635424  	-0.010180 
3886.564240  	-0.011691 
3888.493056  	-0.010440 
3890.421872  	-0.010381 
3892.350688  	-0.011752 
3894.279504  	-0.010995 
3896.208320  	-0.009759 
3898.137136  	-0.009441 
3900.065952  	-0.010300 
3901.994768  	-0.010506 
3903.923584  	-0.011294 
3905.852400  	-0.011940 
3907.781216  	-0.010939 
3909.710032  	-0.010284 
3911.638848  	-0.010239 
3913.567664  	-0.010027 
3915.496480  	-0.010009 
3917.425296  	-0.010795 
3919.354112  	-0.011041 
3921.282928  	-0.010549 
3923.211744  	-0.010082 
3925.140560  	-0.010500 
3927.069376  	-0.010240 
3928.998192  	-0.009973 
3930.927008  	-0.010307 
3932.855824  	-0.010757 
3934.784640  	-0.010725 
3936.713456  	-0.010363 
3938.642272  	-0.010105 
3940.571088  	-0.009771 
3942.499904  	-0.010243 
3944.428720  	-0.010537 
3946.357536  	-0.009920 
3948.286352  	-0.010121 
3950.215168  	-0.010502 
3952.143984  	-0.010518 
3954.072800  	-0.010317 
3956.001616  	-0.010179 
3957.930432  	-0.010248 
3959.859248  	-0.010362 
3961.788064  	-0.010467 
3963.716880  	-0.010638 
3965.645696  	-0.010583 
3967.574512  	-0.010473 
3969.503328  	-0.010316 
3971.432144  	-0.010422 
3973.360960  	-0.010510 
3975.289776  	-0.010669 
3977.218592  	-0.010522 
3979.147408  	-0.010459 
3981.076224  	-0.010525 
3983.005040  	-0.010450 
3984.933856  	-0.010396 
3986.862672  	-0.010423 
3988.791488  	-0.010353 
3990.720304  	-0.010375 
3992.649120  	-0.010417 
3994.577936  	-0.010585 
3996.506752  	-0.010697 
3998.435568  	-0.010671 
4000.364384  	-0.010576 