##TITLE=No Description
##DATA TYPE=INFRARED SPECTRUM
##XUNITS=1/CM
##YUNITS=Abs
399.264912  	0.163758 
401.193728  	0.176485 
403.122544  	0.181719 
405.051360  	0.175990 
406.980176  	0.169366 
408.908992  	0.162584 
410.837808  	0.164539 
412.766624  	0.169086 
414.695440  	0.170548 
416.624256  	0.172975 
418.553072  	0.183736 
420.481888  	0.174710 
422.410704  	0.165114 
424.339520  	0.162411 
426.268336  	0.168122 
428.197152  	0.170760 
430.125968  	0.168219 
432.054784  	0.164825 
433.983600  	0.163829 
435.912416  	0.165225 
437.841232  	0.167218 
439.770048  	0.163313 
441.698864  	0.161250 
443.627680  	0.158090 
445.556496  	0.157494 
447.485312  	0.160518 
449.414128  	0.162680 
451.342944  	0.162073 
453.271760  	0.159266 
455.200576  	0.157077 
457.129392  	0.158753 
459.058208  	0.159987 
460.987024  	0.161105 
462.915840  	0.160983 
464.844656  	0.164239 
466.773472  	0.164641 
468.702288  	0.165421 
470.631104  	0.167284 
472.559920  	0.169680 
474.488736  	0.167102 
476.417552  	0.166012 
478.346368  	0.166235 
480.275184  	0.170516 
482.204000  	0.171241 
484.132816  	0.171291 
486.061632  	0.174422 
487.990448  	0.175460 
489.919264  	0.173207 
491.848080  	0.175030 
493.776896  	0.177328 
495.705712  	0.177710 
497.634528  	0.176853 
499.563344  	0.176407 
501.492160  	0.176071 
503.420976  	0.174923 
505.349792  	0.172808 
507.278608  	0.174657 
509.207424  	0.176439 
511.136240  	0.179016 
513.065056  	0.179286 
514.993872  	0.180353 
516.922688  	0.182450 
518.851504  	0.186948 
520.780320  	0.188163 
522.709136  	0.189675 
524.637952  	0.190696 
526.566768  	0.190655 
528.495584  	0.190614 
530.424400  	0.192050 
532.353216  	0.190936 
534.282032  	0.189150 
536.210848  	0.186761 
538.139664  	0.184260 
540.068480  	0.182015 
541.997296  	0.180142 
543.926112  	0.178135 
545.854928  	0.177031 
547.783744  	0.176529 
549.712560  	0.176042 
551.641376  	0.173476 
553.570192  	0.172121 
555.499008  	0.171319 
557.427824  	0.170397 
559.356640  	0.169594 
561.285456  	0.169046 
563.214272  	0.166461 
565.143088  	0.164633 
567.071904  	0.162307 
569.000720  	0.160087 
570.929536  	0.158615 
572.858352  	0.157720 
574.787168  	0.157272 
576.715984  	0.157283 
578.644800  	0.155145 
580.573616  	0.152750 
582.502432  	0.150439 
584.431248  	0.147666 
586.360064  	0.145122 
588.288880  	0.142868 
590.217696  	0.141706 
592.146512  	0.140971 
594.075328  	0.140127 
596.004144  	0.139355 
597.932960  	0.138249 
599.861776  	0.137444 
601.790592  	0.136865 
603.719408  	0.136777 
605.648224  	0.136856 
607.577040  	0.136709 
609.505856  	0.135640 
611.434672  	0.135407 
613.363488  	0.135192 
615.292304  	0.134674 
617.221120  	0.134085 
619.149936  	0.134058 
621.078752  	0.133325 
623.007568  	0.133126 
624.936384  	0.133342 
626.865200  	0.133391 
628.794016  	0.132891 
630.722832  	0.132851 
632.651648  	0.133254 
634.580464  	0.133629 
636.509280  	0.134769 
638.438096  	0.135208 
640.366912  	0.135765 
642.295728  	0.136001 
644.224544  	0.134819 
646.153360  	0.133787 
648.082176  	0.132171 
650.010992  	0.130849 
651.939808  	0.128914 
653.868624  	0.126965 
655.797440  	0.124653 
657.726256  	0.123117 
659.655072  	0.121026 
661.583888  	0.119140 
663.512704  	0.117440 
665.441520  	0.114111 
667.370336  	0.111475 
669.299152  	0.112480 
671.227968  	0.108688 
673.156784  	0.106054 
675.085600  	0.105051 
677.014416  	0.103867 
678.943232  	0.102891 
680.872048  	0.101988 
682.800864  	0.101157 
684.729680  	0.100928 
686.658496  	0.100278 
688.587312  	0.099924 
690.516128  	0.098969 
692.444944  	0.098336 
694.373760  	0.097936 
696.302576  	0.097589 
698.231392  	0.096623 
700.160208  	0.095971 
702.089024  	0.094734 
704.017840  	0.093311 
705.946656  	0.091899 
707.875472  	0.090629 
709.804288  	0.089824 
711.733104  	0.089256 
713.661920  	0.088356 
715.590736  	0.087639 
717.519552  	0.087831 
719.448368  	0.088565 
721.377184  	0.089870 
723.306000  	0.090976 
725.234816  	0.092031 
727.163632  	0.092088 
729.092448  	0.091106 
731.021264  	0.089871 
732.950080  	0.088385 
734.878896  	0.086736 
736.807712  	0.084818 
738.736528  	0.083606 
740.665344  	0.082388 
742.594160  	0.081560 
744.522976  	0.080926 
746.451792  	0.080922 
748.380608  	0.080634 
750.309424  	0.080138 
752.238240  	0.079492 
754.167056  	0.079407 
756.095872  	0.079492 
758.024688  	0.079040 
759.953504  	0.079189 
761.882320  	0.079864 
763.811136  	0.080754 
765.739952  	0.080553 
767.668768  	0.079558 
769.597584  	0.078495 
771.526400  	0.078707 
773.455216  	0.080215 
775.384032  	0.082973 
777.312848  	0.087187 
779.241664  	0.090559 
781.170480  	0.091428 
783.099296  	0.089521 
785.028112  	0.087086 
786.956928  	0.084140 
788.885744  	0.081572 
790.814560  	0.079503 
792.743376  	0.078630 
794.672192  	0.078698 
796.601008  	0.078349 
798.529824  	0.076962 
800.458640  	0.074640 
802.387456  	0.072600 
804.316272  	0.071626 
806.245088  	0.071182 
808.173904  	0.071127 
810.102720  	0.071512 
812.031536  	0.071888 
813.960352  	0.072463 
815.889168  	0.073402 
817.817984  	0.074247 
819.746800  	0.074857 
821.675616  	0.075376 
823.604432  	0.076036 
825.533248  	0.076853 
827.462064  	0.077512 
829.390880  	0.077332 
831.319696  	0.077308 
833.248512  	0.076989 
835.177328  	0.076503 
837.106144  	0.075109 
839.034960  	0.073611 
840.963776  	0.072072 
842.892592  	0.070740 
844.821408  	0.068869 
846.750224  	0.066822 
848.679040  	0.065535 
850.607856  	0.064496 
852.536672  	0.063874 
854.465488  	0.063259 
856.394304  	0.062881 
858.323120  	0.062227 
860.251936  	0.061750 
862.180752  	0.061019 
864.109568  	0.059893 
866.038384  	0.058731 
867.967200  	0.057502 
869.896016  	0.056591 
871.824832  	0.055783 
873.753648  	0.055218 
875.682464  	0.055080 
877.611280  	0.056014 
879.540096  	0.057420 
881.468912  	0.059754 
883.397728  	0.062329 
885.326544  	0.064296 
887.255360  	0.065763 
889.184176  	0.066263 
891.112992  	0.066150 
893.041808  	0.065571 
894.970624  	0.064552 
896.899440  	0.062798 
898.828256  	0.060660 
900.757072  	0.058493 
902.685888  	0.056620 
904.614704  	0.055839 
906.543520  	0.055831 
908.472336  	0.056848 
910.401152  	0.058427 
912.329968  	0.060552 
914.258784  	0.062873 
916.187600  	0.064825 
918.116416  	0.066420 
920.045232  	0.067811 
921.974048  	0.068597 
923.902864  	0.069068 
925.831680  	0.069412 
927.760496  	0.069861 
929.689312  	0.070421 
931.618128  	0.070999 
933.546944  	0.071557 
935.475760  	0.072036 
937.404576  	0.072171 
939.333392  	0.071946 
941.262208  	0.072012 
943.191024  	0.072914 
945.119840  	0.074763 
947.048656  	0.077929 
948.977472  	0.082460 
950.906288  	0.087940 
952.835104  	0.094276 
954.763920  	0.101331 
956.692736  	0.108425 
958.621552  	0.114872 
960.550368  	0.119482 
962.479184  	0.122705 
964.408000  	0.123232 
966.336816  	0.121305 
968.265632  	0.116800 
970.194448  	0.110837 
972.123264  	0.103359 
974.052080  	0.095115 
975.980896  	0.086869 
977.909712  	0.079121 
979.838528  	0.072240 
981.767344  	0.066554 
983.696160  	0.062444 
985.624976  	0.059954 
987.553792  	0.059323 
989.482608  	0.060260 
991.411424  	0.062739 
993.340240  	0.066785 
995.269056  	0.071241 
997.197872  	0.075896 
999.126688  	0.080441 
1001.055504  	0.085223 
1002.984320  	0.089717 
1004.913136  	0.094200 
1006.841952  	0.098151 
1008.770768  	0.101909 
1010.699584  	0.105090 
1012.628400  	0.107332 
1014.557216  	0.108720 
1016.486032  	0.109756 
1018.414848  	0.110259 
1020.343664  	0.110199 
1022.272480  	0.110024 
1024.201296  	0.109880 
1026.130112  	0.109195 
1028.058928  	0.108958 
1029.987744  	0.109653 
1031.916560  	0.110335 
1033.845376  	0.110599 
1035.774192  	0.111078 
1037.703008  	0.111997 
1039.631824  	0.114353 
1041.560640  	0.118359 
1043.489456  	0.124962 
1045.418272  	0.133838 
1047.347088  	0.144123 
1049.275904  	0.153807 
1051.204720  	0.161865 
1053.133536  	0.166540 
1055.062352  	0.168823 
1056.991168  	0.169715 
1058.919984  	0.170206 
1060.848800  	0.169947 
1062.777616  	0.169114 
1064.706432  	0.167196 
1066.635248  	0.164999 
1068.564064  	0.162436 
1070.492880  	0.158916 
1072.421696  	0.154896 
1074.350512  	0.151822 
1076.279328  	0.150112 
1078.208144  	0.150572 
1080.136960  	0.152116 
1082.065776  	0.153576 
1083.994592  	0.153601 
1085.923408  	0.152298 
1087.852224  	0.149116 
1089.781040  	0.145062 
1091.709856  	0.139828 
1093.638672  	0.134074 
1095.567488  	0.127040 
1097.496304  	0.119602 
1099.425120  	0.111750 
1101.353936  	0.104113 
1103.282752  	0.096805 
1105.211568  	0.089900 
1107.140384  	0.083206 
1109.069200  	0.077101 
1110.998016  	0.071497 
1112.926832  	0.065999 
1114.855648  	0.060954 
1116.784464  	0.056394 
1118.713280  	0.051936 
1120.642096  	0.047576 
1122.570912  	0.043541 
1124.499728  	0.040201 
1126.428544  	0.037102 
1128.357360  	0.034381 
1130.286176  	0.031845 
1132.214992  	0.029951 
1134.143808  	0.028342 
1136.072624  	0.026903 
1138.001440  	0.025456 
1139.930256  	0.024405 
1141.859072  	0.023273 
1143.787888  	0.022161 
1145.716704  	0.021107 
1147.645520  	0.020084 
1149.574336  	0.019268 
1151.503152  	0.018930 
1153.431968  	0.019088 
1155.360784  	0.019187 
1157.289600  	0.019439 
1159.218416  	0.019961 
1161.147232  	0.020917 
1163.076048  	0.021969 
1165.004864  	0.022947 
1166.933680  	0.023971 
1168.862496  	0.025073 
1170.791312  	0.026387 
1172.720128  	0.027706 
1174.648944  	0.029424 
1176.577760  	0.031076 
1178.506576  	0.032934 
1180.435392  	0.034766 
1182.364208  	0.036609 
1184.293024  	0.038715 
1186.221840  	0.040975 
1188.150656  	0.043687 
1190.079472  	0.046997 
1192.008288  	0.050781 
1193.937104  	0.054945 
1195.865920  	0.059583 
1197.794736  	0.064908 
1199.723552  	0.070309 
1201.652368  	0.075797 
1203.581184  	0.081185 
1205.510000  	0.086268 
1207.438816  	0.091126 
1209.367632  	0.095621 
1211.296448  	0.098977 
1213.225264  	0.101872 
1215.154080  	0.103531 
1217.082896  	0.104563 
1219.011712  	0.104763 
1220.940528  	0.104945 
1222.869344  	0.104515 
1224.798160  	0.103638 
1226.726976  	0.102133 
1228.655792  	0.100615 
1230.584608  	0.098686 
1232.513424  	0.096329 
1234.442240  	0.093587 
1236.371056  	0.090692 
1238.299872  	0.087432 
1240.228688  	0.083456 
1242.157504  	0.079473 
1244.086320  	0.075779 
1246.015136  	0.071876 
1247.943952  	0.067750 
1249.872768  	0.063638 
1251.801584  	0.059943 
1253.730400  	0.056075 
1255.659216  	0.052432 
1257.588032  	0.048843 
1259.516848  	0.045540 
1261.445664  	0.042498 
1263.374480  	0.039678 
1265.303296  	0.037220 
1267.232112  	0.035249 
1269.160928  	0.033676 
1271.089744  	0.032717 
1273.018560  	0.032208 
1274.947376  	0.032213 
1276.876192  	0.032438 
1278.805008  	0.032524 
1280.733824  	0.032310 
1282.662640  	0.031510 
1284.591456  	0.030378 
1286.520272  	0.029315 
1288.449088  	0.028650 
1290.377904  	0.028545 
1292.306720  	0.028734 
1294.235536  	0.028838 
1296.164352  	0.028469 
1298.093168  	0.027412 
1300.021984  	0.025815 
1301.950800  	0.024165 
1303.879616  	0.022401 
1305.808432  	0.020577 
1307.737248  	0.018631 
1309.666064  	0.016890 
1311.594880  	0.015431 
1313.523696  	0.014507 
1315.452512  	0.013690 
1317.381328  	0.013301 
1319.310144  	0.013511 
1321.238960  	0.013696 
1323.167776  	0.014029 
1325.096592  	0.014430 
1327.025408  	0.014706 
1328.954224  	0.014751 
1330.883040  	0.014427 
1332.811856  	0.013814 
1334.740672  	0.013008 
1336.669488  	0.012478 
1338.598304  	0.012445 
1340.527120  	0.012633 
1342.455936  	0.012005 
1344.384752  	0.011634 
1346.313568  	0.011764 
1348.242384  	0.012258 
1350.171200  	0.013179 
1352.100016  	0.014284 
1354.028832  	0.015359 
1355.957648  	0.016661 
1357.886464  	0.017626 
1359.815280  	0.018500 
1361.744096  	0.020015 
1363.672912  	0.022409 
1365.601728  	0.023001 
1367.530544  	0.023376 
1369.459360  	0.024177 
1371.388176  	0.023806 
1373.316992  	0.023113 
1375.245808  	0.022815 
1377.174624  	0.021189 
1379.103440  	0.019562 
1381.032256  	0.017882 
1382.961072  	0.016477 
1384.889888  	0.014983 
1386.818704  	0.014664 
1388.747520  	0.014504 
1390.676336  	0.012715 
1392.605152  	0.010405 
1394.533968  	0.009868 
1396.462784  	0.010738 
1398.391600  	0.010763 
1400.320416  	0.011616 
1402.249232  	0.011034 
1404.178048  	0.011357 
1406.106864  	0.012563 
1408.035680  	0.013028 
1409.964496  	0.013824 
1411.893312  	0.015338 
1413.822128  	0.016330 
1415.750944  	0.016857 
1417.679760  	0.017305 
1419.608576  	0.019900 
1421.537392  	0.019620 
1423.466208  	0.018607 
1425.395024  	0.018535 
1427.323840  	0.016553 
1429.252656  	0.015189 
1431.181472  	0.014827 
1433.110288  	0.014101 
1435.039104  	0.012960 
1436.967920  	0.015423 
1438.896736  	0.016523 
1440.825552  	0.015983 
1442.754368  	0.016015 
1444.683184  	0.015612 
1446.612000  	0.015126 
1448.540816  	0.015969 
1450.469632  	0.015866 
1452.398448  	0.015240 
1454.327264  	0.013664 
1456.256080  	0.012799 
1458.184896  	0.017245 
1460.113712  	0.017574 
1462.042528  	0.015826 
1463.971344  	0.015265 
1465.900160  	0.017801 
1467.828976  	0.018295 
1469.757792  	0.017689 
1471.686608  	0.018794 
1473.615424  	0.025103 
1475.544240  	0.028349 
1477.473056  	0.031596 
1479.401872  	0.032563 
1481.330688  	0.034203 
1483.259504  	0.035420 
1485.188320  	0.034983 
1487.117136  	0.034414 
1489.045952  	0.035142 
1490.974768  	0.036448 
1492.903584  	0.033883 
1494.832400  	0.029776 
1496.761216  	0.027584 
1498.690032  	0.025659 
1500.618848  	0.023271 
1502.547664  	0.019488 
1504.476480  	0.014307 
1506.405296  	0.012542 
1508.334112  	0.017371 
1510.262928  	0.015247 
1512.191744  	0.013665 
1514.120560  	0.012025 
1516.049376  	0.011225 
1517.978192  	0.012403 
1519.907008  	0.011241 
1521.835824  	0.015289 
1523.764640  	0.017926 
1525.693456  	0.019412 
1527.622272  	0.021816 
1529.551088  	0.021631 
1531.479904  	0.019340 
1533.408720  	0.018997 
1535.337536  	0.018462 
1537.266352  	0.013497 
1539.195168  	0.009076 
1541.123984  	0.011161 
1543.052800  	0.012057 
1544.981616  	0.012259 
1546.910432  	0.011148 
1548.839248  	0.009513 
1550.768064  	0.010067 
1552.696880  	0.008634 
1554.625696  	0.008393 
1556.554512  	0.005665 
1558.483328  	0.005662 
1560.412144  	0.016644 
1562.340960  	0.015166 
1564.269776  	0.015298 
1566.198592  	0.017534 
1568.127408  	0.017611 
1570.056224  	0.023087 
1571.985040  	0.025831 
1573.913856  	0.024542 
1575.842672  	0.026375 
1577.771488  	0.031291 
1579.700304  	0.029827 
1581.629120  	0.028961 
1583.557936  	0.028401 
1585.486752  	0.028567 
1587.415568  	0.029190 
1589.344384  	0.031179 
1591.273200  	0.033718 
1593.202016  	0.036671 
1595.130832  	0.040207 
1597.059648  	0.044080 
1598.988464  	0.046593 
1600.917280  	0.048890 
1602.846096  	0.050593 
1604.774912  	0.051531 
1606.703728  	0.050829 
1608.632544  	0.050456 
1610.561360  	0.049470 
1612.490176  	0.047735 
1614.418992  	0.043560 
1616.347808  	0.044115 
1618.276624  	0.048804 
1620.205440  	0.046940 
1622.134256  	0.046080 
1624.063072  	0.052058 
1625.991888  	0.053817 
1627.920704  	0.057697 
1629.849520  	0.062981 
1631.778336  	0.063925 
1633.707152  	0.062641 
1635.635968  	0.070589 
1637.564784  	0.081271 
1639.493600  	0.080947 
1641.422416  	0.081503 
1643.351232  	0.079923 
1645.280048  	0.077057 
1647.208864  	0.084402 
1649.137680  	0.085928 
1651.066496  	0.076459 
1652.995312  	0.079179 
1654.924128  	0.091422 
1656.852944  	0.085108 
1658.781760  	0.081305 
1660.710576  	0.077913 
1662.639392  	0.078143 
1664.568208  	0.078639 
1666.497024  	0.073203 
1668.425840  	0.069676 
1670.354656  	0.071903 
1672.283472  	0.069914 
1674.212288  	0.065960 
1676.141104  	0.068869 
1678.069920  	0.066238 
1679.998736  	0.063767 
1681.927552  	0.059916 
1683.856368  	0.061206 
1685.785184  	0.069868 
1687.714000  	0.066167 
1689.642816  	0.065855 
1691.571632  	0.065159 
1693.500448  	0.061019 
1695.429264  	0.060119 
1697.358080  	0.062078 
1699.286896  	0.058432 
1701.215712  	0.065281 
1703.144528  	0.061063 
1705.073344  	0.058219 
1707.002160  	0.058254 
1708.930976  	0.055558 
1710.859792  	0.052049 
1712.788608  	0.047500 
1714.717424  	0.042565 
1716.646240  	0.038252 
1718.575056  	0.036586 
1720.503872  	0.031752 
1722.432688  	0.026171 
1724.361504  	0.021829 
1726.290320  	0.017285 
1728.219136  	0.012986 
1730.147952  	0.009670 
1732.076768  	0.005738 
1734.005584  	0.004615 
1735.934400  	0.004687 
1737.863216  	0.001508 
1739.792032  	0.000386 
1741.720848  	-0.000004 
1743.649664  	-0.000712 
1745.578480  	-0.001930 
1747.507296  	-0.003082 
1749.436112  	-0.003230 
1751.364928  	-0.002290 
1753.293744  	-0.002400 
1755.222560  	-0.003684 
1757.151376  	-0.003346 
1759.080192  	-0.003935 
1761.009008  	-0.004405 
1762.937824  	-0.003628 
1764.866640  	-0.004286 
1766.795456  	-0.005080 
1768.724272  	-0.005223 
1770.653088  	-0.006988 
1772.581904  	-0.005827 
1774.510720  	-0.004508 
1776.439536  	-0.004648 
1778.368352  	-0.005153 
1780.297168  	-0.005361 
1782.225984  	-0.005145 
1784.154800  	-0.005110 
1786.083616  	-0.004940 
1788.012432  	-0.005615 
1789.941248  	-0.006449 
1791.870064  	-0.006145 
1793.798880  	-0.005322 
1795.727696  	-0.005452 
1797.656512  	-0.006135 
1799.585328  	-0.006597 
1801.514144  	-0.005602 
1803.442960  	-0.005476 
1805.371776  	-0.006025 
1807.300592  	-0.006211 
1809.229408  	-0.006429 
1811.158224  	-0.006195 
1813.087040  	-0.005960 
1815.015856  	-0.006461 
1816.944672  	-0.006486 
1818.873488  	-0.006326 
1820.802304  	-0.006370 
1822.731120  	-0.006680 
1824.659936  	-0.006615 
1826.588752  	-0.006618 
1828.517568  	-0.007510 
1830.446384  	-0.006345 
1832.375200  	-0.005993 
1834.304016  	-0.006264 
1836.232832  	-0.006143 
1838.161648  	-0.006323 
1840.090464  	-0.006670 
1842.019280  	-0.007286 
1843.948096  	-0.006863 
1845.876912  	-0.006156 
1847.805728  	-0.006391 
1849.734544  	-0.006317 
1851.663360  	-0.006625 
1853.592176  	-0.006734 
1855.520992  	-0.006969 
1857.449808  	-0.006755 
1859.378624  	-0.006510 
1861.307440  	-0.006201 
1863.236256  	-0.006445 
1865.165072  	-0.007316 
1867.093888  	-0.007856 
1869.022704  	-0.006547 
1870.951520  	-0.005998 
1872.880336  	-0.006574 
1874.809152  	-0.006851 
1876.737968  	-0.007062 
1878.666784  	-0.007035 
1880.595600  	-0.006731 
1882.524416  	-0.006574 
1884.453232  	-0.006588 
1886.382048  	-0.006910 
1888.310864  	-0.007047 
1890.239680  	-0.006354 
1892.168496  	-0.006587 
1894.097312  	-0.007251 
1896.026128  	-0.007084 
1897.954944  	-0.006703 
1899.883760  	-0.006641 
1901.812576  	-0.006731 
1903.741392  	-0.006680 
1905.670208  	-0.006888 
1907.599024  	-0.006998 
1909.527840  	-0.006699 
1911.456656  	-0.006302 
1913.385472  	-0.006112 
1915.314288  	-0.006907 
1917.243104  	-0.007632 
1919.171920  	-0.006947 
1921.100736  	-0.007115 
1923.029552  	-0.006559 
1924.958368  	-0.006735 
1926.887184  	-0.007390 
1928.816000  	-0.007124 
1930.744816  	-0.006931 
1932.673632  	-0.007283 
1934.602448  	-0.007367 
1936.531264  	-0.007489 
1938.460080  	-0.008057 
1940.388896  	-0.008597 
1942.317712  	-0.007913 
1944.246528  	-0.007482 
1946.175344  	-0.007314 
1948.104160  	-0.007111 
1950.032976  	-0.007805 
1951.961792  	-0.008454 
1953.890608  	-0.008353 
1955.819424  	-0.008233 
1957.748240  	-0.008366 
1959.677056  	-0.009242 
1961.605872  	-0.008909 
1963.534688  	-0.008965 
1965.463504  	-0.009005 
1967.392320  	-0.009464 
1969.321136  	-0.009837 
1971.249952  	-0.009879 
1973.178768  	-0.009285 
1975.107584  	-0.008570 
1977.036400  	-0.008379 
1978.965216  	-0.007397 
1980.894032  	-0.007383 
1982.822848  	-0.008082 
1984.751664  	-0.007639 
1986.680480  	-0.007332 
1988.609296  	-0.007245 
1990.538112  	-0.008024 
1992.466928  	-0.008460 
1994.395744  	-0.008717 
1996.324560  	-0.008268 
1998.253376  	-0.007761 
2000.182192  	-0.008067 
2002.111008  	-0.008599 
2004.039824  	-0.008525 
2005.968640  	-0.008469 
2007.897456  	-0.008962 
2009.826272  	-0.008692 
2011.755088  	-0.008469 
2013.683904  	-0.008635 
2015.612720  	-0.008464 
2017.541536  	-0.007532 
2019.470352  	-0.006362 
2021.399168  	-0.006802 
2023.327984  	-0.007359 
2025.256800  	-0.007598 
2027.185616  	-0.007956 
2029.114432  	-0.008002 
2031.043248  	-0.008012 
2032.972064  	-0.007828 
2034.900880  	-0.006583 
2036.829696  	-0.006453 
2038.758512  	-0.006306 
2040.687328  	-0.006367 
2042.616144  	-0.005790 
2044.544960  	-0.005975 
2046.473776  	-0.006756 
2048.402592  	-0.006736 
2050.331408  	-0.006447 
2052.260224  	-0.006927 
2054.189040  	-0.007662 
2056.117856  	-0.007438 
2058.046672  	-0.006743 
2059.975488  	-0.006514 
2061.904304  	-0.006563 
2063.833120  	-0.007150 
2065.761936  	-0.006453 
2067.690752  	-0.005963 
2069.619568  	-0.006507 
2071.548384  	-0.006930 
2073.477200  	-0.006981 
2075.406016  	-0.006679 
2077.334832  	-0.006488 
2079.263648  	-0.006589 
2081.192464  	-0.006362 
2083.121280  	-0.006270 
2085.050096  	-0.006635 
2086.978912  	-0.007082 
2088.907728  	-0.006660 
2090.836544  	-0.006708 
2092.765360  	-0.007003 
2094.694176  	-0.007140 
2096.622992  	-0.007078 
2098.551808  	-0.006512 
2100.480624  	-0.006282 
2102.409440  	-0.006414 
2104.338256  	-0.006613 
2106.267072  	-0.006380 
2108.195888  	-0.006102 
2110.124704  	-0.006476 
2112.053520  	-0.006568 
2113.982336  	-0.006207 
2115.911152  	-0.006365 
2117.839968  	-0.006553 
2119.768784  	-0.006864 
2121.697600  	-0.007605 
2123.626416  	-0.007526 
2125.555232  	-0.007287 
2127.484048  	-0.007500 
2129.412864  	-0.007700 
2131.341680  	-0.007617 
2133.270496  	-0.008079 
2135.199312  	-0.007932 
2137.128128  	-0.007382 
2139.056944  	-0.007184 
2140.985760  	-0.007684 
2142.914576  	-0.007711 
2144.843392  	-0.007308 
2146.772208  	-0.007288 
2148.701024  	-0.007083 
2150.629840  	-0.006368 
2152.558656  	-0.007724 
2154.487472  	-0.009055 
2156.416288  	-0.008787 
2158.345104  	-0.006231 
2160.273920  	-0.004454 
2162.202736  	-0.003525 
2164.131552  	-0.003522 
2166.060368  	-0.004136 
2167.989184  	-0.005008 
2169.918000  	-0.005027 
2171.846816  	-0.004959 
2173.775632  	-0.005306 
2175.704448  	-0.005198 
2177.633264  	-0.005355 
2179.562080  	-0.006316 
2181.490896  	-0.006780 
2183.419712  	-0.006558 
2185.348528  	-0.006212 
2187.277344  	-0.005101 
2189.206160  	-0.004855 
2191.134976  	-0.005114 
2193.063792  	-0.004637 
2194.992608  	-0.005184 
2196.921424  	-0.005416 
2198.850240  	-0.005330 
2200.779056  	-0.005069 
2202.707872  	-0.005432 
2204.636688  	-0.005845 
2206.565504  	-0.005561 
2208.494320  	-0.005331 
2210.423136  	-0.005916 
2212.351952  	-0.006068 
2214.280768  	-0.005174 
2216.209584  	-0.004668 
2218.138400  	-0.005311 
2220.067216  	-0.005880 
2221.996032  	-0.005235 
2223.924848  	-0.004662 
2225.853664  	-0.004952 
2227.782480  	-0.005420 
2229.711296  	-0.005589 
2231.640112  	-0.006166 
2233.568928  	-0.006315 
2235.497744  	-0.005926 
2237.426560  	-0.005778 
2239.355376  	-0.005974 
2241.284192  	-0.005916 
2243.213008  	-0.006050 
2245.141824  	-0.006190 
2247.070640  	-0.005604 
2248.999456  	-0.005907 
2250.928272  	-0.006531 
2252.857088  	-0.006572 
2254.785904  	-0.006519 
2256.714720  	-0.006193 
2258.643536  	-0.006435 
2260.572352  	-0.006793 
2262.501168  	-0.006786 
2264.429984  	-0.006422 
2266.358800  	-0.006201 
2268.287616  	-0.006001 
2270.216432  	-0.005881 
2272.145248  	-0.006050 
2274.074064  	-0.005824 
2276.002880  	-0.005630 
2277.931696  	-0.005801 
2279.860512  	-0.005690 
2281.789328  	-0.005192 
2283.718144  	-0.004869 
2285.646960  	-0.004770 
2287.575776  	-0.004928 
2289.504592  	-0.004778 
2291.433408  	-0.004684 
2293.362224  	-0.004594 
2295.291040  	-0.004281 
2297.219856  	-0.004223 
2299.148672  	-0.004215 
2301.077488  	-0.003869 
2303.006304  	-0.003669 
2304.935120  	-0.003575 
2306.863936  	-0.003439 
2308.792752  	-0.003219 
2310.721568  	-0.003032 
2312.650384  	-0.003024 
2314.579200  	-0.003248 
2316.508016  	-0.003444 
2318.436832  	-0.003577 
2320.365648  	-0.003323 
2322.294464  	-0.002732 
2324.223280  	-0.003187 
2326.152096  	-0.004686 
2328.080912  	-0.005203 
2330.009728  	-0.005040 
2331.938544  	-0.005153 
2333.867360  	-0.005932 
2335.796176  	-0.006418 
2337.724992  	-0.006551 
2339.653808  	-0.006722 
2341.582624  	-0.006561 
2343.511440  	-0.005557 
2345.440256  	-0.004132 
2347.369072  	-0.003804 
2349.297888  	-0.004985 
2351.226704  	-0.006111 
2353.155520  	-0.006911 
2355.084336  	-0.007478 
2357.013152  	-0.007852 
2358.941968  	-0.007884 
2360.870784  	-0.006966 
2362.799600  	-0.006540 
2364.728416  	-0.005895 
2366.657232  	-0.004833 
2368.586048  	-0.004290 
2370.514864  	-0.003780 
2372.443680  	-0.003156 
2374.372496  	-0.002971 
2376.301312  	-0.002852 
2378.230128  	-0.002645 
2380.158944  	-0.002712 
2382.087760  	-0.003235 
2384.016576  	-0.003966 
2385.945392  	-0.004671 
2387.874208  	-0.005001 
2389.803024  	-0.005068 
2391.731840  	-0.005077 
2393.660656  	-0.005254 
2395.589472  	-0.005354 
2397.518288  	-0.005286 
2399.447104  	-0.005231 
2401.375920  	-0.005040 
2403.304736  	-0.004756 
2405.233552  	-0.004661 
2407.162368  	-0.004636 
2409.091184  	-0.004665 
2411.020000  	-0.004744 
2412.948816  	-0.004872 
2414.877632  	-0.004803 
2416.806448  	-0.004616 
2418.735264  	-0.004714 
2420.664080  	-0.004750 
2422.592896  	-0.004642 
2424.521712  	-0.004590 
2426.450528  	-0.004413 
2428.379344  	-0.004145 
2430.308160  	-0.003964 
2432.236976  	-0.004078 
2434.165792  	-0.004267 
2436.094608  	-0.004096 
2438.023424  	-0.004094 
2439.952240  	-0.004079 
2441.881056  	-0.003945 
2443.809872  	-0.003870 
2445.738688  	-0.003791 
2447.667504  	-0.003661 
2449.596320  	-0.003634 
2451.525136  	-0.003541 
2453.453952  	-0.003469 
2455.382768  	-0.003456 
2457.311584  	-0.003573 
2459.240400  	-0.003837 
2461.169216  	-0.003821 
2463.098032  	-0.003690 
2465.026848  	-0.003610 
2466.955664  	-0.003572 
2468.884480  	-0.003532 
2470.813296  	-0.003600 
2472.742112  	-0.003621 
2474.670928  	-0.003547 
2476.599744  	-0.003476 
2478.528560  	-0.003332 
2480.457376  	-0.003342 
2482.386192  	-0.003502 
2484.315008  	-0.003474 
2486.243824  	-0.003389 
2488.172640  	-0.002968 
2490.101456  	-0.002612 
2492.030272  	-0.002762 
2493.959088  	-0.003136 
2495.887904  	-0.003012 
2497.816720  	-0.002701 
2499.745536  	-0.002676 
2501.674352  	-0.002508 
2503.603168  	-0.002363 
2505.531984  	-0.002435 
2507.460800  	-0.002411 
2509.389616  	-0.002379 
2511.318432  	-0.002696 
2513.247248  	-0.002874 
2515.176064  	-0.002775 
2517.104880  	-0.002571 
2519.033696  	-0.002179 
2520.962512  	-0.002057 
2522.891328  	-0.002014 
2524.820144  	-0.001988 
2526.748960  	-0.002148 
2528.677776  	-0.002223 
2530.606592  	-0.002146 
2532.535408  	-0.001905 
2534.464224  	-0.001915 
2536.393040  	-0.002124 
2538.321856  	-0.002080 
2540.250672  	-0.002041 
2542.179488  	-0.002045 
2544.108304  	-0.001904 
2546.037120  	-0.001691 
2547.965936  	-0.001693 
2549.894752  	-0.001781 
2551.823568  	-0.001881 
2553.752384  	-0.001938 
2555.681200  	-0.001786 
2557.610016  	-0.001576 
2559.538832  	-0.001488 
2561.467648  	-0.001463 
2563.396464  	-0.001389 
2565.325280  	-0.001399 
2567.254096  	-0.001405 
2569.182912  	-0.001284 
2571.111728  	-0.001026 
2573.040544  	-0.000889 
2574.969360  	-0.000682 
2576.898176  	-0.000429 
2578.826992  	-0.000501 
2580.755808  	-0.000725 
2582.684624  	-0.000718 
2584.613440  	-0.000549 
2586.542256  	-0.000580 
2588.471072  	-0.000696 
2590.399888  	-0.000529 
2592.328704  	-0.000399 
2594.257520  	-0.000378 
2596.186336  	-0.000457 
2598.115152  	-0.000475 
2600.043968  	-0.000413 
2601.972784  	-0.000381 
2603.901600  	-0.000398 
2605.830416  	-0.000205 
2607.759232  	-0.000098 
2609.688048  	-0.000252 
2611.616864  	-0.000335 
2613.545680  	-0.000047 
2615.474496  	0.000162 
2617.403312  	0.000145 
2619.332128  	0.000224 
2621.260944  	0.000260 
2623.189760  	0.000231 
2625.118576  	0.000330 
2627.047392  	0.000459 
2628.976208  	0.000487 
2630.905024  	0.000617 
2632.833840  	0.000849 
2634.762656  	0.000913 
2636.691472  	0.000841 
2638.620288  	0.000905 
2640.549104  	0.001096 
2642.477920  	0.001254 
2644.406736  	0.001280 
2646.335552  	0.001320 
2648.264368  	0.001372 
2650.193184  	0.001369 
2652.122000  	0.001400 
2654.050816  	0.001510 
2655.979632  	0.001584 
2657.908448  	0.001617 
2659.837264  	0.001719 
2661.766080  	0.001901 
2663.694896  	0.001880 
2665.623712  	0.001731 
2667.552528  	0.001814 
2669.481344  	0.001963 
2671.410160  	0.002127 
2673.338976  	0.002247 
2675.267792  	0.002246 
2677.196608  	0.002225 
2679.125424  	0.002216 
2681.054240  	0.002262 
2682.983056  	0.002325 
2684.911872  	0.002395 
2686.840688  	0.002438 
2688.769504  	0.002484 
2690.698320  	0.002559 
2692.627136  	0.002701 
2694.555952  	0.002803 
2696.484768  	0.002868 
2698.413584  	0.002951 
2700.342400  	0.002959 
2702.271216  	0.002999 
2704.200032  	0.003133 
2706.128848  	0.003195 
2708.057664  	0.003233 
2709.986480  	0.003292 
2711.915296  	0.003343 
2713.844112  	0.003464 
2715.772928  	0.003500 
2717.701744  	0.003498 
2719.630560  	0.003572 
2721.559376  	0.003667 
2723.488192  	0.003721 
2725.417008  	0.003782 
2727.345824  	0.003782 
2729.274640  	0.003778 
2731.203456  	0.003850 
2733.132272  	0.004038 
2735.061088  	0.004216 
2736.989904  	0.004321 
2738.918720  	0.004399 
2740.847536  	0.004316 
2742.776352  	0.004345 
2744.705168  	0.004466 
2746.633984  	0.004496 
2748.562800  	0.004594 
2750.491616  	0.004764 
2752.420432  	0.004882 
2754.349248  	0.004821 
2756.278064  	0.004789 
2758.206880  	0.004844 
2760.135696  	0.004833 
2762.064512  	0.004839 
2763.993328  	0.004829 
2765.922144  	0.004780 
2767.850960  	0.004846 
2769.779776  	0.004910 
2771.708592  	0.004848 
2773.637408  	0.004729 
2775.566224  	0.004660 
2777.495040  	0.004722 
2779.423856  	0.004787 
2781.352672  	0.004845 
2783.281488  	0.004875 
2785.210304  	0.004824 
2787.139120  	0.004815 
2789.067936  	0.004828 
2790.996752  	0.004783 
2792.925568  	0.004784 
2794.854384  	0.004670 
2796.783200  	0.004623 
2798.712016  	0.004775 
2800.640832  	0.004876 
2802.569648  	0.004798 
2804.498464  	0.004718 
2806.427280  	0.004734 
2808.356096  	0.004730 
2810.284912  	0.004779 
2812.213728  	0.004782 
2814.142544  	0.004685 
2816.071360  	0.004656 
2818.000176  	0.004715 
2819.928992  	0.004703 
2821.857808  	0.004745 
2823.786624  	0.004637 
2825.715440  	0.004485 
2827.644256  	0.004469 
2829.573072  	0.004412 
2831.501888  	0.004332 
2833.430704  	0.004198 
2835.359520  	0.004001 
2837.288336  	0.003909 
2839.217152  	0.003925 
2841.145968  	0.003783 
2843.074784  	0.003598 
2845.003600  	0.003485 
2846.932416  	0.003465 
2848.861232  	0.003456 
2850.790048  	0.003297 
2852.718864  	0.003240 
2854.647680  	0.003206 
2856.576496  	0.003064 
2858.505312  	0.002941 
2860.434128  	0.002949 
2862.362944  	0.002941 
2864.291760  	0.002797 
2866.220576  	0.002683 
2868.149392  	0.002632 
2870.078208  	0.002530 
2872.007024  	0.002476 
2873.935840  	0.002604 
2875.864656  	0.002783 
2877.793472  	0.002918 
2879.722288  	0.003066 
2881.651104  	0.003169 
2883.579920  	0.003017 
2885.508736  	0.002948 
2887.437552  	0.003024 
2889.366368  	0.003049 
2891.295184  	0.002980 
2893.224000  	0.002875 
2895.152816  	0.002876 
2897.081632  	0.002586 
2899.010448  	0.001935 
2900.939264  	0.001487 
2902.868080  	0.001675 
2904.796896  	0.001852 
2906.725712  	0.001961 
2908.654528  	0.002010 
2910.583344  	0.002130 
2912.512160  	0.002572 
2914.440976  	0.003053 
2916.369792  	0.003378 
2918.298608  	0.003470 
2920.227424  	0.003578 
2922.156240  	0.003770 
2924.085056  	0.004000 
2926.013872  	0.004414 
2927.942688  	0.004951 
2929.871504  	0.005342 
2931.800320  	0.005500 
2933.729136  	0.005851 
2935.657952  	0.006186 
2937.586768  	0.006379 
2939.515584  	0.006561 
2941.444400  	0.006710 
2943.373216  	0.006763 
2945.302032  	0.006672 
2947.230848  	0.006680 
2949.159664  	0.006796 
2951.088480  	0.006564 
2953.017296  	0.006200 
2954.946112  	0.005741 
2956.874928  	0.005423 
2958.803744  	0.005171 
2960.732560  	0.004746 
2962.661376  	0.004253 
2964.590192  	0.003852 
2966.519008  	0.003382 
2968.447824  	0.002743 
2970.376640  	0.002016 
2972.305456  	0.001348 
2974.234272  	0.000836 
2976.163088  	0.000324 
2978.091904  	-0.000010 
2980.020720  	-0.000179 
2981.949536  	-0.000278 
2983.878352  	-0.000228 
2985.807168  	-0.000274 
2987.735984  	-0.000235 
2989.664800  	0.000138 
2991.593616  	0.000940 
2993.522432  	0.001468 
2995.451248  	0.001830 
2997.380064  	0.002315 
2999.308880  	0.002666 
3001.237696  	0.002946 
3003.166512  	0.003119 
3005.095328  	0.003219 
3007.024144  	0.003439 
3008.952960  	0.003917 
3010.881776  	0.004236 
3012.810592  	0.004323 
3014.739408  	0.004489 
3016.668224  	0.004879 
3018.597040  	0.005078 
3020.525856  	0.005015 
3022.454672  	0.005191 
3024.383488  	0.005385 
3026.312304  	0.005563 
3028.241120  	0.005664 
3030.169936  	0.005741 
3032.098752  	0.005928 
3034.027568  	0.005917 
3035.956384  	0.005997 
3037.885200  	0.005980 
3039.814016  	0.005898 
3041.742832  	0.005933 
3043.671648  	0.006106 
3045.600464  	0.006356 
3047.529280  	0.006325 
3049.458096  	0.006369 
3051.386912  	0.006498 
3053.315728  	0.006517 
3055.244544  	0.006413 
3057.173360  	0.006665 
3059.102176  	0.006717 
3061.030992  	0.006725 
3062.959808  	0.006676 
3064.888624  	0.006839 
3066.817440  	0.007150 
3068.746256  	0.007319 
3070.675072  	0.007150 
3072.603888  	0.007105 
3074.532704  	0.007248 
3076.461520  	0.007211 
3078.390336  	0.007243 
3080.319152  	0.007498 
3082.247968  	0.007699 
3084.176784  	0.007678 
3086.105600  	0.007666 
3088.034416  	0.007883 
3089.963232  	0.008009 
3091.892048  	0.007951 
3093.820864  	0.007930 
3095.749680  	0.008083 
3097.678496  	0.008093 
3099.607312  	0.008232 
3101.536128  	0.008530 
3103.464944  	0.008564 
3105.393760  	0.008451 
3107.322576  	0.008404 
3109.251392  	0.008594 
3111.180208  	0.008757 
3113.109024  	0.008374 
3115.037840  	0.008123 
3116.966656  	0.008141 
3118.895472  	0.008335 
3120.824288  	0.008264 
3122.753104  	0.008171 
3124.681920  	0.007989 
3126.610736  	0.007926 
3128.539552  	0.007888 
3130.468368  	0.007605 
3132.397184  	0.007581 
3134.326000  	0.007536 
3136.254816  	0.007142 
3138.183632  	0.006952 
3140.112448  	0.007121 
3142.041264  	0.007145 
3143.970080  	0.007017 
3145.898896  	0.006873 
3147.827712  	0.006778 
3149.756528  	0.006768 
3151.685344  	0.006748 
3153.614160  	0.006683 
3155.542976  	0.006628 
3157.471792  	0.006599 
3159.400608  	0.006447 
3161.329424  	0.006257 
3163.258240  	0.006090 
3165.187056  	0.006033 
3167.115872  	0.006071 
3169.044688  	0.006168 
3170.973504  	0.006191 
3172.902320  	0.005839 
3174.831136  	0.005206 
3176.759952  	0.004991 
3178.688768  	0.005403 
3180.617584  	0.005387 
3182.546400  	0.004992 
3184.475216  	0.004673 
3186.404032  	0.004519 
3188.332848  	0.004243 
3190.261664  	0.003983 
3192.190480  	0.003736 
3194.119296  	0.003557 
3196.048112  	0.003378 
3197.976928  	0.003098 
3199.905744  	0.002767 
3201.834560  	0.002554 
3203.763376  	0.002301 
3205.692192  	0.002006 
3207.621008  	0.001369 
3209.549824  	0.001035 
3211.478640  	0.001014 
3213.407456  	0.000823 
3215.336272  	0.000809 
3217.265088  	0.000335 
3219.193904  	0.000077 
3221.122720  	0.000116 
3223.051536  	-0.000104 
3224.980352  	-0.000556 
3226.909168  	-0.000842 
3228.837984  	-0.000953 
3230.766800  	-0.001129 
3232.695616  	-0.001348 
3234.624432  	-0.001719 
3236.553248  	-0.001908 
3238.482064  	-0.001894 
3240.410880  	-0.001787 
3242.339696  	-0.002040 
3244.268512  	-0.002143 
3246.197328  	-0.001755 
3248.126144  	-0.002121 
3250.054960  	-0.002155 
3251.983776  	-0.002388 
3253.912592  	-0.002224 
3255.841408  	-0.001864 
3257.770224  	-0.001769 
3259.699040  	-0.001833 
3261.627856  	-0.001828 
3263.556672  	-0.001995 
3265.485488  	-0.001857 
3267.414304  	-0.001565 
3269.343120  	-0.001524 
3271.271936  	-0.001666 
3273.200752  	-0.001461 
3275.129568  	-0.001079 
3277.058384  	-0.000959 
3278.987200  	-0.000974 
3280.916016  	-0.000868 
3282.844832  	-0.000970 
3284.773648  	-0.001126 
3286.702464  	-0.001284 
3288.631280  	-0.001244 
3290.560096  	-0.001129 
3292.488912  	-0.000774 
3294.417728  	-0.000623 
3296.346544  	-0.000669 
3298.275360  	-0.000296 
3300.204176  	-0.000099 
3302.132992  	0.000085 
3304.061808  	0.000179 
3305.990624  	0.000108 
3307.919440  	0.000053 
3309.848256  	0.000278 
3311.777072  	0.000499 
3313.705888  	0.000800 
3315.634704  	0.000818 
3317.563520  	0.000892 
3319.492336  	0.001000 
3321.421152  	0.001072 
3323.349968  	0.001271 
3325.278784  	0.001330 
3327.207600  	0.001511 
3329.136416  	0.001603 
3331.065232  	0.001453 
3332.994048  	0.001480 
3334.922864  	0.001640 
3336.851680  	0.001874 
3338.780496  	0.001854 
3340.709312  	0.001576 
3342.638128  	0.001478 
3344.566944  	0.001336 
3346.495760  	0.001067 
3348.424576  	0.000894 
3350.353392  	0.000882 
3352.282208  	0.000701 
3354.211024  	0.000562 
3356.139840  	0.000609 
3358.068656  	0.000601 
3359.997472  	0.000366 
3361.926288  	0.000115 
3363.855104  	-0.000082 
3365.783920  	0.000235 
3367.712736  	0.000076 
3369.641552  	-0.000252 
3371.570368  	-0.000304 
3373.499184  	-0.000367 
3375.428000  	-0.000582 
3377.356816  	-0.000560 
3379.285632  	-0.000402 
3381.214448  	-0.000583 
3383.143264  	-0.000845 
3385.072080  	-0.000491 
3387.000896  	-0.000375 
3388.929712  	-0.000822 
3390.858528  	-0.001327 
3392.787344  	-0.000980 
3394.716160  	-0.000926 
3396.644976  	-0.001081 
3398.573792  	-0.000908 
3400.502608  	-0.001120 
3402.431424  	-0.001015 
3404.360240  	-0.000966 
3406.289056  	-0.001146 
3408.217872  	-0.001208 
3410.146688  	-0.001355 
3412.075504  	-0.001476 
3414.004320  	-0.001424 
3415.933136  	-0.001552 
3417.861952  	-0.001838 
3419.790768  	-0.001890 
3421.719584  	-0.001391 
3423.648400  	-0.001374 
3425.577216  	-0.001699 
3427.506032  	-0.001835 
3429.434848  	-0.001939 
3431.363664  	-0.001818 
3433.292480  	-0.001647 
3435.221296  	-0.001852 
3437.150112  	-0.002050 
3439.078928  	-0.002071 
3441.007744  	-0.002110 
3442.936560  	-0.001861 
3444.865376  	-0.002547 
3446.794192  	-0.002092 
3448.723008  	-0.001059 
3450.651824  	-0.002018 
3452.580640  	-0.002327 
3454.509456  	-0.002211 
3456.438272  	-0.002320 
3458.367088  	-0.002700 
3460.295904  	-0.002690 
3462.224720  	-0.002302 
3464.153536  	-0.002312 
3466.082352  	-0.002638 
3468.011168  	-0.002721 
3469.939984  	-0.003165 
3471.868800  	-0.003613 
3473.797616  	-0.003832 
3475.726432  	-0.003509 
3477.655248  	-0.003772 
3479.584064  	-0.004300 
3481.512880  	-0.004023 
3483.441696  	-0.003613 
3485.370512  	-0.004368 
3487.299328  	-0.004490 
3489.228144  	-0.004204 
3491.156960  	-0.004566 
3493.085776  	-0.005068 
3495.014592  	-0.005129 
3496.943408  	-0.004863 
3498.872224  	-0.005413 
3500.801040  	-0.006424 
3502.729856  	-0.005411 
3504.658672  	-0.004129 
3506.587488  	-0.005378 
3508.516304  	-0.005984 
3510.445120  	-0.004910 
3512.373936  	-0.005214 
3514.302752  	-0.005727 
3516.231568  	-0.006203 
3518.160384  	-0.006414 
3520.089200  	-0.006967 
3522.018016  	-0.007325 
3523.946832  	-0.006140 
3525.875648  	-0.006559 
3527.804464  	-0.006583 
3529.733280  	-0.005661 
3531.662096  	-0.005840 
3533.590912  	-0.006855 
3535.519728  	-0.006936 
3537.448544  	-0.005970 
3539.377360  	-0.006639 
3541.306176  	-0.007615 
3543.234992  	-0.008303 
3545.163808  	-0.007084 
3547.092624  	-0.005346 
3549.021440  	-0.006420 
3550.950256  	-0.007984 
3552.879072  	-0.006625 
3554.807888  	-0.006549 
3556.736704  	-0.007506 
3558.665520  	-0.007937 
3560.594336  	-0.007925 
3562.523152  	-0.008675 
3564.451968  	-0.010422 
3566.380784  	-0.008380 
3568.309600  	-0.003373 
3570.238416  	-0.005347 
3572.167232  	-0.008002 
3574.096048  	-0.008764 
3576.024864  	-0.008638 
3577.953680  	-0.008460 
3579.882496  	-0.008239 
3581.811312  	-0.008845 
3583.740128  	-0.010763 
3585.668944  	-0.012061 
3587.597760  	-0.007865 
3589.526576  	-0.006296 
3591.455392  	-0.010087 
3593.384208  	-0.011157 
3595.313024  	-0.009633 
3597.241840  	-0.009769 
3599.170656  	-0.010860 
3601.099472  	-0.009957 
3603.028288  	-0.010066 
3604.957104  	-0.012392 
3606.885920  	-0.013020 
3608.814736  	-0.010609 
3610.743552  	-0.011754 
3612.672368  	-0.012799 
3614.601184  	-0.012156 
3616.530000  	-0.014566 
3618.458816  	-0.013931 
3620.387632  	-0.010453 
3622.316448  	-0.011657 
3624.245264  	-0.014483 
3626.174080  	-0.017954 
3628.102896  	-0.017478 
3630.031712  	-0.009572 
3631.960528  	-0.012559 
3633.889344  	-0.013609 
3635.818160  	-0.013768 
3637.746976  	-0.014871 
3639.675792  	-0.015321 
3641.604608  	-0.015690 
3643.533424  	-0.016610 
3645.462240  	-0.019991 
3647.391056  	-0.021011 
3649.319872  	-0.016815 
3651.248688  	-0.011934 
3653.177504  	-0.015475 
3655.106320  	-0.017708 
3657.035136  	-0.014720 
3658.963952  	-0.015174 
3660.892768  	-0.015975 
3662.821584  	-0.016441 
3664.750400  	-0.017194 
3666.679216  	-0.019347 
3668.608032  	-0.020882 
3670.536848  	-0.016684 
3672.465664  	-0.018595 
3674.394480  	-0.021268 
3676.323296  	-0.013968 
3678.252112  	-0.014827 
3680.180928  	-0.015071 
3682.109744  	-0.015620 
3684.038560  	-0.016835 
3685.967376  	-0.018933 
3687.896192  	-0.019221 
3689.825008  	-0.015731 
3691.753824  	-0.013625 
3693.682640  	-0.014164 
3695.611456  	-0.014917 
3697.540272  	-0.015048 
3699.469088  	-0.016446 
3701.397904  	-0.015527 
3703.326720  	-0.013651 
3705.255536  	-0.014702 
3707.184352  	-0.016390 
3709.113168  	-0.017608 
3711.041984  	-0.015493 
3712.970800  	-0.011848 
3714.899616  	-0.012789 
3716.828432  	-0.014820 
3718.757248  	-0.015276 
3720.686064  	-0.015744 
3722.614880  	-0.015232 
3724.543696  	-0.014748 
3726.472512  	-0.013651 
3728.401328  	-0.014560 
3730.330144  	-0.017834 
3732.258960  	-0.018331 
3734.187776  	-0.016835 
3736.116592  	-0.012831 
3738.045408  	-0.012751 
3739.974224  	-0.015113 
3741.903040  	-0.018049 
3743.831856  	-0.017166 
3745.760672  	-0.012853 
3747.689488  	-0.017463 
3749.618304  	-0.017744 
3751.547120  	-0.013488 
3753.475936  	-0.011751 
3755.404752  	-0.014247 
3757.333568  	-0.015135 
3759.262384  	-0.013913 
3761.191200  	-0.012625 
3763.120016  	-0.014604 
3765.048832  	-0.014328 
3766.977648  	-0.013945 
3768.906464  	-0.014331 
3770.835280  	-0.012012 
3772.764096  	-0.012624 
3774.692912  	-0.013972 
3776.621728  	-0.015142 
3778.550544  	-0.015106 
3780.479360  	-0.012677 
3782.408176  	-0.013706 
3784.336992  	-0.013900 
3786.265808  	-0.013000 
3788.194624  	-0.013153 
3790.123440  	-0.013563 
3792.052256  	-0.014032 
3793.981072  	-0.015308 
3795.909888  	-0.015176 
3797.838704  	-0.015006 
3799.767520  	-0.017424 
3801.696336  	-0.013948 
3803.625152  	-0.013295 
3805.553968  	-0.016177 
3807.482784  	-0.012965 
3809.411600  	-0.012772 
3811.340416  	-0.014147 
3813.269232  	-0.016228 
3815.198048  	-0.016664 
3817.126864  	-0.014203 
3819.055680  	-0.017250 
3820.984496  	-0.014424 
3822.913312  	-0.011288 
3824.842128  	-0.014349 
3826.770944  	-0.014097 
3828.699760  	-0.014449 
3830.628576  	-0.015448 
3832.557392  	-0.015055 
3834.486208  	-0.016117 
3836.415024  	-0.016793 
3838.343840  	-0.014918 
3840.272656  	-0.013454 
3842.201472  	-0.013758 
3844.130288  	-0.013041 
3846.059104  	-0.013511 
3847.987920  	-0.015519 
3849.916736  	-0.018263 
3851.845552  	-0.020224 
3853.774368  	-0.012179 
3855.703184  	-0.010416 
3857.632000  	-0.012780 
3859.560816  	-0.014867 
3861.489632  	-0.015933 
3863.418448  	-0.015541 
3865.347264  	-0.013219 
3867.276080  	-0.015329 
3869.204896  	-0.015830 
3871.133712  	-0.012605 
3873.062528  	-0.014313 
3874.991344  	-0.012582 
3876.920160  	-0.014309 
3878.848976  	-0.015985 
3880.777792  	-0.013352 
3882.706608  	-0.013913 
3884.635424  	-0.014682 
3886.564240  	-0.011468 
3888.493056  	-0.014194 
3890.421872  	-0.015252 
3892.350688  	-0.012719 
3894.279504  	-0.013007 
3896.208320  	-0.015242 
3898.137136  	-0.016088 
3900.065952  	-0.014747 
3901.994768  	-0.014163 
3903.923584  	-0.012483 
3905.852400  	-0.011299 
3907.781216  	-0.012833 
3909.710032  	-0.013869 
3911.638848  	-0.013831 
3913.567664  	-0.014252 
3915.496480  	-0.014576 
3917.425296  	-0.013292 
3919.354112  	-0.013168 
3921.282928  	-0.013851 
3923.211744  	-0.014331 
3925.140560  	-0.013096 
3927.069376  	-0.013620 
3928.998192  	-0.014615 
3930.927008  	-0.014015 
3932.855824  	-0.012707 
3934.784640  	-0.013001 
3936.713456  	-0.013927 
3938.642272  	-0.014141 
3940.571088  	-0.014744 
3942.499904  	-0.013740 
3944.428720  	-0.013279 
3946.357536  	-0.014376 
3948.286352  	-0.014040 
3950.215168  	-0.013296 
3952.143984  	-0.013660 
3954.072800  	-0.014052 
3956.001616  	-0.014015 
3957.930432  	-0.014021 
3959.859248  	-0.014193 
3961.788064  	-0.013815 
3963.716880  	-0.013418 
3965.645696  	-0.013737 
3967.574512  	-0.014086 
3969.503328  	-0.014032 
3971.432144  	-0.013984 
3973.360960  	-0.013922 
3975.289776  	-0.013665 
3977.218592  	-0.013689 
3979.147408  	-0.013984 
3981.076224  	-0.014173 
3983.005040  	-0.013883 
3984.933856  	-0.013779 
3986.862672  	-0.014051 
3988.791488  	-0.014255 
3990.720304  	-0.014054 
3992.649120  	-0.013863 
3994.577936  	-0.013866 
3996.506752  	-0.013952 
3998.435568  	-0.013979 
4000.364384  	-0.014088 