##TITLE=No Description
##DATA TYPE=INFRARED SPECTRUM
##XUNITS=1/CM
##YUNITS=Abs
399.264912  	0.242856 
401.193728  	0.238656 
403.122544  	0.234472 
405.051360  	0.229119 
406.980176  	0.229571 
408.908992  	0.230128 
410.837808  	0.237399 
412.766624  	0.238590 
414.695440  	0.233846 
416.624256  	0.235286 
418.553072  	0.240348 
420.481888  	0.228377 
422.410704  	0.225127 
424.339520  	0.227639 
426.268336  	0.235133 
428.197152  	0.235181 
430.125968  	0.235706 
432.054784  	0.236453 
433.983600  	0.234094 
435.912416  	0.227555 
437.841232  	0.224772 
439.770048  	0.222981 
441.698864  	0.222991 
443.627680  	0.220689 
445.556496  	0.221581 
447.485312  	0.225398 
449.414128  	0.229566 
451.342944  	0.232520 
453.271760  	0.232533 
455.200576  	0.228626 
457.129392  	0.225206 
459.058208  	0.225724 
460.987024  	0.230226 
462.915840  	0.234972 
464.844656  	0.237398 
466.773472  	0.234992 
468.702288  	0.234879 
470.631104  	0.237541 
472.559920  	0.242697 
474.488736  	0.240605 
476.417552  	0.240914 
478.346368  	0.243443 
480.275184  	0.247470 
482.204000  	0.250109 
484.132816  	0.250493 
486.061632  	0.250200 
487.990448  	0.251809 
489.919264  	0.251849 
491.848080  	0.251356 
493.776896  	0.250923 
495.705712  	0.253529 
497.634528  	0.254188 
499.563344  	0.254557 
501.492160  	0.255138 
503.420976  	0.254715 
505.349792  	0.253891 
507.278608  	0.254970 
509.207424  	0.257481 
511.136240  	0.260330 
513.065056  	0.261442 
514.993872  	0.265216 
516.922688  	0.268072 
518.851504  	0.271477 
520.780320  	0.274443 
522.709136  	0.279340 
524.637952  	0.281606 
526.566768  	0.282777 
528.495584  	0.282793 
530.424400  	0.282615 
532.353216  	0.281691 
534.282032  	0.280293 
536.210848  	0.277179 
538.139664  	0.273162 
540.068480  	0.269370 
541.997296  	0.266802 
543.926112  	0.264828 
545.854928  	0.264735 
547.783744  	0.263848 
549.712560  	0.263378 
551.641376  	0.262579 
553.570192  	0.261250 
555.499008  	0.259835 
557.427824  	0.259098 
559.356640  	0.257159 
561.285456  	0.256710 
563.214272  	0.255812 
565.143088  	0.253620 
567.071904  	0.250741 
569.000720  	0.249222 
570.929536  	0.247606 
572.858352  	0.246122 
574.787168  	0.244471 
576.715984  	0.244243 
578.644800  	0.242845 
580.573616  	0.239951 
582.502432  	0.236265 
584.431248  	0.232713 
586.360064  	0.228919 
588.288880  	0.226358 
590.217696  	0.224995 
592.146512  	0.224417 
594.075328  	0.223339 
596.004144  	0.221956 
597.932960  	0.221270 
599.861776  	0.220726 
601.790592  	0.219620 
603.719408  	0.219648 
605.648224  	0.220017 
607.577040  	0.219764 
609.505856  	0.218853 
611.434672  	0.218848 
613.363488  	0.218774 
615.292304  	0.218394 
617.221120  	0.217015 
619.149936  	0.216074 
621.078752  	0.215340 
623.007568  	0.216097 
624.936384  	0.216997 
626.865200  	0.217511 
628.794016  	0.217335 
630.722832  	0.217486 
632.651648  	0.217855 
634.580464  	0.219019 
636.509280  	0.220191 
638.438096  	0.220926 
640.366912  	0.222172 
642.295728  	0.222197 
644.224544  	0.221261 
646.153360  	0.220056 
648.082176  	0.217616 
650.010992  	0.215691 
651.939808  	0.212859 
653.868624  	0.210474 
655.797440  	0.208453 
657.726256  	0.206539 
659.655072  	0.203950 
661.583888  	0.201130 
663.512704  	0.198049 
665.441520  	0.194694 
667.370336  	0.191411 
669.299152  	0.187877 
671.227968  	0.184054 
673.156784  	0.181145 
675.085600  	0.179278 
677.014416  	0.177522 
678.943232  	0.175607 
680.872048  	0.174305 
682.800864  	0.172720 
684.729680  	0.172257 
686.658496  	0.171770 
688.587312  	0.171075 
690.516128  	0.169972 
692.444944  	0.169145 
694.373760  	0.168433 
696.302576  	0.168028 
698.231392  	0.166985 
700.160208  	0.165734 
702.089024  	0.163928 
704.017840  	0.161852 
705.946656  	0.159816 
707.875472  	0.158397 
709.804288  	0.157325 
711.733104  	0.156352 
713.661920  	0.155028 
715.590736  	0.154296 
717.519552  	0.154507 
719.448368  	0.154786 
721.377184  	0.155663 
723.306000  	0.157509 
725.234816  	0.159033 
727.163632  	0.159092 
729.092448  	0.157645 
731.021264  	0.155354 
732.950080  	0.152623 
734.878896  	0.149835 
736.807712  	0.147040 
738.736528  	0.145070 
740.665344  	0.143886 
742.594160  	0.143041 
744.522976  	0.142066 
746.451792  	0.141326 
748.380608  	0.140322 
750.309424  	0.140062 
752.238240  	0.139413 
754.167056  	0.139333 
756.095872  	0.139130 
758.024688  	0.138333 
759.953504  	0.138581 
761.882320  	0.139885 
763.811136  	0.140894 
765.739952  	0.139787 
767.668768  	0.137247 
769.597584  	0.135088 
771.526400  	0.134757 
773.455216  	0.136631 
775.384032  	0.140680 
777.312848  	0.146445 
779.241664  	0.151056 
781.170480  	0.151188 
783.099296  	0.147256 
785.028112  	0.142836 
786.956928  	0.138403 
788.885744  	0.134396 
790.814560  	0.131242 
792.743376  	0.129774 
794.672192  	0.129605 
796.601008  	0.128686 
798.529824  	0.126063 
800.458640  	0.122581 
802.387456  	0.119698 
804.316272  	0.118124 
806.245088  	0.117598 
808.173904  	0.117700 
810.102720  	0.117893 
812.031536  	0.118122 
813.960352  	0.118915 
815.889168  	0.119996 
817.817984  	0.121059 
819.746800  	0.122276 
821.675616  	0.123495 
823.604432  	0.124846 
825.533248  	0.126411 
827.462064  	0.127552 
829.390880  	0.127964 
831.319696  	0.128044 
833.248512  	0.127434 
835.177328  	0.126318 
837.106144  	0.124503 
839.034960  	0.122267 
840.963776  	0.119119 
842.892592  	0.115923 
844.821408  	0.112629 
846.750224  	0.109350 
848.679040  	0.106783 
850.607856  	0.105064 
852.536672  	0.104428 
854.465488  	0.103579 
856.394304  	0.102762 
858.323120  	0.101843 
860.251936  	0.101028 
862.180752  	0.099995 
864.109568  	0.098309 
866.038384  	0.096614 
867.967200  	0.095121 
869.896016  	0.093707 
871.824832  	0.092584 
873.753648  	0.092576 
875.682464  	0.093111 
877.611280  	0.094333 
879.540096  	0.096745 
881.468912  	0.100406 
883.397728  	0.104055 
885.326544  	0.107125 
887.255360  	0.109417 
889.184176  	0.110478 
891.112992  	0.110345 
893.041808  	0.109468 
894.970624  	0.107632 
896.899440  	0.104603 
898.828256  	0.100857 
900.757072  	0.096619 
902.685888  	0.092780 
904.614704  	0.090812 
906.543520  	0.090762 
908.472336  	0.092088 
910.401152  	0.094364 
912.329968  	0.097118 
914.258784  	0.099960 
916.187600  	0.102441 
918.116416  	0.104401 
920.045232  	0.106104 
921.974048  	0.107550 
923.902864  	0.108755 
925.831680  	0.109551 
927.760496  	0.110515 
929.689312  	0.111882 
931.618128  	0.113408 
933.546944  	0.114464 
935.475760  	0.114976 
937.404576  	0.114844 
939.333392  	0.114198 
941.262208  	0.113494 
943.191024  	0.113818 
945.119840  	0.115918 
947.048656  	0.120241 
948.977472  	0.126979 
950.906288  	0.135857 
952.835104  	0.146933 
954.763920  	0.159761 
956.692736  	0.173055 
958.621552  	0.185682 
960.550368  	0.195638 
962.479184  	0.202553 
964.408000  	0.204971 
966.336816  	0.202671 
968.265632  	0.195620 
970.194448  	0.185366 
972.123264  	0.172386 
974.052080  	0.158042 
975.980896  	0.143786 
977.909712  	0.130466 
979.838528  	0.118372 
981.767344  	0.108247 
983.696160  	0.100564 
985.624976  	0.095424 
987.553792  	0.093232 
989.482608  	0.093951 
991.411424  	0.097041 
993.340240  	0.102142 
995.269056  	0.108094 
997.197872  	0.114356 
999.126688  	0.120881 
1001.055504  	0.127464 
1002.984320  	0.134008 
1004.913136  	0.141032 
1006.841952  	0.147698 
1008.770768  	0.153924 
1010.699584  	0.159316 
1012.628400  	0.163905 
1014.557216  	0.167204 
1016.486032  	0.169174 
1018.414848  	0.170062 
1020.343664  	0.170425 
1022.272480  	0.170624 
1024.201296  	0.170672 
1026.130112  	0.170165 
1028.058928  	0.170238 
1029.987744  	0.171592 
1031.916560  	0.173522 
1033.845376  	0.175604 
1035.774192  	0.178583 
1037.703008  	0.182911 
1039.631824  	0.189664 
1041.560640  	0.199862 
1043.489456  	0.214800 
1045.418272  	0.233127 
1047.347088  	0.252667 
1049.275904  	0.269491 
1051.204720  	0.281620 
1053.133536  	0.287288 
1055.062352  	0.288427 
1056.991168  	0.286931 
1058.919984  	0.285746 
1060.848800  	0.285138 
1062.777616  	0.285077 
1064.706432  	0.284078 
1066.635248  	0.282500 
1068.564064  	0.279278 
1070.492880  	0.273581 
1072.421696  	0.267113 
1074.350512  	0.263228 
1076.279328  	0.262812 
1078.208144  	0.266537 
1080.136960  	0.272777 
1082.065776  	0.278817 
1083.994592  	0.280898 
1085.923408  	0.278314 
1087.852224  	0.270697 
1089.781040  	0.260822 
1091.709856  	0.248880 
1093.638672  	0.235574 
1095.567488  	0.220747 
1097.496304  	0.205770 
1099.425120  	0.190766 
1101.353936  	0.176704 
1103.282752  	0.163289 
1105.211568  	0.151000 
1107.140384  	0.139850 
1109.069200  	0.129810 
1110.998016  	0.120694 
1112.926832  	0.112447 
1114.855648  	0.104642 
1116.784464  	0.097223 
1118.713280  	0.090113 
1120.642096  	0.083369 
1122.570912  	0.076982 
1124.499728  	0.071229 
1126.428544  	0.066258 
1128.357360  	0.062126 
1130.286176  	0.058441 
1132.214992  	0.055414 
1134.143808  	0.053150 
1136.072624  	0.051257 
1138.001440  	0.049618 
1139.930256  	0.048276 
1141.859072  	0.046678 
1143.787888  	0.045091 
1145.716704  	0.043704 
1147.645520  	0.042471 
1149.574336  	0.041495 
1151.503152  	0.041070 
1153.431968  	0.041311 
1155.360784  	0.041485 
1157.289600  	0.041861 
1159.218416  	0.042473 
1161.147232  	0.043609 
1163.076048  	0.044932 
1165.004864  	0.046402 
1166.933680  	0.047866 
1168.862496  	0.049479 
1170.791312  	0.051117 
1172.720128  	0.053062 
1174.648944  	0.055421 
1176.577760  	0.058044 
1178.506576  	0.060895 
1180.435392  	0.063745 
1182.364208  	0.066674 
1184.293024  	0.070066 
1186.221840  	0.073772 
1188.150656  	0.078219 
1190.079472  	0.083270 
1192.008288  	0.089003 
1193.937104  	0.095787 
1195.865920  	0.103595 
1197.794736  	0.112151 
1199.723552  	0.121202 
1201.652368  	0.130742 
1203.581184  	0.140114 
1205.510000  	0.149039 
1207.438816  	0.157070 
1209.367632  	0.164325 
1211.296448  	0.170241 
1213.225264  	0.175271 
1215.154080  	0.178813 
1217.082896  	0.180979 
1219.011712  	0.181701 
1220.940528  	0.182046 
1222.869344  	0.181173 
1224.798160  	0.179436 
1226.726976  	0.176807 
1228.655792  	0.173838 
1230.584608  	0.170043 
1232.513424  	0.165585 
1234.442240  	0.160619 
1236.371056  	0.155244 
1238.299872  	0.149124 
1240.228688  	0.142291 
1242.157504  	0.135544 
1244.086320  	0.128978 
1246.015136  	0.122060 
1247.943952  	0.115309 
1249.872768  	0.108909 
1251.801584  	0.102787 
1253.730400  	0.096512 
1255.659216  	0.090692 
1257.588032  	0.085151 
1259.516848  	0.079793 
1261.445664  	0.074881 
1263.374480  	0.070531 
1265.303296  	0.066767 
1267.232112  	0.063605 
1269.160928  	0.061232 
1271.089744  	0.059719 
1273.018560  	0.059061 
1274.947376  	0.059258 
1276.876192  	0.059902 
1278.805008  	0.060482 
1280.733824  	0.060535 
1282.662640  	0.059490 
1284.591456  	0.057805 
1286.520272  	0.056167 
1288.449088  	0.055207 
1290.377904  	0.055420 
1292.306720  	0.056480 
1294.235536  	0.057415 
1296.164352  	0.057356 
1298.093168  	0.055851 
1300.021984  	0.053410 
1301.950800  	0.050796 
1303.879616  	0.047998 
1305.808432  	0.044811 
1307.737248  	0.041481 
1309.666064  	0.038244 
1311.594880  	0.035584 
1313.523696  	0.033550 
1315.452512  	0.032096 
1317.381328  	0.031405 
1319.310144  	0.031476 
1321.238960  	0.031843 
1323.167776  	0.032674 
1325.096592  	0.033441 
1327.025408  	0.033825 
1328.954224  	0.033756 
1330.883040  	0.033061 
1332.811856  	0.031835 
1334.740672  	0.030705 
1336.669488  	0.029869 
1338.598304  	0.029516 
1340.527120  	0.029355 
1342.455936  	0.029056 
1344.384752  	0.029045 
1346.313568  	0.029330 
1348.242384  	0.030010 
1350.171200  	0.031102 
1352.100016  	0.032377 
1354.028832  	0.033906 
1355.957648  	0.035636 
1357.886464  	0.037208 
1359.815280  	0.038938 
1361.744096  	0.041061 
1363.672912  	0.043483 
1365.601728  	0.045163 
1367.530544  	0.046799 
1369.459360  	0.048528 
1371.388176  	0.049361 
1373.316992  	0.049162 
1375.245808  	0.047963 
1377.174624  	0.045847 
1379.103440  	0.043562 
1381.032256  	0.041269 
1382.961072  	0.039358 
1384.889888  	0.037765 
1386.818704  	0.036694 
1388.747520  	0.035381 
1390.676336  	0.033415 
1392.605152  	0.031233 
1394.533968  	0.029940 
1396.462784  	0.029962 
1398.391600  	0.029898 
1400.320416  	0.030291 
1402.249232  	0.030265 
1404.178048  	0.030629 
1406.106864  	0.031391 
1408.035680  	0.032250 
1409.964496  	0.033512 
1411.893312  	0.035436 
1413.822128  	0.037208 
1415.750944  	0.038822 
1417.679760  	0.040230 
1419.608576  	0.042134 
1421.537392  	0.042364 
1423.466208  	0.041677 
1425.395024  	0.040603 
1427.323840  	0.038721 
1429.252656  	0.036547 
1431.181472  	0.035001 
1433.110288  	0.034340 
1435.039104  	0.034184 
1436.967920  	0.035812 
1438.896736  	0.037348 
1440.825552  	0.038041 
1442.754368  	0.038708 
1444.683184  	0.038815 
1446.612000  	0.038774 
1448.540816  	0.039061 
1450.469632  	0.039236 
1452.398448  	0.039249 
1454.327264  	0.038927 
1456.256080  	0.038390 
1458.184896  	0.039379 
1460.113712  	0.039466 
1462.042528  	0.038867 
1463.971344  	0.038354 
1465.900160  	0.038919 
1467.828976  	0.039219 
1469.757792  	0.039826 
1471.686608  	0.041671 
1473.615424  	0.047042 
1475.544240  	0.051248 
1477.473056  	0.055996 
1479.401872  	0.059224 
1481.330688  	0.062662 
1483.259504  	0.065279 
1485.188320  	0.066876 
1487.117136  	0.067855 
1489.045952  	0.068841 
1490.974768  	0.068678 
1492.903584  	0.066808 
1494.832400  	0.063213 
1496.761216  	0.058275 
1498.690032  	0.052979 
1500.618848  	0.048550 
1502.547664  	0.044159 
1504.476480  	0.040056 
1506.405296  	0.036616 
1508.334112  	0.035867 
1510.262928  	0.034318 
1512.191744  	0.033123 
1514.120560  	0.032378 
1516.049376  	0.032239 
1517.978192  	0.033520 
1519.907008  	0.034392 
1521.835824  	0.038382 
1523.764640  	0.042103 
1525.693456  	0.044856 
1527.622272  	0.047079 
1529.551088  	0.047391 
1531.479904  	0.045916 
1533.408720  	0.043561 
1535.337536  	0.040928 
1537.266352  	0.037872 
1539.195168  	0.034169 
1541.123984  	0.032229 
1543.052800  	0.031825 
1544.981616  	0.030976 
1546.910432  	0.030097 
1548.839248  	0.029260 
1550.768064  	0.029272 
1552.696880  	0.028532 
1554.625696  	0.028947 
1556.554512  	0.028190 
1558.483328  	0.028760 
1560.412144  	0.034335 
1562.340960  	0.035288 
1564.269776  	0.036773 
1566.198592  	0.039814 
1568.127408  	0.041497 
1570.056224  	0.046787 
1571.985040  	0.050746 
1573.913856  	0.052451 
1575.842672  	0.054746 
1577.771488  	0.058130 
1579.700304  	0.057694 
1581.629120  	0.057035 
1583.557936  	0.056227 
1585.486752  	0.056443 
1587.415568  	0.057683 
1589.344384  	0.060709 
1591.273200  	0.064744 
1593.202016  	0.070017 
1595.130832  	0.075909 
1597.059648  	0.082421 
1598.988464  	0.087921 
1600.917280  	0.093238 
1602.846096  	0.097308 
1604.774912  	0.100297 
1606.703728  	0.101047 
1608.632544  	0.101057 
1610.561360  	0.099595 
1612.490176  	0.097826 
1614.418992  	0.094813 
1616.347808  	0.094213 
1618.276624  	0.096089 
1620.205440  	0.096711 
1622.134256  	0.097795 
1624.063072  	0.103684 
1625.991888  	0.107826 
1627.920704  	0.114274 
1629.849520  	0.121946 
1631.778336  	0.127772 
1633.707152  	0.131837 
1635.635968  	0.141528 
1637.564784  	0.152283 
1639.493600  	0.156659 
1641.422416  	0.160530 
1643.351232  	0.163299 
1645.280048  	0.163914 
1647.208864  	0.169185 
1649.137680  	0.171287 
1651.066496  	0.168433 
1652.995312  	0.167983 
1654.924128  	0.173154 
1656.852944  	0.170692 
1658.781760  	0.168830 
1660.710576  	0.166056 
1662.639392  	0.163905 
1664.568208  	0.161255 
1666.497024  	0.156914 
1668.425840  	0.151853 
1670.354656  	0.147966 
1672.283472  	0.143734 
1674.212288  	0.139239 
1676.141104  	0.136186 
1678.069920  	0.133196 
1679.998736  	0.130531 
1681.927552  	0.128163 
1683.856368  	0.127361 
1685.785184  	0.130197 
1687.714000  	0.128894 
1689.642816  	0.129121 
1691.571632  	0.128869 
1693.500448  	0.127474 
1695.429264  	0.126752 
1697.358080  	0.127868 
1699.286896  	0.126277 
1701.215712  	0.128470 
1703.144528  	0.127127 
1705.073344  	0.125503 
1707.002160  	0.123750 
1708.930976  	0.120891 
1710.859792  	0.116311 
1712.788608  	0.110582 
1714.717424  	0.102818 
1716.646240  	0.093506 
1718.575056  	0.082165 
1720.503872  	0.072901 
1722.432688  	0.064084 
1724.361504  	0.054523 
1726.290320  	0.046295 
1728.219136  	0.039110 
1730.147952  	0.032594 
1732.076768  	0.027070 
1734.005584  	0.023059 
1735.934400  	0.019672 
1737.863216  	0.017244 
1739.792032  	0.014719 
1741.720848  	0.013200 
1743.649664  	0.011735 
1745.578480  	0.010361 
1747.507296  	0.009169 
1749.436112  	0.008561 
1751.364928  	0.008080 
1753.293744  	0.007586 
1755.222560  	0.006601 
1757.151376  	0.006417 
1759.080192  	0.005767 
1761.009008  	0.005315 
1762.937824  	0.005023 
1764.866640  	0.004696 
1766.795456  	0.004141 
1768.724272  	0.003948 
1770.653088  	0.002693 
1772.581904  	0.002768 
1774.510720  	0.003116 
1776.439536  	0.003178 
1778.368352  	0.002812 
1780.297168  	0.002562 
1782.225984  	0.002332 
1784.154800  	0.002433 
1786.083616  	0.002345 
1788.012432  	0.002047 
1789.941248  	0.001654 
1791.870064  	0.001779 
1793.798880  	0.001766 
1795.727696  	0.001766 
1797.656512  	0.001279 
1799.585328  	0.000956 
1801.514144  	0.001258 
1803.442960  	0.001414 
1805.371776  	0.000923 
1807.300592  	0.000930 
1809.229408  	0.000750 
1811.158224  	0.000874 
1813.087040  	0.000774 
1815.015856  	0.000586 
1816.944672  	0.000445 
1818.873488  	0.000717 
1820.802304  	0.000636 
1822.731120  	0.000470 
1824.659936  	0.000302 
1826.588752  	0.000286 
1828.517568  	-0.000160 
1830.446384  	0.000225 
1832.375200  	0.000306 
1834.304016  	0.000450 
1836.232832  	0.000386 
1838.161648  	0.000386 
1840.090464  	0.000201 
1842.019280  	0.000032 
1843.948096  	0.000059 
1845.876912  	0.000420 
1847.805728  	0.000436 
1849.734544  	0.000351 
1851.663360  	0.000000 
1853.592176  	0.000128 
1855.520992  	0.000095 
1857.449808  	0.000255 
1859.378624  	0.000190 
1861.307440  	0.000383 
1863.236256  	0.000209 
1865.165072  	-0.000019 
1867.093888  	-0.000415 
1869.022704  	-0.000014 
1870.951520  	-0.000078 
1872.880336  	-0.000075 
1874.809152  	-0.000494 
1876.737968  	-0.000362 
1878.666784  	-0.000283 
1880.595600  	0.000015 
1882.524416  	-0.000065 
1884.453232  	-0.000224 
1886.382048  	-0.000477 
1888.310864  	-0.000290 
1890.239680  	-0.000256 
1892.168496  	-0.000132 
1894.097312  	-0.000495 
1896.026128  	-0.000250 
1897.954944  	-0.000088 
1899.883760  	-0.000328 
1901.812576  	-0.000509 
1903.741392  	-0.000256 
1905.670208  	-0.000468 
1907.599024  	-0.000421 
1909.527840  	-0.000507 
1911.456656  	-0.000126 
1913.385472  	0.000179 
1915.314288  	0.000110 
1917.243104  	-0.000487 
1919.171920  	-0.000212 
1921.100736  	0.000006 
1923.029552  	0.000341 
1924.958368  	-0.000518 
1926.887184  	-0.000789 
1928.816000  	-0.000312 
1930.744816  	0.000124 
1932.673632  	-0.000514 
1934.602448  	-0.001219 
1936.531264  	-0.001643 
1938.460080  	-0.001163 
1940.388896  	-0.000785 
1942.317712  	-0.000893 
1944.246528  	-0.001295 
1946.175344  	-0.000529 
1948.104160  	-0.000896 
1950.032976  	-0.001164 
1951.961792  	-0.001203 
1953.890608  	-0.000696 
1955.819424  	-0.001124 
1957.748240  	-0.001423 
1959.677056  	-0.002288 
1961.605872  	-0.002390 
1963.534688  	-0.002757 
1965.463504  	-0.002222 
1967.392320  	-0.002750 
1969.321136  	-0.002007 
1971.249952  	-0.002252 
1973.178768  	-0.002628 
1975.107584  	-0.002399 
1977.036400  	-0.002004 
1978.965216  	-0.001214 
1980.894032  	-0.000472 
1982.822848  	-0.001053 
1984.751664  	-0.000872 
1986.680480  	-0.000670 
1988.609296  	-0.000491 
1990.538112  	-0.001967 
1992.466928  	-0.002016 
1994.395744  	-0.001359 
1996.324560  	-0.000706 
1998.253376  	-0.001432 
2000.182192  	-0.001767 
2002.111008  	-0.002198 
2004.039824  	-0.001477 
2005.968640  	-0.001687 
2007.897456  	-0.001242 
2009.826272  	-0.000080 
2011.755088  	-0.000345 
2013.683904  	-0.002092 
2015.612720  	-0.001591 
2017.541536  	-0.000602 
2019.470352  	0.000752 
2021.399168  	0.000611 
2023.327984  	0.000540 
2025.256800  	-0.000427 
2027.185616  	-0.000664 
2029.114432  	-0.000838 
2031.043248  	-0.000699 
2032.972064  	-0.000256 
2034.900880  	0.000540 
2036.829696  	0.000408 
2038.758512  	0.000392 
2040.687328  	0.000700 
2042.616144  	0.002091 
2044.544960  	0.001260 
2046.473776  	-0.000121 
2048.402592  	-0.000236 
2050.331408  	0.000719 
2052.260224  	-0.000383 
2054.189040  	-0.000854 
2056.117856  	-0.000430 
2058.046672  	-0.000186 
2059.975488  	-0.000243 
2061.904304  	0.000183 
2063.833120  	-0.000046 
2065.761936  	0.000075 
2067.690752  	0.000074 
2069.619568  	-0.000228 
2071.548384  	-0.000541 
2073.477200  	0.000006 
2075.406016  	0.000093 
2077.334832  	0.000442 
2079.263648  	0.000506 
2081.192464  	0.000555 
2083.121280  	0.000116 
2085.050096  	-0.000088 
2086.978912  	-0.000169 
2088.907728  	0.000504 
2090.836544  	0.000372 
2092.765360  	-0.000137 
2094.694176  	-0.000300 
2096.622992  	0.000393 
2098.551808  	0.000561 
2100.480624  	0.000392 
2102.409440  	0.000279 
2104.338256  	0.000519 
2106.267072  	0.000628 
2108.195888  	0.001058 
2110.124704  	0.001034 
2112.053520  	0.000814 
2113.982336  	0.000724 
2115.911152  	0.000613 
2117.839968  	0.000620 
2119.768784  	0.000139 
2121.697600  	-0.000593 
2123.626416  	-0.000378 
2125.555232  	-0.000448 
2127.484048  	-0.000501 
2129.412864  	-0.000454 
2131.341680  	-0.000674 
2133.270496  	-0.001097 
2135.199312  	-0.000306 
2137.128128  	-0.000038 
2139.056944  	0.000545 
2140.985760  	0.001105 
2142.914576  	0.001442 
2144.843392  	0.001115 
2146.772208  	0.000551 
2148.701024  	0.000432 
2150.629840  	0.001705 
2152.558656  	0.001566 
2154.487472  	0.001069 
2156.416288  	0.001423 
2158.345104  	0.003525 
2160.273920  	0.004496 
2162.202736  	0.003381 
2164.131552  	0.002645 
2166.060368  	0.003113 
2167.989184  	0.002653 
2169.918000  	0.002377 
2171.846816  	0.001940 
2173.775632  	0.001413 
2175.704448  	0.000791 
2177.633264  	-0.000266 
2179.562080  	-0.001049 
2181.490896  	0.000068 
2183.419712  	0.001197 
2185.348528  	0.000924 
2187.277344  	0.001228 
2189.206160  	0.001597 
2191.134976  	0.001761 
2193.063792  	0.002498 
2194.992608  	0.001961 
2196.921424  	0.001532 
2198.850240  	0.001458 
2200.779056  	0.002255 
2202.707872  	0.001530 
2204.636688  	0.000666 
2206.565504  	0.000924 
2208.494320  	0.001205 
2210.423136  	0.000519 
2212.351952  	0.000684 
2214.280768  	0.001746 
2216.209584  	0.001840 
2218.138400  	0.000784 
2220.067216  	0.000635 
2221.996032  	0.000607 
2223.924848  	0.001045 
2225.853664  	0.000796 
2227.782480  	0.000478 
2229.711296  	0.001031 
2231.640112  	0.000703 
2233.568928  	0.000166 
2235.497744  	0.000461 
2237.426560  	0.000276 
2239.355376  	0.000031 
2241.284192  	-0.000097 
2243.213008  	-0.000438 
2245.141824  	-0.000427 
2247.070640  	0.000371 
2248.999456  	0.000181 
2250.928272  	0.000073 
2252.857088  	0.000235 
2254.785904  	0.000319 
2256.714720  	0.000432 
2258.643536  	0.000327 
2260.572352  	0.000294 
2262.501168  	0.000596 
2264.429984  	0.000610 
2266.358800  	0.000582 
2268.287616  	0.000814 
2270.216432  	0.000777 
2272.145248  	0.000456 
2274.074064  	0.000674 
2276.002880  	0.000649 
2277.931696  	0.000806 
2279.860512  	0.001337 
2281.789328  	0.001777 
2283.718144  	0.001669 
2285.646960  	0.001607 
2287.575776  	0.001504 
2289.504592  	0.001667 
2291.433408  	0.001684 
2293.362224  	0.001859 
2295.291040  	0.002226 
2297.219856  	0.002326 
2299.148672  	0.002232 
2301.077488  	0.002463 
2303.006304  	0.002561 
2304.935120  	0.002718 
2306.863936  	0.003143 
2308.792752  	0.003569 
2310.721568  	0.003722 
2312.650384  	0.003865 
2314.579200  	0.003767 
2316.508016  	0.003919 
2318.436832  	0.004267 
2320.365648  	0.004924 
2322.294464  	0.005302 
2324.223280  	0.005154 
2326.152096  	0.004037 
2328.080912  	0.003580 
2330.009728  	0.004032 
2331.938544  	0.004068 
2333.867360  	0.003506 
2335.796176  	0.003208 
2337.724992  	0.003094 
2339.653808  	0.003273 
2341.582624  	0.003500 
2343.511440  	0.003868 
2345.440256  	0.003937 
2347.369072  	0.003796 
2349.297888  	0.003527 
2351.226704  	0.003627 
2353.155520  	0.004000 
2355.084336  	0.004382 
2357.013152  	0.004388 
2358.941968  	0.004411 
2360.870784  	0.005028 
2362.799600  	0.004897 
2364.728416  	0.004592 
2366.657232  	0.004706 
2368.586048  	0.004403 
2370.514864  	0.004600 
2372.443680  	0.004502 
2374.372496  	0.004079 
2376.301312  	0.004132 
2378.230128  	0.004115 
2380.158944  	0.003609 
2382.087760  	0.002955 
2384.016576  	0.002290 
2385.945392  	0.001766 
2387.874208  	0.001537 
2389.803024  	0.001615 
2391.731840  	0.001505 
2393.660656  	0.001349 
2395.589472  	0.001252 
2397.518288  	0.001358 
2399.447104  	0.001400 
2401.375920  	0.001651 
2403.304736  	0.001804 
2405.233552  	0.001680 
2407.162368  	0.001805 
2409.091184  	0.001968 
2411.020000  	0.001900 
2412.948816  	0.001857 
2414.877632  	0.001944 
2416.806448  	0.002050 
2418.735264  	0.002066 
2420.664080  	0.002138 
2422.592896  	0.002119 
2424.521712  	0.002214 
2426.450528  	0.002379 
2428.379344  	0.002710 
2430.308160  	0.002804 
2432.236976  	0.002734 
2434.165792  	0.002553 
2436.094608  	0.002582 
2438.023424  	0.002660 
2439.952240  	0.002605 
2441.881056  	0.002707 
2443.809872  	0.002991 
2445.738688  	0.003106 
2447.667504  	0.003264 
2449.596320  	0.003277 
2451.525136  	0.003225 
2453.453952  	0.003233 
2455.382768  	0.003483 
2457.311584  	0.003762 
2459.240400  	0.003694 
2461.169216  	0.003456 
2463.098032  	0.003497 
2465.026848  	0.003534 
2466.955664  	0.003701 
2468.884480  	0.003923 
2470.813296  	0.004195 
2472.742112  	0.004076 
2474.670928  	0.004046 
2476.599744  	0.004103 
2478.528560  	0.004277 
2480.457376  	0.004425 
2482.386192  	0.004249 
2484.315008  	0.004213 
2486.243824  	0.004527 
2488.172640  	0.004772 
2490.101456  	0.005062 
2492.030272  	0.005123 
2493.959088  	0.004912 
2495.887904  	0.004980 
2497.816720  	0.005133 
2499.745536  	0.005356 
2501.674352  	0.005717 
2503.603168  	0.005703 
2505.531984  	0.005618 
2507.460800  	0.005662 
2509.389616  	0.005737 
2511.318432  	0.005744 
2513.247248  	0.005716 
2515.176064  	0.005638 
2517.104880  	0.005781 
2519.033696  	0.005958 
2520.962512  	0.006028 
2522.891328  	0.005987 
2524.820144  	0.006074 
2526.748960  	0.006264 
2528.677776  	0.006498 
2530.606592  	0.006546 
2532.535408  	0.006484 
2534.464224  	0.006385 
2536.393040  	0.006439 
2538.321856  	0.006569 
2540.250672  	0.006675 
2542.179488  	0.006803 
2544.108304  	0.006974 
2546.037120  	0.007130 
2547.965936  	0.007211 
2549.894752  	0.007097 
2551.823568  	0.007041 
2553.752384  	0.007001 
2555.681200  	0.007208 
2557.610016  	0.007512 
2559.538832  	0.007630 
2561.467648  	0.007733 
2563.396464  	0.007671 
2565.325280  	0.007566 
2567.254096  	0.007861 
2569.182912  	0.008113 
2571.111728  	0.008415 
2573.040544  	0.008644 
2574.969360  	0.008895 
2576.898176  	0.009027 
2578.826992  	0.009032 
2580.755808  	0.008899 
2582.684624  	0.009013 
2584.613440  	0.009096 
2586.542256  	0.009117 
2588.471072  	0.009090 
2590.399888  	0.009117 
2592.328704  	0.009272 
2594.257520  	0.009527 
2596.186336  	0.009697 
2598.115152  	0.009765 
2600.043968  	0.009712 
2601.972784  	0.009746 
2603.901600  	0.009928 
2605.830416  	0.010076 
2607.759232  	0.010252 
2609.688048  	0.010442 
2611.616864  	0.010435 
2613.545680  	0.010656 
2615.474496  	0.010864 
2617.403312  	0.010885 
2619.332128  	0.010923 
2621.260944  	0.011008 
2623.189760  	0.011145 
2625.118576  	0.011343 
2627.047392  	0.011513 
2628.976208  	0.011585 
2630.905024  	0.011629 
2632.833840  	0.011846 
2634.762656  	0.012137 
2636.691472  	0.012325 
2638.620288  	0.012487 
2640.549104  	0.012686 
2642.477920  	0.012881 
2644.406736  	0.013074 
2646.335552  	0.013188 
2648.264368  	0.013320 
2650.193184  	0.013466 
2652.122000  	0.013594 
2654.050816  	0.013749 
2655.979632  	0.014024 
2657.908448  	0.014198 
2659.837264  	0.014268 
2661.766080  	0.014482 
2663.694896  	0.014549 
2665.623712  	0.014490 
2667.552528  	0.014653 
2669.481344  	0.014958 
2671.410160  	0.015218 
2673.338976  	0.015347 
2675.267792  	0.015481 
2677.196608  	0.015621 
2679.125424  	0.015727 
2681.054240  	0.015845 
2682.983056  	0.015921 
2684.911872  	0.016048 
2686.840688  	0.016228 
2688.769504  	0.016328 
2690.698320  	0.016370 
2692.627136  	0.016542 
2694.555952  	0.016780 
2696.484768  	0.016882 
2698.413584  	0.016914 
2700.342400  	0.017008 
2702.271216  	0.017259 
2704.200032  	0.017490 
2706.128848  	0.017600 
2708.057664  	0.017767 
2709.986480  	0.017982 
2711.915296  	0.018139 
2713.844112  	0.018243 
2715.772928  	0.018356 
2717.701744  	0.018430 
2719.630560  	0.018574 
2721.559376  	0.018753 
2723.488192  	0.018871 
2725.417008  	0.019091 
2727.345824  	0.019220 
2729.274640  	0.019360 
2731.203456  	0.019477 
2733.132272  	0.019644 
2735.061088  	0.019840 
2736.989904  	0.019996 
2738.918720  	0.020180 
2740.847536  	0.020267 
2742.776352  	0.020379 
2744.705168  	0.020565 
2746.633984  	0.020638 
2748.562800  	0.020750 
2750.491616  	0.021021 
2752.420432  	0.021204 
2754.349248  	0.021167 
2756.278064  	0.021090 
2758.206880  	0.020988 
2760.135696  	0.021020 
2762.064512  	0.021172 
2763.993328  	0.021302 
2765.922144  	0.021241 
2767.850960  	0.021261 
2769.779776  	0.021360 
2771.708592  	0.021317 
2773.637408  	0.021265 
2775.566224  	0.021185 
2777.495040  	0.021164 
2779.423856  	0.021118 
2781.352672  	0.021093 
2783.281488  	0.021079 
2785.210304  	0.021024 
2787.139120  	0.021032 
2789.067936  	0.021059 
2790.996752  	0.020973 
2792.925568  	0.020872 
2794.854384  	0.020830 
2796.783200  	0.020807 
2798.712016  	0.020865 
2800.640832  	0.020913 
2802.569648  	0.020832 
2804.498464  	0.020743 
2806.427280  	0.020750 
2808.356096  	0.020851 
2810.284912  	0.020900 
2812.213728  	0.020721 
2814.142544  	0.020769 
2816.071360  	0.020861 
2818.000176  	0.020862 
2819.928992  	0.020762 
2821.857808  	0.020787 
2823.786624  	0.020868 
2825.715440  	0.020846 
2827.644256  	0.020872 
2829.573072  	0.020881 
2831.501888  	0.020775 
2833.430704  	0.020548 
2835.359520  	0.020359 
2837.288336  	0.020456 
2839.217152  	0.020506 
2841.145968  	0.020337 
2843.074784  	0.020302 
2845.003600  	0.020166 
2846.932416  	0.020145 
2848.861232  	0.020231 
2850.790048  	0.020180 
2852.718864  	0.020153 
2854.647680  	0.020199 
2856.576496  	0.020151 
2858.505312  	0.020148 
2860.434128  	0.020139 
2862.362944  	0.020163 
2864.291760  	0.020202 
2866.220576  	0.020253 
2868.149392  	0.020317 
2870.078208  	0.020294 
2872.007024  	0.020426 
2873.935840  	0.020816 
2875.864656  	0.021158 
2877.793472  	0.021425 
2879.722288  	0.021818 
2881.651104  	0.022230 
2883.579920  	0.022400 
2885.508736  	0.022490 
2887.437552  	0.022677 
2889.366368  	0.022701 
2891.295184  	0.022618 
2893.224000  	0.022484 
2895.152816  	0.022468 
2897.081632  	0.022325 
2899.010448  	0.021770 
2900.939264  	0.021315 
2902.868080  	0.021534 
2904.796896  	0.021724 
2906.725712  	0.021818 
2908.654528  	0.021932 
2910.583344  	0.022241 
2912.512160  	0.022752 
2914.440976  	0.023255 
2916.369792  	0.023798 
2918.298608  	0.024220 
2920.227424  	0.024558 
2922.156240  	0.024971 
2924.085056  	0.025526 
2926.013872  	0.026144 
2927.942688  	0.026780 
2929.871504  	0.027428 
2931.800320  	0.028005 
2933.729136  	0.028651 
2935.657952  	0.029289 
2937.586768  	0.029821 
2939.515584  	0.030331 
2941.444400  	0.030810 
2943.373216  	0.031033 
2945.302032  	0.031120 
2947.230848  	0.031271 
2949.159664  	0.031329 
2951.088480  	0.031247 
2953.017296  	0.031039 
2954.946112  	0.030699 
2956.874928  	0.030337 
2958.803744  	0.029817 
2960.732560  	0.029393 
2962.661376  	0.028939 
2964.590192  	0.028541 
2966.519008  	0.028020 
2968.447824  	0.027167 
2970.376640  	0.026279 
2972.305456  	0.025537 
2974.234272  	0.024992 
2976.163088  	0.024446 
2978.091904  	0.024122 
2980.020720  	0.023833 
2981.949536  	0.023662 
2983.878352  	0.023663 
2985.807168  	0.023723 
2987.735984  	0.023765 
2989.664800  	0.024169 
2991.593616  	0.024980 
2993.522432  	0.025419 
2995.451248  	0.025773 
2997.380064  	0.026417 
2999.308880  	0.026960 
3001.237696  	0.027365 
3003.166512  	0.027822 
3005.095328  	0.028164 
3007.024144  	0.028540 
3008.952960  	0.028995 
3010.881776  	0.029439 
3012.810592  	0.029836 
3014.739408  	0.030271 
3016.668224  	0.030638 
3018.597040  	0.030897 
3020.525856  	0.031303 
3022.454672  	0.031871 
3024.383488  	0.032230 
3026.312304  	0.032496 
3028.241120  	0.032883 
3030.169936  	0.033317 
3032.098752  	0.033716 
3034.027568  	0.034010 
3035.956384  	0.034279 
3037.885200  	0.034635 
3039.814016  	0.034998 
3041.742832  	0.035303 
3043.671648  	0.035686 
3045.600464  	0.036277 
3047.529280  	0.036690 
3049.458096  	0.037097 
3051.386912  	0.037395 
3053.315728  	0.037704 
3055.244544  	0.037975 
3057.173360  	0.038467 
3059.102176  	0.039022 
3061.030992  	0.039498 
3062.959808  	0.039955 
3064.888624  	0.040586 
3066.817440  	0.041217 
3068.746256  	0.041743 
3070.675072  	0.042271 
3072.603888  	0.042884 
3074.532704  	0.043372 
3076.461520  	0.043767 
3078.390336  	0.044372 
3080.319152  	0.045168 
3082.247968  	0.045816 
3084.176784  	0.046288 
3086.105600  	0.046763 
3088.034416  	0.047426 
3089.963232  	0.048175 
3091.892048  	0.048732 
3093.820864  	0.049228 
3095.749680  	0.049953 
3097.678496  	0.050545 
3099.607312  	0.051122 
3101.536128  	0.051796 
3103.464944  	0.052369 
3105.393760  	0.052969 
3107.322576  	0.053456 
3109.251392  	0.053883 
3111.180208  	0.054411 
3113.109024  	0.054739 
3115.037840  	0.055032 
3116.966656  	0.055549 
3118.895472  	0.056139 
3120.824288  	0.056449 
3122.753104  	0.056797 
3124.681920  	0.057237 
3126.610736  	0.057707 
3128.539552  	0.057977 
3130.468368  	0.058115 
3132.397184  	0.058469 
3134.326000  	0.058741 
3136.254816  	0.058983 
3138.183632  	0.059497 
3140.112448  	0.060089 
3142.041264  	0.060408 
3143.970080  	0.060529 
3145.898896  	0.060909 
3147.827712  	0.061346 
3149.756528  	0.061720 
3151.685344  	0.062167 
3153.614160  	0.062649 
3155.542976  	0.063039 
3157.471792  	0.063455 
3159.400608  	0.063964 
3161.329424  	0.064206 
3163.258240  	0.064518 
3165.187056  	0.064970 
3167.115872  	0.065398 
3169.044688  	0.065892 
3170.973504  	0.066191 
3172.902320  	0.066427 
3174.831136  	0.066496 
3176.759952  	0.066663 
3178.688768  	0.067123 
3180.617584  	0.067363 
3182.546400  	0.067234 
3184.475216  	0.067292 
3186.404032  	0.067274 
3188.332848  	0.067112 
3190.261664  	0.066907 
3192.190480  	0.066799 
3194.119296  	0.066638 
3196.048112  	0.066555 
3197.976928  	0.066422 
3199.905744  	0.066073 
3201.834560  	0.065725 
3203.763376  	0.065441 
3205.692192  	0.065119 
3207.621008  	0.064708 
3209.549824  	0.064475 
3211.478640  	0.064290 
3213.407456  	0.064073 
3215.336272  	0.063843 
3217.265088  	0.063496 
3219.193904  	0.063302 
3221.122720  	0.063256 
3223.051536  	0.063084 
3224.980352  	0.062596 
3226.909168  	0.062101 
3228.837984  	0.061926 
3230.766800  	0.061792 
3232.695616  	0.061505 
3234.624432  	0.061215 
3236.553248  	0.061077 
3238.482064  	0.061161 
3240.410880  	0.061312 
3242.339696  	0.061258 
3244.268512  	0.061233 
3246.197328  	0.061548 
3248.126144  	0.061520 
3250.054960  	0.061605 
3251.983776  	0.061729 
3253.912592  	0.061972 
3255.841408  	0.062245 
3257.770224  	0.062511 
3259.699040  	0.062718 
3261.627856  	0.063005 
3263.556672  	0.063161 
3265.485488  	0.063544 
3267.414304  	0.063773 
3269.343120  	0.063835 
3271.271936  	0.063974 
3273.200752  	0.063998 
3275.129568  	0.064195 
3277.058384  	0.064512 
3278.987200  	0.064672 
3280.916016  	0.064831 
3282.844832  	0.064953 
3284.773648  	0.064962 
3286.702464  	0.065013 
3288.631280  	0.065238 
3290.560096  	0.065519 
3292.488912  	0.065970 
3294.417728  	0.066317 
3296.346544  	0.066552 
3298.275360  	0.066956 
3300.204176  	0.067238 
3302.132992  	0.067661 
3304.061808  	0.067968 
3305.990624  	0.067930 
3307.919440  	0.068217 
3309.848256  	0.068696 
3311.777072  	0.069093 
3313.705888  	0.069581 
3315.634704  	0.069793 
3317.563520  	0.070007 
3319.492336  	0.070413 
3321.421152  	0.070549 
3323.349968  	0.070630 
3325.278784  	0.070851 
3327.207600  	0.071216 
3329.136416  	0.071274 
3331.065232  	0.071316 
3332.994048  	0.071462 
3334.922864  	0.071612 
3336.851680  	0.071806 
3338.780496  	0.071659 
3340.709312  	0.071320 
3342.638128  	0.071137 
3344.566944  	0.070941 
3346.495760  	0.070735 
3348.424576  	0.070519 
3350.353392  	0.070451 
3352.282208  	0.070309 
3354.211024  	0.070026 
3356.139840  	0.069852 
3358.068656  	0.069706 
3359.997472  	0.069295 
3361.926288  	0.068879 
3363.855104  	0.068549 
3365.783920  	0.068721 
3367.712736  	0.068527 
3369.641552  	0.068193 
3371.570368  	0.067970 
3373.499184  	0.067640 
3375.428000  	0.067145 
3377.356816  	0.066995 
3379.285632  	0.067067 
3381.214448  	0.066780 
3383.143264  	0.066426 
3385.072080  	0.066461 
3387.000896  	0.066133 
3388.929712  	0.065616 
3390.858528  	0.065140 
3392.787344  	0.065097 
3394.716160  	0.064830 
3396.644976  	0.064475 
3398.573792  	0.064398 
3400.502608  	0.064049 
3402.431424  	0.063641 
3404.360240  	0.063422 
3406.289056  	0.063031 
3408.217872  	0.062552 
3410.146688  	0.062116 
3412.075504  	0.061919 
3414.004320  	0.061745 
3415.933136  	0.061252 
3417.861952  	0.060570 
3419.790768  	0.060264 
3421.719584  	0.060239 
3423.648400  	0.059733 
3425.577216  	0.059111 
3427.506032  	0.058861 
3429.434848  	0.058568 
3431.363664  	0.058151 
3433.292480  	0.057757 
3435.221296  	0.057348 
3437.150112  	0.056821 
3439.078928  	0.056125 
3441.007744  	0.055801 
3442.936560  	0.055621 
3444.865376  	0.054793 
3446.794192  	0.054478 
3448.723008  	0.054561 
3450.651824  	0.053719 
3452.580640  	0.053038 
3454.509456  	0.052738 
3456.438272  	0.052228 
3458.367088  	0.051635 
3460.295904  	0.051054 
3462.224720  	0.050450 
3464.153536  	0.049830 
3466.082352  	0.049302 
3468.011168  	0.048720 
3469.939984  	0.047712 
3471.868800  	0.046871 
3473.797616  	0.046292 
3475.726432  	0.045835 
3477.655248  	0.045110 
3479.584064  	0.044231 
3481.512880  	0.043702 
3483.441696  	0.043181 
3485.370512  	0.042263 
3487.299328  	0.041712 
3489.228144  	0.041255 
3491.156960  	0.040446 
3493.085776  	0.039509 
3495.014592  	0.038864 
3496.943408  	0.038621 
3498.872224  	0.037897 
3500.801040  	0.036736 
3502.729856  	0.036501 
3504.658672  	0.036538 
3506.587488  	0.035458 
3508.516304  	0.034622 
3510.445120  	0.034710 
3512.373936  	0.034021 
3514.302752  	0.033048 
3516.231568  	0.032349 
3518.160384  	0.031868 
3520.089200  	0.031308 
3522.018016  	0.030634 
3523.946832  	0.030505 
3525.875648  	0.029641 
3527.804464  	0.029130 
3529.733280  	0.029143 
3531.662096  	0.028787 
3533.590912  	0.027835 
3535.519728  	0.027400 
3537.448544  	0.027388 
3539.377360  	0.026567 
3541.306176  	0.025831 
3543.234992  	0.025289 
3545.163808  	0.025379 
3547.092624  	0.025316 
3549.021440  	0.024113 
3550.950256  	0.022990 
3552.879072  	0.023087 
3554.807888  	0.022737 
3556.736704  	0.021915 
3558.665520  	0.021176 
3560.594336  	0.020734 
3562.523152  	0.019700 
3564.451968  	0.018425 
3566.380784  	0.018723 
3568.309600  	0.020180 
3570.238416  	0.018950 
3572.167232  	0.017360 
3574.096048  	0.016514 
3576.024864  	0.015980 
3577.953680  	0.015546 
3579.882496  	0.015158 
3581.811312  	0.014529 
3583.740128  	0.013169 
3585.668944  	0.012292 
3587.597760  	0.013580 
3589.526576  	0.013294 
3591.455392  	0.011021 
3593.384208  	0.010026 
3595.313024  	0.010226 
3597.241840  	0.009861 
3599.170656  	0.008702 
3601.099472  	0.008532 
3603.028288  	0.008105 
3604.957104  	0.006707 
3606.885920  	0.005936 
3608.814736  	0.006250 
3610.743552  	0.004782 
3612.672368  	0.003614 
3614.601184  	0.003337 
3616.530000  	0.001747 
3618.458816  	0.001393 
3620.387632  	0.002206 
3622.316448  	0.001335 
3624.245264  	-0.000023 
3626.174080  	-0.001988 
3628.102896  	-0.002560 
3630.031712  	-0.000492 
3631.960528  	-0.002154 
3633.889344  	-0.002979 
3635.818160  	-0.003441 
3637.746976  	-0.004310 
3639.675792  	-0.004915 
3641.604608  	-0.005769 
3643.533424  	-0.006765 
3645.462240  	-0.008594 
3647.391056  	-0.009635 
3649.319872  	-0.008839 
3651.248688  	-0.007377 
3653.177504  	-0.008907 
3655.106320  	-0.009953 
3657.035136  	-0.009584 
3658.963952  	-0.009943 
3660.892768  	-0.010302 
3662.821584  	-0.010847 
3664.750400  	-0.011199 
3666.679216  	-0.012128 
3668.608032  	-0.013252 
3670.536848  	-0.011825 
3672.465664  	-0.012724 
3674.394480  	-0.014002 
3676.323296  	-0.011588 
3678.252112  	-0.012059 
3680.180928  	-0.012117 
3682.109744  	-0.012090 
3684.038560  	-0.012425 
3685.967376  	-0.013271 
3687.896192  	-0.013627 
3689.825008  	-0.013098 
3691.753824  	-0.012410 
3693.682640  	-0.012098 
3695.611456  	-0.011964 
3697.540272  	-0.011916 
3699.469088  	-0.012502 
3701.397904  	-0.012327 
3703.326720  	-0.011827 
3705.255536  	-0.012099 
3707.184352  	-0.012440 
3709.113168  	-0.012757 
3711.041984  	-0.012691 
3712.970800  	-0.011624 
3714.899616  	-0.011516 
3716.828432  	-0.012039 
3718.757248  	-0.011884 
3720.686064  	-0.012032 
3722.614880  	-0.012216 
3724.543696  	-0.011950 
3726.472512  	-0.011313 
3728.401328  	-0.011549 
3730.330144  	-0.012696 
3732.258960  	-0.013169 
3734.187776  	-0.012745 
3736.116592  	-0.011414 
3738.045408  	-0.011446 
3739.974224  	-0.012113 
3741.903040  	-0.013325 
3743.831856  	-0.013358 
3745.760672  	-0.012320 
3747.689488  	-0.013542 
3749.618304  	-0.013698 
3751.547120  	-0.012139 
3753.475936  	-0.011487 
3755.404752  	-0.012275 
3757.333568  	-0.012511 
3759.262384  	-0.012133 
3761.191200  	-0.011707 
3763.120016  	-0.012187 
3765.048832  	-0.011859 
3766.977648  	-0.011700 
3768.906464  	-0.011821 
3770.835280  	-0.011379 
3772.764096  	-0.011579 
3774.692912  	-0.011839 
3776.621728  	-0.012214 
3778.550544  	-0.012235 
3780.479360  	-0.011538 
3782.408176  	-0.011795 
3784.336992  	-0.011879 
3786.265808  	-0.011741 
3788.194624  	-0.011871 
3790.123440  	-0.012060 
3792.052256  	-0.012113 
3793.981072  	-0.012297 
3795.909888  	-0.012245 
3797.838704  	-0.012521 
3799.767520  	-0.013345 
3801.696336  	-0.012681 
3803.625152  	-0.012508 
3805.553968  	-0.013030 
3807.482784  	-0.012219 
3809.411600  	-0.012197 
3811.340416  	-0.012373 
3813.269232  	-0.013000 
3815.198048  	-0.013020 
3817.126864  	-0.012430 
3819.055680  	-0.013493 
3820.984496  	-0.012531 
3822.913312  	-0.011643 
3824.842128  	-0.012564 
3826.770944  	-0.012549 
3828.699760  	-0.012578 
3830.628576  	-0.012716 
3832.557392  	-0.012707 
3834.486208  	-0.013078 
3836.415024  	-0.013475 
3838.343840  	-0.012980 
3840.272656  	-0.012569 
3842.201472  	-0.012524 
3844.130288  	-0.011998 
3846.059104  	-0.012054 
3847.987920  	-0.012626 
3849.916736  	-0.013547 
3851.845552  	-0.014106 
3853.774368  	-0.011781 
3855.703184  	-0.011558 
3857.632000  	-0.012006 
3859.560816  	-0.012570 
3861.489632  	-0.012828 
3863.418448  	-0.012530 
3865.347264  	-0.011902 
3867.276080  	-0.012883 
3869.204896  	-0.013045 
3871.133712  	-0.012122 
3873.062528  	-0.012500 
3874.991344  	-0.011921 
3876.920160  	-0.012451 
3878.848976  	-0.012623 
3880.777792  	-0.011790 
3882.706608  	-0.012227 
3884.635424  	-0.012457 
3886.564240  	-0.011574 
3888.493056  	-0.012543 
3890.421872  	-0.012654 
3892.350688  	-0.012010 
3894.279504  	-0.012209 
3896.208320  	-0.012688 
3898.137136  	-0.012828 
3900.065952  	-0.012554 
3901.994768  	-0.012442 
3903.923584  	-0.011659 
3905.852400  	-0.011480 
3907.781216  	-0.012077 
3909.710032  	-0.012228 
3911.638848  	-0.012048 
3913.567664  	-0.012091 
3915.496480  	-0.012149 
3917.425296  	-0.011789 
3919.354112  	-0.011901 
3921.282928  	-0.012209 
3923.211744  	-0.012413 
3925.140560  	-0.011927 
3927.069376  	-0.012240 
3928.998192  	-0.012575 
3930.927008  	-0.012265 
3932.855824  	-0.011678 
3934.784640  	-0.011814 
3936.713456  	-0.011958 
3938.642272  	-0.012011 
3940.571088  	-0.012257 
3942.499904  	-0.011889 
3944.428720  	-0.011921 
3946.357536  	-0.012348 
3948.286352  	-0.012263 
3950.215168  	-0.012100 
3952.143984  	-0.012267 
3954.072800  	-0.012356 
3956.001616  	-0.012349 
3957.930432  	-0.012238 
3959.859248  	-0.012257 
3961.788064  	-0.012039 
3963.716880  	-0.011729 
3965.645696  	-0.011917 
3967.574512  	-0.012307 
3969.503328  	-0.012217 
3971.432144  	-0.012165 
3973.360960  	-0.012193 
3975.289776  	-0.012015 
3977.218592  	-0.011961 
3979.147408  	-0.012083 
3981.076224  	-0.012158 
3983.005040  	-0.012118 
3984.933856  	-0.012169 
3986.862672  	-0.012216 
3988.791488  	-0.012129 
3990.720304  	-0.012147 
3992.649120  	-0.012192 
3994.577936  	-0.012235 
3996.506752  	-0.012315 
3998.435568  	-0.012112 
4000.364384  	-0.012003 