##TITLE=No Description
##DATA TYPE=INFRARED SPECTRUM
##XUNITS=1/CM
##YUNITS=Abs
399.264912  	0.158056 
401.193728  	0.168058 
403.122544  	0.166197 
405.051360  	0.157515 
406.980176  	0.153244 
408.908992  	0.148490 
410.837808  	0.149063 
412.766624  	0.153879 
414.695440  	0.153450 
416.624256  	0.155546 
418.553072  	0.160848 
420.481888  	0.149729 
422.410704  	0.145223 
424.339520  	0.142143 
426.268336  	0.145258 
428.197152  	0.151946 
430.125968  	0.151457 
432.054784  	0.146797 
433.983600  	0.147117 
435.912416  	0.145372 
437.841232  	0.141690 
439.770048  	0.138432 
441.698864  	0.139616 
443.627680  	0.139165 
445.556496  	0.139050 
447.485312  	0.140031 
449.414128  	0.143264 
451.342944  	0.143119 
453.271760  	0.140037 
455.200576  	0.137828 
457.129392  	0.140402 
459.058208  	0.140661 
460.987024  	0.139547 
462.915840  	0.139475 
464.844656  	0.141052 
466.773472  	0.142466 
468.702288  	0.143221 
470.631104  	0.142371 
472.559920  	0.144602 
474.488736  	0.143154 
476.417552  	0.142936 
478.346368  	0.144161 
480.275184  	0.145857 
482.204000  	0.146521 
484.132816  	0.146930 
486.061632  	0.149696 
487.990448  	0.151772 
489.919264  	0.152744 
491.848080  	0.153890 
493.776896  	0.152261 
495.705712  	0.150681 
497.634528  	0.150405 
499.563344  	0.152774 
501.492160  	0.154387 
503.420976  	0.152943 
505.349792  	0.150871 
507.278608  	0.151431 
509.207424  	0.152260 
511.136240  	0.154153 
513.065056  	0.154894 
514.993872  	0.156791 
516.922688  	0.157603 
518.851504  	0.160659 
520.780320  	0.162016 
522.709136  	0.162441 
524.637952  	0.163047 
526.566768  	0.165217 
528.495584  	0.165498 
530.424400  	0.163993 
532.353216  	0.162808 
534.282032  	0.162589 
536.210848  	0.159691 
538.139664  	0.156949 
540.068480  	0.156020 
541.997296  	0.155299 
543.926112  	0.153776 
545.854928  	0.152337 
547.783744  	0.152186 
549.712560  	0.152883 
551.641376  	0.150890 
553.570192  	0.149458 
555.499008  	0.148013 
557.427824  	0.147765 
559.356640  	0.146634 
561.285456  	0.145154 
563.214272  	0.143727 
565.143088  	0.142853 
567.071904  	0.140869 
569.000720  	0.139369 
570.929536  	0.137850 
572.858352  	0.136839 
574.787168  	0.136485 
576.715984  	0.135827 
578.644800  	0.134711 
580.573616  	0.133067 
582.502432  	0.131567 
584.431248  	0.129110 
586.360064  	0.126209 
588.288880  	0.124099 
590.217696  	0.122781 
592.146512  	0.122292 
594.075328  	0.121737 
596.004144  	0.120995 
597.932960  	0.120224 
599.861776  	0.119988 
601.790592  	0.119261 
603.719408  	0.119091 
605.648224  	0.119467 
607.577040  	0.119588 
609.505856  	0.119075 
611.434672  	0.118348 
613.363488  	0.117909 
615.292304  	0.117455 
617.221120  	0.117063 
619.149936  	0.116799 
621.078752  	0.116031 
623.007568  	0.116117 
624.936384  	0.116745 
626.865200  	0.116375 
628.794016  	0.115615 
630.722832  	0.115613 
632.651648  	0.115637 
634.580464  	0.116000 
636.509280  	0.116951 
638.438096  	0.117412 
640.366912  	0.117940 
642.295728  	0.117788 
644.224544  	0.117317 
646.153360  	0.116472 
648.082176  	0.115113 
650.010992  	0.114388 
651.939808  	0.112262 
653.868624  	0.110781 
655.797440  	0.108846 
657.726256  	0.107211 
659.655072  	0.105751 
661.583888  	0.104003 
663.512704  	0.102170 
665.441520  	0.099397 
667.370336  	0.099162 
669.299152  	0.101063 
671.227968  	0.096696 
673.156784  	0.093700 
675.085600  	0.092843 
677.014416  	0.091864 
678.943232  	0.091026 
680.872048  	0.090565 
682.800864  	0.089560 
684.729680  	0.089075 
686.658496  	0.088498 
688.587312  	0.088471 
690.516128  	0.087446 
692.444944  	0.086756 
694.373760  	0.086070 
696.302576  	0.085938 
698.231392  	0.084939 
700.160208  	0.084046 
702.089024  	0.083021 
704.017840  	0.081913 
705.946656  	0.080668 
707.875472  	0.079414 
709.804288  	0.078645 
711.733104  	0.077990 
713.661920  	0.077285 
715.590736  	0.076773 
717.519552  	0.077103 
719.448368  	0.077730 
721.377184  	0.078729 
723.306000  	0.079291 
725.234816  	0.079999 
727.163632  	0.080524 
729.092448  	0.079972 
731.021264  	0.078916 
732.950080  	0.077655 
734.878896  	0.076376 
736.807712  	0.074585 
738.736528  	0.073280 
740.665344  	0.072255 
742.594160  	0.071908 
744.522976  	0.071470 
746.451792  	0.071481 
748.380608  	0.071110 
750.309424  	0.070526 
752.238240  	0.070115 
754.167056  	0.070019 
756.095872  	0.069742 
758.024688  	0.069369 
759.953504  	0.069499 
761.882320  	0.069835 
763.811136  	0.070653 
765.739952  	0.070523 
767.668768  	0.069869 
769.597584  	0.069126 
771.526400  	0.069153 
773.455216  	0.070281 
775.384032  	0.072559 
777.312848  	0.075989 
779.241664  	0.078551 
781.170480  	0.079280 
783.099296  	0.077815 
785.028112  	0.075847 
786.956928  	0.073303 
788.885744  	0.071121 
790.814560  	0.069334 
792.743376  	0.068714 
794.672192  	0.068840 
796.601008  	0.068635 
798.529824  	0.067344 
800.458640  	0.065376 
802.387456  	0.063696 
804.316272  	0.062699 
806.245088  	0.062326 
808.173904  	0.062149 
810.102720  	0.062509 
812.031536  	0.062836 
813.960352  	0.062861 
815.889168  	0.063351 
817.817984  	0.064025 
819.746800  	0.064154 
821.675616  	0.064437 
823.604432  	0.065169 
825.533248  	0.065665 
827.462064  	0.065962 
829.390880  	0.065840 
831.319696  	0.065839 
833.248512  	0.065530 
835.177328  	0.065008 
837.106144  	0.063910 
839.034960  	0.062734 
840.963776  	0.061418 
842.892592  	0.059998 
844.821408  	0.058482 
846.750224  	0.056933 
848.679040  	0.055814 
850.607856  	0.054965 
852.536672  	0.054388 
854.465488  	0.053711 
856.394304  	0.053334 
858.323120  	0.053034 
860.251936  	0.052388 
862.180752  	0.051519 
864.109568  	0.050513 
866.038384  	0.049394 
867.967200  	0.048295 
869.896016  	0.047331 
871.824832  	0.046230 
873.753648  	0.045504 
875.682464  	0.045176 
877.611280  	0.045697 
879.540096  	0.046858 
881.468912  	0.048829 
883.397728  	0.050845 
885.326544  	0.052555 
887.255360  	0.053839 
889.184176  	0.054304 
891.112992  	0.054368 
893.041808  	0.053940 
894.970624  	0.053123 
896.899440  	0.051720 
898.828256  	0.050031 
900.757072  	0.048513 
902.685888  	0.046894 
904.614704  	0.046250 
906.543520  	0.046586 
908.472336  	0.047578 
910.401152  	0.048965 
912.329968  	0.050720 
914.258784  	0.052574 
916.187600  	0.054394 
918.116416  	0.055712 
920.045232  	0.056819 
921.974048  	0.057505 
923.902864  	0.058018 
925.831680  	0.058242 
927.760496  	0.058451 
929.689312  	0.058892 
931.618128  	0.059393 
933.546944  	0.059790 
935.475760  	0.060054 
937.404576  	0.060253 
939.333392  	0.060160 
941.262208  	0.060211 
943.191024  	0.060887 
945.119840  	0.062594 
947.048656  	0.065308 
948.977472  	0.068854 
950.906288  	0.073199 
952.835104  	0.078296 
954.763920  	0.083968 
956.692736  	0.089477 
958.621552  	0.094445 
960.550368  	0.098077 
962.479184  	0.100747 
964.408000  	0.101225 
966.336816  	0.099521 
968.265632  	0.095904 
970.194448  	0.091049 
972.123264  	0.084963 
974.052080  	0.078257 
975.980896  	0.071587 
977.909712  	0.065020 
979.838528  	0.058995 
981.767344  	0.054239 
983.696160  	0.051001 
985.624976  	0.048987 
987.553792  	0.048450 
989.482608  	0.049303 
991.411424  	0.051462 
993.340240  	0.054717 
995.269056  	0.058353 
997.197872  	0.062192 
999.126688  	0.065909 
1001.055504  	0.069763 
1002.984320  	0.073311 
1004.913136  	0.076962 
1006.841952  	0.080148 
1008.770768  	0.083188 
1010.699584  	0.085597 
1012.628400  	0.087282 
1014.557216  	0.088533 
1016.486032  	0.089371 
1018.414848  	0.089732 
1020.343664  	0.089563 
1022.272480  	0.089501 
1024.201296  	0.089479 
1026.130112  	0.088761 
1028.058928  	0.088276 
1029.987744  	0.088658 
1031.916560  	0.088951 
1033.845376  	0.088687 
1035.774192  	0.088632 
1037.703008  	0.088824 
1039.631824  	0.090205 
1041.560640  	0.093085 
1043.489456  	0.098275 
1045.418272  	0.105131 
1047.347088  	0.113434 
1049.275904  	0.121856 
1051.204720  	0.129236 
1053.133536  	0.134157 
1055.062352  	0.137001 
1056.991168  	0.138600 
1058.919984  	0.139565 
1060.848800  	0.139689 
1062.777616  	0.138997 
1064.706432  	0.137443 
1066.635248  	0.135539 
1068.564064  	0.133490 
1070.492880  	0.130636 
1072.421696  	0.127185 
1074.350512  	0.124599 
1076.279328  	0.123131 
1078.208144  	0.123414 
1080.136960  	0.124403 
1082.065776  	0.125167 
1083.994592  	0.125119 
1085.923408  	0.124507 
1087.852224  	0.122471 
1089.781040  	0.119577 
1091.709856  	0.115574 
1093.638672  	0.110806 
1095.567488  	0.104801 
1097.496304  	0.098657 
1099.425120  	0.092331 
1101.353936  	0.085936 
1103.282752  	0.079750 
1105.211568  	0.073807 
1107.140384  	0.068210 
1109.069200  	0.063037 
1110.998016  	0.058084 
1112.926832  	0.053434 
1114.855648  	0.049208 
1116.784464  	0.045435 
1118.713280  	0.041697 
1120.642096  	0.038020 
1122.570912  	0.034530 
1124.499728  	0.031514 
1126.428544  	0.028845 
1128.357360  	0.026462 
1130.286176  	0.024174 
1132.214992  	0.022485 
1134.143808  	0.021098 
1136.072624  	0.019723 
1138.001440  	0.018628 
1139.930256  	0.017728 
1141.859072  	0.016618 
1143.787888  	0.015528 
1145.716704  	0.014466 
1147.645520  	0.013653 
1149.574336  	0.013072 
1151.503152  	0.012806 
1153.431968  	0.012985 
1155.360784  	0.012907 
1157.289600  	0.013069 
1159.218416  	0.013608 
1161.147232  	0.014332 
1163.076048  	0.015151 
1165.004864  	0.016004 
1166.933680  	0.016796 
1168.862496  	0.017850 
1170.791312  	0.019027 
1172.720128  	0.020165 
1174.648944  	0.021598 
1176.577760  	0.023048 
1178.506576  	0.024629 
1180.435392  	0.026119 
1182.364208  	0.027723 
1184.293024  	0.029603 
1186.221840  	0.031589 
1188.150656  	0.033989 
1190.079472  	0.036598 
1192.008288  	0.039814 
1193.937104  	0.043432 
1195.865920  	0.047430 
1197.794736  	0.051925 
1199.723552  	0.056543 
1201.652368  	0.061189 
1203.581184  	0.065650 
1205.510000  	0.070056 
1207.438816  	0.074120 
1209.367632  	0.077788 
1211.296448  	0.080695 
1213.225264  	0.083251 
1215.154080  	0.084639 
1217.082896  	0.085588 
1219.011712  	0.085866 
1220.940528  	0.085955 
1222.869344  	0.085780 
1224.798160  	0.085249 
1226.726976  	0.084204 
1228.655792  	0.082866 
1230.584608  	0.081319 
1232.513424  	0.079387 
1234.442240  	0.077219 
1236.371056  	0.074716 
1238.299872  	0.071860 
1240.228688  	0.068468 
1242.157504  	0.065223 
1244.086320  	0.062282 
1246.015136  	0.058818 
1247.943952  	0.055210 
1249.872768  	0.051723 
1251.801584  	0.048444 
1253.730400  	0.044935 
1255.659216  	0.041848 
1257.588032  	0.038793 
1259.516848  	0.035924 
1261.445664  	0.033282 
1263.374480  	0.030799 
1265.303296  	0.028680 
1267.232112  	0.026980 
1269.160928  	0.025746 
1271.089744  	0.024921 
1273.018560  	0.024498 
1274.947376  	0.024481 
1276.876192  	0.024709 
1278.805008  	0.024838 
1280.733824  	0.024571 
1282.662640  	0.023729 
1284.591456  	0.022770 
1286.520272  	0.021933 
1288.449088  	0.021282 
1290.377904  	0.021113 
1292.306720  	0.021201 
1294.235536  	0.021260 
1296.164352  	0.020988 
1298.093168  	0.020139 
1300.021984  	0.018725 
1301.950800  	0.017202 
1303.879616  	0.015668 
1305.808432  	0.014082 
1307.737248  	0.012446 
1309.666064  	0.011007 
1311.594880  	0.009935 
1313.523696  	0.009078 
1315.452512  	0.008426 
1317.381328  	0.008088 
1319.310144  	0.008131 
1321.238960  	0.008335 
1323.167776  	0.008575 
1325.096592  	0.008839 
1327.025408  	0.009136 
1328.954224  	0.009195 
1330.883040  	0.008932 
1332.811856  	0.008407 
1334.740672  	0.007794 
1336.669488  	0.007503 
1338.598304  	0.007484 
1340.527120  	0.007330 
1342.455936  	0.006778 
1344.384752  	0.006506 
1346.313568  	0.006669 
1348.242384  	0.007216 
1350.171200  	0.008028 
1352.100016  	0.009033 
1354.028832  	0.010122 
1355.957648  	0.011191 
1357.886464  	0.012137 
1359.815280  	0.013080 
1361.744096  	0.014404 
1363.672912  	0.015933 
1365.601728  	0.016440 
1367.530544  	0.016899 
1369.459360  	0.017500 
1371.388176  	0.017326 
1373.316992  	0.016688 
1375.245808  	0.015835 
1377.174624  	0.014414 
1379.103440  	0.013072 
1381.032256  	0.011594 
1382.961072  	0.010292 
1384.889888  	0.009114 
1386.818704  	0.008562 
1388.747520  	0.008151 
1390.676336  	0.006978 
1392.605152  	0.005399 
1394.533968  	0.004760 
1396.462784  	0.005410 
1398.391600  	0.005468 
1400.320416  	0.005808 
1402.249232  	0.005652 
1404.178048  	0.005976 
1406.106864  	0.006881 
1408.035680  	0.007557 
1409.964496  	0.008363 
1411.893312  	0.009616 
1413.822128  	0.010599 
1415.750944  	0.011438 
1417.679760  	0.012033 
1419.608576  	0.013275 
1421.537392  	0.013092 
1423.466208  	0.012404 
1425.395024  	0.011994 
1427.323840  	0.010701 
1429.252656  	0.009496 
1431.181472  	0.009006 
1433.110288  	0.008657 
1435.039104  	0.008017 
1436.967920  	0.009060 
1438.896736  	0.009856 
1440.825552  	0.009801 
1442.754368  	0.009889 
1444.683184  	0.009579 
1446.612000  	0.009194 
1448.540816  	0.009394 
1450.469632  	0.009396 
1452.398448  	0.009168 
1454.327264  	0.008521 
1456.256080  	0.008013 
1458.184896  	0.009921 
1460.113712  	0.010513 
1462.042528  	0.010059 
1463.971344  	0.009909 
1465.900160  	0.011528 
1467.828976  	0.012362 
1469.757792  	0.012748 
1471.686608  	0.014065 
1473.615424  	0.018572 
1475.544240  	0.021415 
1477.473056  	0.024212 
1479.401872  	0.025299 
1481.330688  	0.026738 
1483.259504  	0.027645 
1485.188320  	0.027449 
1487.117136  	0.026962 
1489.045952  	0.027059 
1490.974768  	0.027251 
1492.903584  	0.025494 
1494.832400  	0.022585 
1496.761216  	0.020307 
1498.690032  	0.018278 
1500.618848  	0.016290 
1502.547664  	0.013641 
1504.476480  	0.010261 
1506.405296  	0.008188 
1508.334112  	0.009925 
1510.262928  	0.008901 
1512.191744  	0.007900 
1514.120560  	0.007059 
1516.049376  	0.006600 
1517.978192  	0.007158 
1519.907008  	0.007025 
1521.835824  	0.009468 
1523.764640  	0.011541 
1525.693456  	0.012813 
1527.622272  	0.014519 
1529.551088  	0.014854 
1531.479904  	0.013707 
1533.408720  	0.012802 
1535.337536  	0.012029 
1537.266352  	0.009162 
1539.195168  	0.005787 
1541.123984  	0.005726 
1543.052800  	0.006054 
1544.981616  	0.006078 
1546.910432  	0.005576 
1548.839248  	0.004825 
1550.768064  	0.004990 
1552.696880  	0.004185 
1554.625696  	0.004112 
1556.554512  	0.002678 
1558.483328  	0.002452 
1560.412144  	0.008558 
1562.340960  	0.008842 
1564.269776  	0.009646 
1566.198592  	0.011805 
1568.127408  	0.012346 
1570.056224  	0.016208 
1571.985040  	0.018822 
1573.913856  	0.018649 
1575.842672  	0.019820 
1577.771488  	0.023032 
1579.700304  	0.022219 
1581.629120  	0.021541 
1583.557936  	0.020975 
1585.486752  	0.021086 
1587.415568  	0.021863 
1589.344384  	0.023614 
1591.273200  	0.025766 
1593.202016  	0.028367 
1595.130832  	0.031268 
1597.059648  	0.034435 
1598.988464  	0.036633 
1600.917280  	0.038541 
1602.846096  	0.039686 
1604.774912  	0.040387 
1606.703728  	0.039922 
1608.632544  	0.039486 
1610.561360  	0.038360 
1612.490176  	0.036813 
1614.418992  	0.033628 
1616.347808  	0.033782 
1618.276624  	0.037266 
1620.205440  	0.036326 
1622.134256  	0.035904 
1624.063072  	0.040809 
1625.991888  	0.042536 
1627.920704  	0.045966 
1629.849520  	0.050586 
1631.778336  	0.051939 
1633.707152  	0.051359 
1635.635968  	0.058007 
1637.564784  	0.066830 
1639.493600  	0.066905 
1641.422416  	0.067773 
1643.351232  	0.066914 
1645.280048  	0.064896 
1647.208864  	0.071080 
1649.137680  	0.072277 
1651.066496  	0.064360 
1652.995312  	0.065848 
1654.924128  	0.076110 
1656.852944  	0.071164 
1658.781760  	0.068207 
1660.710576  	0.065423 
1662.639392  	0.065281 
1664.568208  	0.065670 
1666.497024  	0.061578 
1668.425840  	0.058722 
1670.354656  	0.060315 
1672.283472  	0.058831 
1674.212288  	0.055661 
1676.141104  	0.057800 
1678.069920  	0.055892 
1679.998736  	0.054086 
1681.927552  	0.051228 
1683.856368  	0.051605 
1685.785184  	0.058553 
1687.714000  	0.056129 
1689.642816  	0.056062 
1691.571632  	0.055465 
1693.500448  	0.052220 
1695.429264  	0.051258 
1697.358080  	0.052716 
1699.286896  	0.049635 
1701.215712  	0.053988 
1703.144528  	0.050799 
1705.073344  	0.048326 
1707.002160  	0.047641 
1708.930976  	0.045397 
1710.859792  	0.042507 
1712.788608  	0.038881 
1714.717424  	0.034679 
1716.646240  	0.030604 
1718.575056  	0.027839 
1720.503872  	0.023914 
1722.432688  	0.019612 
1724.361504  	0.015765 
1726.290320  	0.012192 
1728.219136  	0.008881 
1730.147952  	0.006071 
1732.076768  	0.003174 
1734.005584  	0.001075 
1735.934400  	0.000302 
1737.863216  	-0.001231 
1739.792032  	-0.002580 
1741.720848  	-0.003012 
1743.649664  	-0.003573 
1745.578480  	-0.004409 
1747.507296  	-0.005055 
1749.436112  	-0.005374 
1751.364928  	-0.005317 
1753.293744  	-0.005502 
1755.222560  	-0.006018 
1757.151376  	-0.006247 
1759.080192  	-0.006612 
1761.009008  	-0.006709 
1762.937824  	-0.006501 
1764.866640  	-0.006577 
1766.795456  	-0.006841 
1768.724272  	-0.007063 
1770.653088  	-0.008198 
1772.581904  	-0.008320 
1774.510720  	-0.007527 
1776.439536  	-0.007279 
1778.368352  	-0.007374 
1780.297168  	-0.007618 
1782.225984  	-0.007579 
1784.154800  	-0.007410 
1786.083616  	-0.007445 
1788.012432  	-0.007586 
1789.941248  	-0.007806 
1791.870064  	-0.008047 
1793.798880  	-0.007968 
1795.727696  	-0.007692 
1797.656512  	-0.008145 
1799.585328  	-0.008519 
1801.514144  	-0.008134 
1803.442960  	-0.008014 
1805.371776  	-0.008272 
1807.300592  	-0.008161 
1809.229408  	-0.008342 
1811.158224  	-0.008487 
1813.087040  	-0.008412 
1815.015856  	-0.008350 
1816.944672  	-0.008341 
1818.873488  	-0.008104 
1820.802304  	-0.008220 
1822.731120  	-0.008423 
1824.659936  	-0.008528 
1826.588752  	-0.008548 
1828.517568  	-0.008797 
1830.446384  	-0.008359 
1832.375200  	-0.008201 
1834.304016  	-0.008127 
1836.232832  	-0.008105 
1838.161648  	-0.008356 
1840.090464  	-0.008496 
1842.019280  	-0.008304 
1843.948096  	-0.008348 
1845.876912  	-0.008357 
1847.805728  	-0.008129 
1849.734544  	-0.007988 
1851.663360  	-0.008520 
1853.592176  	-0.008733 
1855.520992  	-0.008739 
1857.449808  	-0.008438 
1859.378624  	-0.008208 
1861.307440  	-0.008009 
1863.236256  	-0.008152 
1865.165072  	-0.008454 
1867.093888  	-0.008743 
1869.022704  	-0.008591 
1870.951520  	-0.008617 
1872.880336  	-0.008803 
1874.809152  	-0.008925 
1876.737968  	-0.008789 
1878.666784  	-0.008720 
1880.595600  	-0.008627 
1882.524416  	-0.008631 
1884.453232  	-0.008630 
1886.382048  	-0.008809 
1888.310864  	-0.008643 
1890.239680  	-0.008380 
1892.168496  	-0.008233 
1894.097312  	-0.008576 
1896.026128  	-0.008861 
1897.954944  	-0.008706 
1899.883760  	-0.008529 
1901.812576  	-0.008440 
1903.741392  	-0.008416 
1905.670208  	-0.008725 
1907.599024  	-0.008655 
1909.527840  	-0.008638 
1911.456656  	-0.008706 
1913.385472  	-0.008577 
1915.314288  	-0.008401 
1917.243104  	-0.008791 
1919.171920  	-0.008634 
1921.100736  	-0.008416 
1923.029552  	-0.008153 
1924.958368  	-0.008988 
1926.887184  	-0.009394 
1928.816000  	-0.009042 
1930.744816  	-0.008622 
1932.673632  	-0.008697 
1934.602448  	-0.009107 
1936.531264  	-0.009288 
1938.460080  	-0.009618 
1940.388896  	-0.009973 
1942.317712  	-0.009233 
1944.246528  	-0.009154 
1946.175344  	-0.009206 
1948.104160  	-0.009058 
1950.032976  	-0.009867 
1951.961792  	-0.010229 
1953.890608  	-0.009434 
1955.819424  	-0.009136 
1957.748240  	-0.009014 
1959.677056  	-0.009541 
1961.605872  	-0.009475 
1963.534688  	-0.009865 
1965.463504  	-0.009854 
1967.392320  	-0.010880 
1969.321136  	-0.010659 
1971.249952  	-0.010866 
1973.178768  	-0.011070 
1975.107584  	-0.010177 
1977.036400  	-0.009594 
1978.965216  	-0.008724 
1980.894032  	-0.008535 
1982.822848  	-0.009148 
1984.751664  	-0.009200 
1986.680480  	-0.008779 
1988.609296  	-0.008744 
1990.538112  	-0.009594 
1992.466928  	-0.009944 
1994.395744  	-0.009913 
1996.324560  	-0.009641 
1998.253376  	-0.009685 
2000.182192  	-0.009742 
2002.111008  	-0.009786 
2004.039824  	-0.010060 
2005.968640  	-0.010410 
2007.897456  	-0.010028 
2009.826272  	-0.009139 
2011.755088  	-0.008753 
2013.683904  	-0.009053 
2015.612720  	-0.009687 
2017.541536  	-0.009489 
2019.470352  	-0.008422 
2021.399168  	-0.008811 
2023.327984  	-0.007938 
2025.256800  	-0.008140 
2027.185616  	-0.008648 
2029.114432  	-0.008138 
2031.043248  	-0.008566 
2032.972064  	-0.008225 
2034.900880  	-0.007630 
2036.829696  	-0.007907 
2038.758512  	-0.007006 
2040.687328  	-0.006495 
2042.616144  	-0.006389 
2044.544960  	-0.007203 
2046.473776  	-0.007675 
2048.402592  	-0.008127 
2050.331408  	-0.008907 
2052.260224  	-0.009946 
2054.189040  	-0.009814 
2056.117856  	-0.009070 
2058.046672  	-0.008361 
2059.975488  	-0.008414 
2061.904304  	-0.008482 
2063.833120  	-0.008721 
2065.761936  	-0.008781 
2067.690752  	-0.008617 
2069.619568  	-0.008596 
2071.548384  	-0.008584 
2073.477200  	-0.008278 
2075.406016  	-0.008390 
2077.334832  	-0.008672 
2079.263648  	-0.008531 
2081.192464  	-0.008182 
2083.121280  	-0.008697 
2085.050096  	-0.009268 
2086.978912  	-0.009100 
2088.907728  	-0.008340 
2090.836544  	-0.008420 
2092.765360  	-0.008771 
2094.694176  	-0.008797 
2096.622992  	-0.008804 
2098.551808  	-0.008935 
2100.480624  	-0.008993 
2102.409440  	-0.008683 
2104.338256  	-0.008402 
2106.267072  	-0.008346 
2108.195888  	-0.008188 
2110.124704  	-0.008339 
2112.053520  	-0.008342 
2113.982336  	-0.008202 
2115.911152  	-0.008387 
2117.839968  	-0.008507 
2119.768784  	-0.008522 
2121.697600  	-0.009039 
2123.626416  	-0.008932 
2125.555232  	-0.008939 
2127.484048  	-0.009189 
2129.412864  	-0.009466 
2131.341680  	-0.009674 
2133.270496  	-0.009634 
2135.199312  	-0.008794 
2137.128128  	-0.008457 
2139.056944  	-0.008515 
2140.985760  	-0.008629 
2142.914576  	-0.008634 
2144.843392  	-0.007755 
2146.772208  	-0.007797 
2148.701024  	-0.008206 
2150.629840  	-0.007558 
2152.558656  	-0.008252 
2154.487472  	-0.008600 
2156.416288  	-0.007314 
2158.345104  	-0.004700 
2160.273920  	-0.003991 
2162.202736  	-0.004407 
2164.131552  	-0.005009 
2166.060368  	-0.005605 
2167.989184  	-0.006156 
2169.918000  	-0.006040 
2171.846816  	-0.005992 
2173.775632  	-0.006389 
2175.704448  	-0.006988 
2177.633264  	-0.007273 
2179.562080  	-0.007427 
2181.490896  	-0.007589 
2183.419712  	-0.007732 
2185.348528  	-0.007790 
2187.277344  	-0.007059 
2189.206160  	-0.006023 
2191.134976  	-0.005396 
2193.063792  	-0.005511 
2194.992608  	-0.006572 
2196.921424  	-0.006731 
2198.850240  	-0.006508 
2200.779056  	-0.006489 
2202.707872  	-0.006821 
2204.636688  	-0.007089 
2206.565504  	-0.006831 
2208.494320  	-0.006267 
2210.423136  	-0.006731 
2212.351952  	-0.006975 
2214.280768  	-0.006468 
2216.209584  	-0.006226 
2218.138400  	-0.007060 
2220.067216  	-0.007001 
2221.996032  	-0.006703 
2223.924848  	-0.006527 
2225.853664  	-0.007147 
2227.782480  	-0.007338 
2229.711296  	-0.007137 
2231.640112  	-0.007703 
2233.568928  	-0.008262 
2235.497744  	-0.008217 
2237.426560  	-0.008231 
2239.355376  	-0.008335 
2241.284192  	-0.008531 
2243.213008  	-0.008078 
2245.141824  	-0.008014 
2247.070640  	-0.008286 
2248.999456  	-0.008718 
2250.928272  	-0.008672 
2252.857088  	-0.008407 
2254.785904  	-0.008118 
2256.714720  	-0.007800 
2258.643536  	-0.008215 
2260.572352  	-0.008483 
2262.501168  	-0.008376 
2264.429984  	-0.008156 
2266.358800  	-0.008121 
2268.287616  	-0.008049 
2270.216432  	-0.007885 
2272.145248  	-0.007905 
2274.074064  	-0.007836 
2276.002880  	-0.007812 
2277.931696  	-0.007561 
2279.860512  	-0.007361 
2281.789328  	-0.007352 
2283.718144  	-0.007352 
2285.646960  	-0.007134 
2287.575776  	-0.007081 
2289.504592  	-0.007037 
2291.433408  	-0.006857 
2293.362224  	-0.006597 
2295.291040  	-0.006329 
2297.219856  	-0.006216 
2299.148672  	-0.006106 
2301.077488  	-0.005711 
2303.006304  	-0.005601 
2304.935120  	-0.005663 
2306.863936  	-0.005153 
2308.792752  	-0.004656 
2310.721568  	-0.004370 
2312.650384  	-0.004179 
2314.579200  	-0.004191 
2316.508016  	-0.004023 
2318.436832  	-0.003688 
2320.365648  	-0.003295 
2322.294464  	-0.002927 
2324.223280  	-0.003164 
2326.152096  	-0.004126 
2328.080912  	-0.004223 
2330.009728  	-0.003747 
2331.938544  	-0.003879 
2333.867360  	-0.004646 
2335.796176  	-0.005084 
2337.724992  	-0.004908 
2339.653808  	-0.004760 
2341.582624  	-0.004360 
2343.511440  	-0.004011 
2345.440256  	-0.004120 
2347.369072  	-0.004429 
2349.297888  	-0.004546 
2351.226704  	-0.004157 
2353.155520  	-0.003845 
2355.084336  	-0.003887 
2357.013152  	-0.003688 
2358.941968  	-0.003310 
2360.870784  	-0.003133 
2362.799600  	-0.003079 
2364.728416  	-0.003271 
2366.657232  	-0.003290 
2368.586048  	-0.002887 
2370.514864  	-0.002814 
2372.443680  	-0.003300 
2374.372496  	-0.003948 
2376.301312  	-0.004388 
2378.230128  	-0.004747 
2380.158944  	-0.005324 
2382.087760  	-0.005981 
2384.016576  	-0.006673 
2385.945392  	-0.007358 
2387.874208  	-0.007723 
2389.803024  	-0.007652 
2391.731840  	-0.007575 
2393.660656  	-0.007655 
2395.589472  	-0.007832 
2397.518288  	-0.007871 
2399.447104  	-0.007842 
2401.375920  	-0.007569 
2403.304736  	-0.007268 
2405.233552  	-0.007302 
2407.162368  	-0.007392 
2409.091184  	-0.007380 
2411.020000  	-0.007384 
2412.948816  	-0.007455 
2414.877632  	-0.007347 
2416.806448  	-0.007348 
2418.735264  	-0.007488 
2420.664080  	-0.007470 
2422.592896  	-0.007475 
2424.521712  	-0.007305 
2426.450528  	-0.007204 
2428.379344  	-0.007270 
2430.308160  	-0.007082 
2432.236976  	-0.006939 
2434.165792  	-0.006929 
2436.094608  	-0.006821 
2438.023424  	-0.006871 
2439.952240  	-0.007030 
2441.881056  	-0.006808 
2443.809872  	-0.006656 
2445.738688  	-0.006688 
2447.667504  	-0.006517 
2449.596320  	-0.006455 
2451.525136  	-0.006539 
2453.453952  	-0.006561 
2455.382768  	-0.006368 
2457.311584  	-0.006282 
2459.240400  	-0.006536 
2461.169216  	-0.006654 
2463.098032  	-0.006520 
2465.026848  	-0.006302 
2466.955664  	-0.006323 
2468.884480  	-0.006418 
2470.813296  	-0.006369 
2472.742112  	-0.006286 
2474.670928  	-0.006169 
2476.599744  	-0.006097 
2478.528560  	-0.005971 
2480.457376  	-0.005978 
2482.386192  	-0.006165 
2484.315008  	-0.006292 
2486.243824  	-0.006215 
2488.172640  	-0.005999 
2490.101456  	-0.005751 
2492.030272  	-0.005829 
2493.959088  	-0.006078 
2495.887904  	-0.005902 
2497.816720  	-0.005430 
2499.745536  	-0.005363 
2501.674352  	-0.005352 
2503.603168  	-0.005448 
2505.531984  	-0.005550 
2507.460800  	-0.005502 
2509.389616  	-0.005499 
2511.318432  	-0.005710 
2513.247248  	-0.005709 
2515.176064  	-0.005661 
2517.104880  	-0.005618 
2519.033696  	-0.005388 
2520.962512  	-0.005253 
2522.891328  	-0.005119 
2524.820144  	-0.005092 
2526.748960  	-0.005201 
2528.677776  	-0.005190 
2530.606592  	-0.004965 
2532.535408  	-0.004913 
2534.464224  	-0.005158 
2536.393040  	-0.005264 
2538.321856  	-0.005103 
2540.250672  	-0.005043 
2542.179488  	-0.005043 
2544.108304  	-0.004899 
2546.037120  	-0.004850 
2547.965936  	-0.004899 
2549.894752  	-0.005044 
2551.823568  	-0.005049 
2553.752384  	-0.004948 
2555.681200  	-0.004877 
2557.610016  	-0.004689 
2559.538832  	-0.004640 
2561.467648  	-0.004606 
2563.396464  	-0.004703 
2565.325280  	-0.004817 
2567.254096  	-0.004694 
2569.182912  	-0.004509 
2571.111728  	-0.004268 
2573.040544  	-0.004299 
2574.969360  	-0.004184 
2576.898176  	-0.003835 
2578.826992  	-0.003772 
2580.755808  	-0.004164 
2582.684624  	-0.004241 
2584.613440  	-0.004200 
2586.542256  	-0.004114 
2588.471072  	-0.004091 
2590.399888  	-0.004153 
2592.328704  	-0.004145 
2594.257520  	-0.004133 
2596.186336  	-0.004138 
2598.115152  	-0.004138 
2600.043968  	-0.004143 
2601.972784  	-0.004092 
2603.901600  	-0.003884 
2605.830416  	-0.003863 
2607.759232  	-0.003987 
2609.688048  	-0.004043 
2611.616864  	-0.003936 
2613.545680  	-0.003726 
2615.474496  	-0.003685 
2617.403312  	-0.003606 
2619.332128  	-0.003497 
2621.260944  	-0.003485 
2623.189760  	-0.003512 
2625.118576  	-0.003440 
2627.047392  	-0.003352 
2628.976208  	-0.003322 
2630.905024  	-0.003301 
2632.833840  	-0.003288 
2634.762656  	-0.003215 
2636.691472  	-0.003080 
2638.620288  	-0.002991 
2640.549104  	-0.002924 
2642.477920  	-0.002824 
2644.406736  	-0.002774 
2646.335552  	-0.002836 
2648.264368  	-0.002784 
2650.193184  	-0.002745 
2652.122000  	-0.002655 
2654.050816  	-0.002563 
2655.979632  	-0.002515 
2657.908448  	-0.002445 
2659.837264  	-0.002391 
2661.766080  	-0.002269 
2663.694896  	-0.002265 
2665.623712  	-0.002342 
2667.552528  	-0.002269 
2669.481344  	-0.002193 
2671.410160  	-0.002111 
2673.338976  	-0.002131 
2675.267792  	-0.002096 
2677.196608  	-0.002056 
2679.125424  	-0.002077 
2681.054240  	-0.001962 
2682.983056  	-0.001950 
2684.911872  	-0.001929 
2686.840688  	-0.001759 
2688.769504  	-0.001565 
2690.698320  	-0.001564 
2692.627136  	-0.001559 
2694.555952  	-0.001496 
2696.484768  	-0.001530 
2698.413584  	-0.001484 
2700.342400  	-0.001423 
2702.271216  	-0.001369 
2704.200032  	-0.001282 
2706.128848  	-0.001221 
2708.057664  	-0.001167 
2709.986480  	-0.001126 
2711.915296  	-0.001050 
2713.844112  	-0.001013 
2715.772928  	-0.001006 
2717.701744  	-0.001045 
2719.630560  	-0.000941 
2721.559376  	-0.000751 
2723.488192  	-0.000687 
2725.417008  	-0.000592 
2727.345824  	-0.000535 
2729.274640  	-0.000517 
2731.203456  	-0.000444 
2733.132272  	-0.000277 
2735.061088  	-0.000188 
2736.989904  	-0.000177 
2738.918720  	-0.000088 
2740.847536  	-0.000038 
2742.776352  	-0.000042 
2744.705168  	-0.000060 
2746.633984  	-0.000030 
2748.562800  	0.000068 
2750.491616  	0.000217 
2752.420432  	0.000299 
2754.349248  	0.000210 
2756.278064  	0.000188 
2758.206880  	0.000178 
2760.135696  	0.000155 
2762.064512  	0.000269 
2763.993328  	0.000402 
2765.922144  	0.000365 
2767.850960  	0.000321 
2769.779776  	0.000316 
2771.708592  	0.000301 
2773.637408  	0.000309 
2775.566224  	0.000295 
2777.495040  	0.000351 
2779.423856  	0.000370 
2781.352672  	0.000356 
2783.281488  	0.000452 
2785.210304  	0.000528 
2787.139120  	0.000526 
2789.067936  	0.000451 
2790.996752  	0.000401 
2792.925568  	0.000428 
2794.854384  	0.000345 
2796.783200  	0.000284 
2798.712016  	0.000358 
2800.640832  	0.000425 
2802.569648  	0.000448 
2804.498464  	0.000414 
2806.427280  	0.000409 
2808.356096  	0.000378 
2810.284912  	0.000383 
2812.213728  	0.000313 
2814.142544  	0.000352 
2816.071360  	0.000343 
2818.000176  	0.000411 
2819.928992  	0.000429 
2821.857808  	0.000391 
2823.786624  	0.000339 
2825.715440  	0.000172 
2827.644256  	0.000037 
2829.573072  	0.000018 
2831.501888  	0.000024 
2833.430704  	-0.000165 
2835.359520  	-0.000426 
2837.288336  	-0.000433 
2839.217152  	-0.000377 
2841.145968  	-0.000591 
2843.074784  	-0.000790 
2845.003600  	-0.000906 
2846.932416  	-0.001050 
2848.861232  	-0.001115 
2850.790048  	-0.001147 
2852.718864  	-0.001221 
2854.647680  	-0.001314 
2856.576496  	-0.001393 
2858.505312  	-0.001436 
2860.434128  	-0.001524 
2862.362944  	-0.001668 
2864.291760  	-0.001837 
2866.220576  	-0.001901 
2868.149392  	-0.001960 
2870.078208  	-0.002150 
2872.007024  	-0.002033 
2873.935840  	-0.001798 
2875.864656  	-0.001714 
2877.793472  	-0.001666 
2879.722288  	-0.001592 
2881.651104  	-0.001557 
2883.579920  	-0.001566 
2885.508736  	-0.001546 
2887.437552  	-0.001503 
2889.366368  	-0.001653 
2891.295184  	-0.001827 
2893.224000  	-0.001885 
2895.152816  	-0.001878 
2897.081632  	-0.002182 
2899.010448  	-0.002789 
2900.939264  	-0.003166 
2902.868080  	-0.002915 
2904.796896  	-0.002694 
2906.725712  	-0.002742 
2908.654528  	-0.002761 
2910.583344  	-0.002570 
2912.512160  	-0.002218 
2914.440976  	-0.001922 
2916.369792  	-0.001652 
2918.298608  	-0.001320 
2920.227424  	-0.000994 
2922.156240  	-0.000785 
2924.085056  	-0.000705 
2926.013872  	-0.000528 
2927.942688  	-0.000122 
2929.871504  	0.000323 
2931.800320  	0.000459 
2933.729136  	0.000645 
2935.657952  	0.000996 
2937.586768  	0.001198 
2939.515584  	0.001267 
2941.444400  	0.001395 
2943.373216  	0.001575 
2945.302032  	0.001474 
2947.230848  	0.001408 
2949.159664  	0.001465 
2951.088480  	0.001344 
2953.017296  	0.000952 
2954.946112  	0.000590 
2956.874928  	0.000433 
2958.803744  	0.000145 
2960.732560  	-0.000361 
2962.661376  	-0.000941 
2964.590192  	-0.001313 
2966.519008  	-0.001820 
2968.447824  	-0.002465 
2970.376640  	-0.003205 
2972.305456  	-0.003866 
2974.234272  	-0.004252 
2976.163088  	-0.004688 
2978.091904  	-0.005118 
2980.020720  	-0.005439 
2981.949536  	-0.005453 
2983.878352  	-0.005319 
2985.807168  	-0.005300 
2987.735984  	-0.005233 
2989.664800  	-0.004845 
2991.593616  	-0.004033 
2993.522432  	-0.003533 
2995.451248  	-0.003293 
2997.380064  	-0.002865 
2999.308880  	-0.002457 
3001.237696  	-0.002101 
3003.166512  	-0.001835 
3005.095328  	-0.001807 
3007.024144  	-0.001764 
3008.952960  	-0.001341 
3010.881776  	-0.001067 
3012.810592  	-0.000989 
3014.739408  	-0.000806 
3016.668224  	-0.000666 
3018.597040  	-0.000536 
3020.525856  	-0.000353 
3022.454672  	-0.000105 
3024.383488  	0.000020 
3026.312304  	0.000176 
3028.241120  	0.000255 
3030.169936  	0.000277 
3032.098752  	0.000429 
3034.027568  	0.000400 
3035.956384  	0.000389 
3037.885200  	0.000386 
3039.814016  	0.000374 
3041.742832  	0.000405 
3043.671648  	0.000487 
3045.600464  	0.000647 
3047.529280  	0.000647 
3049.458096  	0.000588 
3051.386912  	0.000628 
3053.315728  	0.000624 
3055.244544  	0.000578 
3057.173360  	0.000666 
3059.102176  	0.000680 
3061.030992  	0.000640 
3062.959808  	0.000478 
3064.888624  	0.000557 
3066.817440  	0.000745 
3068.746256  	0.000831 
3070.675072  	0.000788 
3072.603888  	0.000770 
3074.532704  	0.000837 
3076.461520  	0.000870 
3078.390336  	0.000882 
3080.319152  	0.000960 
3082.247968  	0.000986 
3084.176784  	0.000965 
3086.105600  	0.001020 
3088.034416  	0.001236 
3089.963232  	0.001373 
3091.892048  	0.001353 
3093.820864  	0.001195 
3095.749680  	0.001159 
3097.678496  	0.001057 
3099.607312  	0.001186 
3101.536128  	0.001439 
3103.464944  	0.001436 
3105.393760  	0.001424 
3107.322576  	0.001344 
3109.251392  	0.001349 
3111.180208  	0.001350 
3113.109024  	0.001018 
3115.037840  	0.000796 
3116.966656  	0.000827 
3118.895472  	0.000906 
3120.824288  	0.000712 
3122.753104  	0.000569 
3124.681920  	0.000406 
3126.610736  	0.000314 
3128.539552  	0.000283 
3130.468368  	0.000089 
3132.397184  	0.000046 
3134.326000  	-0.000026 
3136.254816  	-0.000162 
3138.183632  	-0.000397 
3140.112448  	-0.000557 
3142.041264  	-0.000637 
3143.970080  	-0.000720 
3145.898896  	-0.000884 
3147.827712  	-0.001084 
3149.756528  	-0.001133 
3151.685344  	-0.001085 
3153.614160  	-0.001077 
3155.542976  	-0.001152 
3157.471792  	-0.001307 
3159.400608  	-0.001349 
3161.329424  	-0.001394 
3163.258240  	-0.001642 
3165.187056  	-0.001909 
3167.115872  	-0.001997 
3169.044688  	-0.001908 
3170.973504  	-0.001901 
3172.902320  	-0.002167 
3174.831136  	-0.002469 
3176.759952  	-0.002551 
3178.688768  	-0.002335 
3180.617584  	-0.002474 
3182.546400  	-0.002829 
3184.475216  	-0.003079 
3186.404032  	-0.003275 
3188.332848  	-0.003460 
3190.261664  	-0.003739 
3192.190480  	-0.003872 
3194.119296  	-0.004098 
3196.048112  	-0.004474 
3197.976928  	-0.004646 
3199.905744  	-0.004765 
3201.834560  	-0.004999 
3203.763376  	-0.005184 
3205.692192  	-0.005506 
3207.621008  	-0.005990 
3209.549824  	-0.006147 
3211.478640  	-0.006258 
3213.407456  	-0.006440 
3215.336272  	-0.006393 
3217.265088  	-0.006884 
3219.193904  	-0.007246 
3221.122720  	-0.007319 
3223.051536  	-0.007583 
3224.980352  	-0.007847 
3226.909168  	-0.008091 
3228.837984  	-0.008425 
3230.766800  	-0.008531 
3232.695616  	-0.008698 
3234.624432  	-0.009014 
3236.553248  	-0.009165 
3238.482064  	-0.009145 
3240.410880  	-0.009114 
3242.339696  	-0.009255 
3244.268512  	-0.009395 
3246.197328  	-0.009273 
3248.126144  	-0.009509 
3250.054960  	-0.009480 
3251.983776  	-0.009461 
3253.912592  	-0.009384 
3255.841408  	-0.009191 
3257.770224  	-0.009063 
3259.699040  	-0.009034 
3261.627856  	-0.009039 
3263.556672  	-0.009066 
3265.485488  	-0.009000 
3267.414304  	-0.009059 
3269.343120  	-0.009069 
3271.271936  	-0.009040 
3273.200752  	-0.008996 
3275.129568  	-0.008606 
3277.058384  	-0.008356 
3278.987200  	-0.008475 
3280.916016  	-0.008424 
3282.844832  	-0.008358 
3284.773648  	-0.008534 
3286.702464  	-0.008602 
3288.631280  	-0.008531 
3290.560096  	-0.008549 
3292.488912  	-0.008080 
3294.417728  	-0.007826 
3296.346544  	-0.007910 
3298.275360  	-0.007565 
3300.204176  	-0.007332 
3302.132992  	-0.007145 
3304.061808  	-0.007142 
3305.990624  	-0.007271 
3307.919440  	-0.007152 
3309.848256  	-0.006815 
3311.777072  	-0.006582 
3313.705888  	-0.006444 
3315.634704  	-0.006490 
3317.563520  	-0.006389 
3319.492336  	-0.006099 
3321.421152  	-0.006033 
3323.349968  	-0.005976 
3325.278784  	-0.006007 
3327.207600  	-0.005857 
3329.136416  	-0.005802 
3331.065232  	-0.005847 
3332.994048  	-0.005698 
3334.922864  	-0.005404 
3336.851680  	-0.005103 
3338.780496  	-0.005159 
3340.709312  	-0.005380 
3342.638128  	-0.005468 
3344.566944  	-0.005588 
3346.495760  	-0.005630 
3348.424576  	-0.005686 
3350.353392  	-0.005649 
3352.282208  	-0.005800 
3354.211024  	-0.006089 
3356.139840  	-0.006234 
3358.068656  	-0.006282 
3359.997472  	-0.006429 
3361.926288  	-0.006641 
3363.855104  	-0.006929 
3365.783920  	-0.006890 
3367.712736  	-0.006848 
3369.641552  	-0.006870 
3371.570368  	-0.006905 
3373.499184  	-0.006995 
3375.428000  	-0.007313 
3377.356816  	-0.007310 
3379.285632  	-0.006982 
3381.214448  	-0.006937 
3383.143264  	-0.007236 
3385.072080  	-0.007173 
3387.000896  	-0.007169 
3388.929712  	-0.007511 
3390.858528  	-0.007851 
3392.787344  	-0.007513 
3394.716160  	-0.007442 
3396.644976  	-0.007517 
3398.573792  	-0.007317 
3400.502608  	-0.007577 
3402.431424  	-0.007574 
3404.360240  	-0.007498 
3406.289056  	-0.007569 
3408.217872  	-0.007514 
3410.146688  	-0.007481 
3412.075504  	-0.007619 
3414.004320  	-0.007602 
3415.933136  	-0.007671 
3417.861952  	-0.008055 
3419.790768  	-0.008095 
3421.719584  	-0.007545 
3423.648400  	-0.007414 
3425.577216  	-0.007559 
3427.506032  	-0.007657 
3429.434848  	-0.007817 
3431.363664  	-0.007819 
3433.292480  	-0.007704 
3435.221296  	-0.007832 
3437.150112  	-0.007964 
3439.078928  	-0.008055 
3441.007744  	-0.008015 
3442.936560  	-0.007842 
3444.865376  	-0.008021 
3446.794192  	-0.007413 
3448.723008  	-0.006675 
3450.651824  	-0.007524 
3452.580640  	-0.007924 
3454.509456  	-0.007939 
3456.438272  	-0.008018 
3458.367088  	-0.008288 
3460.295904  	-0.008456 
3462.224720  	-0.008354 
3464.153536  	-0.008062 
3466.082352  	-0.008081 
3468.011168  	-0.008210 
3469.939984  	-0.008576 
3471.868800  	-0.009048 
3473.797616  	-0.009366 
3475.726432  	-0.009117 
3477.655248  	-0.009184 
3479.584064  	-0.009390 
3481.512880  	-0.009100 
3483.441696  	-0.008852 
3485.370512  	-0.009479 
3487.299328  	-0.009633 
3489.228144  	-0.009492 
3491.156960  	-0.009675 
3493.085776  	-0.010109 
3495.014592  	-0.010332 
3496.943408  	-0.009955 
3498.872224  	-0.010105 
3500.801040  	-0.010847 
3502.729856  	-0.010437 
3504.658672  	-0.009706 
3506.587488  	-0.010336 
3508.516304  	-0.010942 
3510.445120  	-0.010248 
3512.373936  	-0.010172 
3514.302752  	-0.010620 
3516.231568  	-0.010977 
3518.160384  	-0.010951 
3520.089200  	-0.011290 
3522.018016  	-0.011725 
3523.946832  	-0.011121 
3525.875648  	-0.011159 
3527.804464  	-0.011009 
3529.733280  	-0.010392 
3531.662096  	-0.010525 
3533.590912  	-0.011355 
3535.519728  	-0.011417 
3537.448544  	-0.010685 
3539.377360  	-0.011132 
3541.306176  	-0.011705 
3543.234992  	-0.011921 
3545.163808  	-0.011023 
3547.092624  	-0.010088 
3549.021440  	-0.010806 
3550.950256  	-0.011863 
3552.879072  	-0.011124 
3554.807888  	-0.010938 
3556.736704  	-0.011488 
3558.665520  	-0.011829 
3560.594336  	-0.011708 
3562.523152  	-0.012244 
3564.451968  	-0.013236 
3566.380784  	-0.012071 
3568.309600  	-0.009557 
3570.238416  	-0.010500 
3572.167232  	-0.011702 
3574.096048  	-0.012172 
3576.024864  	-0.012234 
3577.953680  	-0.012295 
3579.882496  	-0.012344 
3581.811312  	-0.012579 
3583.740128  	-0.013565 
3585.668944  	-0.014276 
3587.597760  	-0.012008 
3589.526576  	-0.011390 
3591.455392  	-0.013370 
3593.384208  	-0.013775 
3595.313024  	-0.013066 
3597.241840  	-0.013474 
3599.170656  	-0.014082 
3601.099472  	-0.013668 
3603.028288  	-0.013830 
3604.957104  	-0.015004 
3606.885920  	-0.015260 
3608.814736  	-0.014120 
3610.743552  	-0.014989 
3612.672368  	-0.015739 
3614.601184  	-0.015241 
3616.530000  	-0.016475 
3618.458816  	-0.016826 
3620.387632  	-0.015361 
3622.316448  	-0.015304 
3624.245264  	-0.016543 
3626.174080  	-0.018606 
3628.102896  	-0.018778 
3630.031712  	-0.015431 
3631.960528  	-0.016614 
3633.889344  	-0.016883 
3635.818160  	-0.016866 
3637.746976  	-0.017697 
3639.675792  	-0.018217 
3641.604608  	-0.018315 
3643.533424  	-0.018712 
3645.462240  	-0.020085 
3647.391056  	-0.021016 
3649.319872  	-0.020101 
3651.248688  	-0.017967 
3653.177504  	-0.018985 
3655.106320  	-0.019794 
3657.035136  	-0.018873 
3658.963952  	-0.018824 
3660.892768  	-0.018826 
3662.821584  	-0.019024 
3664.750400  	-0.019148 
3666.679216  	-0.019788 
3668.608032  	-0.020771 
3670.536848  	-0.019675 
3672.465664  	-0.020079 
3674.394480  	-0.020995 
3676.323296  	-0.019219 
3678.252112  	-0.019042 
3680.180928  	-0.018441 
3682.109744  	-0.018343 
3684.038560  	-0.018635 
3685.967376  	-0.019217 
3687.896192  	-0.019622 
3689.825008  	-0.019238 
3691.753824  	-0.018195 
3693.682640  	-0.017770 
3695.611456  	-0.017485 
3697.540272  	-0.017329 
3699.469088  	-0.017707 
3701.397904  	-0.017384 
3703.326720  	-0.016727 
3705.255536  	-0.016845 
3707.184352  	-0.017385 
3709.113168  	-0.017976 
3711.041984  	-0.017952 
3712.970800  	-0.016813 
3714.899616  	-0.016516 
3716.828432  	-0.016823 
3718.757248  	-0.016773 
3720.686064  	-0.017052 
3722.614880  	-0.017088 
3724.543696  	-0.016660 
3726.472512  	-0.016113 
3728.401328  	-0.016375 
3730.330144  	-0.017505 
3732.258960  	-0.018182 
3734.187776  	-0.017615 
3736.116592  	-0.016356 
3738.045408  	-0.016636 
3739.974224  	-0.017073 
3741.903040  	-0.017725 
3743.831856  	-0.017607 
3745.760672  	-0.016908 
3747.689488  	-0.018363 
3749.618304  	-0.018588 
3751.547120  	-0.017400 
3753.475936  	-0.016670 
3755.404752  	-0.016922 
3757.333568  	-0.017034 
3759.262384  	-0.016936 
3761.191200  	-0.016459 
3763.120016  	-0.016691 
3765.048832  	-0.016504 
3766.977648  	-0.016449 
3768.906464  	-0.016577 
3770.835280  	-0.016056 
3772.764096  	-0.016057 
3774.692912  	-0.016283 
3776.621728  	-0.016720 
3778.550544  	-0.016929 
3780.479360  	-0.016311 
3782.408176  	-0.016493 
3784.336992  	-0.016602 
3786.265808  	-0.016312 
3788.194624  	-0.016234 
3790.123440  	-0.016352 
3792.052256  	-0.016432 
3793.981072  	-0.016801 
3795.909888  	-0.016999 
3797.838704  	-0.017094 
3799.767520  	-0.017491 
3801.696336  	-0.017101 
3803.625152  	-0.017069 
3805.553968  	-0.017629 
3807.482784  	-0.016954 
3809.411600  	-0.016547 
3811.340416  	-0.016413 
3813.269232  	-0.017024 
3815.198048  	-0.017501 
3817.126864  	-0.017312 
3819.055680  	-0.018098 
3820.984496  	-0.017395 
3822.913312  	-0.016612 
3824.842128  	-0.017055 
3826.770944  	-0.016945 
3828.699760  	-0.016981 
3830.628576  	-0.017289 
3832.557392  	-0.017206 
3834.486208  	-0.017214 
3836.415024  	-0.017593 
3838.343840  	-0.017584 
3840.272656  	-0.017227 
3842.201472  	-0.016954 
3844.130288  	-0.016568 
3846.059104  	-0.016675 
3847.987920  	-0.017185 
3849.916736  	-0.018010 
3851.845552  	-0.018637 
3853.774368  	-0.017246 
3855.703184  	-0.016835 
3857.632000  	-0.016714 
3859.560816  	-0.016820 
3861.489632  	-0.017030 
3863.418448  	-0.017102 
3865.347264  	-0.016573 
3867.276080  	-0.017151 
3869.204896  	-0.017379 
3871.133712  	-0.016880 
3873.062528  	-0.017191 
3874.991344  	-0.016534 
3876.920160  	-0.016761 
3878.848976  	-0.017075 
3880.777792  	-0.016632 
3882.706608  	-0.016648 
3884.635424  	-0.016502 
3886.564240  	-0.015814 
3888.493056  	-0.016767 
3890.421872  	-0.016911 
3892.350688  	-0.016356 
3894.279504  	-0.016347 
3896.208320  	-0.016847 
3898.137136  	-0.017075 
3900.065952  	-0.016695 
3901.994768  	-0.016570 
3903.923584  	-0.016262 
3905.852400  	-0.016362 
3907.781216  	-0.016743 
3909.710032  	-0.016732 
3911.638848  	-0.016449 
3913.567664  	-0.016386 
3915.496480  	-0.016376 
3917.425296  	-0.016211 
3919.354112  	-0.016540 
3921.282928  	-0.016768 
3923.211744  	-0.016756 
3925.140560  	-0.016365 
3927.069376  	-0.016678 
3928.998192  	-0.016899 
3930.927008  	-0.016621 
3932.855824  	-0.016305 
3934.784640  	-0.016478 
3936.713456  	-0.016621 
3938.642272  	-0.016576 
3940.571088  	-0.016697 
3942.499904  	-0.016343 
3944.428720  	-0.016384 
3946.357536  	-0.016689 
3948.286352  	-0.016637 
3950.215168  	-0.016531 
3952.143984  	-0.016731 
3954.072800  	-0.016896 
3956.001616  	-0.016909 
3957.930432  	-0.016704 
3959.859248  	-0.016725 
3961.788064  	-0.016657 
3963.716880  	-0.016556 
3965.645696  	-0.016650 
3967.574512  	-0.016803 
3969.503328  	-0.016770 
3971.432144  	-0.016707 
3973.360960  	-0.016820 
3975.289776  	-0.016861 
3977.218592  	-0.016845 
3979.147408  	-0.016817 
3981.076224  	-0.016798 
3983.005040  	-0.016786 
3984.933856  	-0.016777 
3986.862672  	-0.016877 
3988.791488  	-0.016890 
3990.720304  	-0.016909 
3992.649120  	-0.016844 
3994.577936  	-0.016771 
3996.506752  	-0.016847 
3998.435568  	-0.016866 
4000.364384  	-0.016930 