##TITLE=No Description
##DATA TYPE=INFRARED SPECTRUM
##XUNITS=1/CM
##YUNITS=Abs
399.264912  	0.596765 
401.193728  	0.570602 
403.122544  	0.578049 
405.051360  	0.583744 
406.980176  	0.578289 
408.908992  	0.560773 
410.837808  	0.567726 
412.766624  	0.572075 
414.695440  	0.585031 
416.624256  	0.561843 
418.553072  	0.545318 
420.481888  	0.553367 
422.410704  	0.561026 
424.339520  	0.549450 
426.268336  	0.547751 
428.197152  	0.547455 
430.125968  	0.545927 
432.054784  	0.540917 
433.983600  	0.542996 
435.912416  	0.533985 
437.841232  	0.531488 
439.770048  	0.526941 
441.698864  	0.530180 
443.627680  	0.532317 
445.556496  	0.528601 
447.485312  	0.520624 
449.414128  	0.521756 
451.342944  	0.518426 
453.271760  	0.518127 
455.200576  	0.511004 
457.129392  	0.514453 
459.058208  	0.514948 
460.987024  	0.519033 
462.915840  	0.520513 
464.844656  	0.526300 
466.773472  	0.522606 
468.702288  	0.519338 
470.631104  	0.515707 
472.559920  	0.511911 
474.488736  	0.509279 
476.417552  	0.513637 
478.346368  	0.512177 
480.275184  	0.512559 
482.204000  	0.508331 
484.132816  	0.507077 
486.061632  	0.507526 
487.990448  	0.510727 
489.919264  	0.509157 
491.848080  	0.507760 
493.776896  	0.505730 
495.705712  	0.506115 
497.634528  	0.501695 
499.563344  	0.502238 
501.492160  	0.499321 
503.420976  	0.498346 
505.349792  	0.497043 
507.278608  	0.500201 
509.207424  	0.499002 
511.136240  	0.499245 
513.065056  	0.499259 
514.993872  	0.502355 
516.922688  	0.503164 
518.851504  	0.504372 
520.780320  	0.503243 
522.709136  	0.504408 
524.637952  	0.504400 
526.566768  	0.503853 
528.495584  	0.499529 
530.424400  	0.498196 
532.353216  	0.493751 
534.282032  	0.488897 
536.210848  	0.483575 
538.139664  	0.479410 
540.068480  	0.474545 
541.997296  	0.471256 
543.926112  	0.465619 
545.854928  	0.463031 
547.783744  	0.460114 
549.712560  	0.456512 
551.641376  	0.452148 
553.570192  	0.448689 
555.499008  	0.444964 
557.427824  	0.443272 
559.356640  	0.439270 
561.285456  	0.436255 
563.214272  	0.433452 
565.143088  	0.430261 
567.071904  	0.424856 
569.000720  	0.421207 
570.929536  	0.418114 
572.858352  	0.415335 
574.787168  	0.412298 
576.715984  	0.410289 
578.644800  	0.407020 
580.573616  	0.403134 
582.502432  	0.398044 
584.431248  	0.395450 
586.360064  	0.391539 
588.288880  	0.389081 
590.217696  	0.386804 
592.146512  	0.383641 
594.075328  	0.380768 
596.004144  	0.379793 
597.932960  	0.378550 
599.861776  	0.376809 
601.790592  	0.374156 
603.719408  	0.373073 
605.648224  	0.371781 
607.577040  	0.370486 
609.505856  	0.368762 
611.434672  	0.367263 
613.363488  	0.365520 
615.292304  	0.364333 
617.221120  	0.362884 
619.149936  	0.361892 
621.078752  	0.359846 
623.007568  	0.358295 
624.936384  	0.356933 
626.865200  	0.355499 
628.794016  	0.353933 
630.722832  	0.353698 
632.651648  	0.353017 
634.580464  	0.352897 
636.509280  	0.353259 
638.438096  	0.353808 
640.366912  	0.352611 
642.295728  	0.351251 
644.224544  	0.349002 
646.153360  	0.345953 
648.082176  	0.341845 
650.010992  	0.338052 
651.939808  	0.334400 
653.868624  	0.331138 
655.797440  	0.328028 
657.726256  	0.324782 
659.655072  	0.320385 
661.583888  	0.315991 
663.512704  	0.311792 
665.441520  	0.309380 
667.370336  	0.304327 
669.299152  	0.297684 
671.227968  	0.295893 
673.156784  	0.293452 
675.085600  	0.290815 
677.014416  	0.288285 
678.943232  	0.286269 
680.872048  	0.284724 
682.800864  	0.282774 
684.729680  	0.281390 
686.658496  	0.280108 
688.587312  	0.278905 
690.516128  	0.276731 
692.444944  	0.275421 
694.373760  	0.274067 
696.302576  	0.272370 
698.231392  	0.270017 
700.160208  	0.267706 
702.089024  	0.265554 
704.017840  	0.263331 
705.946656  	0.260790 
707.875472  	0.258608 
709.804288  	0.256800 
711.733104  	0.254616 
713.661920  	0.252040 
715.590736  	0.250815 
717.519552  	0.250761 
719.448368  	0.251087 
721.377184  	0.251581 
723.306000  	0.252018 
725.234816  	0.252235 
727.163632  	0.252258 
729.092448  	0.250109 
731.021264  	0.246750 
732.950080  	0.243282 
734.878896  	0.240341 
736.807712  	0.237444 
738.736528  	0.235175 
740.665344  	0.233036 
742.594160  	0.231106 
744.522976  	0.229834 
746.451792  	0.228320 
748.380608  	0.226358 
750.309424  	0.224899 
752.238240  	0.224049 
754.167056  	0.223574 
756.095872  	0.222432 
758.024688  	0.221457 
759.953504  	0.221067 
761.882320  	0.221883 
763.811136  	0.222528 
765.739952  	0.221718 
767.668768  	0.219319 
769.597584  	0.216776 
771.526400  	0.215836 
773.455216  	0.217018 
775.384032  	0.219997 
777.312848  	0.224661 
779.241664  	0.228808 
781.170480  	0.229528 
783.099296  	0.226209 
785.028112  	0.220880 
786.956928  	0.215184 
788.885744  	0.210085 
790.814560  	0.206385 
792.743376  	0.204329 
794.672192  	0.203274 
796.601008  	0.202533 
798.529824  	0.199613 
800.458640  	0.195190 
802.387456  	0.191705 
804.316272  	0.189718 
806.245088  	0.188567 
808.173904  	0.188218 
810.102720  	0.187888 
812.031536  	0.187214 
813.960352  	0.187334 
815.889168  	0.187742 
817.817984  	0.187865 
819.746800  	0.188393 
821.675616  	0.188893 
823.604432  	0.188883 
825.533248  	0.188796 
827.462064  	0.188612 
829.390880  	0.187533 
831.319696  	0.186395 
833.248512  	0.184779 
835.177328  	0.182479 
837.106144  	0.179931 
839.034960  	0.176800 
840.963776  	0.173363 
842.892592  	0.169850 
844.821408  	0.166413 
846.750224  	0.163522 
848.679040  	0.160924 
850.607856  	0.158873 
852.536672  	0.157049 
854.465488  	0.155465 
856.394304  	0.154370 
858.323120  	0.153392 
860.251936  	0.151703 
862.180752  	0.149706 
864.109568  	0.147414 
866.038384  	0.145107 
867.967200  	0.143390 
869.896016  	0.141664 
871.824832  	0.140396 
873.753648  	0.140120 
875.682464  	0.140756 
877.611280  	0.141528 
879.540096  	0.142591 
881.468912  	0.144734 
883.397728  	0.146222 
885.326544  	0.147255 
887.255360  	0.147430 
889.184176  	0.146356 
891.112992  	0.144372 
893.041808  	0.142787 
894.970624  	0.140565 
896.899440  	0.137091 
898.828256  	0.133038 
900.757072  	0.129020 
902.685888  	0.125908 
904.614704  	0.124168 
906.543520  	0.123997 
908.472336  	0.125446 
910.401152  	0.128104 
912.329968  	0.130802 
914.258784  	0.133610 
916.187600  	0.136362 
918.116416  	0.138667 
920.045232  	0.140339 
921.974048  	0.141196 
923.902864  	0.141303 
925.831680  	0.140867 
927.760496  	0.140822 
929.689312  	0.141221 
931.618128  	0.141925 
933.546944  	0.142313 
935.475760  	0.142458 
937.404576  	0.142334 
939.333392  	0.141822 
941.262208  	0.141705 
943.191024  	0.142997 
945.119840  	0.146415 
947.048656  	0.151890 
948.977472  	0.159323 
950.906288  	0.168518 
952.835104  	0.178789 
954.763920  	0.189681 
956.692736  	0.200069 
958.621552  	0.209123 
960.550368  	0.215212 
962.479184  	0.218190 
964.408000  	0.217457 
966.336816  	0.212870 
968.265632  	0.204877 
970.194448  	0.194086 
972.123264  	0.181496 
974.052080  	0.168404 
975.980896  	0.155494 
977.909712  	0.143460 
979.838528  	0.132760 
981.767344  	0.123916 
983.696160  	0.117224 
985.624976  	0.112982 
987.553792  	0.111480 
989.482608  	0.112684 
991.411424  	0.116048 
993.340240  	0.120985 
995.269056  	0.127073 
997.197872  	0.133689 
999.126688  	0.140614 
1001.055504  	0.147675 
1002.984320  	0.154520 
1004.913136  	0.161192 
1006.841952  	0.167699 
1008.770768  	0.173127 
1010.699584  	0.176782 
1012.628400  	0.179085 
1014.557216  	0.180225 
1016.486032  	0.180467 
1018.414848  	0.180223 
1020.343664  	0.179906 
1022.272480  	0.179158 
1024.201296  	0.177836 
1026.130112  	0.174886 
1028.058928  	0.173794 
1029.987744  	0.176488 
1031.916560  	0.178509 
1033.845376  	0.179733 
1035.774192  	0.181112 
1037.703008  	0.184030 
1039.631824  	0.190454 
1041.560640  	0.199183 
1043.489456  	0.210882 
1045.418272  	0.225018 
1047.347088  	0.240472 
1049.275904  	0.254675 
1051.204720  	0.265865 
1053.133536  	0.272959 
1055.062352  	0.276112 
1056.991168  	0.275782 
1058.919984  	0.276543 
1060.848800  	0.277075 
1062.777616  	0.274922 
1064.706432  	0.269265 
1066.635248  	0.264252 
1068.564064  	0.262196 
1070.492880  	0.257415 
1072.421696  	0.249900 
1074.350512  	0.244601 
1076.279328  	0.242718 
1078.208144  	0.244639 
1080.136960  	0.249376 
1082.065776  	0.254976 
1083.994592  	0.258434 
1085.923408  	0.259115 
1087.852224  	0.256665 
1089.781040  	0.252258 
1091.709856  	0.246406 
1093.638672  	0.238336 
1095.567488  	0.227547 
1097.496304  	0.215622 
1099.425120  	0.203298 
1101.353936  	0.190924 
1103.282752  	0.178658 
1105.211568  	0.166929 
1107.140384  	0.155836 
1109.069200  	0.145242 
1110.998016  	0.135258 
1112.926832  	0.126402 
1114.855648  	0.118334 
1116.784464  	0.110535 
1118.713280  	0.103216 
1120.642096  	0.096516 
1122.570912  	0.090158 
1124.499728  	0.084089 
1126.428544  	0.078678 
1128.357360  	0.074030 
1130.286176  	0.070247 
1132.214992  	0.066797 
1134.143808  	0.063875 
1136.072624  	0.061428 
1138.001440  	0.059550 
1139.930256  	0.057428 
1141.859072  	0.055039 
1143.787888  	0.052437 
1145.716704  	0.050254 
1147.645520  	0.048239 
1149.574336  	0.046571 
1151.503152  	0.045218 
1153.431968  	0.044664 
1155.360784  	0.044678 
1157.289600  	0.045458 
1159.218416  	0.046952 
1161.147232  	0.049108 
1163.076048  	0.051273 
1165.004864  	0.053446 
1166.933680  	0.055630 
1168.862496  	0.058049 
1170.791312  	0.060470 
1172.720128  	0.063344 
1174.648944  	0.066089 
1176.577760  	0.068814 
1178.506576  	0.071574 
1180.435392  	0.074386 
1182.364208  	0.077135 
1184.293024  	0.080236 
1186.221840  	0.083385 
1188.150656  	0.087084 
1190.079472  	0.091463 
1192.008288  	0.096897 
1193.937104  	0.103283 
1195.865920  	0.110787 
1197.794736  	0.119131 
1199.723552  	0.127994 
1201.652368  	0.136947 
1203.581184  	0.146213 
1205.510000  	0.155413 
1207.438816  	0.163986 
1209.367632  	0.172039 
1211.296448  	0.179046 
1213.225264  	0.184693 
1215.154080  	0.189036 
1217.082896  	0.192360 
1219.011712  	0.194384 
1220.940528  	0.195912 
1222.869344  	0.196623 
1224.798160  	0.196567 
1226.726976  	0.195740 
1228.655792  	0.194719 
1230.584608  	0.192993 
1232.513424  	0.190836 
1234.442240  	0.187913 
1236.371056  	0.184139 
1238.299872  	0.179215 
1240.228688  	0.172429 
1242.157504  	0.165507 
1244.086320  	0.159543 
1246.015136  	0.152143 
1247.943952  	0.144093 
1249.872768  	0.136067 
1251.801584  	0.129036 
1253.730400  	0.121977 
1255.659216  	0.115040 
1257.588032  	0.108676 
1259.516848  	0.102561 
1261.445664  	0.096794 
1263.374480  	0.091617 
1265.303296  	0.087121 
1267.232112  	0.083559 
1269.160928  	0.080854 
1271.089744  	0.078826 
1273.018560  	0.077827 
1274.947376  	0.077577 
1276.876192  	0.077677 
1278.805008  	0.077512 
1280.733824  	0.076519 
1282.662640  	0.074656 
1284.591456  	0.072320 
1286.520272  	0.070057 
1288.449088  	0.068466 
1290.377904  	0.067844 
1292.306720  	0.068024 
1294.235536  	0.068079 
1296.164352  	0.067051 
1298.093168  	0.064801 
1300.021984  	0.061921 
1301.950800  	0.058789 
1303.879616  	0.055791 
1305.808432  	0.052612 
1307.737248  	0.049419 
1309.666064  	0.046440 
1311.594880  	0.044018 
1313.523696  	0.042085 
1315.452512  	0.040863 
1317.381328  	0.040156 
1319.310144  	0.040042 
1321.238960  	0.040420 
1323.167776  	0.041314 
1325.096592  	0.042208 
1327.025408  	0.042835 
1328.954224  	0.042836 
1330.883040  	0.042410 
1332.811856  	0.041661 
1334.740672  	0.040979 
1336.669488  	0.040302 
1338.598304  	0.039577 
1340.527120  	0.038690 
1342.455936  	0.038237 
1344.384752  	0.038057 
1346.313568  	0.038302 
1348.242384  	0.038862 
1350.171200  	0.039998 
1352.100016  	0.041494 
1354.028832  	0.043309 
1355.957648  	0.045100 
1357.886464  	0.047089 
1359.815280  	0.049073 
1361.744096  	0.050889 
1363.672912  	0.052381 
1365.601728  	0.054083 
1367.530544  	0.055461 
1369.459360  	0.055831 
1371.388176  	0.055707 
1373.316992  	0.054401 
1375.245808  	0.051506 
1377.174624  	0.048993 
1379.103440  	0.046157 
1381.032256  	0.043546 
1382.961072  	0.041607 
1384.889888  	0.040662 
1386.818704  	0.039473 
1388.747520  	0.037849 
1390.676336  	0.035884 
1392.605152  	0.032981 
1394.533968  	0.030980 
1396.462784  	0.033143 
1398.391600  	0.034322 
1400.320416  	0.034149 
1402.249232  	0.034553 
1404.178048  	0.034985 
1406.106864  	0.035721 
1408.035680  	0.037570 
1409.964496  	0.039686 
1411.893312  	0.042373 
1413.822128  	0.045371 
1415.750944  	0.048484 
1417.679760  	0.050445 
1419.608576  	0.050794 
1421.537392  	0.051374 
1423.466208  	0.051244 
1425.395024  	0.049702 
1427.323840  	0.048448 
1429.252656  	0.046117 
1431.181472  	0.044268 
1433.110288  	0.043973 
1435.039104  	0.044642 
1436.967920  	0.044235 
1438.896736  	0.045187 
1440.825552  	0.046322 
1442.754368  	0.046964 
1444.683184  	0.047153 
1446.612000  	0.047072 
1448.540816  	0.046124 
1450.469632  	0.046502 
1452.398448  	0.047212 
1454.327264  	0.048235 
1456.256080  	0.048031 
1458.184896  	0.046383 
1460.113712  	0.047243 
1462.042528  	0.048611 
1463.971344  	0.048708 
1465.900160  	0.049011 
1467.828976  	0.051192 
1469.757792  	0.054338 
1471.686608  	0.057573 
1473.615424  	0.062966 
1475.544240  	0.068641 
1477.473056  	0.074087 
1479.401872  	0.078051 
1481.330688  	0.081211 
1483.259504  	0.083356 
1485.188320  	0.084720 
1487.117136  	0.084611 
1489.045952  	0.083621 
1490.974768  	0.080818 
1492.903584  	0.079016 
1494.832400  	0.076103 
1496.761216  	0.070188 
1498.690032  	0.064148 
1500.618848  	0.059651 
1502.547664  	0.056137 
1504.476480  	0.053370 
1506.405296  	0.047499 
1508.334112  	0.042288 
1510.262928  	0.041971 
1512.191744  	0.040908 
1514.120560  	0.040313 
1516.049376  	0.039922 
1517.978192  	0.039943 
1519.907008  	0.041707 
1521.835824  	0.043005 
1523.764640  	0.046567 
1525.693456  	0.049851 
1527.622272  	0.051865 
1529.551088  	0.052781 
1531.479904  	0.052509 
1533.408720  	0.049129 
1535.337536  	0.046132 
1537.266352  	0.045273 
1539.195168  	0.040890 
1541.123984  	0.034181 
1543.052800  	0.033328 
1544.981616  	0.032249 
1546.910432  	0.032066 
1548.839248  	0.032193 
1550.768064  	0.032100 
1552.696880  	0.032779 
1554.625696  	0.033868 
1556.554512  	0.035359 
1558.483328  	0.035652 
1560.412144  	0.037625 
1562.340960  	0.043124 
1564.269776  	0.047004 
1566.198592  	0.052114 
1568.127408  	0.056471 
1570.056224  	0.062060 
1571.985040  	0.068178 
1573.913856  	0.072972 
1575.842672  	0.075013 
1577.771488  	0.077183 
1579.700304  	0.078170 
1581.629120  	0.077843 
1583.557936  	0.077204 
1585.486752  	0.078026 
1587.415568  	0.080219 
1589.344384  	0.084460 
1591.273200  	0.090122 
1593.202016  	0.097080 
1595.130832  	0.104384 
1597.059648  	0.112082 
1598.988464  	0.118466 
1600.917280  	0.124167 
1602.846096  	0.127889 
1604.774912  	0.130418 
1606.703728  	0.130575 
1608.632544  	0.129826 
1610.561360  	0.127840 
1612.490176  	0.126476 
1614.418992  	0.124849 
1616.347808  	0.123456 
1618.276624  	0.124228 
1620.205440  	0.127486 
1622.134256  	0.130386 
1624.063072  	0.136341 
1625.991888  	0.142557 
1627.920704  	0.150240 
1629.849520  	0.159328 
1631.778336  	0.168062 
1633.707152  	0.174591 
1635.635968  	0.182947 
1637.564784  	0.192342 
1639.493600  	0.198713 
1641.422416  	0.203153 
1643.351232  	0.206730 
1645.280048  	0.207682 
1647.208864  	0.208432 
1649.137680  	0.209281 
1651.066496  	0.208914 
1652.995312  	0.203608 
1654.924128  	0.202217 
1656.852944  	0.201341 
1658.781760  	0.199105 
1660.710576  	0.195631 
1662.639392  	0.191126 
1664.568208  	0.187161 
1666.497024  	0.184326 
1668.425840  	0.179361 
1670.354656  	0.173315 
1672.283472  	0.169975 
1674.212288  	0.166790 
1676.141104  	0.162492 
1678.069920  	0.161039 
1679.998736  	0.159442 
1681.927552  	0.158497 
1683.856368  	0.155156 
1685.785184  	0.154334 
1687.714000  	0.155041 
1689.642816  	0.154250 
1691.571632  	0.153027 
1693.500448  	0.152213 
1695.429264  	0.149068 
1697.358080  	0.146552 
1699.286896  	0.143964 
1701.215712  	0.138825 
1703.144528  	0.137677 
1705.073344  	0.133924 
1707.002160  	0.128347 
1708.930976  	0.123760 
1710.859792  	0.117953 
1712.788608  	0.111466 
1714.717424  	0.103655 
1716.646240  	0.093820 
1718.575056  	0.081245 
1720.503872  	0.073384 
1722.432688  	0.066616 
1724.361504  	0.057866 
1726.290320  	0.050899 
1728.219136  	0.044781 
1730.147952  	0.038951 
1732.076768  	0.034581 
1734.005584  	0.028470 
1735.934400  	0.023655 
1737.863216  	0.023639 
1739.792032  	0.020413 
1741.720848  	0.018660 
1743.649664  	0.017410 
1745.578480  	0.016661 
1747.507296  	0.015345 
1749.436112  	0.014110 
1751.364928  	0.012492 
1753.293744  	0.012373 
1755.222560  	0.012363 
1757.151376  	0.011453 
1759.080192  	0.011083 
1761.009008  	0.010761 
1762.937824  	0.009269 
1764.866640  	0.009609 
1766.795456  	0.009683 
1768.724272  	0.009230 
1770.653088  	0.008698 
1772.581904  	0.007113 
1774.510720  	0.006893 
1776.439536  	0.007725 
1778.368352  	0.007841 
1780.297168  	0.007447 
1782.225984  	0.006897 
1784.154800  	0.007087 
1786.083616  	0.006571 
1788.012432  	0.007115 
1789.941248  	0.007246 
1791.870064  	0.006297 
1793.798880  	0.005139 
1795.727696  	0.005930 
1797.656512  	0.005915 
1799.585328  	0.006030 
1801.514144  	0.005364 
1803.442960  	0.005474 
1805.371776  	0.005436 
1807.300592  	0.005613 
1809.229408  	0.005251 
1811.158224  	0.004863 
1813.087040  	0.004569 
1815.015856  	0.005029 
1816.944672  	0.004811 
1818.873488  	0.004885 
1820.802304  	0.004900 
1822.731120  	0.005441 
1824.659936  	0.004891 
1826.588752  	0.004579 
1828.517568  	0.004375 
1830.446384  	0.003891 
1832.375200  	0.003933 
1834.304016  	0.004513 
1836.232832  	0.004538 
1838.161648  	0.004605 
1840.090464  	0.004432 
1842.019280  	0.005050 
1843.948096  	0.003996 
1845.876912  	0.003424 
1847.805728  	0.003802 
1849.734544  	0.004189 
1851.663360  	0.004401 
1853.592176  	0.004640 
1855.520992  	0.004507 
1857.449808  	0.004513 
1859.378624  	0.004181 
1861.307440  	0.004170 
1863.236256  	0.004012 
1865.165072  	0.004416 
1867.093888  	0.004495 
1869.022704  	0.004015 
1870.951520  	0.003359 
1872.880336  	0.003808 
1874.809152  	0.003703 
1876.737968  	0.003774 
1878.666784  	0.003472 
1880.595600  	0.003939 
1882.524416  	0.003856 
1884.453232  	0.003967 
1886.382048  	0.003649 
1888.310864  	0.003877 
1890.239680  	0.003177 
1892.168496  	0.003468 
1894.097312  	0.003513 
1896.026128  	0.003657 
1897.954944  	0.003464 
1899.883760  	0.003664 
1901.812576  	0.003215 
1903.741392  	0.003048 
1905.670208  	0.003255 
1907.599024  	0.003813 
1909.527840  	0.003286 
1911.456656  	0.003473 
1913.385472  	0.003528 
1915.314288  	0.004188 
1917.243104  	0.003445 
1919.171920  	0.002934 
1921.100736  	0.003104 
1923.029552  	0.003331 
1924.958368  	0.003087 
1926.887184  	0.003445 
1928.816000  	0.003228 
1930.744816  	0.003661 
1932.673632  	0.003211 
1934.602448  	0.003199 
1936.531264  	0.003442 
1938.460080  	0.004285 
1940.388896  	0.003549 
1942.317712  	0.002743 
1944.246528  	0.002460 
1946.175344  	0.003790 
1948.104160  	0.003289 
1950.032976  	0.003076 
1951.961792  	0.002780 
1953.890608  	0.003224 
1955.819424  	0.003092 
1957.748240  	0.003900 
1959.677056  	0.003325 
1961.605872  	0.003900 
1963.534688  	0.004146 
1965.463504  	0.004586 
1967.392320  	0.002931 
1969.321136  	0.002731 
1971.249952  	0.003274 
1973.178768  	0.004420 
1975.107584  	0.003191 
1977.036400  	0.004311 
1978.965216  	0.005929 
1980.894032  	0.005467 
1982.822848  	0.004249 
1984.751664  	0.004290 
1986.680480  	0.003657 
1988.609296  	0.004069 
1990.538112  	0.003101 
1992.466928  	0.003061 
1994.395744  	0.002944 
1996.324560  	0.003580 
1998.253376  	0.002392 
2000.182192  	0.002474 
2002.111008  	0.002995 
2004.039824  	0.003351 
2005.968640  	0.002332 
2007.897456  	0.003449 
2009.826272  	0.003477 
2011.755088  	0.003168 
2013.683904  	0.002321 
2015.612720  	0.003696 
2017.541536  	0.003561 
2019.470352  	0.003756 
2021.399168  	0.002782 
2023.327984  	0.002922 
2025.256800  	0.003079 
2027.185616  	0.003223 
2029.114432  	0.002720 
2031.043248  	0.004284 
2032.972064  	0.004136 
2034.900880  	0.004381 
2036.829696  	0.003385 
2038.758512  	0.003973 
2040.687328  	0.004198 
2042.616144  	0.005009 
2044.544960  	0.004101 
2046.473776  	0.003724 
2048.402592  	0.003634 
2050.331408  	0.004353 
2052.260224  	0.003378 
2054.189040  	0.003260 
2056.117856  	0.003377 
2058.046672  	0.003518 
2059.975488  	0.002877 
2061.904304  	0.002709 
2063.833120  	0.002652 
2065.761936  	0.002929 
2067.690752  	0.002972 
2069.619568  	0.003562 
2071.548384  	0.003575 
2073.477200  	0.003473 
2075.406016  	0.003395 
2077.334832  	0.003663 
2079.263648  	0.003504 
2081.192464  	0.003772 
2083.121280  	0.003574 
2085.050096  	0.003171 
2086.978912  	0.003155 
2088.907728  	0.003722 
2090.836544  	0.003549 
2092.765360  	0.003686 
2094.694176  	0.003961 
2096.622992  	0.003956 
2098.551808  	0.003815 
2100.480624  	0.004232 
2102.409440  	0.003997 
2104.338256  	0.003984 
2106.267072  	0.004000 
2108.195888  	0.004277 
2110.124704  	0.004045 
2112.053520  	0.004053 
2113.982336  	0.003895 
2115.911152  	0.003969 
2117.839968  	0.003691 
2119.768784  	0.003597 
2121.697600  	0.003651 
2123.626416  	0.003833 
2125.555232  	0.003669 
2127.484048  	0.003968 
2129.412864  	0.003350 
2131.341680  	0.002906 
2133.270496  	0.002824 
2135.199312  	0.003476 
2137.128128  	0.004216 
2139.056944  	0.004856 
2140.985760  	0.004487 
2142.914576  	0.004381 
2144.843392  	0.004201 
2146.772208  	0.004831 
2148.701024  	0.004412 
2150.629840  	0.004583 
2152.558656  	0.004284 
2154.487472  	0.004810 
2156.416288  	0.004140 
2158.345104  	0.004608 
2160.273920  	0.005861 
2162.202736  	0.006309 
2164.131552  	0.006066 
2166.060368  	0.006886 
2167.989184  	0.007388 
2169.918000  	0.007731 
2171.846816  	0.005550 
2173.775632  	0.005080 
2175.704448  	0.005701 
2177.633264  	0.006021 
2179.562080  	0.005247 
2181.490896  	0.005317 
2183.419712  	0.004387 
2185.348528  	0.004731 
2187.277344  	0.004633 
2189.206160  	0.004721 
2191.134976  	0.005029 
2193.063792  	0.005210 
2194.992608  	0.005029 
2196.921424  	0.005024 
2198.850240  	0.004699 
2200.779056  	0.004431 
2202.707872  	0.004097 
2204.636688  	0.004191 
2206.565504  	0.004469 
2208.494320  	0.004955 
2210.423136  	0.004282 
2212.351952  	0.004092 
2214.280768  	0.003936 
2216.209584  	0.004182 
2218.138400  	0.003628 
2220.067216  	0.003991 
2221.996032  	0.004023 
2223.924848  	0.004214 
2225.853664  	0.004356 
2227.782480  	0.004420 
2229.711296  	0.003651 
2231.640112  	0.003271 
2233.568928  	0.003138 
2235.497744  	0.003318 
2237.426560  	0.003106 
2239.355376  	0.003341 
2241.284192  	0.003395 
2243.213008  	0.003535 
2245.141824  	0.003321 
2247.070640  	0.003736 
2248.999456  	0.003597 
2250.928272  	0.003059 
2252.857088  	0.002603 
2254.785904  	0.002878 
2256.714720  	0.002946 
2258.643536  	0.003159 
2260.572352  	0.002863 
2262.501168  	0.002934 
2264.429984  	0.002977 
2266.358800  	0.002991 
2268.287616  	0.002762 
2270.216432  	0.003080 
2272.145248  	0.003166 
2274.074064  	0.003027 
2276.002880  	0.003030 
2277.931696  	0.003253 
2279.860512  	0.003162 
2281.789328  	0.003107 
2283.718144  	0.003090 
2285.646960  	0.003240 
2287.575776  	0.003326 
2289.504592  	0.003236 
2291.433408  	0.002933 
2293.362224  	0.002941 
2295.291040  	0.003053 
2297.219856  	0.003168 
2299.148672  	0.002959 
2301.077488  	0.003058 
2303.006304  	0.003089 
2304.935120  	0.003143 
2306.863936  	0.003073 
2308.792752  	0.002976 
2310.721568  	0.002729 
2312.650384  	0.002814 
2314.579200  	0.002672 
2316.508016  	0.002326 
2318.436832  	0.002020 
2320.365648  	0.001618 
2322.294464  	0.000947 
2324.223280  	0.000375 
2326.152096  	-0.000297 
2328.080912  	-0.000719 
2330.009728  	-0.001568 
2331.938544  	-0.002356 
2333.867360  	-0.002430 
2335.796176  	-0.002364 
2337.724992  	-0.003023 
2339.653808  	-0.003012 
2341.582624  	-0.003344 
2343.511440  	-0.003939 
2345.440256  	-0.003691 
2347.369072  	-0.001514 
2349.297888  	0.000271 
2351.226704  	-0.000200 
2353.155520  	-0.002287 
2355.084336  	-0.003514 
2357.013152  	-0.004523 
2358.941968  	-0.005477 
2360.870784  	-0.006486 
2362.799600  	-0.006320 
2364.728416  	-0.006320 
2366.657232  	-0.005771 
2368.586048  	-0.004596 
2370.514864  	-0.003493 
2372.443680  	-0.002632 
2374.372496  	-0.001547 
2376.301312  	-0.000365 
2378.230128  	0.000595 
2380.158944  	0.001113 
2382.087760  	0.001500 
2384.016576  	0.001723 
2385.945392  	0.001945 
2387.874208  	0.002086 
2389.803024  	0.002075 
2391.731840  	0.001873 
2393.660656  	0.001787 
2395.589472  	0.001694 
2397.518288  	0.001883 
2399.447104  	0.001900 
2401.375920  	0.001931 
2403.304736  	0.001833 
2405.233552  	0.001952 
2407.162368  	0.002003 
2409.091184  	0.001977 
2411.020000  	0.001934 
2412.948816  	0.001971 
2414.877632  	0.002000 
2416.806448  	0.002105 
2418.735264  	0.002052 
2420.664080  	0.002078 
2422.592896  	0.002036 
2424.521712  	0.001977 
2426.450528  	0.001872 
2428.379344  	0.001964 
2430.308160  	0.001920 
2432.236976  	0.002108 
2434.165792  	0.002134 
2436.094608  	0.002052 
2438.023424  	0.002250 
2439.952240  	0.002491 
2441.881056  	0.002304 
2443.809872  	0.002227 
2445.738688  	0.002438 
2447.667504  	0.002649 
2449.596320  	0.002595 
2451.525136  	0.002674 
2453.453952  	0.002670 
2455.382768  	0.002626 
2457.311584  	0.002466 
2459.240400  	0.002345 
2461.169216  	0.002378 
2463.098032  	0.002427 
2465.026848  	0.002538 
2466.955664  	0.002532 
2468.884480  	0.002351 
2470.813296  	0.002304 
2472.742112  	0.002312 
2474.670928  	0.002467 
2476.599744  	0.002453 
2478.528560  	0.002544 
2480.457376  	0.002531 
2482.386192  	0.002561 
2484.315008  	0.002763 
2486.243824  	0.002765 
2488.172640  	0.002608 
2490.101456  	0.002766 
2492.030272  	0.002911 
2493.959088  	0.002869 
2495.887904  	0.002848 
2497.816720  	0.002824 
2499.745536  	0.002834 
2501.674352  	0.002990 
2503.603168  	0.003231 
2505.531984  	0.003248 
2507.460800  	0.002943 
2509.389616  	0.003018 
2511.318432  	0.003225 
2513.247248  	0.003392 
2515.176064  	0.003364 
2517.104880  	0.003313 
2519.033696  	0.003244 
2520.962512  	0.003336 
2522.891328  	0.003426 
2524.820144  	0.003438 
2526.748960  	0.003446 
2528.677776  	0.003721 
2530.606592  	0.003719 
2532.535408  	0.003662 
2534.464224  	0.003679 
2536.393040  	0.003805 
2538.321856  	0.003945 
2540.250672  	0.003976 
2542.179488  	0.003958 
2544.108304  	0.003874 
2546.037120  	0.003864 
2547.965936  	0.004111 
2549.894752  	0.004232 
2551.823568  	0.004108 
2553.752384  	0.004123 
2555.681200  	0.004392 
2557.610016  	0.004458 
2559.538832  	0.004561 
2561.467648  	0.004762 
2563.396464  	0.004914 
2565.325280  	0.005001 
2567.254096  	0.004911 
2569.182912  	0.004883 
2571.111728  	0.004975 
2573.040544  	0.004918 
2574.969360  	0.005013 
2576.898176  	0.005261 
2578.826992  	0.005179 
2580.755808  	0.005182 
2582.684624  	0.005467 
2584.613440  	0.005551 
2586.542256  	0.005602 
2588.471072  	0.005580 
2590.399888  	0.005567 
2592.328704  	0.005628 
2594.257520  	0.005631 
2596.186336  	0.005661 
2598.115152  	0.005756 
2600.043968  	0.005811 
2601.972784  	0.006054 
2603.901600  	0.006123 
2605.830416  	0.006162 
2607.759232  	0.006251 
2609.688048  	0.006243 
2611.616864  	0.006462 
2613.545680  	0.006767 
2615.474496  	0.006821 
2617.403312  	0.006783 
2619.332128  	0.006826 
2621.260944  	0.006945 
2623.189760  	0.006988 
2625.118576  	0.007110 
2627.047392  	0.007228 
2628.976208  	0.007268 
2630.905024  	0.007307 
2632.833840  	0.007496 
2634.762656  	0.007665 
2636.691472  	0.007766 
2638.620288  	0.007865 
2640.549104  	0.008043 
2642.477920  	0.008132 
2644.406736  	0.008260 
2646.335552  	0.008377 
2648.264368  	0.008515 
2650.193184  	0.008636 
2652.122000  	0.008749 
2654.050816  	0.008977 
2655.979632  	0.009239 
2657.908448  	0.009349 
2659.837264  	0.009395 
2661.766080  	0.009402 
2663.694896  	0.009496 
2665.623712  	0.009540 
2667.552528  	0.009644 
2669.481344  	0.009815 
2671.410160  	0.009902 
2673.338976  	0.009938 
2675.267792  	0.010095 
2677.196608  	0.010328 
2679.125424  	0.010451 
2681.054240  	0.010536 
2682.983056  	0.010724 
2684.911872  	0.010713 
2686.840688  	0.010728 
2688.769504  	0.010857 
2690.698320  	0.010977 
2692.627136  	0.011035 
2694.555952  	0.011169 
2696.484768  	0.011288 
2698.413584  	0.011411 
2700.342400  	0.011522 
2702.271216  	0.011703 
2704.200032  	0.011932 
2706.128848  	0.012016 
2708.057664  	0.012011 
2709.986480  	0.012119 
2711.915296  	0.012178 
2713.844112  	0.012262 
2715.772928  	0.012327 
2717.701744  	0.012536 
2719.630560  	0.012792 
2721.559376  	0.012873 
2723.488192  	0.012989 
2725.417008  	0.013184 
2727.345824  	0.013301 
2729.274640  	0.013276 
2731.203456  	0.013414 
2733.132272  	0.013646 
2735.061088  	0.013777 
2736.989904  	0.013882 
2738.918720  	0.013920 
2740.847536  	0.013990 
2742.776352  	0.014017 
2744.705168  	0.014150 
2746.633984  	0.014307 
2748.562800  	0.014328 
2750.491616  	0.014347 
2752.420432  	0.014480 
2754.349248  	0.014438 
2756.278064  	0.014439 
2758.206880  	0.014406 
2760.135696  	0.014443 
2762.064512  	0.014512 
2763.993328  	0.014514 
2765.922144  	0.014425 
2767.850960  	0.014509 
2769.779776  	0.014595 
2771.708592  	0.014618 
2773.637408  	0.014550 
2775.566224  	0.014490 
2777.495040  	0.014470 
2779.423856  	0.014601 
2781.352672  	0.014656 
2783.281488  	0.014593 
2785.210304  	0.014466 
2787.139120  	0.014380 
2789.067936  	0.014427 
2790.996752  	0.014480 
2792.925568  	0.014378 
2794.854384  	0.014297 
2796.783200  	0.014276 
2798.712016  	0.014230 
2800.640832  	0.014191 
2802.569648  	0.014271 
2804.498464  	0.014362 
2806.427280  	0.014287 
2808.356096  	0.014191 
2810.284912  	0.014354 
2812.213728  	0.014453 
2814.142544  	0.014372 
2816.071360  	0.014347 
2818.000176  	0.014299 
2819.928992  	0.014166 
2821.857808  	0.014024 
2823.786624  	0.013979 
2825.715440  	0.013962 
2827.644256  	0.013876 
2829.573072  	0.013733 
2831.501888  	0.013352 
2833.430704  	0.012932 
2835.359520  	0.012665 
2837.288336  	0.012521 
2839.217152  	0.012178 
2841.145968  	0.011756 
2843.074784  	0.011332 
2845.003600  	0.010862 
2846.932416  	0.010435 
2848.861232  	0.010073 
2850.790048  	0.009779 
2852.718864  	0.009399 
2854.647680  	0.008967 
2856.576496  	0.008434 
2858.505312  	0.007874 
2860.434128  	0.007364 
2862.362944  	0.006745 
2864.291760  	0.006155 
2866.220576  	0.005733 
2868.149392  	0.005485 
2870.078208  	0.005288 
2872.007024  	0.005212 
2873.935840  	0.005363 
2875.864656  	0.005532 
2877.793472  	0.005542 
2879.722288  	0.005511 
2881.651104  	0.005185 
2883.579920  	0.004956 
2885.508736  	0.005207 
2887.437552  	0.005586 
2889.366368  	0.005608 
2891.295184  	0.005333 
2893.224000  	0.005065 
2895.152816  	0.005022 
2897.081632  	0.004831 
2899.010448  	0.003395 
2900.939264  	0.002094 
2902.868080  	0.003195 
2904.796896  	0.004299 
2906.725712  	0.004745 
2908.654528  	0.005316 
2910.583344  	0.005747 
2912.512160  	0.006289 
2914.440976  	0.007224 
2916.369792  	0.007927 
2918.298608  	0.008460 
2920.227424  	0.009028 
2922.156240  	0.009736 
2924.085056  	0.010498 
2926.013872  	0.011483 
2927.942688  	0.012568 
2929.871504  	0.013448 
2931.800320  	0.014369 
2933.729136  	0.015169 
2935.657952  	0.015833 
2937.586768  	0.016537 
2939.515584  	0.017263 
2941.444400  	0.017621 
2943.373216  	0.017715 
2945.302032  	0.018052 
2947.230848  	0.018344 
2949.159664  	0.018165 
2951.088480  	0.017666 
2953.017296  	0.017163 
2954.946112  	0.016577 
2956.874928  	0.015998 
2958.803744  	0.015207 
2960.732560  	0.014607 
2962.661376  	0.014076 
2964.590192  	0.013235 
2966.519008  	0.012108 
2968.447824  	0.011066 
2970.376640  	0.010281 
2972.305456  	0.009870 
2974.234272  	0.010140 
2976.163088  	0.010550 
2978.091904  	0.010597 
2980.020720  	0.010435 
2981.949536  	0.010511 
2983.878352  	0.010423 
2985.807168  	0.009652 
2987.735984  	0.008717 
2989.664800  	0.009026 
2991.593616  	0.011821 
2993.522432  	0.013689 
2995.451248  	0.014256 
2997.380064  	0.015089 
2999.308880  	0.016176 
3001.237696  	0.017415 
3003.166512  	0.018799 
3005.095328  	0.020121 
3007.024144  	0.021462 
3008.952960  	0.022709 
3010.881776  	0.024033 
3012.810592  	0.025430 
3014.739408  	0.026676 
3016.668224  	0.027811 
3018.597040  	0.028967 
3020.525856  	0.029945 
3022.454672  	0.030951 
3024.383488  	0.031948 
3026.312304  	0.032874 
3028.241120  	0.033993 
3030.169936  	0.035058 
3032.098752  	0.035811 
3034.027568  	0.036603 
3035.956384  	0.037372 
3037.885200  	0.038209 
3039.814016  	0.038873 
3041.742832  	0.039494 
3043.671648  	0.040016 
3045.600464  	0.040621 
3047.529280  	0.041194 
3049.458096  	0.041852 
3051.386912  	0.042665 
3053.315728  	0.043244 
3055.244544  	0.043740 
3057.173360  	0.044367 
3059.102176  	0.045068 
3061.030992  	0.045804 
3062.959808  	0.046684 
3064.888624  	0.047530 
3066.817440  	0.048183 
3068.746256  	0.048964 
3070.675072  	0.049774 
3072.603888  	0.050566 
3074.532704  	0.051311 
3076.461520  	0.052061 
3078.390336  	0.052816 
3080.319152  	0.053468 
3082.247968  	0.054326 
3084.176784  	0.055161 
3086.105600  	0.055950 
3088.034416  	0.056779 
3089.963232  	0.057626 
3091.892048  	0.058316 
3093.820864  	0.058998 
3095.749680  	0.059782 
3097.678496  	0.060674 
3099.607312  	0.061545 
3101.536128  	0.062555 
3103.464944  	0.063543 
3105.393760  	0.064174 
3107.322576  	0.064933 
3109.251392  	0.065877 
3111.180208  	0.066544 
3113.109024  	0.067139 
3115.037840  	0.067895 
3116.966656  	0.068741 
3118.895472  	0.069338 
3120.824288  	0.069881 
3122.753104  	0.070507 
3124.681920  	0.071129 
3126.610736  	0.071710 
3128.539552  	0.072452 
3130.468368  	0.073125 
3132.397184  	0.073549 
3134.326000  	0.074260 
3136.254816  	0.074919 
3138.183632  	0.075508 
3140.112448  	0.076086 
3142.041264  	0.076625 
3143.970080  	0.077073 
3145.898896  	0.077596 
3147.827712  	0.078351 
3149.756528  	0.079018 
3151.685344  	0.079509 
3153.614160  	0.080081 
3155.542976  	0.080757 
3157.471792  	0.081475 
3159.400608  	0.082185 
3161.329424  	0.082767 
3163.258240  	0.083114 
3165.187056  	0.083714 
3167.115872  	0.084368 
3169.044688  	0.084792 
3170.973504  	0.085227 
3172.902320  	0.085714 
3174.831136  	0.086138 
3176.759952  	0.086617 
3178.688768  	0.086829 
3180.617584  	0.087123 
3182.546400  	0.087442 
3184.475216  	0.087541 
3186.404032  	0.087644 
3188.332848  	0.087911 
3190.261664  	0.088183 
3192.190480  	0.088458 
3194.119296  	0.088366 
3196.048112  	0.088305 
3197.976928  	0.088304 
3199.905744  	0.088187 
3201.834560  	0.088059 
3203.763376  	0.088126 
3205.692192  	0.088178 
3207.621008  	0.087944 
3209.549824  	0.087874 
3211.478640  	0.087812 
3213.407456  	0.087662 
3215.336272  	0.087457 
3217.265088  	0.087196 
3219.193904  	0.087015 
3221.122720  	0.086889 
3223.051536  	0.086771 
3224.980352  	0.086623 
3226.909168  	0.086524 
3228.837984  	0.086245 
3230.766800  	0.086122 
3232.695616  	0.086171 
3234.624432  	0.086157 
3236.553248  	0.086024 
3238.482064  	0.085958 
3240.410880  	0.086008 
3242.339696  	0.086218 
3244.268512  	0.086184 
3246.197328  	0.086199 
3248.126144  	0.086241 
3250.054960  	0.086340 
3251.983776  	0.086686 
3253.912592  	0.086792 
3255.841408  	0.086765 
3257.770224  	0.086961 
3259.699040  	0.087368 
3261.627856  	0.087758 
3263.556672  	0.088066 
3265.485488  	0.088215 
3267.414304  	0.088343 
3269.343120  	0.088686 
3271.271936  	0.088877 
3273.200752  	0.088749 
3275.129568  	0.088790 
3277.058384  	0.089110 
3278.987200  	0.089261 
3280.916016  	0.089453 
3282.844832  	0.089775 
3284.773648  	0.090094 
3286.702464  	0.090355 
3288.631280  	0.090726 
3290.560096  	0.091068 
3292.488912  	0.091226 
3294.417728  	0.091400 
3296.346544  	0.091778 
3298.275360  	0.092038 
3300.204176  	0.092274 
3302.132992  	0.092669 
3304.061808  	0.092968 
3305.990624  	0.093317 
3307.919440  	0.093611 
3309.848256  	0.093601 
3311.777072  	0.093925 
3313.705888  	0.094464 
3315.634704  	0.094964 
3317.563520  	0.095191 
3319.492336  	0.095354 
3321.421152  	0.095526 
3323.349968  	0.095672 
3325.278784  	0.095825 
3327.207600  	0.095914 
3329.136416  	0.095850 
3331.065232  	0.095996 
3332.994048  	0.096216 
3334.922864  	0.096296 
3336.851680  	0.096108 
3338.780496  	0.096006 
3340.709312  	0.095896 
3342.638128  	0.095802 
3344.566944  	0.095454 
3346.495760  	0.095119 
3348.424576  	0.094743 
3350.353392  	0.094602 
3352.282208  	0.094505 
3354.211024  	0.094116 
3356.139840  	0.093674 
3358.068656  	0.093324 
3359.997472  	0.093007 
3361.926288  	0.092689 
3363.855104  	0.092331 
3365.783920  	0.091968 
3367.712736  	0.091461 
3369.641552  	0.091016 
3371.570368  	0.090634 
3373.499184  	0.090331 
3375.428000  	0.089968 
3377.356816  	0.089448 
3379.285632  	0.089213 
3381.214448  	0.088858 
3383.143264  	0.088343 
3385.072080  	0.087861 
3387.000896  	0.087567 
3388.929712  	0.087343 
3390.858528  	0.086976 
3392.787344  	0.086419 
3394.716160  	0.086048 
3396.644976  	0.085656 
3398.573792  	0.085208 
3400.502608  	0.084853 
3402.431424  	0.084399 
3404.360240  	0.083864 
3406.289056  	0.083214 
3408.217872  	0.082704 
3410.146688  	0.082176 
3412.075504  	0.081644 
3414.004320  	0.081193 
3415.933136  	0.080950 
3417.861952  	0.080513 
3419.790768  	0.079909 
3421.719584  	0.079282 
3423.648400  	0.078797 
3425.577216  	0.078185 
3427.506032  	0.077665 
3429.434848  	0.077168 
3431.363664  	0.076560 
3433.292480  	0.075914 
3435.221296  	0.075351 
3437.150112  	0.074838 
3439.078928  	0.074495 
3441.007744  	0.073787 
3442.936560  	0.073153 
3444.865376  	0.072821 
3446.794192  	0.071913 
3448.723008  	0.070976 
3450.651824  	0.070501 
3452.580640  	0.069851 
3454.509456  	0.069086 
3456.438272  	0.068455 
3458.367088  	0.067918 
3460.295904  	0.067221 
3462.224720  	0.066434 
3464.153536  	0.065679 
3466.082352  	0.065007 
3468.011168  	0.064161 
3469.939984  	0.063363 
3471.868800  	0.062756 
3473.797616  	0.062070 
3475.726432  	0.061101 
3477.655248  	0.060339 
3479.584064  	0.059772 
3481.512880  	0.058968 
3483.441696  	0.058010 
3485.370512  	0.057320 
3487.299328  	0.056381 
3489.228144  	0.055659 
3491.156960  	0.054824 
3493.085776  	0.053967 
3495.014592  	0.053175 
3496.943408  	0.052517 
3498.872224  	0.051944 
3500.801040  	0.051464 
3502.729856  	0.050478 
3504.658672  	0.049554 
3506.587488  	0.049316 
3508.516304  	0.048722 
3510.445120  	0.047772 
3512.373936  	0.047238 
3514.302752  	0.046605 
3516.231568  	0.046155 
3518.160384  	0.045593 
3520.089200  	0.044940 
3522.018016  	0.044270 
3523.946832  	0.043582 
3525.875648  	0.043044 
3527.804464  	0.042124 
3529.733280  	0.041360 
3531.662096  	0.040848 
3533.590912  	0.040395 
3535.519728  	0.039990 
3537.448544  	0.039390 
3539.377360  	0.038837 
3541.306176  	0.038346 
3543.234992  	0.037697 
3545.163808  	0.036739 
3547.092624  	0.035867 
3549.021440  	0.035489 
3550.950256  	0.035141 
3552.879072  	0.034187 
3554.807888  	0.033692 
3556.736704  	0.033290 
3558.665520  	0.032699 
3560.594336  	0.032000 
3562.523152  	0.031247 
3564.451968  	0.030927 
3566.380784  	0.029719 
3568.309600  	0.027564 
3570.238416  	0.027685 
3572.167232  	0.028062 
3574.096048  	0.027457 
3576.024864  	0.026573 
3577.953680  	0.025877 
3579.882496  	0.025097 
3581.811312  	0.024539 
3583.740128  	0.024191 
3585.668944  	0.023688 
3587.597760  	0.021313 
3589.526576  	0.020301 
3591.455392  	0.020847 
3593.384208  	0.020354 
3595.313024  	0.019044 
3597.241840  	0.018179 
3599.170656  	0.017420 
3601.099472  	0.016442 
3603.028288  	0.016067 
3604.957104  	0.016013 
3606.885920  	0.014984 
3608.814736  	0.013302 
3610.743552  	0.012975 
3612.672368  	0.012072 
3614.601184  	0.010733 
3616.530000  	0.011003 
3618.458816  	0.009228 
3620.387632  	0.006992 
3622.316448  	0.007232 
3624.245264  	0.007515 
3626.174080  	0.007601 
3628.102896  	0.005214 
3630.031712  	0.000897 
3631.960528  	0.002454 
3633.889344  	0.002319 
3635.818160  	0.001681 
3637.746976  	0.001025 
3639.675792  	0.000528 
3641.604608  	0.000090 
3643.533424  	-0.000422 
3645.462240  	-0.000077 
3647.391056  	-0.001895 
3649.319872  	-0.006630 
3651.248688  	-0.009267 
3653.177504  	-0.006659 
3655.106320  	-0.006161 
3657.035136  	-0.009172 
3658.963952  	-0.009243 
3660.892768  	-0.009121 
3662.821584  	-0.009368 
3664.750400  	-0.009388 
3666.679216  	-0.008748 
3668.608032  	-0.009562 
3670.536848  	-0.013185 
3672.465664  	-0.011596 
3674.394480  	-0.010783 
3676.323296  	-0.015932 
3678.252112  	-0.013778 
3680.180928  	-0.012447 
3682.109744  	-0.012175 
3684.038560  	-0.012006 
3685.967376  	-0.010744 
3687.896192  	-0.011638 
3689.825008  	-0.015007 
3691.753824  	-0.015286 
3693.682640  	-0.013619 
3695.611456  	-0.012394 
3697.540272  	-0.011631 
3699.469088  	-0.010736 
3701.397904  	-0.011465 
3703.326720  	-0.011698 
3705.255536  	-0.010275 
3707.184352  	-0.009259 
3709.113168  	-0.009491 
3711.041984  	-0.011595 
3712.970800  	-0.012698 
3714.899616  	-0.010982 
3716.828432  	-0.009560 
3718.757248  	-0.009573 
3720.686064  	-0.009575 
3722.614880  	-0.010019 
3724.543696  	-0.009941 
3726.472512  	-0.010410 
3728.401328  	-0.009875 
3730.330144  	-0.008594 
3732.258960  	-0.009232 
3734.187776  	-0.010108 
3736.116592  	-0.012477 
3738.045408  	-0.012048 
3739.974224  	-0.009939 
3741.903040  	-0.008190 
3743.831856  	-0.009768 
3745.760672  	-0.013034 
3747.689488  	-0.009726 
3749.618304  	-0.010314 
3751.547120  	-0.013317 
3753.475936  	-0.013263 
3755.404752  	-0.010746 
3757.333568  	-0.010118 
3759.262384  	-0.011015 
3761.191200  	-0.011291 
3763.120016  	-0.009637 
3765.048832  	-0.009952 
3766.977648  	-0.010173 
3768.906464  	-0.010218 
3770.835280  	-0.011480 
3772.764096  	-0.010647 
3774.692912  	-0.009883 
3776.621728  	-0.009265 
3778.550544  	-0.009819 
3780.479360  	-0.011521 
3782.408176  	-0.010307 
3784.336992  	-0.010153 
3786.265808  	-0.010581 
3788.194624  	-0.010269 
3790.123440  	-0.010126 
3792.052256  	-0.009955 
3793.981072  	-0.009245 
3795.909888  	-0.009882 
3797.838704  	-0.010373 
3799.767520  	-0.009378 
3801.696336  	-0.012616 
3803.625152  	-0.012284 
3805.553968  	-0.010336 
3807.482784  	-0.012302 
3809.411600  	-0.011335 
3811.340416  	-0.009838 
3813.269232  	-0.008708 
3815.198048  	-0.009943 
3817.126864  	-0.012254 
3819.055680  	-0.010153 
3820.984496  	-0.012258 
3822.913312  	-0.013086 
3824.842128  	-0.010553 
3826.770944  	-0.011055 
3828.699760  	-0.010561 
3830.628576  	-0.009907 
3832.557392  	-0.010460 
3834.486208  	-0.009929 
3836.415024  	-0.010049 
3838.343840  	-0.011947 
3840.272656  	-0.012692 
3842.201472  	-0.011737 
3844.130288  	-0.011720 
3846.059104  	-0.011033 
3847.987920  	-0.009695 
3849.916736  	-0.008515 
3851.845552  	-0.008740 
3853.774368  	-0.014705 
3855.703184  	-0.014697 
3857.632000  	-0.011998 
3859.560816  	-0.010034 
3861.489632  	-0.009580 
3863.418448  	-0.010490 
3865.347264  	-0.011662 
3867.276080  	-0.010171 
3869.204896  	-0.010579 
3871.133712  	-0.012311 
3873.062528  	-0.011026 
3874.991344  	-0.011918 
3876.920160  	-0.010367 
3878.848976  	-0.009328 
3880.777792  	-0.011105 
3882.706608  	-0.010598 
3884.635424  	-0.010095 
3886.564240  	-0.012080 
3888.493056  	-0.010501 
3890.421872  	-0.010231 
3892.350688  	-0.011993 
3894.279504  	-0.011124 
3896.208320  	-0.009656 
3898.137136  	-0.009282 
3900.065952  	-0.010197 
3901.994768  	-0.010605 
3903.923584  	-0.011899 
3905.852400  	-0.012589 
3907.781216  	-0.011359 
3909.710032  	-0.010547 
3911.638848  	-0.010496 
3913.567664  	-0.010169 
3915.496480  	-0.009901 
3917.425296  	-0.010866 
3919.354112  	-0.011206 
3921.282928  	-0.010880 
3923.211744  	-0.010324 
3925.140560  	-0.010815 
3927.069376  	-0.010596 
3928.998192  	-0.010053 
3930.927008  	-0.010309 
3932.855824  	-0.010944 
3934.784640  	-0.010907 
3936.713456  	-0.010598 
3938.642272  	-0.010364 
3940.571088  	-0.009844 
3942.499904  	-0.010340 
3944.428720  	-0.010776 
3946.357536  	-0.010130 
3948.286352  	-0.010233 
3950.215168  	-0.010554 
3952.143984  	-0.010501 
3954.072800  	-0.010261 
3956.001616  	-0.010231 
3957.930432  	-0.010428 
3959.859248  	-0.010455 
3961.788064  	-0.010571 
3963.716880  	-0.010776 
3965.645696  	-0.010771 
3967.574512  	-0.010632 
3969.503328  	-0.010504 
3971.432144  	-0.010517 
3973.360960  	-0.010550 
3975.289776  	-0.010753 
3977.218592  	-0.010634 
3979.147408  	-0.010516 
3981.076224  	-0.010679 
3983.005040  	-0.010693 
3984.933856  	-0.010598 
3986.862672  	-0.010620 
3988.791488  	-0.010569 
3990.720304  	-0.010483 
3992.649120  	-0.010543 
3994.577936  	-0.010807 
3996.506752  	-0.010788 
3998.435568  	-0.010684 
4000.364384  	-0.010634 