##TITLE=No Description
##DATA TYPE=INFRARED SPECTRUM
##XUNITS=1/CM
##YUNITS=Abs
399.264912  	0.236616 
401.193728  	0.237374 
403.122544  	0.236266 
405.051360  	0.232435 
406.980176  	0.233776 
408.908992  	0.231084 
410.837808  	0.229691 
412.766624  	0.233347 
414.695440  	0.224809 
416.624256  	0.218638 
418.553072  	0.226724 
420.481888  	0.225178 
422.410704  	0.227402 
424.339520  	0.231222 
426.268336  	0.236749 
428.197152  	0.235888 
430.125968  	0.229547 
432.054784  	0.226721 
433.983600  	0.226666 
435.912416  	0.222877 
437.841232  	0.223489 
439.770048  	0.222527 
441.698864  	0.218759 
443.627680  	0.216722 
445.556496  	0.221446 
447.485312  	0.224347 
449.414128  	0.227630 
451.342944  	0.229574 
453.271760  	0.225709 
455.200576  	0.220698 
457.129392  	0.225882 
459.058208  	0.231458 
460.987024  	0.231420 
462.915840  	0.231632 
464.844656  	0.234113 
466.773472  	0.233039 
468.702288  	0.234811 
470.631104  	0.235117 
472.559920  	0.237027 
474.488736  	0.236109 
476.417552  	0.235502 
478.346368  	0.237215 
480.275184  	0.241882 
482.204000  	0.244689 
484.132816  	0.247157 
486.061632  	0.249023 
487.990448  	0.250131 
489.919264  	0.248766 
491.848080  	0.250484 
493.776896  	0.250773 
495.705712  	0.248666 
497.634528  	0.248509 
499.563344  	0.253158 
501.492160  	0.253303 
503.420976  	0.250805 
505.349792  	0.249948 
507.278608  	0.250399 
509.207424  	0.251386 
511.136240  	0.254883 
513.065056  	0.257038 
514.993872  	0.260077 
516.922688  	0.263702 
518.851504  	0.270219 
520.780320  	0.272596 
522.709136  	0.273842 
524.637952  	0.276500 
526.566768  	0.278575 
528.495584  	0.276049 
530.424400  	0.275861 
532.353216  	0.277251 
534.282032  	0.276737 
536.210848  	0.272687 
538.139664  	0.268338 
540.068480  	0.266093 
541.997296  	0.264807 
543.926112  	0.262371 
545.854928  	0.260860 
547.783744  	0.260238 
549.712560  	0.259633 
551.641376  	0.257864 
553.570192  	0.257254 
555.499008  	0.256244 
557.427824  	0.256722 
559.356640  	0.255080 
561.285456  	0.253449 
563.214272  	0.250401 
565.143088  	0.248295 
567.071904  	0.246025 
569.000720  	0.243604 
570.929536  	0.241279 
572.858352  	0.240364 
574.787168  	0.239491 
576.715984  	0.239280 
578.644800  	0.237522 
580.573616  	0.234900 
582.502432  	0.231880 
584.431248  	0.228577 
586.360064  	0.225001 
588.288880  	0.222752 
590.217696  	0.221250 
592.146512  	0.219995 
594.075328  	0.218819 
596.004144  	0.217701 
597.932960  	0.216663 
599.861776  	0.216193 
601.790592  	0.215504 
603.719408  	0.215353 
605.648224  	0.215293 
607.577040  	0.215383 
609.505856  	0.214446 
611.434672  	0.214215 
613.363488  	0.213660 
615.292304  	0.212994 
617.221120  	0.212245 
619.149936  	0.212293 
621.078752  	0.211712 
623.007568  	0.211605 
624.936384  	0.211556 
626.865200  	0.211026 
628.794016  	0.211005 
630.722832  	0.211894 
632.651648  	0.212783 
634.580464  	0.213418 
636.509280  	0.214924 
638.438096  	0.216089 
640.366912  	0.216596 
642.295728  	0.216451 
644.224544  	0.215673 
646.153360  	0.214760 
648.082176  	0.213011 
650.010992  	0.211108 
651.939808  	0.208109 
653.868624  	0.205556 
655.797440  	0.202565 
657.726256  	0.200634 
659.655072  	0.198520 
661.583888  	0.195992 
663.512704  	0.192668 
665.441520  	0.188511 
667.370336  	0.185738 
669.299152  	0.184016 
671.227968  	0.179555 
673.156784  	0.176464 
675.085600  	0.175002 
677.014416  	0.173408 
678.943232  	0.172037 
680.872048  	0.171433 
682.800864  	0.170383 
684.729680  	0.169155 
686.658496  	0.167774 
688.587312  	0.167264 
690.516128  	0.165898 
692.444944  	0.165235 
694.373760  	0.165090 
696.302576  	0.164706 
698.231392  	0.162881 
700.160208  	0.161531 
702.089024  	0.160068 
704.017840  	0.158352 
705.946656  	0.156510 
707.875472  	0.154979 
709.804288  	0.153422 
711.733104  	0.152219 
713.661920  	0.151044 
715.590736  	0.150692 
717.519552  	0.151005 
719.448368  	0.151271 
721.377184  	0.152562 
723.306000  	0.153971 
725.234816  	0.155277 
727.163632  	0.155568 
729.092448  	0.154288 
731.021264  	0.151907 
732.950080  	0.149097 
734.878896  	0.146411 
736.807712  	0.143915 
738.736528  	0.142077 
740.665344  	0.140407 
742.594160  	0.139589 
744.522976  	0.138732 
746.451792  	0.138568 
748.380608  	0.138036 
750.309424  	0.137418 
752.238240  	0.136619 
754.167056  	0.136473 
756.095872  	0.136268 
758.024688  	0.135548 
759.953504  	0.135880 
761.882320  	0.136741 
763.811136  	0.137963 
765.739952  	0.137180 
767.668768  	0.135268 
769.597584  	0.133323 
771.526400  	0.132864 
773.455216  	0.134598 
775.384032  	0.138410 
777.312848  	0.144220 
779.241664  	0.148847 
781.170480  	0.149241 
783.099296  	0.145577 
785.028112  	0.141244 
786.956928  	0.136870 
788.885744  	0.133318 
790.814560  	0.130282 
792.743376  	0.128674 
794.672192  	0.128562 
796.601008  	0.128147 
798.529824  	0.125598 
800.458640  	0.122312 
802.387456  	0.119677 
804.316272  	0.118122 
806.245088  	0.117514 
808.173904  	0.117653 
810.102720  	0.117803 
812.031536  	0.117755 
813.960352  	0.118471 
815.889168  	0.119508 
817.817984  	0.120510 
819.746800  	0.121626 
821.675616  	0.122768 
823.604432  	0.124491 
825.533248  	0.125804 
827.462064  	0.126481 
829.390880  	0.126764 
831.319696  	0.127000 
833.248512  	0.126547 
835.177328  	0.125552 
837.106144  	0.123269 
839.034960  	0.121048 
840.963776  	0.118555 
842.892592  	0.115695 
844.821408  	0.112487 
846.750224  	0.109535 
848.679040  	0.107186 
850.607856  	0.105537 
852.536672  	0.104759 
854.465488  	0.103782 
856.394304  	0.103307 
858.323120  	0.102787 
860.251936  	0.101750 
862.180752  	0.100422 
864.109568  	0.099113 
866.038384  	0.097672 
867.967200  	0.096255 
869.896016  	0.094889 
871.824832  	0.093525 
873.753648  	0.093181 
875.682464  	0.093668 
877.611280  	0.095106 
879.540096  	0.097572 
881.468912  	0.101023 
883.397728  	0.104309 
885.326544  	0.106929 
887.255360  	0.109063 
889.184176  	0.109926 
891.112992  	0.109949 
893.041808  	0.109167 
894.970624  	0.107212 
896.899440  	0.104264 
898.828256  	0.100887 
900.757072  	0.097207 
902.685888  	0.093640 
904.614704  	0.091706 
906.543520  	0.091517 
908.472336  	0.092840 
910.401152  	0.095107 
912.329968  	0.097798 
914.258784  	0.100369 
916.187600  	0.102805 
918.116416  	0.104953 
920.045232  	0.106819 
921.974048  	0.108017 
923.902864  	0.108931 
925.831680  	0.109659 
927.760496  	0.110507 
929.689312  	0.111474 
931.618128  	0.112656 
933.546944  	0.113626 
935.475760  	0.114026 
937.404576  	0.113748 
939.333392  	0.112990 
941.262208  	0.112461 
943.191024  	0.113020 
945.119840  	0.115253 
947.048656  	0.119443 
948.977472  	0.125700 
950.906288  	0.133694 
952.835104  	0.143650 
954.763920  	0.155351 
956.692736  	0.167338 
958.621552  	0.178573 
960.550368  	0.187255 
962.479184  	0.193342 
964.408000  	0.195231 
966.336816  	0.193088 
968.265632  	0.186607 
970.194448  	0.177005 
972.123264  	0.164896 
974.052080  	0.151689 
975.980896  	0.138457 
977.909712  	0.125972 
979.838528  	0.114743 
981.767344  	0.105504 
983.696160  	0.098776 
985.624976  	0.094350 
987.553792  	0.092659 
989.482608  	0.093564 
991.411424  	0.096729 
993.340240  	0.101868 
995.269056  	0.107840 
997.197872  	0.114205 
999.126688  	0.120622 
1001.055504  	0.127293 
1002.984320  	0.133655 
1004.913136  	0.140253 
1006.841952  	0.146607 
1008.770768  	0.152726 
1010.699584  	0.157763 
1012.628400  	0.161642 
1014.557216  	0.164454 
1016.486032  	0.166400 
1018.414848  	0.167292 
1020.343664  	0.167424 
1022.272480  	0.167594 
1024.201296  	0.167734 
1026.130112  	0.167130 
1028.058928  	0.167070 
1029.987744  	0.168426 
1031.916560  	0.170156 
1033.845376  	0.171912 
1035.774192  	0.174397 
1037.703008  	0.178113 
1039.631824  	0.184077 
1041.560640  	0.192877 
1043.489456  	0.205863 
1045.418272  	0.222092 
1047.347088  	0.240253 
1049.275904  	0.256728 
1051.204720  	0.269168 
1053.133536  	0.275614 
1055.062352  	0.277917 
1056.991168  	0.277711 
1058.919984  	0.277329 
1060.848800  	0.276623 
1062.777616  	0.275839 
1064.706432  	0.274343 
1066.635248  	0.272328 
1068.564064  	0.268987 
1070.492880  	0.263557 
1072.421696  	0.256948 
1074.350512  	0.252591 
1076.279328  	0.251450 
1078.208144  	0.254492 
1080.136960  	0.259480 
1082.065776  	0.264242 
1083.994592  	0.265952 
1085.923408  	0.263916 
1087.852224  	0.257565 
1089.781040  	0.248927 
1091.709856  	0.237931 
1093.638672  	0.226020 
1095.567488  	0.212836 
1097.496304  	0.199411 
1099.425120  	0.185451 
1101.353936  	0.172140 
1103.282752  	0.159772 
1105.211568  	0.148348 
1107.140384  	0.137660 
1109.069200  	0.127812 
1110.998016  	0.118922 
1112.926832  	0.110780 
1114.855648  	0.103177 
1116.784464  	0.096138 
1118.713280  	0.089327 
1120.642096  	0.082775 
1122.570912  	0.076751 
1124.499728  	0.071201 
1126.428544  	0.066192 
1128.357360  	0.062032 
1130.286176  	0.058457 
1132.214992  	0.055751 
1134.143808  	0.053408 
1136.072624  	0.051409 
1138.001440  	0.049615 
1139.930256  	0.048145 
1141.859072  	0.046627 
1143.787888  	0.045071 
1145.716704  	0.043653 
1147.645520  	0.042431 
1149.574336  	0.041579 
1151.503152  	0.041213 
1153.431968  	0.041253 
1155.360784  	0.041269 
1157.289600  	0.041630 
1159.218416  	0.042491 
1161.147232  	0.043816 
1163.076048  	0.045138 
1165.004864  	0.046523 
1166.933680  	0.047895 
1168.862496  	0.049361 
1170.791312  	0.051098 
1172.720128  	0.052975 
1174.648944  	0.055403 
1176.577760  	0.057804 
1178.506576  	0.060357 
1180.435392  	0.063035 
1182.364208  	0.065947 
1184.293024  	0.069118 
1186.221840  	0.072620 
1188.150656  	0.076841 
1190.079472  	0.081685 
1192.008288  	0.087361 
1193.937104  	0.093985 
1195.865920  	0.101263 
1197.794736  	0.109431 
1199.723552  	0.118251 
1201.652368  	0.127244 
1203.581184  	0.135863 
1205.510000  	0.144353 
1207.438816  	0.152264 
1209.367632  	0.159506 
1211.296448  	0.165239 
1213.225264  	0.169888 
1215.154080  	0.172997 
1217.082896  	0.175271 
1219.011712  	0.176140 
1220.940528  	0.176539 
1222.869344  	0.175769 
1224.798160  	0.174261 
1226.726976  	0.171877 
1228.655792  	0.169088 
1230.584608  	0.165442 
1232.513424  	0.161352 
1234.442240  	0.156804 
1236.371056  	0.151759 
1238.299872  	0.145991 
1240.228688  	0.139408 
1242.157504  	0.132808 
1244.086320  	0.126647 
1246.015136  	0.120224 
1247.943952  	0.113686 
1249.872768  	0.107328 
1251.801584  	0.101460 
1253.730400  	0.095454 
1255.659216  	0.089773 
1257.588032  	0.084174 
1259.516848  	0.079023 
1261.445664  	0.074377 
1263.374480  	0.070169 
1265.303296  	0.066428 
1267.232112  	0.063493 
1269.160928  	0.061305 
1271.089744  	0.059876 
1273.018560  	0.059177 
1274.947376  	0.059290 
1276.876192  	0.059917 
1278.805008  	0.060412 
1280.733824  	0.060266 
1282.662640  	0.059051 
1284.591456  	0.057410 
1286.520272  	0.055807 
1288.449088  	0.054843 
1290.377904  	0.054894 
1292.306720  	0.055616 
1294.235536  	0.056227 
1296.164352  	0.056016 
1298.093168  	0.054663 
1300.021984  	0.052341 
1301.950800  	0.049756 
1303.879616  	0.047014 
1305.808432  	0.043926 
1307.737248  	0.040780 
1309.666064  	0.037941 
1311.594880  	0.035529 
1313.523696  	0.033772 
1315.452512  	0.032462 
1317.381328  	0.031791 
1319.310144  	0.031921 
1321.238960  	0.032364 
1323.167776  	0.033066 
1325.096592  	0.033770 
1327.025408  	0.034146 
1328.954224  	0.034067 
1330.883040  	0.033398 
1332.811856  	0.032344 
1334.740672  	0.031261 
1336.669488  	0.030347 
1338.598304  	0.030159 
1340.527120  	0.030257 
1342.455936  	0.029663 
1344.384752  	0.029333 
1346.313568  	0.029614 
1348.242384  	0.030375 
1350.171200  	0.031389 
1352.100016  	0.032664 
1354.028832  	0.034231 
1355.957648  	0.036076 
1357.886464  	0.037524 
1359.815280  	0.038929 
1361.744096  	0.041125 
1363.672912  	0.044129 
1365.601728  	0.045505 
1367.530544  	0.046740 
1369.459360  	0.048332 
1371.388176  	0.048693 
1373.316992  	0.048393 
1375.245808  	0.047722 
1377.174624  	0.045557 
1379.103440  	0.043315 
1381.032256  	0.040956 
1382.961072  	0.038911 
1384.889888  	0.036894 
1386.818704  	0.036141 
1388.747520  	0.035416 
1390.676336  	0.033125 
1392.605152  	0.030503 
1394.533968  	0.029793 
1396.462784  	0.030371 
1398.391600  	0.030215 
1400.320416  	0.030798 
1402.249232  	0.030149 
1404.178048  	0.030648 
1406.106864  	0.031988 
1408.035680  	0.032668 
1409.964496  	0.033761 
1411.893312  	0.035751 
1413.822128  	0.037370 
1415.750944  	0.038562 
1417.679760  	0.039784 
1419.608576  	0.042733 
1421.537392  	0.042353 
1423.466208  	0.041358 
1425.395024  	0.040721 
1427.323840  	0.038290 
1429.252656  	0.036311 
1431.181472  	0.035174 
1433.110288  	0.034119 
1435.039104  	0.033255 
1436.967920  	0.036168 
1438.896736  	0.037560 
1440.825552  	0.037519 
1442.754368  	0.038131 
1444.683184  	0.037924 
1446.612000  	0.037599 
1448.540816  	0.038468 
1450.469632  	0.038472 
1452.398448  	0.038006 
1454.327264  	0.036780 
1456.256080  	0.036715 
1458.184896  	0.040565 
1460.113712  	0.039929 
1462.042528  	0.038110 
1463.971344  	0.037555 
1465.900160  	0.039420 
1467.828976  	0.039450 
1469.757792  	0.039175 
1471.686608  	0.041078 
1473.615424  	0.048215 
1475.544240  	0.052555 
1477.473056  	0.057120 
1479.401872  	0.059510 
1481.330688  	0.062676 
1483.259504  	0.064911 
1485.188320  	0.065590 
1487.117136  	0.066050 
1489.045952  	0.067472 
1490.974768  	0.068252 
1492.903584  	0.065289 
1494.832400  	0.060752 
1496.761216  	0.057127 
1498.690032  	0.052897 
1500.618848  	0.048446 
1502.547664  	0.043320 
1504.476480  	0.037973 
1506.405296  	0.036239 
1508.334112  	0.038532 
1510.262928  	0.035491 
1512.191744  	0.033619 
1514.120560  	0.032088 
1516.049376  	0.031845 
1517.978192  	0.033544 
1519.907008  	0.033237 
1521.835824  	0.038718 
1523.764640  	0.042055 
1525.693456  	0.044188 
1527.622272  	0.046914 
1529.551088  	0.046744 
1531.479904  	0.044379 
1533.408720  	0.043171 
1535.337536  	0.041017 
1537.266352  	0.036233 
1539.195168  	0.032978 
1541.123984  	0.033733 
1543.052800  	0.032705 
1544.981616  	0.031928 
1546.910432  	0.030418 
1548.839248  	0.028901 
1550.768064  	0.029447 
1552.696880  	0.028257 
1554.625696  	0.028549 
1556.554512  	0.026581 
1558.483328  	0.028689 
1560.412144  	0.037866 
1562.340960  	0.036146 
1564.269776  	0.036895 
1566.198592  	0.040009 
1568.127408  	0.041257 
1570.056224  	0.047820 
1571.985040  	0.051362 
1573.913856  	0.051727 
1575.842672  	0.054718 
1577.771488  	0.059308 
1579.700304  	0.057801 
1581.629120  	0.056850 
1583.557936  	0.055957 
1585.486752  	0.056201 
1587.415568  	0.057418 
1589.344384  	0.060535 
1591.273200  	0.064486 
1593.202016  	0.069493 
1595.130832  	0.075181 
1597.059648  	0.081479 
1598.988464  	0.086443 
1600.917280  	0.091267 
1602.846096  	0.095037 
1604.774912  	0.097693 
1606.703728  	0.098002 
1608.632544  	0.098025 
1610.561360  	0.096631 
1612.490176  	0.094535 
1614.418992  	0.090689 
1616.347808  	0.091076 
1618.276624  	0.094299 
1620.205440  	0.093819 
1622.134256  	0.094614 
1624.063072  	0.101808 
1625.991888  	0.105299 
1627.920704  	0.111477 
1629.849520  	0.119145 
1631.778336  	0.123793 
1633.707152  	0.126652 
1635.635968  	0.137855 
1637.564784  	0.149716 
1639.493600  	0.152465 
1641.422416  	0.155612 
1643.351232  	0.157031 
1645.280048  	0.156816 
1647.208864  	0.163997 
1649.137680  	0.165391 
1651.066496  	0.159646 
1652.995312  	0.161970 
1654.924128  	0.169682 
1656.852944  	0.164634 
1658.781760  	0.161461 
1660.710576  	0.158003 
1662.639392  	0.156500 
1664.568208  	0.154263 
1666.497024  	0.148887 
1668.425840  	0.144258 
1670.354656  	0.142515 
1672.283472  	0.138208 
1674.212288  	0.133369 
1676.141104  	0.132289 
1678.069920  	0.128670 
1679.998736  	0.125804 
1681.927552  	0.122537 
1683.856368  	0.123229 
1685.785184  	0.128401 
1687.714000  	0.125397 
1689.642816  	0.125253 
1691.571632  	0.124692 
1693.500448  	0.121859 
1695.429264  	0.121227 
1697.358080  	0.122571 
1699.286896  	0.119991 
1701.215712  	0.124478 
1703.144528  	0.120893 
1705.073344  	0.118352 
1707.002160  	0.116702 
1708.930976  	0.113018 
1710.859792  	0.108082 
1712.788608  	0.101944 
1714.717424  	0.094534 
1716.646240  	0.086753 
1718.575056  	0.078611 
1720.503872  	0.069175 
1722.432688  	0.060288 
1724.361504  	0.051689 
1726.290320  	0.043891 
1728.219136  	0.036936 
1730.147952  	0.031108 
1732.076768  	0.025406 
1734.005584  	0.023298 
1735.934400  	0.020910 
1737.863216  	0.016953 
1739.792032  	0.015149 
1741.720848  	0.013826 
1743.649664  	0.012331 
1745.578480  	0.010627 
1747.507296  	0.009025 
1749.436112  	0.008772 
1751.364928  	0.009369 
1753.293744  	0.008610 
1755.222560  	0.006863 
1757.151376  	0.007179 
1759.080192  	0.006185 
1761.009008  	0.005801 
1762.937824  	0.006418 
1764.866640  	0.005442 
1766.795456  	0.004508 
1768.724272  	0.004499 
1770.653088  	0.002815 
1772.581904  	0.004107 
1774.510720  	0.004710 
1776.439536  	0.004350 
1778.368352  	0.003560 
1780.297168  	0.003523 
1782.225984  	0.003552 
1784.154800  	0.003454 
1786.083616  	0.003491 
1788.012432  	0.002693 
1789.941248  	0.001689 
1791.870064  	0.002422 
1793.798880  	0.003283 
1795.727696  	0.002757 
1797.656512  	0.001917 
1799.585328  	0.001741 
1801.514144  	0.002578 
1803.442960  	0.002420 
1805.371776  	0.001812 
1807.300592  	0.001643 
1809.229408  	0.001503 
1811.158224  	0.001896 
1813.087040  	0.001824 
1815.015856  	0.001201 
1816.944672  	0.001154 
1818.873488  	0.001454 
1820.802304  	0.001271 
1822.731120  	0.000766 
1824.659936  	0.000917 
1826.588752  	0.001104 
1828.517568  	0.000326 
1830.446384  	0.001744 
1832.375200  	0.001654 
1834.304016  	0.001267 
1836.232832  	0.001378 
1838.161648  	0.001378 
1840.090464  	0.000967 
1842.019280  	0.000312 
1843.948096  	0.001032 
1845.876912  	0.001871 
1847.805728  	0.001472 
1849.734544  	0.001465 
1851.663360  	0.001011 
1853.592176  	0.001109 
1855.520992  	0.000748 
1857.449808  	0.000824 
1859.378624  	0.000907 
1861.307440  	0.001346 
1863.236256  	0.000896 
1865.165072  	0.000177 
1867.093888  	-0.000124 
1869.022704  	0.001206 
1870.951520  	0.001362 
1872.880336  	0.000786 
1874.809152  	0.000536 
1876.737968  	0.000614 
1878.666784  	0.000540 
1880.595600  	0.000516 
1882.524416  	0.000446 
1884.453232  	0.000516 
1886.382048  	0.000279 
1888.310864  	0.000548 
1890.239680  	0.001239 
1892.168496  	0.000860 
1894.097312  	0.000198 
1896.026128  	0.000533 
1897.954944  	0.000654 
1899.883760  	0.000605 
1901.812576  	0.000299 
1903.741392  	0.000552 
1905.670208  	0.000656 
1907.599024  	0.000733 
1909.527840  	0.000843 
1911.456656  	0.001129 
1913.385472  	0.000890 
1915.314288  	0.000296 
1917.243104  	-0.000013 
1919.171920  	0.001063 
1921.100736  	0.000787 
1923.029552  	0.001154 
1924.958368  	0.000159 
1926.887184  	-0.000337 
1928.816000  	-0.000039 
1930.744816  	0.000295 
1932.673632  	0.000101 
1934.602448  	0.000044 
1936.531264  	0.000011 
1938.460080  	-0.000346 
1940.388896  	-0.000873 
1942.317712  	-0.000150 
1944.246528  	-0.000139 
1946.175344  	0.000198 
1948.104160  	0.000443 
1950.032976  	0.000215 
1951.961792  	-0.000035 
1953.890608  	0.000152 
1955.819424  	-0.000102 
1957.748240  	-0.000589 
1959.677056  	-0.001556 
1961.605872  	-0.001110 
1963.534688  	-0.000531 
1965.463504  	-0.000088 
1967.392320  	-0.002009 
1969.321136  	-0.002171 
1971.249952  	-0.001334 
1973.178768  	-0.000812 
1975.107584  	-0.000745 
1977.036400  	-0.000058 
1978.965216  	0.001183 
1980.894032  	0.001154 
1982.822848  	0.000173 
1984.751664  	0.000087 
1986.680480  	0.000183 
1988.609296  	0.000727 
1990.538112  	0.000131 
1992.466928  	0.000444 
1994.395744  	0.000497 
1996.324560  	0.000276 
1998.253376  	-0.000068 
2000.182192  	0.000281 
2002.111008  	0.000237 
2004.039824  	0.000363 
2005.968640  	-0.000529 
2007.897456  	-0.000517 
2009.826272  	0.000288 
2011.755088  	0.000604 
2013.683904  	0.000347 
2015.612720  	0.000470 
2017.541536  	0.001132 
2019.470352  	0.002160 
2021.399168  	0.001682 
2023.327984  	0.002237 
2025.256800  	0.002472 
2027.185616  	0.001202 
2029.114432  	0.000634 
2031.043248  	0.001723 
2032.972064  	0.002434 
2034.900880  	0.003159 
2036.829696  	0.003510 
2038.758512  	0.003685 
2040.687328  	0.002577 
2042.616144  	0.002811 
2044.544960  	0.002544 
2046.473776  	0.001970 
2048.402592  	0.002187 
2050.331408  	0.002314 
2052.260224  	0.001186 
2054.189040  	0.000836 
2056.117856  	0.001026 
2058.046672  	0.001237 
2059.975488  	0.001102 
2061.904304  	0.001039 
2063.833120  	0.000732 
2065.761936  	0.001195 
2067.690752  	0.001402 
2069.619568  	0.001432 
2071.548384  	0.001140 
2073.477200  	0.001183 
2075.406016  	0.001370 
2077.334832  	0.002103 
2079.263648  	0.002073 
2081.192464  	0.001981 
2083.121280  	0.001544 
2085.050096  	0.001327 
2086.978912  	0.001230 
2088.907728  	0.001504 
2090.836544  	0.001489 
2092.765360  	0.001278 
2094.694176  	0.001010 
2096.622992  	0.001469 
2098.551808  	0.002178 
2100.480624  	0.001974 
2102.409440  	0.001450 
2104.338256  	0.001324 
2106.267072  	0.001686 
2108.195888  	0.002252 
2110.124704  	0.002280 
2112.053520  	0.002131 
2113.982336  	0.001834 
2115.911152  	0.002136 
2117.839968  	0.002211 
2119.768784  	0.001837 
2121.697600  	0.001023 
2123.626416  	0.001214 
2125.555232  	0.001328 
2127.484048  	0.000886 
2129.412864  	0.000552 
2131.341680  	0.000695 
2133.270496  	0.000428 
2135.199312  	0.001029 
2137.128128  	0.001341 
2139.056944  	0.001353 
2140.985760  	0.001210 
2142.914576  	0.001409 
2144.843392  	0.001303 
2146.772208  	0.001607 
2148.701024  	0.001888 
2150.629840  	0.003136 
2152.558656  	0.003473 
2154.487472  	0.003540 
2156.416288  	0.003260 
2158.345104  	0.005378 
2160.273920  	0.007358 
2162.202736  	0.008063 
2164.131552  	0.007767 
2166.060368  	0.006890 
2167.989184  	0.005353 
2169.918000  	0.005261 
2171.846816  	0.005514 
2173.775632  	0.005001 
2175.704448  	0.004275 
2177.633264  	0.003930 
2179.562080  	0.003369 
2181.490896  	0.002968 
2183.419712  	0.003320 
2185.348528  	0.004099 
2187.277344  	0.003859 
2189.206160  	0.004198 
2191.134976  	0.005078 
2193.063792  	0.005461 
2194.992608  	0.004589 
2196.921424  	0.004439 
2198.850240  	0.004628 
2200.779056  	0.004757 
2202.707872  	0.003987 
2204.636688  	0.003201 
2206.565504  	0.003421 
2208.494320  	0.004481 
2210.423136  	0.004278 
2212.351952  	0.003839 
2214.280768  	0.004551 
2216.209584  	0.004867 
2218.138400  	0.004255 
2220.067216  	0.004075 
2221.996032  	0.003653 
2223.924848  	0.003301 
2225.853664  	0.002977 
2227.782480  	0.003251 
2229.711296  	0.003341 
2231.640112  	0.002992 
2233.568928  	0.002504 
2235.497744  	0.002769 
2237.426560  	0.002698 
2239.355376  	0.002371 
2241.284192  	0.002089 
2243.213008  	0.002143 
2245.141824  	0.002769 
2247.070640  	0.003738 
2248.999456  	0.003133 
2250.928272  	0.002576 
2252.857088  	0.002389 
2254.785904  	0.002534 
2256.714720  	0.002892 
2258.643536  	0.002434 
2260.572352  	0.002365 
2262.501168  	0.002676 
2264.429984  	0.002652 
2266.358800  	0.002595 
2268.287616  	0.002820 
2270.216432  	0.003125 
2272.145248  	0.003135 
2274.074064  	0.003252 
2276.002880  	0.003204 
2277.931696  	0.003386 
2279.860512  	0.003586 
2281.789328  	0.003789 
2283.718144  	0.003651 
2285.646960  	0.003569 
2287.575776  	0.003491 
2289.504592  	0.003737 
2291.433408  	0.003885 
2293.362224  	0.004107 
2295.291040  	0.004286 
2297.219856  	0.004330 
2299.148672  	0.004563 
2301.077488  	0.005029 
2303.006304  	0.005127 
2304.935120  	0.005219 
2306.863936  	0.005606 
2308.792752  	0.006026 
2310.721568  	0.006266 
2312.650384  	0.006578 
2314.579200  	0.006603 
2316.508016  	0.006592 
2318.436832  	0.006911 
2320.365648  	0.007571 
2322.294464  	0.008165 
2324.223280  	0.007985 
2326.152096  	0.006731 
2328.080912  	0.006457 
2330.009728  	0.006704 
2331.938544  	0.006886 
2333.867360  	0.006360 
2335.796176  	0.005838 
2337.724992  	0.005959 
2339.653808  	0.006292 
2341.582624  	0.006683 
2343.511440  	0.007383 
2345.440256  	0.008156 
2347.369072  	0.007650 
2349.297888  	0.005909 
2351.226704  	0.005332 
2353.155520  	0.006006 
2355.084336  	0.006747 
2357.013152  	0.007562 
2358.941968  	0.008204 
2360.870784  	0.008986 
2362.799600  	0.009301 
2364.728416  	0.008729 
2366.657232  	0.008638 
2368.586048  	0.008967 
2370.514864  	0.009009 
2372.443680  	0.008354 
2374.372496  	0.007456 
2376.301312  	0.006998 
2378.230128  	0.006591 
2380.158944  	0.006098 
2382.087760  	0.005163 
2384.016576  	0.004194 
2385.945392  	0.003576 
2387.874208  	0.003301 
2389.803024  	0.003210 
2391.731840  	0.003200 
2393.660656  	0.003149 
2395.589472  	0.003107 
2397.518288  	0.003160 
2399.447104  	0.003316 
2401.375920  	0.003535 
2403.304736  	0.003676 
2405.233552  	0.003743 
2407.162368  	0.003775 
2409.091184  	0.003870 
2411.020000  	0.003891 
2412.948816  	0.003855 
2414.877632  	0.003924 
2416.806448  	0.004035 
2418.735264  	0.003909 
2420.664080  	0.003919 
2422.592896  	0.004184 
2424.521712  	0.004429 
2426.450528  	0.004544 
2428.379344  	0.004505 
2430.308160  	0.004586 
2432.236976  	0.004903 
2434.165792  	0.004927 
2436.094608  	0.004824 
2438.023424  	0.004806 
2439.952240  	0.004692 
2441.881056  	0.004806 
2443.809872  	0.005145 
2445.738688  	0.005372 
2447.667504  	0.005603 
2449.596320  	0.005733 
2451.525136  	0.005700 
2453.453952  	0.005518 
2455.382768  	0.005512 
2457.311584  	0.005673 
2459.240400  	0.005590 
2461.169216  	0.005394 
2463.098032  	0.005566 
2465.026848  	0.005783 
2466.955664  	0.005842 
2468.884480  	0.005850 
2470.813296  	0.005860 
2472.742112  	0.005989 
2474.670928  	0.006224 
2476.599744  	0.006261 
2478.528560  	0.006456 
2480.457376  	0.006388 
2482.386192  	0.006140 
2484.315008  	0.006121 
2486.243824  	0.006355 
2488.172640  	0.006663 
2490.101456  	0.006909 
2492.030272  	0.006968 
2493.959088  	0.006902 
2495.887904  	0.007032 
2497.816720  	0.007257 
2499.745536  	0.007230 
2501.674352  	0.007334 
2503.603168  	0.007520 
2505.531984  	0.007566 
2507.460800  	0.007473 
2509.389616  	0.007527 
2511.318432  	0.007385 
2513.247248  	0.007540 
2515.176064  	0.007705 
2517.104880  	0.007977 
2519.033696  	0.008374 
2520.962512  	0.008366 
2522.891328  	0.008451 
2524.820144  	0.008601 
2526.748960  	0.008425 
2528.677776  	0.008353 
2530.606592  	0.008383 
2532.535408  	0.008560 
2534.464224  	0.008639 
2536.393040  	0.008598 
2538.321856  	0.008621 
2540.250672  	0.008756 
2542.179488  	0.008890 
2544.108304  	0.009128 
2546.037120  	0.009305 
2547.965936  	0.009166 
2549.894752  	0.008854 
2551.823568  	0.008882 
2553.752384  	0.009001 
2555.681200  	0.009130 
2557.610016  	0.009426 
2559.538832  	0.009661 
2561.467648  	0.009740 
2563.396464  	0.009796 
2565.325280  	0.009644 
2567.254096  	0.009713 
2569.182912  	0.009975 
2571.111728  	0.010316 
2573.040544  	0.010589 
2574.969360  	0.010761 
2576.898176  	0.010983 
2578.826992  	0.011043 
2580.755808  	0.010939 
2582.684624  	0.010987 
2584.613440  	0.011010 
2586.542256  	0.011044 
2588.471072  	0.011112 
2590.399888  	0.011212 
2592.328704  	0.011332 
2594.257520  	0.011391 
2596.186336  	0.011444 
2598.115152  	0.011412 
2600.043968  	0.011335 
2601.972784  	0.011414 
2603.901600  	0.011575 
2605.830416  	0.011701 
2607.759232  	0.011734 
2609.688048  	0.011680 
2611.616864  	0.011734 
2613.545680  	0.012010 
2615.474496  	0.012132 
2617.403312  	0.012154 
2619.332128  	0.012385 
2621.260944  	0.012587 
2623.189760  	0.012583 
2625.118576  	0.012713 
2627.047392  	0.012809 
2628.976208  	0.012890 
2630.905024  	0.013034 
2632.833840  	0.013274 
2634.762656  	0.013416 
2636.691472  	0.013501 
2638.620288  	0.013606 
2640.549104  	0.013781 
2642.477920  	0.013919 
2644.406736  	0.013995 
2646.335552  	0.014154 
2648.264368  	0.014203 
2650.193184  	0.014234 
2652.122000  	0.014468 
2654.050816  	0.014697 
2655.979632  	0.014761 
2657.908448  	0.014778 
2659.837264  	0.014917 
2661.766080  	0.015138 
2663.694896  	0.015216 
2665.623712  	0.015102 
2667.552528  	0.015246 
2669.481344  	0.015577 
2671.410160  	0.015720 
2673.338976  	0.015770 
2675.267792  	0.015798 
2677.196608  	0.015878 
2679.125424  	0.016028 
2681.054240  	0.016174 
2682.983056  	0.016221 
2684.911872  	0.016378 
2686.840688  	0.016583 
2688.769504  	0.016630 
2690.698320  	0.016704 
2692.627136  	0.016883 
2694.555952  	0.017011 
2696.484768  	0.017120 
2698.413584  	0.017266 
2700.342400  	0.017316 
2702.271216  	0.017474 
2704.200032  	0.017657 
2706.128848  	0.017834 
2708.057664  	0.017978 
2709.986480  	0.018046 
2711.915296  	0.018186 
2713.844112  	0.018313 
2715.772928  	0.018414 
2717.701744  	0.018481 
2719.630560  	0.018609 
2721.559376  	0.018806 
2723.488192  	0.018843 
2725.417008  	0.018978 
2727.345824  	0.019135 
2729.274640  	0.019229 
2731.203456  	0.019343 
2733.132272  	0.019570 
2735.061088  	0.019802 
2736.989904  	0.019951 
2738.918720  	0.020063 
2740.847536  	0.020134 
2742.776352  	0.020278 
2744.705168  	0.020449 
2746.633984  	0.020503 
2748.562800  	0.020564 
2750.491616  	0.020778 
2752.420432  	0.021002 
2754.349248  	0.021057 
2756.278064  	0.021054 
2758.206880  	0.021071 
2760.135696  	0.021083 
2762.064512  	0.021139 
2763.993328  	0.021213 
2765.922144  	0.021140 
2767.850960  	0.021147 
2769.779776  	0.021206 
2771.708592  	0.021168 
2773.637408  	0.021081 
2775.566224  	0.021071 
2777.495040  	0.021153 
2779.423856  	0.021146 
2781.352672  	0.021076 
2783.281488  	0.021066 
2785.210304  	0.021038 
2787.139120  	0.021057 
2789.067936  	0.021153 
2790.996752  	0.021154 
2792.925568  	0.021074 
2794.854384  	0.020986 
2796.783200  	0.020925 
2798.712016  	0.021024 
2800.640832  	0.021241 
2802.569648  	0.021305 
2804.498464  	0.021190 
2806.427280  	0.021022 
2808.356096  	0.021026 
2810.284912  	0.021137 
2812.213728  	0.021083 
2814.142544  	0.021038 
2816.071360  	0.021065 
2818.000176  	0.021186 
2819.928992  	0.021159 
2821.857808  	0.021162 
2823.786624  	0.021227 
2825.715440  	0.021173 
2827.644256  	0.021010 
2829.573072  	0.020916 
2831.501888  	0.020883 
2833.430704  	0.020806 
2835.359520  	0.020629 
2837.288336  	0.020506 
2839.217152  	0.020422 
2841.145968  	0.020317 
2843.074784  	0.020256 
2845.003600  	0.020176 
2846.932416  	0.020125 
2848.861232  	0.020177 
2850.790048  	0.020170 
2852.718864  	0.020142 
2854.647680  	0.020149 
2856.576496  	0.020141 
2858.505312  	0.020134 
2860.434128  	0.020141 
2862.362944  	0.020176 
2864.291760  	0.020119 
2866.220576  	0.020137 
2868.149392  	0.020241 
2870.078208  	0.020257 
2872.007024  	0.020358 
2873.935840  	0.020692 
2875.864656  	0.021014 
2877.793472  	0.021255 
2879.722288  	0.021586 
2881.651104  	0.021927 
2883.579920  	0.022005 
2885.508736  	0.022120 
2887.437552  	0.022385 
2889.366368  	0.022370 
2891.295184  	0.022248 
2893.224000  	0.022190 
2895.152816  	0.022227 
2897.081632  	0.021884 
2899.010448  	0.021306 
2900.939264  	0.021021 
2902.868080  	0.021251 
2904.796896  	0.021422 
2906.725712  	0.021525 
2908.654528  	0.021660 
2910.583344  	0.021911 
2912.512160  	0.022409 
2914.440976  	0.022954 
2916.369792  	0.023442 
2918.298608  	0.023806 
2920.227424  	0.024141 
2922.156240  	0.024603 
2924.085056  	0.025090 
2926.013872  	0.025583 
2927.942688  	0.026127 
2929.871504  	0.026906 
2931.800320  	0.027429 
2933.729136  	0.027952 
2935.657952  	0.028434 
2937.586768  	0.028854 
2939.515584  	0.029362 
2941.444400  	0.029886 
2943.373216  	0.030186 
2945.302032  	0.030226 
2947.230848  	0.030284 
2949.159664  	0.030302 
2951.088480  	0.030202 
2953.017296  	0.029933 
2954.946112  	0.029484 
2956.874928  	0.029170 
2958.803744  	0.028826 
2960.732560  	0.028360 
2962.661376  	0.027674 
2964.590192  	0.027220 
2966.519008  	0.026718 
2968.447824  	0.026043 
2970.376640  	0.025291 
2972.305456  	0.024558 
2974.234272  	0.024050 
2976.163088  	0.023526 
2978.091904  	0.023000 
2980.020720  	0.022647 
2981.949536  	0.022563 
2983.878352  	0.022605 
2985.807168  	0.022584 
2987.735984  	0.022630 
2989.664800  	0.023158 
2991.593616  	0.024020 
2993.522432  	0.024418 
2995.451248  	0.024798 
2997.380064  	0.025344 
2999.308880  	0.025831 
3001.237696  	0.026289 
3003.166512  	0.026655 
3005.095328  	0.026971 
3007.024144  	0.027310 
3008.952960  	0.027779 
3010.881776  	0.028233 
3012.810592  	0.028526 
3014.739408  	0.028910 
3016.668224  	0.029297 
3018.597040  	0.029613 
3020.525856  	0.029742 
3022.454672  	0.030069 
3024.383488  	0.030453 
3026.312304  	0.030930 
3028.241120  	0.031181 
3030.169936  	0.031425 
3032.098752  	0.031880 
3034.027568  	0.032187 
3035.956384  	0.032533 
3037.885200  	0.032740 
3039.814016  	0.032952 
3041.742832  	0.033218 
3043.671648  	0.033565 
3045.600464  	0.034091 
3047.529280  	0.034446 
3049.458096  	0.034738 
3051.386912  	0.035016 
3053.315728  	0.035290 
3055.244544  	0.035559 
3057.173360  	0.036105 
3059.102176  	0.036471 
3061.030992  	0.036803 
3062.959808  	0.037158 
3064.888624  	0.037731 
3066.817440  	0.038332 
3068.746256  	0.038838 
3070.675072  	0.039182 
3072.603888  	0.039527 
3074.532704  	0.039990 
3076.461520  	0.040377 
3078.390336  	0.040822 
3080.319152  	0.041378 
3082.247968  	0.041930 
3084.176784  	0.042395 
3086.105600  	0.042789 
3088.034416  	0.043300 
3089.963232  	0.043829 
3091.892048  	0.044297 
3093.820864  	0.044652 
3095.749680  	0.045215 
3097.678496  	0.045777 
3099.607312  	0.046423 
3101.536128  	0.047271 
3103.464944  	0.047758 
3105.393760  	0.048092 
3107.322576  	0.048459 
3109.251392  	0.048912 
3111.180208  	0.049269 
3113.109024  	0.049393 
3115.037840  	0.049626 
3116.966656  	0.050016 
3118.895472  	0.050562 
3120.824288  	0.050855 
3122.753104  	0.051188 
3124.681920  	0.051496 
3126.610736  	0.051898 
3128.539552  	0.052132 
3130.468368  	0.051971 
3132.397184  	0.052201 
3134.326000  	0.052559 
3136.254816  	0.052689 
3138.183632  	0.052944 
3140.112448  	0.053343 
3142.041264  	0.053722 
3143.970080  	0.053975 
3145.898896  	0.054290 
3147.827712  	0.054546 
3149.756528  	0.054705 
3151.685344  	0.055222 
3153.614160  	0.055627 
3155.542976  	0.055883 
3157.471792  	0.056258 
3159.400608  	0.056665 
3161.329424  	0.056811 
3163.258240  	0.056937 
3165.187056  	0.057208 
3167.115872  	0.057588 
3169.044688  	0.058010 
3170.973504  	0.058320 
3172.902320  	0.058193 
3174.831136  	0.058144 
3176.759952  	0.058504 
3178.688768  	0.058968 
3180.617584  	0.059242 
3182.546400  	0.059017 
3184.475216  	0.058890 
3186.404032  	0.058910 
3188.332848  	0.058718 
3190.261664  	0.058516 
3192.190480  	0.058495 
3194.119296  	0.058362 
3196.048112  	0.058165 
3197.976928  	0.058047 
3199.905744  	0.057883 
3201.834560  	0.057606 
3203.763376  	0.057359 
3205.692192  	0.057023 
3207.621008  	0.056496 
3209.549824  	0.056179 
3211.478640  	0.055856 
3213.407456  	0.055619 
3215.336272  	0.055652 
3217.265088  	0.055121 
3219.193904  	0.054942 
3221.122720  	0.055105 
3223.051536  	0.054815 
3224.980352  	0.054308 
3226.909168  	0.053973 
3228.837984  	0.053614 
3230.766800  	0.053322 
3232.695616  	0.053144 
3234.624432  	0.052854 
3236.553248  	0.052731 
3238.482064  	0.052724 
3240.410880  	0.052916 
3242.339696  	0.052826 
3244.268512  	0.052777 
3246.197328  	0.053192 
3248.126144  	0.053088 
3250.054960  	0.053098 
3251.983776  	0.052985 
3253.912592  	0.053300 
3255.841408  	0.053655 
3257.770224  	0.053966 
3259.699040  	0.054332 
3261.627856  	0.054434 
3263.556672  	0.054238 
3265.485488  	0.054436 
3267.414304  	0.054770 
3269.343120  	0.054971 
3271.271936  	0.054887 
3273.200752  	0.055135 
3275.129568  	0.055550 
3277.058384  	0.055829 
3278.987200  	0.055898 
3280.916016  	0.056046 
3282.844832  	0.056296 
3284.773648  	0.056272 
3286.702464  	0.056062 
3288.631280  	0.056043 
3290.560096  	0.056256 
3292.488912  	0.056824 
3294.417728  	0.057382 
3296.346544  	0.057609 
3298.275360  	0.057899 
3300.204176  	0.058057 
3302.132992  	0.058579 
3304.061808  	0.058981 
3305.990624  	0.059025 
3307.919440  	0.059190 
3309.848256  	0.059618 
3311.777072  	0.059982 
3313.705888  	0.060117 
3315.634704  	0.060031 
3317.563520  	0.060405 
3319.492336  	0.060932 
3321.421152  	0.061093 
3323.349968  	0.061126 
3325.278784  	0.061267 
3327.207600  	0.061487 
3329.136416  	0.061744 
3331.065232  	0.061802 
3332.994048  	0.061800 
3334.922864  	0.062030 
3336.851680  	0.062504 
3338.780496  	0.062502 
3340.709312  	0.062110 
3342.638128  	0.061984 
3344.566944  	0.061734 
3346.495760  	0.061516 
3348.424576  	0.061193 
3350.353392  	0.060934 
3352.282208  	0.060638 
3354.211024  	0.060428 
3356.139840  	0.060337 
3358.068656  	0.060173 
3359.997472  	0.059866 
3361.926288  	0.059662 
3363.855104  	0.059428 
3365.783920  	0.059548 
3367.712736  	0.059082 
3369.641552  	0.058564 
3371.570368  	0.058544 
3373.499184  	0.058211 
3375.428000  	0.057850 
3377.356816  	0.057914 
3379.285632  	0.057887 
3381.214448  	0.057578 
3383.143264  	0.057022 
3385.072080  	0.057055 
3387.000896  	0.057025 
3388.929712  	0.056453 
3390.858528  	0.055983 
3392.787344  	0.056089 
3394.716160  	0.055854 
3396.644976  	0.055581 
3398.573792  	0.055571 
3400.502608  	0.055228 
3402.431424  	0.054971 
3404.360240  	0.054784 
3406.289056  	0.054498 
3408.217872  	0.054154 
3410.146688  	0.053673 
3412.075504  	0.053415 
3414.004320  	0.053278 
3415.933136  	0.052905 
3417.861952  	0.052151 
3419.790768  	0.051764 
3421.719584  	0.052184 
3423.648400  	0.051974 
3425.577216  	0.051300 
3427.506032  	0.050831 
3429.434848  	0.050451 
3431.363664  	0.050317 
3433.292480  	0.050025 
3435.221296  	0.049763 
3437.150112  	0.049408 
3439.078928  	0.048929 
3441.007744  	0.048565 
3442.936560  	0.048434 
3444.865376  	0.047551 
3446.794192  	0.047654 
3448.723008  	0.048086 
3450.651824  	0.046928 
3452.580640  	0.046079 
3454.509456  	0.045821 
3456.438272  	0.045334 
3458.367088  	0.044514 
3460.295904  	0.044061 
3462.224720  	0.043953 
3464.153536  	0.043596 
3466.082352  	0.042802 
3468.011168  	0.042276 
3469.939984  	0.041736 
3471.868800  	0.040960 
3473.797616  	0.040144 
3475.726432  	0.039861 
3477.655248  	0.039299 
3479.584064  	0.038423 
3481.512880  	0.038339 
3483.441696  	0.038338 
3485.370512  	0.037287 
3487.299328  	0.036623 
3489.228144  	0.036314 
3491.156960  	0.035415 
3493.085776  	0.034400 
3495.014592  	0.033929 
3496.943408  	0.033786 
3498.872224  	0.032947 
3500.801040  	0.031827 
3502.729856  	0.032388 
3504.658672  	0.032873 
3506.587488  	0.031402 
3508.516304  	0.030490 
3510.445120  	0.030953 
3512.373936  	0.030351 
3514.302752  	0.029346 
3516.231568  	0.028615 
3518.160384  	0.028340 
3520.089200  	0.027532 
3522.018016  	0.026663 
3523.946832  	0.026838 
3525.875648  	0.026171 
3527.804464  	0.026205 
3529.733280  	0.026406 
3531.662096  	0.025750 
3533.590912  	0.024511 
3535.519728  	0.024231 
3537.448544  	0.024734 
3539.377360  	0.023627 
3541.306176  	0.022608 
3543.234992  	0.022006 
3545.163808  	0.022723 
3547.092624  	0.023544 
3549.021440  	0.021965 
3550.950256  	0.020434 
3552.879072  	0.021424 
3554.807888  	0.020919 
3556.736704  	0.019625 
3558.665520  	0.019169 
3560.594336  	0.018711 
3562.523152  	0.017492 
3564.451968  	0.015963 
3566.380784  	0.017789 
3568.309600  	0.021282 
3570.238416  	0.018943 
3572.167232  	0.016510 
3574.096048  	0.015606 
3576.024864  	0.015238 
3577.953680  	0.014921 
3579.882496  	0.014718 
3581.811312  	0.013872 
3583.740128  	0.011748 
3585.668944  	0.010564 
3587.597760  	0.013986 
3589.526576  	0.014659 
3591.455392  	0.011104 
3593.384208  	0.010125 
3595.313024  	0.011048 
3597.241840  	0.010141 
3599.170656  	0.008692 
3601.099472  	0.009026 
3603.028288  	0.008218 
3604.957104  	0.005940 
3606.885920  	0.005480 
3608.814736  	0.007504 
3610.743552  	0.005985 
3612.672368  	0.004898 
3614.601184  	0.004912 
3616.530000  	0.002142 
3618.458816  	0.002512 
3620.387632  	0.005276 
3622.316448  	0.003408 
3624.245264  	0.000414 
3626.174080  	-0.002844 
3628.102896  	-0.001720 
3630.031712  	0.004640 
3631.960528  	0.000723 
3633.889344  	-0.000598 
3635.818160  	-0.001250 
3637.746976  	-0.002623 
3639.675792  	-0.003531 
3641.604608  	-0.004343 
3643.533424  	-0.005586 
3645.462240  	-0.008547 
3647.391056  	-0.008642 
3649.319872  	-0.004445 
3651.248688  	-0.001195 
3653.177504  	-0.005889 
3655.106320  	-0.008179 
3657.035136  	-0.005632 
3658.963952  	-0.006516 
3660.892768  	-0.007456 
3662.821584  	-0.008143 
3664.750400  	-0.009150 
3666.679216  	-0.011239 
3668.608032  	-0.011930 
3670.536848  	-0.007277 
3672.465664  	-0.010204 
3674.394480  	-0.012163 
3676.323296  	-0.004838 
3678.252112  	-0.007142 
3680.180928  	-0.007897 
3682.109744  	-0.008747 
3684.038560  	-0.010052 
3685.967376  	-0.012129 
3687.896192  	-0.011798 
3689.825008  	-0.008261 
3691.753824  	-0.006797 
3693.682640  	-0.007975 
3695.611456  	-0.008786 
3697.540272  	-0.008944 
3699.469088  	-0.010181 
3701.397904  	-0.008796 
3703.326720  	-0.007398 
3705.255536  	-0.008937 
3707.184352  	-0.010627 
3709.113168  	-0.011326 
3711.041984  	-0.008893 
3712.970800  	-0.005495 
3714.899616  	-0.006993 
3716.828432  	-0.009128 
3718.757248  	-0.009287 
3720.686064  	-0.009400 
3722.614880  	-0.008738 
3724.543696  	-0.008368 
3726.472512  	-0.007261 
3728.401328  	-0.008130 
3730.330144  	-0.010977 
3732.258960  	-0.010860 
3734.187776  	-0.008812 
3736.116592  	-0.004489 
3738.045408  	-0.005875 
3739.974224  	-0.008921 
3741.903040  	-0.011877 
3743.831856  	-0.010135 
3745.760672  	-0.005901 
3747.689488  	-0.010825 
3749.618304  	-0.010237 
3751.547120  	-0.005820 
3753.475936  	-0.005392 
3755.404752  	-0.008573 
3757.333568  	-0.009407 
3759.262384  	-0.008013 
3761.191200  	-0.007028 
3763.120016  	-0.009369 
3765.048832  	-0.008701 
3766.977648  	-0.008535 
3768.906464  	-0.008816 
3770.835280  	-0.006528 
3772.764096  	-0.007502 
3774.692912  	-0.008654 
3776.621728  	-0.009650 
3778.550544  	-0.009183 
3780.479360  	-0.006993 
3782.408176  	-0.008514 
3784.336992  	-0.008526 
3786.265808  	-0.007730 
3788.194624  	-0.008168 
3790.123440  	-0.008632 
3792.052256  	-0.008898 
3793.981072  	-0.010016 
3795.909888  	-0.009558 
3797.838704  	-0.009342 
3799.767520  	-0.011300 
3801.696336  	-0.007034 
3803.625152  	-0.007351 
3805.553968  	-0.010076 
3807.482784  	-0.006827 
3809.411600  	-0.007467 
3811.340416  	-0.009165 
3813.269232  	-0.011291 
3815.198048  	-0.010456 
3817.126864  	-0.007945 
3819.055680  	-0.011553 
3820.984496  	-0.007824 
3822.913312  	-0.005458 
3824.842128  	-0.008839 
3826.770944  	-0.008510 
3828.699760  	-0.009167 
3830.628576  	-0.009921 
3832.557392  	-0.009376 
3834.486208  	-0.010560 
3836.415024  	-0.010791 
3838.343840  	-0.008236 
3840.272656  	-0.006998 
3842.201472  	-0.007801 
3844.130288  	-0.007408 
3846.059104  	-0.008331 
3847.987920  	-0.010394 
3849.916736  	-0.012693 
3851.845552  	-0.013182 
3853.774368  	-0.003911 
3855.703184  	-0.004009 
3857.632000  	-0.007287 
3859.560816  	-0.009554 
3861.489632  	-0.010247 
3863.418448  	-0.009427 
3865.347264  	-0.007290 
3867.276080  	-0.009940 
3869.204896  	-0.009632 
3871.133712  	-0.006656 
3873.062528  	-0.008629 
3874.991344  	-0.007040 
3876.920160  	-0.009244 
3878.848976  	-0.010452 
3880.777792  	-0.007621 
3882.706608  	-0.008621 
3884.635424  	-0.009291 
3886.564240  	-0.006247 
3888.493056  	-0.009332 
3890.421872  	-0.009881 
3892.350688  	-0.007273 
3894.279504  	-0.008041 
3896.208320  	-0.010141 
3898.137136  	-0.010508 
3900.065952  	-0.008907 
3901.994768  	-0.008271 
3903.923584  	-0.006483 
3905.852400  	-0.005779 
3907.781216  	-0.007820 
3909.710032  	-0.008930 
3911.638848  	-0.008867 
3913.567664  	-0.009165 
3915.496480  	-0.009252 
3917.425296  	-0.007932 
3919.354112  	-0.007865 
3921.282928  	-0.008596 
3923.211744  	-0.009215 
3925.140560  	-0.007953 
3927.069376  	-0.008662 
3928.998192  	-0.009409 
3930.927008  	-0.008459 
3932.855824  	-0.007270 
3934.784640  	-0.007853 
3936.713456  	-0.008590 
3938.642272  	-0.008753 
3940.571088  	-0.009358 
3942.499904  	-0.008359 
3944.428720  	-0.007990 
3946.357536  	-0.009150 
3948.286352  	-0.008755 
3950.215168  	-0.008061 
3952.143984  	-0.008387 
3954.072800  	-0.008731 
3956.001616  	-0.008870 
3957.930432  	-0.008923 
3959.859248  	-0.008936 
3961.788064  	-0.008459 
3963.716880  	-0.008047 
3965.645696  	-0.008380 
3967.574512  	-0.008638 
3969.503328  	-0.008592 
3971.432144  	-0.008693 
3973.360960  	-0.008744 
3975.289776  	-0.008609 
3977.218592  	-0.008615 
3979.147408  	-0.008568 
3981.076224  	-0.008497 
3983.005040  	-0.008435 
3984.933856  	-0.008513 
3986.862672  	-0.008790 
3988.791488  	-0.008870 
3990.720304  	-0.008659 
3992.649120  	-0.008743 
3994.577936  	-0.008732 
3996.506752  	-0.008758 
3998.435568  	-0.008778 
4000.364384  	-0.008740 