##TITLE=No Description
##DATA TYPE=INFRARED SPECTRUM
##XUNITS=1/CM
##YUNITS=Abs
399.264912  	0.213432 
401.193728  	0.220777 
403.122544  	0.212947 
405.051360  	0.200372 
406.980176  	0.198120 
408.908992  	0.198778 
410.837808  	0.198638 
412.766624  	0.198840 
414.695440  	0.198967 
416.624256  	0.198233 
418.553072  	0.197617 
420.481888  	0.196090 
422.410704  	0.196348 
424.339520  	0.191155 
426.268336  	0.192095 
428.197152  	0.200546 
430.125968  	0.202740 
432.054784  	0.195613 
433.983600  	0.191927 
435.912416  	0.187841 
437.841232  	0.187211 
439.770048  	0.188668 
441.698864  	0.187778 
443.627680  	0.183223 
445.556496  	0.182858 
447.485312  	0.185200 
449.414128  	0.192158 
451.342944  	0.194443 
453.271760  	0.191171 
455.200576  	0.185308 
457.129392  	0.185026 
459.058208  	0.187899 
460.987024  	0.190505 
462.915840  	0.191866 
464.844656  	0.195197 
466.773472  	0.196165 
468.702288  	0.198865 
470.631104  	0.199996 
472.559920  	0.202376 
474.488736  	0.202034 
476.417552  	0.201542 
478.346368  	0.201114 
480.275184  	0.206068 
482.204000  	0.207333 
484.132816  	0.205991 
486.061632  	0.207718 
487.990448  	0.208415 
489.919264  	0.207372 
491.848080  	0.209954 
493.776896  	0.210742 
495.705712  	0.210028 
497.634528  	0.209607 
499.563344  	0.210317 
501.492160  	0.210398 
503.420976  	0.210379 
505.349792  	0.210392 
507.278608  	0.211240 
509.207424  	0.211554 
511.136240  	0.214100 
513.065056  	0.215631 
514.993872  	0.219539 
516.922688  	0.222852 
518.851504  	0.225829 
520.780320  	0.226899 
522.709136  	0.228719 
524.637952  	0.228278 
526.566768  	0.228653 
528.495584  	0.229545 
530.424400  	0.230560 
532.353216  	0.230268 
534.282032  	0.228583 
536.210848  	0.225482 
538.139664  	0.222189 
540.068480  	0.219650 
541.997296  	0.217576 
543.926112  	0.215831 
545.854928  	0.215237 
547.783744  	0.215030 
549.712560  	0.214713 
551.641376  	0.212423 
553.570192  	0.210791 
555.499008  	0.208625 
557.427824  	0.207209 
559.356640  	0.206179 
561.285456  	0.205546 
563.214272  	0.204425 
565.143088  	0.202566 
567.071904  	0.199736 
569.000720  	0.197982 
570.929536  	0.196340 
572.858352  	0.195113 
574.787168  	0.193686 
576.715984  	0.193367 
578.644800  	0.192029 
580.573616  	0.189772 
582.502432  	0.186938 
584.431248  	0.183551 
586.360064  	0.179661 
588.288880  	0.177404 
590.217696  	0.176060 
592.146512  	0.174785 
594.075328  	0.174057 
596.004144  	0.173242 
597.932960  	0.172160 
599.861776  	0.171956 
601.790592  	0.171408 
603.719408  	0.171004 
605.648224  	0.170563 
607.577040  	0.170270 
609.505856  	0.169416 
611.434672  	0.169033 
613.363488  	0.169011 
615.292304  	0.168844 
617.221120  	0.168143 
619.149936  	0.167641 
621.078752  	0.166715 
623.007568  	0.166510 
624.936384  	0.166486 
626.865200  	0.166234 
628.794016  	0.166361 
630.722832  	0.166953 
632.651648  	0.167288 
634.580464  	0.168200 
636.509280  	0.169630 
638.438096  	0.170184 
640.366912  	0.170203 
642.295728  	0.170069 
644.224544  	0.169149 
646.153360  	0.168528 
648.082176  	0.166637 
650.010992  	0.164769 
651.939808  	0.162047 
653.868624  	0.160195 
655.797440  	0.158022 
657.726256  	0.156388 
659.655072  	0.154277 
661.583888  	0.151602 
663.512704  	0.149282 
665.441520  	0.145584 
667.370336  	0.142687 
669.299152  	0.142708 
671.227968  	0.138893 
673.156784  	0.135895 
675.085600  	0.134355 
677.014416  	0.132793 
678.943232  	0.131403 
680.872048  	0.130254 
682.800864  	0.129308 
684.729680  	0.128906 
686.658496  	0.128080 
688.587312  	0.127735 
690.516128  	0.126904 
692.444944  	0.126398 
694.373760  	0.125738 
696.302576  	0.125363 
698.231392  	0.124229 
700.160208  	0.123072 
702.089024  	0.121878 
704.017840  	0.120400 
705.946656  	0.118570 
707.875472  	0.117179 
709.804288  	0.116011 
711.733104  	0.115053 
713.661920  	0.114159 
715.590736  	0.113666 
717.519552  	0.113752 
719.448368  	0.114526 
721.377184  	0.115799 
723.306000  	0.117024 
725.234816  	0.118230 
727.163632  	0.118661 
729.092448  	0.117575 
731.021264  	0.115535 
732.950080  	0.113515 
734.878896  	0.111517 
736.807712  	0.108941 
738.736528  	0.107275 
740.665344  	0.105935 
742.594160  	0.105222 
744.522976  	0.104755 
746.451792  	0.104454 
748.380608  	0.103773 
750.309424  	0.103264 
752.238240  	0.102956 
754.167056  	0.103228 
756.095872  	0.102824 
758.024688  	0.102128 
759.953504  	0.102295 
761.882320  	0.103476 
763.811136  	0.104451 
765.739952  	0.103491 
767.668768  	0.101746 
769.597584  	0.100419 
771.526400  	0.100467 
773.455216  	0.102009 
775.384032  	0.105609 
777.312848  	0.110971 
779.241664  	0.114830 
781.170480  	0.115150 
783.099296  	0.112148 
785.028112  	0.108537 
786.956928  	0.104843 
788.885744  	0.101826 
790.814560  	0.099458 
792.743376  	0.098550 
794.672192  	0.098526 
796.601008  	0.097948 
798.529824  	0.095880 
800.458640  	0.092871 
802.387456  	0.090551 
804.316272  	0.089614 
806.245088  	0.089277 
808.173904  	0.089154 
810.102720  	0.089445 
812.031536  	0.089664 
813.960352  	0.090228 
815.889168  	0.091261 
817.817984  	0.092230 
819.746800  	0.093221 
821.675616  	0.094353 
823.604432  	0.095910 
825.533248  	0.096985 
827.462064  	0.097637 
829.390880  	0.097839 
831.319696  	0.098166 
833.248512  	0.097928 
835.177328  	0.097118 
837.106144  	0.095518 
839.034960  	0.093954 
840.963776  	0.091774 
842.892592  	0.089169 
844.821408  	0.086319 
846.750224  	0.083902 
848.679040  	0.082350 
850.607856  	0.081189 
852.536672  	0.080446 
854.465488  	0.079426 
856.394304  	0.078950 
858.323120  	0.078534 
860.251936  	0.077893 
862.180752  	0.076973 
864.109568  	0.075643 
866.038384  	0.074175 
867.967200  	0.072774 
869.896016  	0.071833 
871.824832  	0.070969 
873.753648  	0.070692 
875.682464  	0.070903 
877.611280  	0.072010 
879.540096  	0.074113 
881.468912  	0.077198 
883.397728  	0.080339 
885.326544  	0.083014 
887.255360  	0.084889 
889.184176  	0.085613 
891.112992  	0.085697 
893.041808  	0.085231 
894.970624  	0.083829 
896.899440  	0.081541 
898.828256  	0.078614 
900.757072  	0.075261 
902.685888  	0.072223 
904.614704  	0.070914 
906.543520  	0.070985 
908.472336  	0.072329 
910.401152  	0.074370 
912.329968  	0.076676 
914.258784  	0.079233 
916.187600  	0.081554 
918.116416  	0.083299 
920.045232  	0.084834 
921.974048  	0.085893 
923.902864  	0.086714 
925.831680  	0.087458 
927.760496  	0.088349 
929.689312  	0.089133 
931.618128  	0.089911 
933.546944  	0.090672 
935.475760  	0.091225 
937.404576  	0.091111 
939.333392  	0.090525 
941.262208  	0.090234 
943.191024  	0.090938 
945.119840  	0.093104 
947.048656  	0.096881 
948.977472  	0.102398 
950.906288  	0.109606 
952.835104  	0.118443 
954.763920  	0.128385 
956.692736  	0.138375 
958.621552  	0.147813 
960.550368  	0.154876 
962.479184  	0.159723 
964.408000  	0.161066 
966.336816  	0.158969 
968.265632  	0.153207 
970.194448  	0.144945 
972.123264  	0.134766 
974.052080  	0.123787 
975.980896  	0.112801 
977.909712  	0.102336 
979.838528  	0.092971 
981.767344  	0.085185 
983.696160  	0.079403 
985.624976  	0.075731 
987.553792  	0.074495 
989.482608  	0.075423 
991.411424  	0.078235 
993.340240  	0.082735 
995.269056  	0.087949 
997.197872  	0.093625 
999.126688  	0.098984 
1001.055504  	0.104476 
1002.984320  	0.109779 
1004.913136  	0.115431 
1006.841952  	0.120738 
1008.770768  	0.125711 
1010.699584  	0.129892 
1012.628400  	0.133271 
1014.557216  	0.135485 
1016.486032  	0.136823 
1018.414848  	0.137638 
1020.343664  	0.137659 
1022.272480  	0.137562 
1024.201296  	0.137425 
1026.130112  	0.136797 
1028.058928  	0.136686 
1029.987744  	0.137633 
1031.916560  	0.138973 
1033.845376  	0.140272 
1035.774192  	0.142166 
1037.703008  	0.144635 
1039.631824  	0.148909 
1041.560640  	0.155702 
1043.489456  	0.166069 
1045.418272  	0.178866 
1047.347088  	0.192762 
1049.275904  	0.204623 
1051.204720  	0.213299 
1053.133536  	0.217364 
1055.062352  	0.218451 
1056.991168  	0.217899 
1058.919984  	0.217296 
1060.848800  	0.216388 
1062.777616  	0.215576 
1064.706432  	0.214022 
1066.635248  	0.212113 
1068.564064  	0.209226 
1070.492880  	0.204811 
1072.421696  	0.199819 
1074.350512  	0.196643 
1076.279328  	0.195665 
1078.208144  	0.197758 
1080.136960  	0.201372 
1082.065776  	0.204597 
1083.994592  	0.205240 
1085.923408  	0.203271 
1087.852224  	0.198190 
1089.781040  	0.191790 
1091.709856  	0.183856 
1093.638672  	0.174829 
1095.567488  	0.164412 
1097.496304  	0.154068 
1099.425120  	0.143460 
1101.353936  	0.133220 
1103.282752  	0.123652 
1105.211568  	0.114585 
1107.140384  	0.106077 
1109.069200  	0.098439 
1110.998016  	0.091373 
1112.926832  	0.084635 
1114.855648  	0.078637 
1116.784464  	0.073091 
1118.713280  	0.067457 
1120.642096  	0.062081 
1122.570912  	0.057181 
1124.499728  	0.052901 
1126.428544  	0.049240 
1128.357360  	0.045971 
1130.286176  	0.042819 
1132.214992  	0.040628 
1134.143808  	0.038931 
1136.072624  	0.037375 
1138.001440  	0.035843 
1139.930256  	0.034665 
1141.859072  	0.033403 
1143.787888  	0.032038 
1145.716704  	0.030771 
1147.645520  	0.029779 
1149.574336  	0.029074 
1151.503152  	0.028652 
1153.431968  	0.028806 
1155.360784  	0.028957 
1157.289600  	0.029341 
1159.218416  	0.030067 
1161.147232  	0.031122 
1163.076048  	0.032223 
1165.004864  	0.033446 
1166.933680  	0.034682 
1168.862496  	0.035928 
1170.791312  	0.037533 
1172.720128  	0.039196 
1174.648944  	0.041300 
1176.577760  	0.043333 
1178.506576  	0.045518 
1180.435392  	0.047765 
1182.364208  	0.050267 
1184.293024  	0.053063 
1186.221840  	0.055947 
1188.150656  	0.059465 
1190.079472  	0.063607 
1192.008288  	0.068399 
1193.937104  	0.073730 
1195.865920  	0.079636 
1197.794736  	0.086343 
1199.723552  	0.093325 
1201.652368  	0.100562 
1203.581184  	0.107512 
1205.510000  	0.114148 
1207.438816  	0.120121 
1209.367632  	0.125542 
1211.296448  	0.129839 
1213.225264  	0.133431 
1215.154080  	0.135541 
1217.082896  	0.136927 
1219.011712  	0.137200 
1220.940528  	0.137090 
1222.869344  	0.136317 
1224.798160  	0.135009 
1226.726976  	0.132838 
1228.655792  	0.130479 
1230.584608  	0.127798 
1232.513424  	0.124632 
1234.442240  	0.120817 
1236.371056  	0.116823 
1238.299872  	0.112452 
1240.228688  	0.107463 
1242.157504  	0.102480 
1244.086320  	0.097662 
1246.015136  	0.092563 
1247.943952  	0.087365 
1249.872768  	0.082302 
1251.801584  	0.077778 
1253.730400  	0.073075 
1255.659216  	0.068655 
1257.588032  	0.064324 
1259.516848  	0.060261 
1261.445664  	0.056453 
1263.374480  	0.053017 
1265.303296  	0.050024 
1267.232112  	0.047554 
1269.160928  	0.045685 
1271.089744  	0.044515 
1273.018560  	0.044024 
1274.947376  	0.044033 
1276.876192  	0.044446 
1278.805008  	0.044809 
1280.733824  	0.044684 
1282.662640  	0.043699 
1284.591456  	0.042330 
1286.520272  	0.041020 
1288.449088  	0.040230 
1290.377904  	0.040371 
1292.306720  	0.040961 
1294.235536  	0.041388 
1296.164352  	0.041212 
1298.093168  	0.040057 
1300.021984  	0.038048 
1301.950800  	0.035946 
1303.879616  	0.033753 
1305.808432  	0.031345 
1307.737248  	0.028738 
1309.666064  	0.026347 
1311.594880  	0.024425 
1313.523696  	0.023099 
1315.452512  	0.022011 
1317.381328  	0.021425 
1319.310144  	0.021562 
1321.238960  	0.021848 
1323.167776  	0.022307 
1325.096592  	0.022868 
1327.025408  	0.023148 
1328.954224  	0.023086 
1330.883040  	0.022615 
1332.811856  	0.021720 
1334.740672  	0.020739 
1336.669488  	0.020076 
1338.598304  	0.019963 
1340.527120  	0.020188 
1342.455936  	0.019691 
1344.384752  	0.019439 
1346.313568  	0.019664 
1348.242384  	0.020219 
1350.171200  	0.021163 
1352.100016  	0.022320 
1354.028832  	0.023535 
1355.957648  	0.025012 
1357.886464  	0.026100 
1359.815280  	0.027078 
1361.744096  	0.028879 
1363.672912  	0.031681 
1365.601728  	0.032677 
1367.530544  	0.033500 
1369.459360  	0.034793 
1371.388176  	0.034757 
1373.316992  	0.034204 
1375.245808  	0.033896 
1377.174624  	0.032073 
1379.103440  	0.030174 
1381.032256  	0.028201 
1382.961072  	0.026561 
1384.889888  	0.024877 
1386.818704  	0.024274 
1388.747520  	0.023843 
1390.676336  	0.021924 
1392.605152  	0.019514 
1394.533968  	0.018835 
1396.462784  	0.019519 
1398.391600  	0.019315 
1400.320416  	0.019950 
1402.249232  	0.019437 
1404.178048  	0.019796 
1406.106864  	0.021016 
1408.035680  	0.021587 
1409.964496  	0.022472 
1411.893312  	0.024151 
1413.822128  	0.025354 
1415.750944  	0.026125 
1417.679760  	0.027082 
1419.608576  	0.029982 
1421.537392  	0.029705 
1423.466208  	0.028606 
1425.395024  	0.028310 
1427.323840  	0.026141 
1429.252656  	0.024442 
1431.181472  	0.023762 
1433.110288  	0.022990 
1435.039104  	0.021952 
1436.967920  	0.024726 
1438.896736  	0.026199 
1440.825552  	0.025926 
1442.754368  	0.026232 
1444.683184  	0.025946 
1446.612000  	0.025597 
1448.540816  	0.026629 
1450.469632  	0.026466 
1452.398448  	0.025819 
1454.327264  	0.024361 
1456.256080  	0.023623 
1458.184896  	0.027622 
1460.113712  	0.027716 
1462.042528  	0.025817 
1463.971344  	0.025027 
1465.900160  	0.027182 
1467.828976  	0.027350 
1469.757792  	0.026734 
1471.686608  	0.028035 
1473.615424  	0.034602 
1475.544240  	0.038165 
1477.473056  	0.041960 
1479.401872  	0.043587 
1481.330688  	0.046116 
1483.259504  	0.048022 
1485.188320  	0.048226 
1487.117136  	0.048278 
1489.045952  	0.049359 
1490.974768  	0.050697 
1492.903584  	0.048012 
1494.832400  	0.043440 
1496.761216  	0.040384 
1498.690032  	0.037488 
1500.618848  	0.034310 
1502.547664  	0.029882 
1504.476480  	0.024401 
1506.405296  	0.022202 
1508.334112  	0.026341 
1510.262928  	0.024068 
1512.191744  	0.022335 
1514.120560  	0.020690 
1516.049376  	0.020031 
1517.978192  	0.021682 
1519.907008  	0.020959 
1521.835824  	0.025429 
1523.764640  	0.028524 
1525.693456  	0.030372 
1527.622272  	0.032869 
1529.551088  	0.032661 
1531.479904  	0.030267 
1533.408720  	0.029277 
1535.337536  	0.027993 
1537.266352  	0.022910 
1539.195168  	0.018751 
1541.123984  	0.020295 
1543.052800  	0.020648 
1544.981616  	0.020694 
1546.910432  	0.019517 
1548.839248  	0.017947 
1550.768064  	0.018584 
1552.696880  	0.017174 
1554.625696  	0.017112 
1556.554512  	0.014585 
1558.483328  	0.014874 
1560.412144  	0.025347 
1562.340960  	0.024040 
1564.269776  	0.024437 
1566.198592  	0.027000 
1568.127408  	0.027406 
1570.056224  	0.033370 
1571.985040  	0.036542 
1573.913856  	0.035726 
1575.842672  	0.038022 
1577.771488  	0.043210 
1579.700304  	0.041777 
1581.629120  	0.040805 
1583.557936  	0.040192 
1585.486752  	0.040436 
1587.415568  	0.041302 
1589.344384  	0.043684 
1591.273200  	0.046742 
1593.202016  	0.050604 
1595.130832  	0.055107 
1597.059648  	0.060041 
1598.988464  	0.063595 
1600.917280  	0.066966 
1602.846096  	0.069602 
1604.774912  	0.071363 
1606.703728  	0.071050 
1608.632544  	0.071000 
1610.561360  	0.069974 
1612.490176  	0.067978 
1614.418992  	0.063612 
1616.347808  	0.063893 
1618.276624  	0.068189 
1620.205440  	0.066696 
1622.134256  	0.066110 
1624.063072  	0.072654 
1625.991888  	0.075052 
1627.920704  	0.079772 
1629.849520  	0.085998 
1631.778336  	0.088107 
1633.707152  	0.087987 
1635.635968  	0.096937 
1637.564784  	0.108540 
1639.493600  	0.109212 
1641.422416  	0.110575 
1643.351232  	0.109852 
1645.280048  	0.107644 
1647.208864  	0.115184 
1649.137680  	0.116820 
1651.066496  	0.107964 
1652.995312  	0.110552 
1654.924128  	0.122794 
1656.852944  	0.116556 
1658.781760  	0.112754 
1660.710576  	0.109250 
1662.639392  	0.108971 
1664.568208  	0.108722 
1666.497024  	0.102968 
1668.425840  	0.098721 
1670.354656  	0.099542 
1672.283472  	0.096634 
1674.212288  	0.091939 
1676.141104  	0.093451 
1678.069920  	0.090416 
1679.998736  	0.087808 
1681.927552  	0.083852 
1683.856368  	0.084404 
1685.785184  	0.092385 
1687.714000  	0.088866 
1689.642816  	0.088815 
1691.571632  	0.088437 
1693.500448  	0.084485 
1695.429264  	0.083583 
1697.358080  	0.085959 
1699.286896  	0.082495 
1701.215712  	0.089479 
1703.144528  	0.085588 
1705.073344  	0.082934 
1707.002160  	0.083092 
1708.930976  	0.080289 
1710.859792  	0.076262 
1712.788608  	0.070911 
1714.717424  	0.064792 
1716.646240  	0.059163 
1718.575056  	0.055122 
1720.503872  	0.048277 
1722.432688  	0.041019 
1724.361504  	0.034865 
1726.290320  	0.028934 
1728.219136  	0.023319 
1730.147952  	0.018699 
1732.076768  	0.013882 
1734.005584  	0.012331 
1735.934400  	0.011531 
1737.863216  	0.008005 
1739.792032  	0.006518 
1741.720848  	0.005636 
1743.649664  	0.004639 
1745.578480  	0.003345 
1747.507296  	0.002008 
1749.436112  	0.001698 
1751.364928  	0.002511 
1753.293744  	0.002053 
1755.222560  	0.000469 
1757.151376  	0.000814 
1759.080192  	0.000200 
1761.009008  	-0.000155 
1762.937824  	0.000545 
1764.866640  	-0.000248 
1766.795456  	-0.001180 
1768.724272  	-0.001257 
1770.653088  	-0.003011 
1772.581904  	-0.001881 
1774.510720  	-0.000876 
1776.439536  	-0.001195 
1778.368352  	-0.001730 
1780.297168  	-0.001815 
1782.225984  	-0.001740 
1784.154800  	-0.001783 
1786.083616  	-0.001607 
1788.012432  	-0.002321 
1789.941248  	-0.003173 
1791.870064  	-0.002506 
1793.798880  	-0.001709 
1795.727696  	-0.002235 
1797.656512  	-0.003003 
1799.585328  	-0.003401 
1801.514144  	-0.002579 
1803.442960  	-0.002454 
1805.371776  	-0.002991 
1807.300592  	-0.003189 
1809.229408  	-0.003335 
1811.158224  	-0.003071 
1813.087040  	-0.003070 
1815.015856  	-0.003492 
1816.944672  	-0.003390 
1818.873488  	-0.003259 
1820.802304  	-0.003435 
1822.731120  	-0.003805 
1824.659936  	-0.003705 
1826.588752  	-0.003532 
1828.517568  	-0.004353 
1830.446384  	-0.003118 
1832.375200  	-0.002938 
1834.304016  	-0.003404 
1836.232832  	-0.003424 
1838.161648  	-0.003349 
1840.090464  	-0.003702 
1842.019280  	-0.004444 
1843.948096  	-0.004018 
1845.876912  	-0.003047 
1847.805728  	-0.002962 
1849.734544  	-0.002813 
1851.663360  	-0.003378 
1853.592176  	-0.003616 
1855.520992  	-0.003897 
1857.449808  	-0.003602 
1859.378624  	-0.003429 
1861.307440  	-0.003242 
1863.236256  	-0.003666 
1865.165072  	-0.004347 
1867.093888  	-0.004660 
1869.022704  	-0.003363 
1870.951520  	-0.003037 
1872.880336  	-0.003768 
1874.809152  	-0.003949 
1876.737968  	-0.003706 
1878.666784  	-0.003811 
1880.595600  	-0.003842 
1882.524416  	-0.003905 
1884.453232  	-0.003912 
1886.382048  	-0.004215 
1888.310864  	-0.004028 
1890.239680  	-0.003297 
1892.168496  	-0.003645 
1894.097312  	-0.004508 
1896.026128  	-0.004083 
1897.954944  	-0.003629 
1899.883760  	-0.003497 
1901.812576  	-0.003585 
1903.741392  	-0.003630 
1905.670208  	-0.003838 
1907.599024  	-0.003857 
1909.527840  	-0.003613 
1911.456656  	-0.003450 
1913.385472  	-0.003490 
1915.314288  	-0.004081 
1917.243104  	-0.004436 
1919.171920  	-0.003500 
1921.100736  	-0.003357 
1923.029552  	-0.002930 
1924.958368  	-0.003756 
1926.887184  	-0.004560 
1928.816000  	-0.004329 
1930.744816  	-0.004106 
1932.673632  	-0.004457 
1934.602448  	-0.004488 
1936.531264  	-0.004328 
1938.460080  	-0.004938 
1940.388896  	-0.006181 
1942.317712  	-0.005458 
1944.246528  	-0.004523 
1946.175344  	-0.004282 
1948.104160  	-0.004219 
1950.032976  	-0.004950 
1951.961792  	-0.005184 
1953.890608  	-0.004091 
1955.819424  	-0.004023 
1957.748240  	-0.004639 
1959.677056  	-0.005889 
1961.605872  	-0.006626 
1963.534688  	-0.006780 
1965.463504  	-0.006210 
1967.392320  	-0.006519 
1969.321136  	-0.006314 
1971.249952  	-0.006635 
1973.178768  	-0.007030 
1975.107584  	-0.006727 
1977.036400  	-0.006143 
1978.965216  	-0.005687 
1980.894032  	-0.005450 
1982.822848  	-0.006314 
1984.751664  	-0.005434 
1986.680480  	-0.005200 
1988.609296  	-0.005087 
1990.538112  	-0.004898 
1992.466928  	-0.004840 
1994.395744  	-0.006352 
1996.324560  	-0.006140 
1998.253376  	-0.005214 
2000.182192  	-0.005072 
2002.111008  	-0.005570 
2004.039824  	-0.005676 
2005.968640  	-0.006060 
2007.897456  	-0.005941 
2009.826272  	-0.004766 
2011.755088  	-0.004827 
2013.683904  	-0.005376 
2015.612720  	-0.005110 
2017.541536  	-0.004214 
2019.470352  	-0.003894 
2021.399168  	-0.003708 
2023.327984  	-0.002746 
2025.256800  	-0.003341 
2027.185616  	-0.003706 
2029.114432  	-0.003570 
2031.043248  	-0.003835 
2032.972064  	-0.003759 
2034.900880  	-0.003126 
2036.829696  	-0.003479 
2038.758512  	-0.002303 
2040.687328  	-0.002369 
2042.616144  	-0.002784 
2044.544960  	-0.002958 
2046.473776  	-0.003204 
2048.402592  	-0.002834 
2050.331408  	-0.002628 
2052.260224  	-0.004094 
2054.189040  	-0.004692 
2056.117856  	-0.003669 
2058.046672  	-0.002798 
2059.975488  	-0.003334 
2061.904304  	-0.003675 
2063.833120  	-0.003912 
2065.761936  	-0.003734 
2067.690752  	-0.003775 
2069.619568  	-0.003751 
2071.548384  	-0.003908 
2073.477200  	-0.003959 
2075.406016  	-0.003786 
2077.334832  	-0.003467 
2079.263648  	-0.003088 
2081.192464  	-0.002772 
2083.121280  	-0.003599 
2085.050096  	-0.004150 
2086.978912  	-0.003691 
2088.907728  	-0.003224 
2090.836544  	-0.003878 
2092.765360  	-0.004375 
2094.694176  	-0.004191 
2096.622992  	-0.003440 
2098.551808  	-0.003024 
2100.480624  	-0.003647 
2102.409440  	-0.003933 
2104.338256  	-0.003552 
2106.267072  	-0.003294 
2108.195888  	-0.003217 
2110.124704  	-0.003452 
2112.053520  	-0.003655 
2113.982336  	-0.003614 
2115.911152  	-0.003214 
2117.839968  	-0.002754 
2119.768784  	-0.002924 
2121.697600  	-0.003712 
2123.626416  	-0.003855 
2125.555232  	-0.004162 
2127.484048  	-0.004826 
2129.412864  	-0.005316 
2131.341680  	-0.005200 
2133.270496  	-0.004904 
2135.199312  	-0.004624 
2137.128128  	-0.004777 
2139.056944  	-0.004494 
2140.985760  	-0.004444 
2142.914576  	-0.004356 
2144.843392  	-0.004142 
2146.772208  	-0.004234 
2148.701024  	-0.003973 
2150.629840  	-0.004054 
2152.558656  	-0.004415 
2154.487472  	-0.004268 
2156.416288  	-0.004317 
2158.345104  	-0.001983 
2160.273920  	0.000325 
2162.202736  	0.000481 
2164.131552  	0.000384 
2166.060368  	0.000265 
2167.989184  	-0.000561 
2169.918000  	-0.001353 
2171.846816  	-0.002133 
2173.775632  	-0.002903 
2175.704448  	-0.003453 
2177.633264  	-0.003976 
2179.562080  	-0.004011 
2181.490896  	-0.003004 
2183.419712  	-0.002644 
2185.348528  	-0.003062 
2187.277344  	-0.002934 
2189.206160  	-0.002408 
2191.134976  	-0.001591 
2193.063792  	-0.000818 
2194.992608  	-0.001080 
2196.921424  	-0.001484 
2198.850240  	-0.002071 
2200.779056  	-0.001962 
2202.707872  	-0.001932 
2204.636688  	-0.001947 
2206.565504  	-0.001541 
2208.494320  	-0.001079 
2210.423136  	-0.001973 
2212.351952  	-0.002875 
2214.280768  	-0.002295 
2216.209584  	-0.001450 
2218.138400  	-0.001967 
2220.067216  	-0.002029 
2221.996032  	-0.002298 
2223.924848  	-0.002396 
2225.853664  	-0.002549 
2227.782480  	-0.002337 
2229.711296  	-0.002079 
2231.640112  	-0.002799 
2233.568928  	-0.003146 
2235.497744  	-0.002417 
2237.426560  	-0.002503 
2239.355376  	-0.002914 
2241.284192  	-0.003161 
2243.213008  	-0.003360 
2245.141824  	-0.003005 
2247.070640  	-0.002203 
2248.999456  	-0.002960 
2250.928272  	-0.003467 
2252.857088  	-0.003128 
2254.785904  	-0.003015 
2256.714720  	-0.002695 
2258.643536  	-0.002903 
2260.572352  	-0.003322 
2262.501168  	-0.002883 
2264.429984  	-0.002823 
2266.358800  	-0.002908 
2268.287616  	-0.002556 
2270.216432  	-0.002334 
2272.145248  	-0.002533 
2274.074064  	-0.002508 
2276.002880  	-0.002507 
2277.931696  	-0.002439 
2279.860512  	-0.002174 
2281.789328  	-0.001752 
2283.718144  	-0.001829 
2285.646960  	-0.002045 
2287.575776  	-0.001925 
2289.504592  	-0.001596 
2291.433408  	-0.001595 
2293.362224  	-0.001562 
2295.291040  	-0.001244 
2297.219856  	-0.001088 
2299.148672  	-0.000901 
2301.077488  	-0.000547 
2303.006304  	-0.000452 
2304.935120  	-0.000467 
2306.863936  	-0.000067 
2308.792752  	0.000208 
2310.721568  	0.000304 
2312.650384  	0.000554 
2314.579200  	0.000535 
2316.508016  	0.000361 
2318.436832  	0.000294 
2320.365648  	0.000681 
2322.294464  	0.001077 
2324.223280  	0.000778 
2326.152096  	-0.000737 
2328.080912  	-0.001263 
2330.009728  	-0.001097 
2331.938544  	-0.001147 
2333.867360  	-0.002101 
2335.796176  	-0.002633 
2337.724992  	-0.002254 
2339.653808  	-0.002178 
2341.582624  	-0.001914 
2343.511440  	-0.000946 
2345.440256  	0.000178 
2347.369072  	0.000291 
2349.297888  	-0.001135 
2351.226704  	-0.002033 
2353.155520  	-0.002231 
2355.084336  	-0.002396 
2357.013152  	-0.002208 
2358.941968  	-0.001798 
2360.870784  	-0.001170 
2362.799600  	-0.000926 
2364.728416  	-0.000945 
2366.657232  	-0.000427 
2368.586048  	0.000262 
2370.514864  	0.000863 
2372.443680  	0.001000 
2374.372496  	0.000858 
2376.301312  	0.000862 
2378.230128  	0.000846 
2380.158944  	0.000404 
2382.087760  	-0.000166 
2384.016576  	-0.000802 
2385.945392  	-0.001401 
2387.874208  	-0.001666 
2389.803024  	-0.001739 
2391.731840  	-0.001857 
2393.660656  	-0.002027 
2395.589472  	-0.001932 
2397.518288  	-0.001699 
2399.447104  	-0.001748 
2401.375920  	-0.001813 
2403.304736  	-0.001685 
2405.233552  	-0.001505 
2407.162368  	-0.001528 
2409.091184  	-0.001513 
2411.020000  	-0.001417 
2412.948816  	-0.001542 
2414.877632  	-0.001563 
2416.806448  	-0.001298 
2418.735264  	-0.001260 
2420.664080  	-0.001312 
2422.592896  	-0.001308 
2424.521712  	-0.001268 
2426.450528  	-0.001126 
2428.379344  	-0.000864 
2430.308160  	-0.000757 
2432.236976  	-0.000716 
2434.165792  	-0.000695 
2436.094608  	-0.000726 
2438.023424  	-0.000679 
2439.952240  	-0.000674 
2441.881056  	-0.000645 
2443.809872  	-0.000527 
2445.738688  	-0.000398 
2447.667504  	-0.000254 
2449.596320  	-0.000258 
2451.525136  	-0.000435 
2453.453952  	-0.000407 
2455.382768  	-0.000171 
2457.311584  	0.000042 
2459.240400  	-0.000112 
2461.169216  	-0.000241 
2463.098032  	-0.000284 
2465.026848  	-0.000382 
2466.955664  	-0.000324 
2468.884480  	-0.000209 
2470.813296  	-0.000063 
2472.742112  	-0.000013 
2474.670928  	-0.000042 
2476.599744  	0.000008 
2478.528560  	0.000182 
2480.457376  	0.000185 
2482.386192  	0.000181 
2484.315008  	0.000245 
2486.243824  	0.000247 
2488.172640  	0.000512 
2490.101456  	0.000728 
2492.030272  	0.000627 
2493.959088  	0.000584 
2495.887904  	0.000658 
2497.816720  	0.000920 
2499.745536  	0.001140 
2501.674352  	0.001277 
2503.603168  	0.001395 
2505.531984  	0.001189 
2507.460800  	0.001050 
2509.389616  	0.001184 
2511.318432  	0.001251 
2513.247248  	0.001325 
2515.176064  	0.001278 
2517.104880  	0.001431 
2519.033696  	0.001732 
2520.962512  	0.001678 
2522.891328  	0.001689 
2524.820144  	0.001964 
2526.748960  	0.001899 
2528.677776  	0.001860 
2530.606592  	0.002059 
2532.535408  	0.002147 
2534.464224  	0.001981 
2536.393040  	0.001952 
2538.321856  	0.002116 
2540.250672  	0.002087 
2542.179488  	0.002027 
2544.108304  	0.002179 
2546.037120  	0.002290 
2547.965936  	0.002469 
2549.894752  	0.002471 
2551.823568  	0.002385 
2553.752384  	0.002244 
2555.681200  	0.002129 
2557.610016  	0.002253 
2559.538832  	0.002599 
2561.467648  	0.002806 
2563.396464  	0.002709 
2565.325280  	0.002625 
2567.254096  	0.002757 
2569.182912  	0.003075 
2571.111728  	0.003486 
2573.040544  	0.003649 
2574.969360  	0.003567 
2576.898176  	0.003683 
2578.826992  	0.003810 
2580.755808  	0.003751 
2582.684624  	0.003828 
2584.613440  	0.003957 
2586.542256  	0.003973 
2588.471072  	0.003833 
2590.399888  	0.003816 
2592.328704  	0.004031 
2594.257520  	0.004227 
2596.186336  	0.004269 
2598.115152  	0.004254 
2600.043968  	0.004225 
2601.972784  	0.004219 
2603.901600  	0.004331 
2605.830416  	0.004542 
2607.759232  	0.004575 
2609.688048  	0.004434 
2611.616864  	0.004519 
2613.545680  	0.004804 
2615.474496  	0.005011 
2617.403312  	0.005114 
2619.332128  	0.005226 
2621.260944  	0.005172 
2623.189760  	0.005125 
2625.118576  	0.005313 
2627.047392  	0.005439 
2628.976208  	0.005527 
2630.905024  	0.005668 
2632.833840  	0.005873 
2634.762656  	0.006033 
2636.691472  	0.006146 
2638.620288  	0.006309 
2640.549104  	0.006422 
2642.477920  	0.006550 
2644.406736  	0.006570 
2646.335552  	0.006623 
2648.264368  	0.006710 
2650.193184  	0.006796 
2652.122000  	0.006896 
2654.050816  	0.006984 
2655.979632  	0.007036 
2657.908448  	0.007046 
2659.837264  	0.007158 
2661.766080  	0.007375 
2663.694896  	0.007355 
2665.623712  	0.007257 
2667.552528  	0.007420 
2669.481344  	0.007681 
2671.410160  	0.007898 
2673.338976  	0.007900 
2675.267792  	0.007790 
2677.196608  	0.007876 
2679.125424  	0.008071 
2681.054240  	0.008175 
2682.983056  	0.008236 
2684.911872  	0.008275 
2686.840688  	0.008379 
2688.769504  	0.008490 
2690.698320  	0.008580 
2692.627136  	0.008729 
2694.555952  	0.008812 
2696.484768  	0.008859 
2698.413584  	0.008970 
2700.342400  	0.009050 
2702.271216  	0.009170 
2704.200032  	0.009228 
2706.128848  	0.009227 
2708.057664  	0.009378 
2709.986480  	0.009530 
2711.915296  	0.009642 
2713.844112  	0.009731 
2715.772928  	0.009745 
2717.701744  	0.009676 
2719.630560  	0.009734 
2721.559376  	0.009980 
2723.488192  	0.010086 
2725.417008  	0.010226 
2727.345824  	0.010354 
2729.274640  	0.010341 
2731.203456  	0.010460 
2733.132272  	0.010641 
2735.061088  	0.010746 
2736.989904  	0.010826 
2738.918720  	0.011003 
2740.847536  	0.011116 
2742.776352  	0.011151 
2744.705168  	0.011158 
2746.633984  	0.011144 
2748.562800  	0.011227 
2750.491616  	0.011463 
2752.420432  	0.011601 
2754.349248  	0.011589 
2756.278064  	0.011536 
2758.206880  	0.011486 
2760.135696  	0.011566 
2762.064512  	0.011637 
2763.993328  	0.011642 
2765.922144  	0.011584 
2767.850960  	0.011641 
2769.779776  	0.011716 
2771.708592  	0.011684 
2773.637408  	0.011565 
2775.566224  	0.011487 
2777.495040  	0.011459 
2779.423856  	0.011406 
2781.352672  	0.011401 
2783.281488  	0.011507 
2785.210304  	0.011578 
2787.139120  	0.011599 
2789.067936  	0.011572 
2790.996752  	0.011521 
2792.925568  	0.011517 
2794.854384  	0.011421 
2796.783200  	0.011338 
2798.712016  	0.011381 
2800.640832  	0.011433 
2802.569648  	0.011459 
2804.498464  	0.011451 
2806.427280  	0.011396 
2808.356096  	0.011343 
2810.284912  	0.011326 
2812.213728  	0.011327 
2814.142544  	0.011358 
2816.071360  	0.011272 
2818.000176  	0.011322 
2819.928992  	0.011265 
2821.857808  	0.011261 
2823.786624  	0.011246 
2825.715440  	0.011132 
2827.644256  	0.010970 
2829.573072  	0.010944 
2831.501888  	0.010958 
2833.430704  	0.010765 
2835.359520  	0.010570 
2837.288336  	0.010498 
2839.217152  	0.010510 
2841.145968  	0.010390 
2843.074784  	0.010300 
2845.003600  	0.010245 
2846.932416  	0.010203 
2848.861232  	0.010171 
2850.790048  	0.010076 
2852.718864  	0.010055 
2854.647680  	0.010088 
2856.576496  	0.010001 
2858.505312  	0.009925 
2860.434128  	0.009854 
2862.362944  	0.009804 
2864.291760  	0.009723 
2866.220576  	0.009695 
2868.149392  	0.009726 
2870.078208  	0.009631 
2872.007024  	0.009630 
2873.935840  	0.009851 
2875.864656  	0.010083 
2877.793472  	0.010289 
2879.722288  	0.010423 
2881.651104  	0.010538 
2883.579920  	0.010515 
2885.508736  	0.010492 
2887.437552  	0.010663 
2889.366368  	0.010621 
2891.295184  	0.010461 
2893.224000  	0.010413 
2895.152816  	0.010456 
2897.081632  	0.010280 
2899.010448  	0.009786 
2900.939264  	0.009305 
2902.868080  	0.009434 
2904.796896  	0.009624 
2906.725712  	0.009711 
2908.654528  	0.009759 
2910.583344  	0.010002 
2912.512160  	0.010410 
2914.440976  	0.010877 
2916.369792  	0.011353 
2918.298608  	0.011578 
2920.227424  	0.011817 
2922.156240  	0.012132 
2924.085056  	0.012437 
2926.013872  	0.012949 
2927.942688  	0.013427 
2929.871504  	0.013866 
2931.800320  	0.014171 
2933.729136  	0.014542 
2935.657952  	0.015031 
2937.586768  	0.015352 
2939.515584  	0.015550 
2941.444400  	0.015882 
2943.373216  	0.016190 
2945.302032  	0.016202 
2947.230848  	0.016157 
2949.159664  	0.016141 
2951.088480  	0.015917 
2953.017296  	0.015676 
2954.946112  	0.015379 
2956.874928  	0.015196 
2958.803744  	0.014859 
2960.732560  	0.014337 
2962.661376  	0.013742 
2964.590192  	0.013358 
2966.519008  	0.012887 
2968.447824  	0.012150 
2970.376640  	0.011548 
2972.305456  	0.010981 
2974.234272  	0.010420 
2976.163088  	0.009907 
2978.091904  	0.009408 
2980.020720  	0.009071 
2981.949536  	0.008962 
2983.878352  	0.008997 
2985.807168  	0.009011 
2987.735984  	0.009133 
2989.664800  	0.009493 
2991.593616  	0.010360 
2993.522432  	0.010949 
2995.451248  	0.011300 
2997.380064  	0.011791 
2999.308880  	0.012151 
3001.237696  	0.012453 
3003.166512  	0.012679 
3005.095328  	0.012868 
3007.024144  	0.013167 
3008.952960  	0.013643 
3010.881776  	0.014030 
3012.810592  	0.014253 
3014.739408  	0.014427 
3016.668224  	0.014635 
3018.597040  	0.014979 
3020.525856  	0.015207 
3022.454672  	0.015502 
3024.383488  	0.015695 
3026.312304  	0.015902 
3028.241120  	0.016083 
3030.169936  	0.016301 
3032.098752  	0.016670 
3034.027568  	0.016949 
3035.956384  	0.017096 
3037.885200  	0.017171 
3039.814016  	0.017332 
3041.742832  	0.017537 
3043.671648  	0.017858 
3045.600464  	0.018159 
3047.529280  	0.018180 
3049.458096  	0.018295 
3051.386912  	0.018467 
3053.315728  	0.018410 
3055.244544  	0.018455 
3057.173360  	0.018963 
3059.102176  	0.019255 
3061.030992  	0.019367 
3062.959808  	0.019392 
3064.888624  	0.019634 
3066.817440  	0.020156 
3068.746256  	0.020579 
3070.675072  	0.020562 
3072.603888  	0.020638 
3074.532704  	0.020937 
3076.461520  	0.021112 
3078.390336  	0.021316 
3080.319152  	0.021717 
3082.247968  	0.022094 
3084.176784  	0.022376 
3086.105600  	0.022633 
3088.034416  	0.022859 
3089.963232  	0.023007 
3091.892048  	0.023230 
3093.820864  	0.023364 
3095.749680  	0.023741 
3097.678496  	0.024055 
3099.607312  	0.024230 
3101.536128  	0.024707 
3103.464944  	0.025025 
3105.393760  	0.025129 
3107.322576  	0.025286 
3109.251392  	0.025418 
3111.180208  	0.025560 
3113.109024  	0.025470 
3115.037840  	0.025431 
3116.966656  	0.025705 
3118.895472  	0.026040 
3120.824288  	0.025963 
3122.753104  	0.025945 
3124.681920  	0.026005 
3126.610736  	0.026137 
3128.539552  	0.026224 
3130.468368  	0.026031 
3132.397184  	0.025988 
3134.326000  	0.026147 
3136.254816  	0.026162 
3138.183632  	0.026127 
3140.112448  	0.026284 
3142.041264  	0.026337 
3143.970080  	0.026307 
3145.898896  	0.026254 
3147.827712  	0.026317 
3149.756528  	0.026463 
3151.685344  	0.026604 
3153.614160  	0.026682 
3155.542976  	0.026787 
3157.471792  	0.026985 
3159.400608  	0.027060 
3161.329424  	0.027037 
3163.258240  	0.027008 
3165.187056  	0.026952 
3167.115872  	0.027008 
3169.044688  	0.027216 
3170.973504  	0.027325 
3172.902320  	0.027161 
3174.831136  	0.026960 
3176.759952  	0.026895 
3178.688768  	0.027009 
3180.617584  	0.026982 
3182.546400  	0.026671 
3184.475216  	0.026408 
3186.404032  	0.026258 
3188.332848  	0.026166 
3190.261664  	0.025989 
3192.190480  	0.025631 
3194.119296  	0.025229 
3196.048112  	0.025028 
3197.976928  	0.025011 
3199.905744  	0.024876 
3201.834560  	0.024432 
3203.763376  	0.023937 
3205.692192  	0.023467 
3207.621008  	0.022950 
3209.549824  	0.022963 
3211.478640  	0.022915 
3213.407456  	0.022607 
3215.336272  	0.022561 
3217.265088  	0.021870 
3219.193904  	0.021673 
3221.122720  	0.021896 
3223.051536  	0.021640 
3224.980352  	0.021071 
3226.909168  	0.020669 
3228.837984  	0.020463 
3230.766800  	0.020351 
3232.695616  	0.020202 
3234.624432  	0.019985 
3236.553248  	0.019945 
3238.482064  	0.019870 
3240.410880  	0.019819 
3242.339696  	0.019567 
3244.268512  	0.019521 
3246.197328  	0.019844 
3248.126144  	0.019548 
3250.054960  	0.019547 
3251.983776  	0.019551 
3253.912592  	0.019722 
3255.841408  	0.019938 
3257.770224  	0.020117 
3259.699040  	0.020180 
3261.627856  	0.020244 
3263.556672  	0.020246 
3265.485488  	0.020493 
3267.414304  	0.020626 
3269.343120  	0.020575 
3271.271936  	0.020562 
3273.200752  	0.020683 
3275.129568  	0.021061 
3277.058384  	0.021246 
3278.987200  	0.021277 
3280.916016  	0.021303 
3282.844832  	0.021278 
3284.773648  	0.021252 
3286.702464  	0.021146 
3288.631280  	0.021078 
3290.560096  	0.021218 
3292.488912  	0.021817 
3294.417728  	0.022098 
3296.346544  	0.022064 
3298.275360  	0.022318 
3300.204176  	0.022380 
3302.132992  	0.022622 
3304.061808  	0.022887 
3305.990624  	0.022814 
3307.919440  	0.022846 
3309.848256  	0.023220 
3311.777072  	0.023462 
3313.705888  	0.023768 
3315.634704  	0.023833 
3317.563520  	0.023966 
3319.492336  	0.024148 
3321.421152  	0.023988 
3323.349968  	0.024001 
3325.278784  	0.024294 
3327.207600  	0.024568 
3329.136416  	0.024646 
3331.065232  	0.024543 
3332.994048  	0.024581 
3334.922864  	0.024661 
3336.851680  	0.024862 
3338.780496  	0.024976 
3340.709312  	0.024860 
3342.638128  	0.024700 
3344.566944  	0.024193 
3346.495760  	0.023853 
3348.424576  	0.023781 
3350.353392  	0.023842 
3352.282208  	0.023825 
3354.211024  	0.023549 
3356.139840  	0.023417 
3358.068656  	0.023255 
3359.997472  	0.022901 
3361.926288  	0.022657 
3363.855104  	0.022456 
3365.783920  	0.022544 
3367.712736  	0.022477 
3369.641552  	0.022354 
3371.570368  	0.022240 
3373.499184  	0.021947 
3375.428000  	0.021493 
3377.356816  	0.021504 
3379.285632  	0.021752 
3381.214448  	0.021724 
3383.143264  	0.021432 
3385.072080  	0.021466 
3387.000896  	0.021178 
3388.929712  	0.020671 
3390.858528  	0.020172 
3392.787344  	0.020572 
3394.716160  	0.020788 
3396.644976  	0.020703 
3398.573792  	0.020791 
3400.502608  	0.020403 
3402.431424  	0.020300 
3404.360240  	0.020213 
3406.289056  	0.019814 
3408.217872  	0.019607 
3410.146688  	0.019623 
3412.075504  	0.019450 
3414.004320  	0.019400 
3415.933136  	0.019192 
3417.861952  	0.018550 
3419.790768  	0.018374 
3421.719584  	0.018933 
3423.648400  	0.018824 
3425.577216  	0.018446 
3427.506032  	0.018301 
3429.434848  	0.018051 
3431.363664  	0.018021 
3433.292480  	0.018024 
3435.221296  	0.017666 
3437.150112  	0.017336 
3439.078928  	0.017125 
3441.007744  	0.016954 
3442.936560  	0.017158 
3444.865376  	0.016443 
3446.794192  	0.016868 
3448.723008  	0.017813 
3450.651824  	0.016566 
3452.580640  	0.015858 
3454.509456  	0.015834 
3456.438272  	0.015627 
3458.367088  	0.015200 
3460.295904  	0.015010 
3462.224720  	0.015113 
3464.153536  	0.014968 
3466.082352  	0.014520 
3468.011168  	0.014323 
3469.939984  	0.013699 
3471.868800  	0.013098 
3473.797616  	0.012886 
3475.726432  	0.013088 
3477.655248  	0.012509 
3479.584064  	0.011724 
3481.512880  	0.012064 
3483.441696  	0.012331 
3485.370512  	0.011224 
3487.299328  	0.010896 
3489.228144  	0.011164 
3491.156960  	0.010557 
3493.085776  	0.009769 
3495.014592  	0.009619 
3496.943408  	0.009743 
3498.872224  	0.009088 
3500.801040  	0.007987 
3502.729856  	0.008673 
3504.658672  	0.009639 
3506.587488  	0.008480 
3508.516304  	0.007703 
3510.445120  	0.008614 
3512.373936  	0.008286 
3514.302752  	0.007521 
3516.231568  	0.006910 
3518.160384  	0.006596 
3520.089200  	0.005971 
3522.018016  	0.005419 
3523.946832  	0.006218 
3525.875648  	0.005918 
3527.804464  	0.005881 
3529.733280  	0.006428 
3531.662096  	0.006127 
3533.590912  	0.004944 
3535.519728  	0.004811 
3537.448544  	0.005655 
3539.377360  	0.004789 
3541.306176  	0.003847 
3543.234992  	0.003108 
3545.163808  	0.004029 
3547.092624  	0.005399 
3549.021440  	0.004252 
3550.950256  	0.002517 
3552.879072  	0.003664 
3554.807888  	0.003765 
3556.736704  	0.002691 
3558.665520  	0.002056 
3560.594336  	0.001854 
3562.523152  	0.000788 
3564.451968  	-0.000851 
3566.380784  	0.001145 
3568.309600  	0.005809 
3570.238416  	0.003876 
3572.167232  	0.001188 
3574.096048  	0.000265 
3576.024864  	0.000130 
3577.953680  	-0.000051 
3579.882496  	-0.000132 
3581.811312  	-0.000753 
3583.740128  	-0.002729 
3585.668944  	-0.004038 
3587.597760  	-0.000016 
3589.526576  	0.001351 
3591.455392  	-0.002353 
3593.384208  	-0.003500 
3595.313024  	-0.002296 
3597.241840  	-0.002684 
3599.170656  	-0.003922 
3601.099472  	-0.003258 
3603.028288  	-0.003470 
3604.957104  	-0.005873 
3606.885920  	-0.006647 
3608.814736  	-0.004630 
3610.743552  	-0.006053 
3612.672368  	-0.007087 
3614.601184  	-0.006229 
3616.530000  	-0.008817 
3618.458816  	-0.008382 
3620.387632  	-0.004853 
3622.316448  	-0.006024 
3624.245264  	-0.008928 
3626.174080  	-0.012334 
3628.102896  	-0.011881 
3630.031712  	-0.004609 
3631.960528  	-0.007834 
3633.889344  	-0.009017 
3635.818160  	-0.009441 
3637.746976  	-0.010548 
3639.675792  	-0.011028 
3641.604608  	-0.011680 
3643.533424  	-0.012870 
3645.462240  	-0.016398 
3647.391056  	-0.017659 
3649.319872  	-0.013714 
3651.248688  	-0.008912 
3653.177504  	-0.012487 
3655.106320  	-0.014759 
3657.035136  	-0.012010 
3658.963952  	-0.012524 
3660.892768  	-0.013289 
3662.821584  	-0.013903 
3664.750400  	-0.014791 
3666.679216  	-0.017083 
3668.608032  	-0.018785 
3670.536848  	-0.014428 
3672.465664  	-0.016282 
3674.394480  	-0.018861 
3676.323296  	-0.011395 
3678.252112  	-0.012525 
3680.180928  	-0.013050 
3682.109744  	-0.013846 
3684.038560  	-0.014978 
3685.967376  	-0.017065 
3687.896192  	-0.017395 
3689.825008  	-0.014159 
3691.753824  	-0.012225 
3693.682640  	-0.012788 
3695.611456  	-0.013383 
3697.540272  	-0.013467 
3699.469088  	-0.014699 
3701.397904  	-0.013666 
3703.326720  	-0.012057 
3705.255536  	-0.013375 
3707.184352  	-0.015236 
3709.113168  	-0.016310 
3711.041984  	-0.014245 
3712.970800  	-0.010498 
3714.899616  	-0.011354 
3716.828432  	-0.013366 
3718.757248  	-0.013655 
3720.686064  	-0.014093 
3722.614880  	-0.013829 
3724.543696  	-0.013599 
3726.472512  	-0.012398 
3728.401328  	-0.012919 
3730.330144  	-0.016076 
3732.258960  	-0.016666 
3734.187776  	-0.014973 
3736.116592  	-0.010477 
3738.045408  	-0.010867 
3739.974224  	-0.013584 
3741.903040  	-0.016777 
3743.831856  	-0.016140 
3745.760672  	-0.011591 
3747.689488  	-0.015969 
3749.618304  	-0.016152 
3751.547120  	-0.011868 
3753.475936  	-0.010348 
3755.404752  	-0.013029 
3757.333568  	-0.013828 
3759.262384  	-0.012514 
3761.191200  	-0.011215 
3763.120016  	-0.013286 
3765.048832  	-0.012840 
3766.977648  	-0.012547 
3768.906464  	-0.013168 
3770.835280  	-0.010902 
3772.764096  	-0.011384 
3774.692912  	-0.012584 
3776.621728  	-0.013746 
3778.550544  	-0.013549 
3780.479360  	-0.011304 
3782.408176  	-0.012467 
3784.336992  	-0.012660 
3786.265808  	-0.011881 
3788.194624  	-0.012122 
3790.123440  	-0.012574 
3792.052256  	-0.013035 
3793.981072  	-0.014235 
3795.909888  	-0.013977 
3797.838704  	-0.013711 
3799.767520  	-0.015895 
3801.696336  	-0.012204 
3803.625152  	-0.011715 
3805.553968  	-0.014622 
3807.482784  	-0.011502 
3809.411600  	-0.011565 
3811.340416  	-0.013017 
3813.269232  	-0.015109 
3815.198048  	-0.015096 
3817.126864  	-0.012678 
3819.055680  	-0.016026 
3820.984496  	-0.013353 
3822.913312  	-0.010458 
3824.842128  	-0.013341 
3826.770944  	-0.012836 
3828.699760  	-0.013179 
3830.628576  	-0.014257 
3832.557392  	-0.013982 
3834.486208  	-0.015033 
3836.415024  	-0.015696 
3838.343840  	-0.013792 
3840.272656  	-0.012144 
3842.201472  	-0.012367 
3844.130288  	-0.011747 
3846.059104  	-0.012359 
3847.987920  	-0.014488 
3849.916736  	-0.017098 
3851.845552  	-0.018549 
3853.774368  	-0.010459 
3855.703184  	-0.009137 
3857.632000  	-0.011575 
3859.560816  	-0.013591 
3861.489632  	-0.014469 
3863.418448  	-0.013887 
3865.347264  	-0.011649 
3867.276080  	-0.014192 
3869.204896  	-0.014509 
3871.133712  	-0.011118 
3873.062528  	-0.012882 
3874.991344  	-0.011297 
3876.920160  	-0.013193 
3878.848976  	-0.014783 
3880.777792  	-0.012158 
3882.706608  	-0.012784 
3884.635424  	-0.013665 
3886.564240  	-0.010566 
3888.493056  	-0.013297 
3890.421872  	-0.014106 
3892.350688  	-0.011359 
3894.279504  	-0.011779 
3896.208320  	-0.014001 
3898.137136  	-0.014777 
3900.065952  	-0.013466 
3901.994768  	-0.012891 
3903.923584  	-0.011199 
3905.852400  	-0.010249 
3907.781216  	-0.011869 
3909.710032  	-0.012832 
3911.638848  	-0.012735 
3913.567664  	-0.013119 
3915.496480  	-0.013401 
3917.425296  	-0.012114 
3919.354112  	-0.012101 
3921.282928  	-0.012775 
3923.211744  	-0.013184 
3925.140560  	-0.011940 
3927.069376  	-0.012467 
3928.998192  	-0.013308 
3930.927008  	-0.012681 
3932.855824  	-0.011351 
3934.784640  	-0.011683 
3936.713456  	-0.012478 
3938.642272  	-0.012684 
3940.571088  	-0.013340 
3942.499904  	-0.012391 
3944.428720  	-0.011955 
3946.357536  	-0.012996 
3948.286352  	-0.012552 
3950.215168  	-0.011955 
3952.143984  	-0.012341 
3954.072800  	-0.012779 
3956.001616  	-0.012873 
3957.930432  	-0.012796 
3959.859248  	-0.012785 
3961.788064  	-0.012305 
3963.716880  	-0.011969 
3965.645696  	-0.012539 
3967.574512  	-0.012905 
3969.503328  	-0.012760 
3971.432144  	-0.012718 
3973.360960  	-0.012684 
3975.289776  	-0.012529 
3977.218592  	-0.012496 
3979.147408  	-0.012624 
3981.076224  	-0.012629 
3983.005040  	-0.012487 
3984.933856  	-0.012526 
3986.862672  	-0.012861 
3988.791488  	-0.012991 
3990.720304  	-0.012754 
3992.649120  	-0.012723 
3994.577936  	-0.012595 
3996.506752  	-0.012674 
3998.435568  	-0.012790 
4000.364384  	-0.012780 