##TITLE=No Description
##DATA TYPE=INFRARED SPECTRUM
##XUNITS=1/CM
##YUNITS=Abs
399.264912  	0.168864 
401.193728  	0.170709 
403.122544  	0.169442 
405.051360  	0.167826 
406.980176  	0.172437 
408.908992  	0.172136 
410.837808  	0.171879 
412.766624  	0.173399 
414.695440  	0.171107 
416.624256  	0.172119 
418.553072  	0.178657 
420.481888  	0.169395 
422.410704  	0.165963 
424.339520  	0.163705 
426.268336  	0.169131 
428.197152  	0.169894 
430.125968  	0.166366 
432.054784  	0.160548 
433.983600  	0.160663 
435.912416  	0.162285 
437.841232  	0.163836 
439.770048  	0.160255 
441.698864  	0.157847 
443.627680  	0.156452 
445.556496  	0.155184 
447.485312  	0.154371 
449.414128  	0.155916 
451.342944  	0.159457 
453.271760  	0.157252 
455.200576  	0.154783 
457.129392  	0.159434 
459.058208  	0.160457 
460.987024  	0.157790 
462.915840  	0.158453 
464.844656  	0.162784 
466.773472  	0.162219 
468.702288  	0.161482 
470.631104  	0.162032 
472.559920  	0.165159 
474.488736  	0.162454 
476.417552  	0.162237 
478.346368  	0.163502 
480.275184  	0.166117 
482.204000  	0.166111 
484.132816  	0.166280 
486.061632  	0.170344 
487.990448  	0.171524 
489.919264  	0.169160 
491.848080  	0.169713 
493.776896  	0.170739 
495.705712  	0.171208 
497.634528  	0.170907 
499.563344  	0.171950 
501.492160  	0.172676 
503.420976  	0.173109 
505.349792  	0.171194 
507.278608  	0.170799 
509.207424  	0.171517 
511.136240  	0.173510 
513.065056  	0.174835 
514.993872  	0.176481 
516.922688  	0.176861 
518.851504  	0.180045 
520.780320  	0.182072 
522.709136  	0.183726 
524.637952  	0.184559 
526.566768  	0.187506 
528.495584  	0.188662 
530.424400  	0.188234 
532.353216  	0.186651 
534.282032  	0.184995 
536.210848  	0.182412 
538.139664  	0.180057 
540.068480  	0.178476 
541.997296  	0.176854 
543.926112  	0.175682 
545.854928  	0.175213 
547.783744  	0.173603 
549.712560  	0.171940 
551.641376  	0.170599 
553.570192  	0.170105 
555.499008  	0.168836 
557.427824  	0.167595 
559.356640  	0.165984 
561.285456  	0.165723 
563.214272  	0.164345 
565.143088  	0.162306 
567.071904  	0.159998 
569.000720  	0.158674 
570.929536  	0.156808 
572.858352  	0.156074 
574.787168  	0.155808 
576.715984  	0.155341 
578.644800  	0.153505 
580.573616  	0.151540 
582.502432  	0.149601 
584.431248  	0.146874 
586.360064  	0.143700 
588.288880  	0.141850 
590.217696  	0.140404 
592.146512  	0.139275 
594.075328  	0.139295 
596.004144  	0.139025 
597.932960  	0.138019 
599.861776  	0.137062 
601.790592  	0.136204 
603.719408  	0.136100 
605.648224  	0.135899 
607.577040  	0.135326 
609.505856  	0.134637 
611.434672  	0.134692 
613.363488  	0.134147 
615.292304  	0.133603 
617.221120  	0.133599 
619.149936  	0.133510 
621.078752  	0.132527 
623.007568  	0.132649 
624.936384  	0.132778 
626.865200  	0.132331 
628.794016  	0.132155 
630.722832  	0.132211 
632.651648  	0.132558 
634.580464  	0.133057 
636.509280  	0.133768 
638.438096  	0.134042 
640.366912  	0.134478 
642.295728  	0.134467 
644.224544  	0.134024 
646.153360  	0.133399 
648.082176  	0.131656 
650.010992  	0.130416 
651.939808  	0.128425 
653.868624  	0.126877 
655.797440  	0.124680 
657.726256  	0.123016 
659.655072  	0.121101 
661.583888  	0.118754 
663.512704  	0.116774 
665.441520  	0.113443 
667.370336  	0.111265 
669.299152  	0.113053 
671.227968  	0.109320 
673.156784  	0.106559 
675.085600  	0.105349 
677.014416  	0.104156 
678.943232  	0.102991 
680.872048  	0.102208 
682.800864  	0.101641 
684.729680  	0.101411 
686.658496  	0.100833 
688.587312  	0.100285 
690.516128  	0.099343 
692.444944  	0.098886 
694.373760  	0.098367 
696.302576  	0.098374 
698.231392  	0.097464 
700.160208  	0.096439 
702.089024  	0.095325 
704.017840  	0.093794 
705.946656  	0.092188 
707.875472  	0.091228 
709.804288  	0.090172 
711.733104  	0.089053 
713.661920  	0.088476 
715.590736  	0.088385 
717.519552  	0.088534 
719.448368  	0.088897 
721.377184  	0.090075 
723.306000  	0.091033 
725.234816  	0.091947 
727.163632  	0.092294 
729.092448  	0.091580 
731.021264  	0.090168 
732.950080  	0.088529 
734.878896  	0.086889 
736.807712  	0.085121 
738.736528  	0.083962 
740.665344  	0.082777 
742.594160  	0.082156 
744.522976  	0.081587 
746.451792  	0.081585 
748.380608  	0.080985 
750.309424  	0.080667 
752.238240  	0.080355 
754.167056  	0.080349 
756.095872  	0.080132 
758.024688  	0.079590 
759.953504  	0.079507 
761.882320  	0.079787 
763.811136  	0.080905 
765.739952  	0.080799 
767.668768  	0.080024 
769.597584  	0.079307 
771.526400  	0.079475 
773.455216  	0.080821 
775.384032  	0.083411 
777.312848  	0.087268 
779.241664  	0.090444 
781.170480  	0.091362 
783.099296  	0.089404 
785.028112  	0.087085 
786.956928  	0.084327 
788.885744  	0.081957 
790.814560  	0.079665 
792.743376  	0.078558 
794.672192  	0.078772 
796.601008  	0.078862 
798.529824  	0.077426 
800.458640  	0.075032 
802.387456  	0.073133 
804.316272  	0.071944 
806.245088  	0.071429 
808.173904  	0.071488 
810.102720  	0.071728 
812.031536  	0.071721 
813.960352  	0.072392 
815.889168  	0.073515 
817.817984  	0.074100 
819.746800  	0.074581 
821.675616  	0.075384 
823.604432  	0.076250 
825.533248  	0.076781 
827.462064  	0.077121 
829.390880  	0.076974 
831.319696  	0.077141 
833.248512  	0.076706 
835.177328  	0.076124 
837.106144  	0.074755 
839.034960  	0.073544 
840.963776  	0.072190 
842.892592  	0.070649 
844.821408  	0.068730 
846.750224  	0.066956 
848.679040  	0.065770 
850.607856  	0.064694 
852.536672  	0.064121 
854.465488  	0.063527 
856.394304  	0.063118 
858.323120  	0.062516 
860.251936  	0.061975 
862.180752  	0.061160 
864.109568  	0.060036 
866.038384  	0.058847 
867.967200  	0.057668 
869.896016  	0.056839 
871.824832  	0.055785 
873.753648  	0.055281 
875.682464  	0.055035 
877.611280  	0.055824 
879.540096  	0.057454 
881.468912  	0.059758 
883.397728  	0.061916 
885.326544  	0.063692 
887.255360  	0.065212 
889.184176  	0.065814 
891.112992  	0.065861 
893.041808  	0.065432 
894.970624  	0.064391 
896.899440  	0.062596 
898.828256  	0.060609 
900.757072  	0.058720 
902.685888  	0.056943 
904.614704  	0.055954 
906.543520  	0.055919 
908.472336  	0.056876 
910.401152  	0.058325 
912.329968  	0.060272 
914.258784  	0.062485 
916.187600  	0.064397 
918.116416  	0.065735 
920.045232  	0.067183 
921.974048  	0.068107 
923.902864  	0.068512 
925.831680  	0.068790 
927.760496  	0.069196 
929.689312  	0.069578 
931.618128  	0.070196 
933.546944  	0.070703 
935.475760  	0.071014 
937.404576  	0.071187 
939.333392  	0.071068 
941.262208  	0.071015 
943.191024  	0.071683 
945.119840  	0.073529 
947.048656  	0.076428 
948.977472  	0.080552 
950.906288  	0.085852 
952.835104  	0.092092 
954.763920  	0.098860 
956.692736  	0.105408 
958.621552  	0.111536 
960.550368  	0.116112 
962.479184  	0.119285 
964.408000  	0.119889 
966.336816  	0.118228 
968.265632  	0.114058 
970.194448  	0.108235 
972.123264  	0.101166 
974.052080  	0.093244 
975.980896  	0.085203 
977.909712  	0.077576 
979.838528  	0.070773 
981.767344  	0.065153 
983.696160  	0.061297 
985.624976  	0.058781 
987.553792  	0.058062 
989.482608  	0.059004 
991.411424  	0.061415 
993.340240  	0.065177 
995.269056  	0.069429 
997.197872  	0.073922 
999.126688  	0.078272 
1001.055504  	0.082782 
1002.984320  	0.087106 
1004.913136  	0.091547 
1006.841952  	0.095356 
1008.770768  	0.098935 
1010.699584  	0.101783 
1012.628400  	0.104112 
1014.557216  	0.105659 
1016.486032  	0.106577 
1018.414848  	0.107161 
1020.343664  	0.107257 
1022.272480  	0.107251 
1024.201296  	0.106877 
1026.130112  	0.106079 
1028.058928  	0.105808 
1029.987744  	0.106402 
1031.916560  	0.107054 
1033.845376  	0.107243 
1035.774192  	0.107610 
1037.703008  	0.108400 
1039.631824  	0.110458 
1041.560640  	0.113968 
1043.489456  	0.120187 
1045.418272  	0.128675 
1047.347088  	0.138876 
1049.275904  	0.148720 
1051.204720  	0.156832 
1053.133536  	0.161968 
1055.062352  	0.164913 
1056.991168  	0.166262 
1058.919984  	0.167224 
1060.848800  	0.167203 
1062.777616  	0.166421 
1064.706432  	0.164554 
1066.635248  	0.162270 
1068.564064  	0.159765 
1070.492880  	0.156297 
1072.421696  	0.152413 
1074.350512  	0.149527 
1076.279328  	0.148065 
1078.208144  	0.148463 
1080.136960  	0.149774 
1082.065776  	0.151100 
1083.994592  	0.151316 
1085.923408  	0.150444 
1087.852224  	0.147370 
1089.781040  	0.143597 
1091.709856  	0.138732 
1093.638672  	0.132898 
1095.567488  	0.125850 
1097.496304  	0.118960 
1099.425120  	0.111527 
1101.353936  	0.103775 
1103.282752  	0.096508 
1105.211568  	0.089806 
1107.140384  	0.083393 
1109.069200  	0.077068 
1110.998016  	0.071167 
1112.926832  	0.065791 
1114.855648  	0.060985 
1116.784464  	0.056451 
1118.713280  	0.051977 
1120.642096  	0.047657 
1122.570912  	0.043565 
1124.499728  	0.040005 
1126.428544  	0.036873 
1128.357360  	0.034230 
1130.286176  	0.031737 
1132.214992  	0.029905 
1134.143808  	0.028245 
1136.072624  	0.026698 
1138.001440  	0.025312 
1139.930256  	0.024287 
1141.859072  	0.023053 
1143.787888  	0.021821 
1145.716704  	0.020808 
1147.645520  	0.020063 
1149.574336  	0.019404 
1151.503152  	0.018901 
1153.431968  	0.018986 
1155.360784  	0.019052 
1157.289600  	0.019320 
1159.218416  	0.019914 
1161.147232  	0.020792 
1163.076048  	0.021718 
1165.004864  	0.022754 
1166.933680  	0.023746 
1168.862496  	0.024740 
1170.791312  	0.025999 
1172.720128  	0.027315 
1174.648944  	0.029104 
1176.577760  	0.030588 
1178.506576  	0.032201 
1180.435392  	0.033953 
1182.364208  	0.035832 
1184.293024  	0.037890 
1186.221840  	0.040005 
1188.150656  	0.042599 
1190.079472  	0.045575 
1192.008288  	0.049222 
1193.937104  	0.053359 
1195.865920  	0.057954 
1197.794736  	0.063008 
1199.723552  	0.068376 
1201.652368  	0.073951 
1203.581184  	0.079339 
1205.510000  	0.084560 
1207.438816  	0.089251 
1209.367632  	0.093649 
1211.296448  	0.097063 
1213.225264  	0.100043 
1215.154080  	0.101730 
1217.082896  	0.102863 
1219.011712  	0.103248 
1220.940528  	0.103483 
1222.869344  	0.103155 
1224.798160  	0.102478 
1226.726976  	0.101164 
1228.655792  	0.099666 
1230.584608  	0.097925 
1232.513424  	0.095704 
1234.442240  	0.093136 
1236.371056  	0.090290 
1238.299872  	0.087018 
1240.228688  	0.083079 
1242.157504  	0.079292 
1244.086320  	0.075690 
1246.015136  	0.071602 
1247.943952  	0.067493 
1249.872768  	0.063542 
1251.801584  	0.059916 
1253.730400  	0.055998 
1255.659216  	0.052373 
1257.588032  	0.048947 
1259.516848  	0.045605 
1261.445664  	0.042374 
1263.374480  	0.039627 
1265.303296  	0.037245 
1267.232112  	0.035225 
1269.160928  	0.033726 
1271.089744  	0.032790 
1273.018560  	0.032360 
1274.947376  	0.032306 
1276.876192  	0.032509 
1278.805008  	0.032650 
1280.733824  	0.032422 
1282.662640  	0.031542 
1284.591456  	0.030442 
1286.520272  	0.029400 
1288.449088  	0.028653 
1290.377904  	0.028552 
1292.306720  	0.028786 
1294.235536  	0.028821 
1296.164352  	0.028408 
1298.093168  	0.027440 
1300.021984  	0.025731 
1301.950800  	0.024044 
1303.879616  	0.022366 
1305.808432  	0.020617 
1307.737248  	0.018715 
1309.666064  	0.017003 
1311.594880  	0.015654 
1313.523696  	0.014772 
1315.452512  	0.013988 
1317.381328  	0.013536 
1319.310144  	0.013676 
1321.238960  	0.013949 
1323.167776  	0.014354 
1325.096592  	0.014729 
1327.025408  	0.015044 
1328.954224  	0.015124 
1330.883040  	0.014732 
1332.811856  	0.013999 
1334.740672  	0.013126 
1336.669488  	0.012577 
1338.598304  	0.012662 
1340.527120  	0.012903 
1342.455936  	0.012280 
1344.384752  	0.011952 
1346.313568  	0.012071 
1348.242384  	0.012513 
1350.171200  	0.013334 
1352.100016  	0.014365 
1354.028832  	0.015477 
1355.957648  	0.016801 
1357.886464  	0.017775 
1359.815280  	0.018624 
1361.744096  	0.020135 
1363.672912  	0.022487 
1365.601728  	0.023124 
1367.530544  	0.023530 
1369.459360  	0.024332 
1371.388176  	0.023987 
1373.316992  	0.023290 
1375.245808  	0.022861 
1377.174624  	0.021167 
1379.103440  	0.019631 
1381.032256  	0.018035 
1382.961072  	0.016661 
1384.889888  	0.015095 
1386.818704  	0.014638 
1388.747520  	0.014433 
1390.676336  	0.012868 
1392.605152  	0.010659 
1394.533968  	0.009980 
1396.462784  	0.010796 
1398.391600  	0.010823 
1400.320416  	0.011668 
1402.249232  	0.011160 
1404.178048  	0.011479 
1406.106864  	0.012682 
1408.035680  	0.013213 
1409.964496  	0.014013 
1411.893312  	0.015518 
1413.822128  	0.016523 
1415.750944  	0.017014 
1417.679760  	0.017448 
1419.608576  	0.019993 
1421.537392  	0.019749 
1423.466208  	0.018688 
1425.395024  	0.018546 
1427.323840  	0.016644 
1429.252656  	0.015273 
1431.181472  	0.014921 
1433.110288  	0.014257 
1435.039104  	0.013157 
1436.967920  	0.015602 
1438.896736  	0.016743 
1440.825552  	0.016141 
1442.754368  	0.016138 
1444.683184  	0.015687 
1446.612000  	0.015232 
1448.540816  	0.016088 
1450.469632  	0.015966 
1452.398448  	0.015424 
1454.327264  	0.014010 
1456.256080  	0.013096 
1458.184896  	0.017102 
1460.113712  	0.017472 
1462.042528  	0.015951 
1463.971344  	0.015480 
1465.900160  	0.017875 
1467.828976  	0.018376 
1469.757792  	0.017923 
1471.686608  	0.019084 
1473.615424  	0.025229 
1475.544240  	0.028300 
1477.473056  	0.031423 
1479.401872  	0.032474 
1481.330688  	0.034288 
1483.259504  	0.035517 
1485.188320  	0.035074 
1487.117136  	0.034470 
1489.045952  	0.035027 
1490.974768  	0.036251 
1492.903584  	0.033725 
1494.832400  	0.029706 
1496.761216  	0.027553 
1498.690032  	0.025767 
1500.618848  	0.023471 
1502.547664  	0.019699 
1504.476480  	0.014575 
1506.405296  	0.012519 
1508.334112  	0.017150 
1510.262928  	0.015233 
1512.191744  	0.013738 
1514.120560  	0.012271 
1516.049376  	0.011496 
1517.978192  	0.012682 
1519.907008  	0.011802 
1521.835824  	0.015608 
1523.764640  	0.018139 
1525.693456  	0.019583 
1527.622272  	0.021802 
1529.551088  	0.021794 
1531.479904  	0.019741 
1533.408720  	0.019332 
1535.337536  	0.018645 
1537.266352  	0.013754 
1539.195168  	0.009461 
1541.123984  	0.011557 
1543.052800  	0.012316 
1544.981616  	0.012470 
1546.910432  	0.011381 
1548.839248  	0.009883 
1550.768064  	0.010481 
1552.696880  	0.009062 
1554.625696  	0.008727 
1556.554512  	0.006104 
1558.483328  	0.006042 
1560.412144  	0.016636 
1562.340960  	0.015365 
1564.269776  	0.015522 
1566.198592  	0.017714 
1568.127408  	0.017846 
1570.056224  	0.023278 
1571.985040  	0.026038 
1573.913856  	0.024712 
1575.842672  	0.026494 
1577.771488  	0.031388 
1579.700304  	0.029936 
1581.629120  	0.029026 
1583.557936  	0.028466 
1585.486752  	0.028636 
1587.415568  	0.029247 
1589.344384  	0.031106 
1591.273200  	0.033581 
1593.202016  	0.036665 
1595.130832  	0.040231 
1597.059648  	0.044040 
1598.988464  	0.046526 
1600.917280  	0.048736 
1602.846096  	0.050370 
1604.774912  	0.051369 
1606.703728  	0.050767 
1608.632544  	0.050537 
1610.561360  	0.049569 
1612.490176  	0.047773 
1614.418992  	0.043516 
1616.347808  	0.043997 
1618.276624  	0.048599 
1620.205440  	0.046853 
1622.134256  	0.046028 
1624.063072  	0.052051 
1625.991888  	0.053911 
1627.920704  	0.058000 
1629.849520  	0.063286 
1631.778336  	0.064156 
1633.707152  	0.062924 
1635.635968  	0.071041 
1637.564784  	0.081832 
1639.493600  	0.081511 
1641.422416  	0.082312 
1643.351232  	0.080943 
1645.280048  	0.078258 
1647.208864  	0.085875 
1649.137680  	0.087306 
1651.066496  	0.077478 
1652.995312  	0.080117 
1654.924128  	0.092933 
1656.852944  	0.086613 
1658.781760  	0.082852 
1660.710576  	0.079334 
1662.639392  	0.079555 
1664.568208  	0.080131 
1666.497024  	0.074715 
1668.425840  	0.071133 
1670.354656  	0.073487 
1672.283472  	0.071671 
1674.212288  	0.067747 
1676.141104  	0.070540 
1678.069920  	0.067788 
1679.998736  	0.065475 
1681.927552  	0.061637 
1683.856368  	0.062699 
1685.785184  	0.071344 
1687.714000  	0.067617 
1689.642816  	0.067518 
1691.571632  	0.067079 
1693.500448  	0.063038 
1695.429264  	0.061905 
1697.358080  	0.063610 
1699.286896  	0.059896 
1701.215712  	0.066758 
1703.144528  	0.062521 
1705.073344  	0.059565 
1707.002160  	0.059607 
1708.930976  	0.057000 
1710.859792  	0.053489 
1712.788608  	0.048821 
1714.717424  	0.043701 
1716.646240  	0.039532 
1718.575056  	0.037801 
1720.503872  	0.032821 
1722.432688  	0.027165 
1724.361504  	0.022784 
1726.290320  	0.018416 
1728.219136  	0.014141 
1730.147952  	0.010592 
1732.076768  	0.006648 
1734.005584  	0.005547 
1735.934400  	0.005379 
1737.863216  	0.002324 
1739.792032  	0.001173 
1741.720848  	0.000610 
1743.649664  	-0.000200 
1745.578480  	-0.001287 
1747.507296  	-0.002331 
1749.436112  	-0.002517 
1751.364928  	-0.001581 
1753.293744  	-0.001865 
1755.222560  	-0.003068 
1757.151376  	-0.002598 
1759.080192  	-0.003296 
1761.009008  	-0.003928 
1762.937824  	-0.003170 
1764.866640  	-0.003622 
1766.795456  	-0.004330 
1768.724272  	-0.004546 
1770.653088  	-0.006302 
1772.581904  	-0.005184 
1774.510720  	-0.004032 
1776.439536  	-0.004190 
1778.368352  	-0.004605 
1780.297168  	-0.004726 
1782.225984  	-0.004566 
1784.154800  	-0.004534 
1786.083616  	-0.004390 
1788.012432  	-0.005111 
1789.941248  	-0.005888 
1791.870064  	-0.005662 
1793.798880  	-0.004786 
1795.727696  	-0.004926 
1797.656512  	-0.005694 
1799.585328  	-0.006152 
1801.514144  	-0.005121 
1803.442960  	-0.005065 
1805.371776  	-0.005571 
1807.300592  	-0.005669 
1809.229408  	-0.005885 
1811.158224  	-0.005808 
1813.087040  	-0.005578 
1815.015856  	-0.005830 
1816.944672  	-0.005830 
1818.873488  	-0.005599 
1820.802304  	-0.005757 
1822.731120  	-0.006253 
1824.659936  	-0.006362 
1826.588752  	-0.006245 
1828.517568  	-0.007022 
1830.446384  	-0.005897 
1832.375200  	-0.005495 
1834.304016  	-0.005826 
1836.232832  	-0.005862 
1838.161648  	-0.005926 
1840.090464  	-0.006266 
1842.019280  	-0.006989 
1843.948096  	-0.006624 
1845.876912  	-0.005681 
1847.805728  	-0.005635 
1849.734544  	-0.005507 
1851.663360  	-0.005888 
1853.592176  	-0.006129 
1855.520992  	-0.006549 
1857.449808  	-0.006267 
1859.378624  	-0.005872 
1861.307440  	-0.005817 
1863.236256  	-0.006259 
1865.165072  	-0.006787 
1867.093888  	-0.007162 
1869.022704  	-0.006339 
1870.951520  	-0.005864 
1872.880336  	-0.006228 
1874.809152  	-0.006510 
1876.737968  	-0.006400 
1878.666784  	-0.006212 
1880.595600  	-0.006211 
1882.524416  	-0.006336 
1884.453232  	-0.006519 
1886.382048  	-0.006730 
1888.310864  	-0.006610 
1890.239680  	-0.006054 
1892.168496  	-0.006483 
1894.097312  	-0.007268 
1896.026128  	-0.007110 
1897.954944  	-0.006715 
1899.883760  	-0.006684 
1901.812576  	-0.006451 
1903.741392  	-0.006160 
1905.670208  	-0.006466 
1907.599024  	-0.006676 
1909.527840  	-0.006438 
1911.456656  	-0.006351 
1913.385472  	-0.006442 
1915.314288  	-0.006808 
1917.243104  	-0.007066 
1919.171920  	-0.006137 
1921.100736  	-0.006342 
1923.029552  	-0.006220 
1924.958368  	-0.006732 
1926.887184  	-0.007479 
1928.816000  	-0.006885 
1930.744816  	-0.006379 
1932.673632  	-0.006629 
1934.602448  	-0.006920 
1936.531264  	-0.007269 
1938.460080  	-0.008030 
1940.388896  	-0.008508 
1942.317712  	-0.007518 
1944.246528  	-0.007082 
1946.175344  	-0.006891 
1948.104160  	-0.006663 
1950.032976  	-0.007498 
1951.961792  	-0.008009 
1953.890608  	-0.007296 
1955.819424  	-0.007519 
1957.748240  	-0.008337 
1959.677056  	-0.009212 
1961.605872  	-0.008870 
1963.534688  	-0.008793 
1965.463504  	-0.008571 
1967.392320  	-0.009673 
1969.321136  	-0.009729 
1971.249952  	-0.009513 
1973.178768  	-0.009528 
1975.107584  	-0.009366 
1977.036400  	-0.008982 
1978.965216  	-0.007988 
1980.894032  	-0.007814 
1982.822848  	-0.008389 
1984.751664  	-0.007917 
1986.680480  	-0.007679 
1988.609296  	-0.007460 
1990.538112  	-0.007949 
1992.466928  	-0.008046 
1994.395744  	-0.008138 
1996.324560  	-0.008230 
1998.253376  	-0.008631 
2000.182192  	-0.008706 
2002.111008  	-0.008210 
2004.039824  	-0.008354 
2005.968640  	-0.009277 
2007.897456  	-0.009063 
2009.826272  	-0.008692 
2011.755088  	-0.009113 
2013.683904  	-0.009246 
2015.612720  	-0.008831 
2017.541536  	-0.007761 
2019.470352  	-0.006462 
2021.399168  	-0.006537 
2023.327984  	-0.006106 
2025.256800  	-0.006950 
2027.185616  	-0.008854 
2029.114432  	-0.008736 
2031.043248  	-0.007688 
2032.972064  	-0.006376 
2034.900880  	-0.005753 
2036.829696  	-0.006141 
2038.758512  	-0.005705 
2040.687328  	-0.005155 
2042.616144  	-0.004435 
2044.544960  	-0.005251 
2046.473776  	-0.006620 
2048.402592  	-0.007048 
2050.331408  	-0.006867 
2052.260224  	-0.007408 
2054.189040  	-0.007652 
2056.117856  	-0.007005 
2058.046672  	-0.006401 
2059.975488  	-0.006594 
2061.904304  	-0.007063 
2063.833120  	-0.007249 
2065.761936  	-0.006648 
2067.690752  	-0.006242 
2069.619568  	-0.006387 
2071.548384  	-0.006685 
2073.477200  	-0.006400 
2075.406016  	-0.006071 
2077.334832  	-0.006111 
2079.263648  	-0.006284 
2081.192464  	-0.005983 
2083.121280  	-0.006221 
2085.050096  	-0.006599 
2086.978912  	-0.006868 
2088.907728  	-0.006981 
2090.836544  	-0.007165 
2092.765360  	-0.007055 
2094.694176  	-0.006906 
2096.622992  	-0.006732 
2098.551808  	-0.006541 
2100.480624  	-0.006710 
2102.409440  	-0.006999 
2104.338256  	-0.006914 
2106.267072  	-0.006333 
2108.195888  	-0.005909 
2110.124704  	-0.005815 
2112.053520  	-0.006095 
2113.982336  	-0.006184 
2115.911152  	-0.005851 
2117.839968  	-0.005986 
2119.768784  	-0.006636 
2121.697600  	-0.007096 
2123.626416  	-0.007091 
2125.555232  	-0.007359 
2127.484048  	-0.007455 
2129.412864  	-0.007575 
2131.341680  	-0.007814 
2133.270496  	-0.008129 
2135.199312  	-0.007623 
2137.128128  	-0.008049 
2139.056944  	-0.008197 
2140.985760  	-0.007888 
2142.914576  	-0.007552 
2144.843392  	-0.006891 
2146.772208  	-0.005996 
2148.701024  	-0.006072 
2150.629840  	-0.006614 
2152.558656  	-0.007992 
2154.487472  	-0.008143 
2156.416288  	-0.007373 
2158.345104  	-0.005312 
2160.273920  	-0.004435 
2162.202736  	-0.005036 
2164.131552  	-0.004771 
2166.060368  	-0.004369 
2167.989184  	-0.004799 
2169.918000  	-0.005267 
2171.846816  	-0.005192 
2173.775632  	-0.005765 
2175.704448  	-0.006252 
2177.633264  	-0.006359 
2179.562080  	-0.006221 
2181.490896  	-0.006026 
2183.419712  	-0.005876 
2185.348528  	-0.006462 
2187.277344  	-0.006466 
2189.206160  	-0.005659 
2191.134976  	-0.005058 
2193.063792  	-0.004738 
2194.992608  	-0.005456 
2196.921424  	-0.005948 
2198.850240  	-0.005933 
2200.779056  	-0.005412 
2202.707872  	-0.005593 
2204.636688  	-0.006142 
2206.565504  	-0.005758 
2208.494320  	-0.005295 
2210.423136  	-0.005835 
2212.351952  	-0.006064 
2214.280768  	-0.005563 
2216.209584  	-0.005433 
2218.138400  	-0.005959 
2220.067216  	-0.005946 
2221.996032  	-0.005858 
2223.924848  	-0.005741 
2225.853664  	-0.005721 
2227.782480  	-0.005839 
2229.711296  	-0.005576 
2231.640112  	-0.005573 
2233.568928  	-0.006062 
2235.497744  	-0.005936 
2237.426560  	-0.005829 
2239.355376  	-0.006005 
2241.284192  	-0.005900 
2243.213008  	-0.005964 
2245.141824  	-0.006040 
2247.070640  	-0.005776 
2248.999456  	-0.005856 
2250.928272  	-0.006002 
2252.857088  	-0.006225 
2254.785904  	-0.005970 
2256.714720  	-0.005525 
2258.643536  	-0.006053 
2260.572352  	-0.006300 
2262.501168  	-0.006045 
2264.429984  	-0.005997 
2266.358800  	-0.006121 
2268.287616  	-0.005676 
2270.216432  	-0.005209 
2272.145248  	-0.005232 
2274.074064  	-0.005216 
2276.002880  	-0.005107 
2277.931696  	-0.004995 
2279.860512  	-0.004987 
2281.789328  	-0.004675 
2283.718144  	-0.004421 
2285.646960  	-0.004440 
2287.575776  	-0.004508 
2289.504592  	-0.004458 
2291.433408  	-0.004467 
2293.362224  	-0.004226 
2295.291040  	-0.003764 
2297.219856  	-0.003758 
2299.148672  	-0.003875 
2301.077488  	-0.003738 
2303.006304  	-0.003594 
2304.935120  	-0.003498 
2306.863936  	-0.003020 
2308.792752  	-0.002751 
2310.721568  	-0.002736 
2312.650384  	-0.002848 
2314.579200  	-0.003194 
2316.508016  	-0.003399 
2318.436832  	-0.003396 
2320.365648  	-0.003000 
2322.294464  	-0.002603 
2324.223280  	-0.003099 
2326.152096  	-0.004750 
2328.080912  	-0.005396 
2330.009728  	-0.005265 
2331.938544  	-0.005294 
2333.867360  	-0.006059 
2335.796176  	-0.006564 
2337.724992  	-0.006498 
2339.653808  	-0.006585 
2341.582624  	-0.006291 
2343.511440  	-0.005080 
2345.440256  	-0.003870 
2347.369072  	-0.003689 
2349.297888  	-0.004880 
2351.226704  	-0.006103 
2353.155520  	-0.006738 
2355.084336  	-0.007345 
2357.013152  	-0.007740 
2358.941968  	-0.007749 
2360.870784  	-0.006955 
2362.799600  	-0.006320 
2364.728416  	-0.005727 
2366.657232  	-0.004800 
2368.586048  	-0.004159 
2370.514864  	-0.003676 
2372.443680  	-0.003317 
2374.372496  	-0.002998 
2376.301312  	-0.002582 
2378.230128  	-0.002410 
2380.158944  	-0.002514 
2382.087760  	-0.002944 
2384.016576  	-0.003773 
2385.945392  	-0.004451 
2387.874208  	-0.004617 
2389.803024  	-0.004644 
2391.731840  	-0.004732 
2393.660656  	-0.004760 
2395.589472  	-0.004954 
2397.518288  	-0.005019 
2399.447104  	-0.004903 
2401.375920  	-0.004650 
2403.304736  	-0.004379 
2405.233552  	-0.004492 
2407.162368  	-0.004623 
2409.091184  	-0.004416 
2411.020000  	-0.004330 
2412.948816  	-0.004571 
2414.877632  	-0.004638 
2416.806448  	-0.004297 
2418.735264  	-0.004271 
2420.664080  	-0.004377 
2422.592896  	-0.004275 
2424.521712  	-0.004079 
2426.450528  	-0.004018 
2428.379344  	-0.003719 
2430.308160  	-0.003585 
2432.236976  	-0.003879 
2434.165792  	-0.004103 
2436.094608  	-0.003898 
2438.023424  	-0.003687 
2439.952240  	-0.003776 
2441.881056  	-0.003709 
2443.809872  	-0.003550 
2445.738688  	-0.003455 
2447.667504  	-0.003257 
2449.596320  	-0.003178 
2451.525136  	-0.003330 
2453.453952  	-0.003342 
2455.382768  	-0.003231 
2457.311584  	-0.003212 
2459.240400  	-0.003334 
2461.169216  	-0.003331 
2463.098032  	-0.003214 
2465.026848  	-0.003190 
2466.955664  	-0.003212 
2468.884480  	-0.003198 
2470.813296  	-0.003051 
2472.742112  	-0.002921 
2474.670928  	-0.002828 
2476.599744  	-0.002954 
2478.528560  	-0.003126 
2480.457376  	-0.003124 
2482.386192  	-0.003233 
2484.315008  	-0.003138 
2486.243824  	-0.003050 
2488.172640  	-0.002930 
2490.101456  	-0.002672 
2492.030272  	-0.002731 
2493.959088  	-0.002928 
2495.887904  	-0.002830 
2497.816720  	-0.002599 
2499.745536  	-0.002458 
2501.674352  	-0.002300 
2503.603168  	-0.002218 
2505.531984  	-0.002203 
2507.460800  	-0.002184 
2509.389616  	-0.002135 
2511.318432  	-0.002411 
2513.247248  	-0.002563 
2515.176064  	-0.002563 
2517.104880  	-0.002362 
2519.033696  	-0.001947 
2520.962512  	-0.001773 
2522.891328  	-0.001781 
2524.820144  	-0.001731 
2526.748960  	-0.001836 
2528.677776  	-0.002015 
2530.606592  	-0.001937 
2532.535408  	-0.001692 
2534.464224  	-0.001614 
2536.393040  	-0.001708 
2538.321856  	-0.001804 
2540.250672  	-0.001856 
2542.179488  	-0.001900 
2544.108304  	-0.001700 
2546.037120  	-0.001559 
2547.965936  	-0.001622 
2549.894752  	-0.001740 
2551.823568  	-0.001754 
2553.752384  	-0.001649 
2555.681200  	-0.001556 
2557.610016  	-0.001353 
2559.538832  	-0.001281 
2561.467648  	-0.001191 
2563.396464  	-0.001055 
2565.325280  	-0.001186 
2567.254096  	-0.001051 
2569.182912  	-0.000813 
2571.111728  	-0.000618 
2573.040544  	-0.000598 
2574.969360  	-0.000579 
2576.898176  	-0.000347 
2578.826992  	-0.000155 
2580.755808  	-0.000249 
2582.684624  	-0.000290 
2584.613440  	-0.000314 
2586.542256  	-0.000330 
2588.471072  	-0.000329 
2590.399888  	-0.000357 
2592.328704  	-0.000418 
2594.257520  	-0.000473 
2596.186336  	-0.000343 
2598.115152  	-0.000198 
2600.043968  	-0.000263 
2601.972784  	-0.000207 
2603.901600  	0.000024 
2605.830416  	0.000039 
2607.759232  	0.000011 
2609.688048  	0.000016 
2611.616864  	0.000009 
2613.545680  	0.000264 
2615.474496  	0.000444 
2617.403312  	0.000495 
2619.332128  	0.000573 
2621.260944  	0.000577 
2623.189760  	0.000634 
2625.118576  	0.000762 
2627.047392  	0.000914 
2628.976208  	0.001059 
2630.905024  	0.001071 
2632.833840  	0.001153 
2634.762656  	0.001325 
2636.691472  	0.001437 
2638.620288  	0.001505 
2640.549104  	0.001602 
2642.477920  	0.001728 
2644.406736  	0.001730 
2646.335552  	0.001730 
2648.264368  	0.001753 
2650.193184  	0.001825 
2652.122000  	0.002001 
2654.050816  	0.002099 
2655.979632  	0.002030 
2657.908448  	0.002098 
2659.837264  	0.002212 
2661.766080  	0.002286 
2663.694896  	0.002282 
2665.623712  	0.002266 
2667.552528  	0.002442 
2669.481344  	0.002648 
2671.410160  	0.002671 
2673.338976  	0.002639 
2675.267792  	0.002677 
2677.196608  	0.002760 
2679.125424  	0.002877 
2681.054240  	0.002994 
2682.983056  	0.002919 
2684.911872  	0.002865 
2686.840688  	0.002994 
2688.769504  	0.003182 
2690.698320  	0.003195 
2692.627136  	0.003213 
2694.555952  	0.003293 
2696.484768  	0.003381 
2698.413584  	0.003465 
2700.342400  	0.003489 
2702.271216  	0.003597 
2704.200032  	0.003735 
2706.128848  	0.003804 
2708.057664  	0.003879 
2709.986480  	0.003908 
2711.915296  	0.003976 
2713.844112  	0.004052 
2715.772928  	0.004103 
2717.701744  	0.004101 
2719.630560  	0.004117 
2721.559376  	0.004339 
2723.488192  	0.004422 
2725.417008  	0.004401 
2727.345824  	0.004471 
2729.274640  	0.004486 
2731.203456  	0.004491 
2733.132272  	0.004625 
2735.061088  	0.004793 
2736.989904  	0.004884 
2738.918720  	0.005030 
2740.847536  	0.004994 
2742.776352  	0.005025 
2744.705168  	0.005110 
2746.633984  	0.005100 
2748.562800  	0.005214 
2750.491616  	0.005363 
2752.420432  	0.005450 
2754.349248  	0.005406 
2756.278064  	0.005436 
2758.206880  	0.005402 
2760.135696  	0.005394 
2762.064512  	0.005490 
2763.993328  	0.005538 
2765.922144  	0.005440 
2767.850960  	0.005447 
2769.779776  	0.005551 
2771.708592  	0.005515 
2773.637408  	0.005453 
2775.566224  	0.005401 
2777.495040  	0.005425 
2779.423856  	0.005359 
2781.352672  	0.005320 
2783.281488  	0.005386 
2785.210304  	0.005546 
2787.139120  	0.005635 
2789.067936  	0.005581 
2790.996752  	0.005498 
2792.925568  	0.005419 
2794.854384  	0.005383 
2796.783200  	0.005435 
2798.712016  	0.005537 
2800.640832  	0.005610 
2802.569648  	0.005600 
2804.498464  	0.005570 
2806.427280  	0.005539 
2808.356096  	0.005534 
2810.284912  	0.005530 
2812.213728  	0.005439 
2814.142544  	0.005441 
2816.071360  	0.005527 
2818.000176  	0.005632 
2819.928992  	0.005544 
2821.857808  	0.005434 
2823.786624  	0.005440 
2825.715440  	0.005354 
2827.644256  	0.005197 
2829.573072  	0.005172 
2831.501888  	0.005128 
2833.430704  	0.004912 
2835.359520  	0.004747 
2837.288336  	0.004694 
2839.217152  	0.004688 
2841.145968  	0.004519 
2843.074784  	0.004341 
2845.003600  	0.004256 
2846.932416  	0.004302 
2848.861232  	0.004259 
2850.790048  	0.004019 
2852.718864  	0.003974 
2854.647680  	0.003936 
2856.576496  	0.003787 
2858.505312  	0.003692 
2860.434128  	0.003689 
2862.362944  	0.003645 
2864.291760  	0.003544 
2866.220576  	0.003452 
2868.149392  	0.003339 
2870.078208  	0.003218 
2872.007024  	0.003252 
2873.935840  	0.003421 
2875.864656  	0.003541 
2877.793472  	0.003639 
2879.722288  	0.003719 
2881.651104  	0.003899 
2883.579920  	0.003958 
2885.508736  	0.003929 
2887.437552  	0.004040 
2889.366368  	0.003971 
2891.295184  	0.003756 
2893.224000  	0.003600 
2895.152816  	0.003528 
2897.081632  	0.003348 
2899.010448  	0.002810 
2900.939264  	0.002369 
2902.868080  	0.002573 
2904.796896  	0.002803 
2906.725712  	0.002755 
2908.654528  	0.002704 
2910.583344  	0.003015 
2912.512160  	0.003537 
2914.440976  	0.003898 
2916.369792  	0.004189 
2918.298608  	0.004443 
2920.227424  	0.004627 
2922.156240  	0.004865 
2924.085056  	0.005182 
2926.013872  	0.005473 
2927.942688  	0.005702 
2929.871504  	0.006072 
2931.800320  	0.006353 
2933.729136  	0.006647 
2935.657952  	0.006968 
2937.586768  	0.007233 
2939.515584  	0.007389 
2941.444400  	0.007535 
2943.373216  	0.007690 
2945.302032  	0.007696 
2947.230848  	0.007727 
2949.159664  	0.007718 
2951.088480  	0.007437 
2953.017296  	0.007109 
2954.946112  	0.006793 
2956.874928  	0.006457 
2958.803744  	0.006071 
2960.732560  	0.005741 
2962.661376  	0.005219 
2964.590192  	0.004829 
2966.519008  	0.004362 
2968.447824  	0.003665 
2970.376640  	0.002897 
2972.305456  	0.002257 
2974.234272  	0.001783 
2976.163088  	0.001293 
2978.091904  	0.000879 
2980.020720  	0.000586 
2981.949536  	0.000531 
2983.878352  	0.000583 
2985.807168  	0.000575 
2987.735984  	0.000682 
2989.664800  	0.001136 
2991.593616  	0.002028 
2993.522432  	0.002483 
2995.451248  	0.002694 
2997.380064  	0.003078 
2999.308880  	0.003456 
3001.237696  	0.003784 
3003.166512  	0.004063 
3005.095328  	0.004290 
3007.024144  	0.004508 
3008.952960  	0.004743 
3010.881776  	0.004951 
3012.810592  	0.005119 
3014.739408  	0.005443 
3016.668224  	0.005757 
3018.597040  	0.005895 
3020.525856  	0.005954 
3022.454672  	0.006179 
3024.383488  	0.006220 
3026.312304  	0.006326 
3028.241120  	0.006426 
3030.169936  	0.006578 
3032.098752  	0.006838 
3034.027568  	0.006929 
3035.956384  	0.006911 
3037.885200  	0.006815 
3039.814016  	0.006891 
3041.742832  	0.007015 
3043.671648  	0.007077 
3045.600464  	0.007285 
3047.529280  	0.007399 
3049.458096  	0.007409 
3051.386912  	0.007393 
3053.315728  	0.007359 
3055.244544  	0.007186 
3057.173360  	0.007456 
3059.102176  	0.007750 
3061.030992  	0.007819 
3062.959808  	0.007649 
3064.888624  	0.007738 
3066.817440  	0.008021 
3068.746256  	0.008198 
3070.675072  	0.008155 
3072.603888  	0.008133 
3074.532704  	0.008230 
3076.461520  	0.008326 
3078.390336  	0.008493 
3080.319152  	0.008585 
3082.247968  	0.008625 
3084.176784  	0.008745 
3086.105600  	0.008831 
3088.034416  	0.008816 
3089.963232  	0.008938 
3091.892048  	0.009078 
3093.820864  	0.009052 
3095.749680  	0.009268 
3097.678496  	0.009371 
3099.607312  	0.009501 
3101.536128  	0.009785 
3103.464944  	0.009804 
3105.393760  	0.009753 
3107.322576  	0.009647 
3109.251392  	0.009704 
3111.180208  	0.009779 
3113.109024  	0.009525 
3115.037840  	0.009327 
3116.966656  	0.009452 
3118.895472  	0.009624 
3120.824288  	0.009464 
3122.753104  	0.009473 
3124.681920  	0.009258 
3126.610736  	0.009146 
3128.539552  	0.009270 
3130.468368  	0.008982 
3132.397184  	0.008941 
3134.326000  	0.008902 
3136.254816  	0.008702 
3138.183632  	0.008640 
3140.112448  	0.008603 
3142.041264  	0.008506 
3143.970080  	0.008394 
3145.898896  	0.008232 
3147.827712  	0.008417 
3149.756528  	0.008446 
3151.685344  	0.008269 
3153.614160  	0.008109 
3155.542976  	0.007956 
3157.471792  	0.008057 
3159.400608  	0.008195 
3161.329424  	0.007953 
3163.258240  	0.007696 
3165.187056  	0.007843 
3167.115872  	0.007876 
3169.044688  	0.007801 
3170.973504  	0.007783 
3172.902320  	0.007682 
3174.831136  	0.007352 
3176.759952  	0.007111 
3178.688768  	0.007262 
3180.617584  	0.007228 
3182.546400  	0.006828 
3184.475216  	0.006584 
3186.404032  	0.006543 
3188.332848  	0.006315 
3190.261664  	0.005935 
3192.190480  	0.005643 
3194.119296  	0.005424 
3196.048112  	0.005150 
3197.976928  	0.005003 
3199.905744  	0.004818 
3201.834560  	0.004403 
3203.763376  	0.004106 
3205.692192  	0.003959 
3207.621008  	0.003436 
3209.549824  	0.003186 
3211.478640  	0.003075 
3213.407456  	0.002856 
3215.336272  	0.002796 
3217.265088  	0.002238 
3219.193904  	0.002013 
3221.122720  	0.002214 
3223.051536  	0.002090 
3224.980352  	0.001691 
3226.909168  	0.001294 
3228.837984  	0.000955 
3230.766800  	0.000735 
3232.695616  	0.000660 
3234.624432  	0.000499 
3236.553248  	0.000405 
3238.482064  	0.000246 
3240.410880  	0.000220 
3242.339696  	0.000079 
3244.268512  	-0.000101 
3246.197328  	0.000176 
3248.126144  	-0.000050 
3250.054960  	-0.000050 
3251.983776  	-0.000100 
3253.912592  	-0.000093 
3255.841408  	0.000006 
3257.770224  	0.000140 
3259.699040  	0.000198 
3261.627856  	0.000257 
3263.556672  	0.000170 
3265.485488  	0.000311 
3267.414304  	0.000581 
3269.343120  	0.000708 
3271.271936  	0.000662 
3273.200752  	0.000748 
3275.129568  	0.001002 
3277.058384  	0.001195 
3278.987200  	0.001223 
3280.916016  	0.001265 
3282.844832  	0.001223 
3284.773648  	0.001002 
3286.702464  	0.000840 
3288.631280  	0.000877 
3290.560096  	0.000908 
3292.488912  	0.001354 
3294.417728  	0.001648 
3296.346544  	0.001714 
3298.275360  	0.001937 
3300.204176  	0.002000 
3302.132992  	0.002228 
3304.061808  	0.002500 
3305.990624  	0.002410 
3307.919440  	0.002423 
3309.848256  	0.002795 
3311.777072  	0.003107 
3313.705888  	0.003303 
3315.634704  	0.003339 
3317.563520  	0.003472 
3319.492336  	0.003649 
3321.421152  	0.003749 
3323.349968  	0.003772 
3325.278784  	0.003715 
3327.207600  	0.003974 
3329.136416  	0.004135 
3331.065232  	0.004174 
3332.994048  	0.004197 
3334.922864  	0.004334 
3336.851680  	0.004622 
3338.780496  	0.004511 
3340.709312  	0.004296 
3342.638128  	0.004257 
3344.566944  	0.004120 
3346.495760  	0.003994 
3348.424576  	0.003818 
3350.353392  	0.003747 
3352.282208  	0.003558 
3354.211024  	0.003436 
3356.139840  	0.003433 
3358.068656  	0.003269 
3359.997472  	0.002994 
3361.926288  	0.002919 
3363.855104  	0.002708 
3365.783920  	0.002752 
3367.712736  	0.002710 
3369.641552  	0.002463 
3371.570368  	0.002526 
3373.499184  	0.002483 
3375.428000  	0.002071 
3377.356816  	0.001952 
3379.285632  	0.002120 
3381.214448  	0.002086 
3383.143264  	0.001907 
3385.072080  	0.002070 
3387.000896  	0.002038 
3388.929712  	0.001736 
3390.858528  	0.001275 
3392.787344  	0.001524 
3394.716160  	0.001616 
3396.644976  	0.001530 
3398.573792  	0.001765 
3400.502608  	0.001621 
3402.431424  	0.001503 
3404.360240  	0.001562 
3406.289056  	0.001536 
3408.217872  	0.001347 
3410.146688  	0.001219 
3412.075504  	0.001047 
3414.004320  	0.001187 
3415.933136  	0.001131 
3417.861952  	0.000746 
3419.790768  	0.000733 
3421.719584  	0.001275 
3423.648400  	0.001235 
3425.577216  	0.000720 
3427.506032  	0.000534 
3429.434848  	0.000563 
3431.363664  	0.000632 
3433.292480  	0.000691 
3435.221296  	0.000572 
3437.150112  	0.000503 
3439.078928  	0.000393 
3441.007744  	0.000353 
3442.936560  	0.000547 
3444.865376  	-0.000087 
3446.794192  	0.000567 
3448.723008  	0.001667 
3450.651824  	0.000643 
3452.580640  	0.000041 
3454.509456  	0.000054 
3456.438272  	-0.000030 
3458.367088  	-0.000364 
3460.295904  	-0.000278 
3462.224720  	0.000206 
3464.153536  	0.000111 
3466.082352  	-0.000345 
3468.011168  	-0.000497 
3469.939984  	-0.000937 
3471.868800  	-0.001342 
3473.797616  	-0.001595 
3475.726432  	-0.001362 
3477.655248  	-0.001742 
3479.584064  	-0.002287 
3481.512880  	-0.001885 
3483.441696  	-0.001631 
3485.370512  	-0.002467 
3487.299328  	-0.002468 
3489.228144  	-0.002186 
3491.156960  	-0.002647 
3493.085776  	-0.003303 
3495.014592  	-0.003350 
3496.943408  	-0.003026 
3498.872224  	-0.003548 
3500.801040  	-0.004536 
3502.729856  	-0.003722 
3504.658672  	-0.002585 
3506.587488  	-0.003607 
3508.516304  	-0.004281 
3510.445120  	-0.003371 
3512.373936  	-0.003551 
3514.302752  	-0.004144 
3516.231568  	-0.004636 
3518.160384  	-0.004664 
3520.089200  	-0.005100 
3522.018016  	-0.005498 
3523.946832  	-0.004451 
3525.875648  	-0.004749 
3527.804464  	-0.004668 
3529.733280  	-0.004133 
3531.662096  	-0.004474 
3533.590912  	-0.005377 
3535.519728  	-0.005297 
3537.448544  	-0.004346 
3539.377360  	-0.005200 
3541.306176  	-0.006041 
3543.234992  	-0.006518 
3545.163808  	-0.005307 
3547.092624  	-0.003898 
3549.021440  	-0.005086 
3550.950256  	-0.006571 
3552.879072  	-0.005280 
3554.807888  	-0.005056 
3556.736704  	-0.005963 
3558.665520  	-0.006513 
3560.594336  	-0.006428 
3562.523152  	-0.007341 
3564.451968  	-0.009307 
3566.380784  	-0.007578 
3568.309600  	-0.002792 
3570.238416  	-0.004211 
3572.167232  	-0.006501 
3574.096048  	-0.007165 
3576.024864  	-0.007248 
3577.953680  	-0.007575 
3579.882496  	-0.007608 
3581.811312  	-0.007902 
3583.740128  	-0.009450 
3585.668944  	-0.010651 
3587.597760  	-0.006873 
3589.526576  	-0.005485 
3591.455392  	-0.008937 
3593.384208  	-0.009956 
3595.313024  	-0.008712 
3597.241840  	-0.009013 
3599.170656  	-0.009929 
3601.099472  	-0.009090 
3603.028288  	-0.009070 
3604.957104  	-0.011301 
3606.885920  	-0.012182 
3608.814736  	-0.010139 
3610.743552  	-0.011190 
3612.672368  	-0.011963 
3614.601184  	-0.011160 
3616.530000  	-0.013560 
3618.458816  	-0.013286 
3620.387632  	-0.010046 
3622.316448  	-0.010888 
3624.245264  	-0.013492 
3626.174080  	-0.017035 
3628.102896  	-0.016761 
3630.031712  	-0.009371 
3631.960528  	-0.012002 
3633.889344  	-0.013019 
3635.818160  	-0.013143 
3637.746976  	-0.014112 
3639.675792  	-0.014561 
3641.604608  	-0.014909 
3643.533424  	-0.015895 
3645.462240  	-0.019020 
3647.391056  	-0.019833 
3649.319872  	-0.016264 
3651.248688  	-0.011937 
3653.177504  	-0.015095 
3655.106320  	-0.017382 
3657.035136  	-0.014915 
3658.963952  	-0.015005 
3660.892768  	-0.015609 
3662.821584  	-0.016142 
3664.750400  	-0.016657 
3666.679216  	-0.018550 
3668.608032  	-0.020232 
3670.536848  	-0.016443 
3672.465664  	-0.018076 
3674.394480  	-0.020490 
3676.323296  	-0.013866 
3678.252112  	-0.014560 
3680.180928  	-0.014953 
3682.109744  	-0.015370 
3684.038560  	-0.016294 
3685.967376  	-0.018278 
3687.896192  	-0.018815 
3689.825008  	-0.016081 
3691.753824  	-0.013933 
3693.682640  	-0.014165 
3695.611456  	-0.014781 
3697.540272  	-0.014751 
3699.469088  	-0.015844 
3701.397904  	-0.015098 
3703.326720  	-0.013794 
3705.255536  	-0.014782 
3707.184352  	-0.016208 
3709.113168  	-0.017354 
3711.041984  	-0.015690 
3712.970800  	-0.012239 
3714.899616  	-0.012852 
3716.828432  	-0.014635 
3718.757248  	-0.015015 
3720.686064  	-0.015518 
3722.614880  	-0.015128 
3724.543696  	-0.014675 
3726.472512  	-0.013400 
3728.401328  	-0.014014 
3730.330144  	-0.017065 
3732.258960  	-0.017661 
3734.187776  	-0.016230 
3736.116592  	-0.012754 
3738.045408  	-0.012881 
3739.974224  	-0.014931 
3741.903040  	-0.017646 
3743.831856  	-0.017230 
3745.760672  	-0.013109 
3747.689488  	-0.016934 
3749.618304  	-0.017322 
3751.547120  	-0.013385 
3753.475936  	-0.011859 
3755.404752  	-0.014237 
3757.333568  	-0.014884 
3759.262384  	-0.013713 
3761.191200  	-0.012420 
3763.120016  	-0.014124 
3765.048832  	-0.013886 
3766.977648  	-0.013791 
3768.906464  	-0.014259 
3770.835280  	-0.012223 
3772.764096  	-0.012591 
3774.692912  	-0.013538 
3776.621728  	-0.014552 
3778.550544  	-0.014612 
3780.479360  	-0.012585 
3782.408176  	-0.013499 
3784.336992  	-0.013561 
3786.265808  	-0.012737 
3788.194624  	-0.012995 
3790.123440  	-0.013475 
3792.052256  	-0.013913 
3793.981072  	-0.015117 
3795.909888  	-0.015137 
3797.838704  	-0.014915 
3799.767520  	-0.016936 
3801.696336  	-0.013926 
3803.625152  	-0.013268 
3805.553968  	-0.015658 
3807.482784  	-0.012746 
3809.411600  	-0.012503 
3811.340416  	-0.013877 
3813.269232  	-0.015945 
3815.198048  	-0.016236 
3817.126864  	-0.013972 
3819.055680  	-0.016703 
3820.984496  	-0.014443 
3822.913312  	-0.011688 
3824.842128  	-0.014157 
3826.770944  	-0.013928 
3828.699760  	-0.014208 
3830.628576  	-0.015036 
3832.557392  	-0.014725 
3834.486208  	-0.015855 
3836.415024  	-0.016278 
3838.343840  	-0.014473 
3840.272656  	-0.013255 
3842.201472  	-0.013392 
3844.130288  	-0.012739 
3846.059104  	-0.013141 
3847.987920  	-0.014979 
3849.916736  	-0.017546 
3851.845552  	-0.019282 
3853.774368  	-0.011993 
3855.703184  	-0.010394 
3857.632000  	-0.012526 
3859.560816  	-0.014413 
3861.489632  	-0.015549 
3863.418448  	-0.015148 
3865.347264  	-0.012977 
3867.276080  	-0.015109 
3869.204896  	-0.015493 
3871.133712  	-0.012519 
3873.062528  	-0.013973 
3874.991344  	-0.012438 
3876.920160  	-0.013928 
3878.848976  	-0.015393 
3880.777792  	-0.013397 
3882.706608  	-0.013922 
3884.635424  	-0.014462 
3886.564240  	-0.011561 
3888.493056  	-0.014028 
3890.421872  	-0.014925 
3892.350688  	-0.012612 
3894.279504  	-0.012973 
3896.208320  	-0.015021 
3898.137136  	-0.015798 
3900.065952  	-0.014582 
3901.994768  	-0.013919 
3903.923584  	-0.012448 
3905.852400  	-0.011619 
3907.781216  	-0.012950 
3909.710032  	-0.013703 
3911.638848  	-0.013561 
3913.567664  	-0.013960 
3915.496480  	-0.014298 
3917.425296  	-0.013132 
3919.354112  	-0.012811 
3921.282928  	-0.013446 
3923.211744  	-0.014088 
3925.140560  	-0.012910 
3927.069376  	-0.013315 
3928.998192  	-0.014322 
3930.927008  	-0.013847 
3932.855824  	-0.012550 
3934.784640  	-0.012739 
3936.713456  	-0.013331 
3938.642272  	-0.013359 
3940.571088  	-0.013983 
3942.499904  	-0.013300 
3944.428720  	-0.012985 
3946.357536  	-0.013966 
3948.286352  	-0.013521 
3950.215168  	-0.012872 
3952.143984  	-0.013206 
3954.072800  	-0.013617 
3956.001616  	-0.013691 
3957.930432  	-0.013544 
3959.859248  	-0.013716 
3961.788064  	-0.013491 
3963.716880  	-0.013163 
3965.645696  	-0.013400 
3967.574512  	-0.013681 
3969.503328  	-0.013634 
3971.432144  	-0.013772 
3973.360960  	-0.013765 
3975.289776  	-0.013414 
3977.218592  	-0.013294 
3979.147408  	-0.013380 
3981.076224  	-0.013384 
3983.005040  	-0.013390 
3984.933856  	-0.013567 
3986.862672  	-0.013761 
3988.791488  	-0.013885 
3990.720304  	-0.013808 
3992.649120  	-0.013711 
3994.577936  	-0.013617 
3996.506752  	-0.013692 
3998.435568  	-0.013715 
4000.364384  	-0.013677 