##TITLE=No Description
##DATA TYPE=INFRARED SPECTRUM
##XUNITS=1/CM
##YUNITS=Abs
399.264912  	0.479250 
401.193728  	0.459735 
403.122544  	0.438525 
405.051360  	0.420424 
406.980176  	0.417562 
408.908992  	0.414744 
410.837808  	0.429071 
412.766624  	0.427340 
414.695440  	0.424392 
416.624256  	0.427204 
418.553072  	0.428326 
420.481888  	0.411488 
422.410704  	0.404186 
424.339520  	0.407047 
426.268336  	0.402652 
428.197152  	0.396876 
430.125968  	0.395168 
432.054784  	0.392870 
433.983600  	0.392608 
435.912416  	0.391681 
437.841232  	0.385436 
439.770048  	0.379597 
441.698864  	0.384460 
443.627680  	0.383734 
445.556496  	0.383632 
447.485312  	0.381470 
449.414128  	0.376344 
451.342944  	0.374797 
453.271760  	0.373836 
455.200576  	0.369576 
457.129392  	0.373649 
459.058208  	0.371977 
460.987024  	0.369318 
462.915840  	0.367466 
464.844656  	0.366413 
466.773472  	0.363737 
468.702288  	0.364463 
470.631104  	0.363757 
472.559920  	0.368487 
474.488736  	0.364657 
476.417552  	0.360736 
478.346368  	0.358828 
480.275184  	0.357254 
482.204000  	0.355113 
484.132816  	0.355831 
486.061632  	0.356246 
487.990448  	0.352480 
489.919264  	0.350286 
491.848080  	0.351751 
493.776896  	0.351725 
495.705712  	0.350122 
497.634528  	0.347227 
499.563344  	0.348771 
501.492160  	0.348629 
503.420976  	0.349642 
505.349792  	0.347524 
507.278608  	0.346927 
509.207424  	0.343958 
511.136240  	0.342840 
513.065056  	0.341745 
514.993872  	0.346429 
516.922688  	0.348116 
518.851504  	0.348105 
520.780320  	0.345621 
522.709136  	0.344395 
524.637952  	0.343054 
526.566768  	0.343455 
528.495584  	0.340286 
530.424400  	0.338022 
532.353216  	0.336714 
534.282032  	0.334369 
536.210848  	0.330660 
538.139664  	0.326528 
540.068480  	0.323705 
541.997296  	0.322386 
543.926112  	0.319697 
545.854928  	0.319098 
547.783744  	0.317894 
549.712560  	0.316819 
551.641376  	0.313484 
553.570192  	0.311685 
555.499008  	0.308936 
557.427824  	0.308009 
559.356640  	0.305111 
561.285456  	0.302873 
563.214272  	0.301174 
565.143088  	0.300070 
567.071904  	0.298818 
569.000720  	0.296873 
570.929536  	0.294337 
572.858352  	0.292330 
574.787168  	0.291221 
576.715984  	0.289790 
578.644800  	0.286985 
580.573616  	0.284399 
582.502432  	0.280714 
584.431248  	0.278390 
586.360064  	0.275365 
588.288880  	0.273369 
590.217696  	0.272321 
592.146512  	0.272211 
594.075328  	0.269367 
596.004144  	0.267597 
597.932960  	0.266350 
599.861776  	0.265688 
601.790592  	0.263945 
603.719408  	0.262834 
605.648224  	0.261771 
607.577040  	0.260952 
609.505856  	0.260029 
611.434672  	0.258756 
613.363488  	0.257213 
615.292304  	0.256006 
617.221120  	0.254410 
619.149936  	0.253669 
621.078752  	0.252619 
623.007568  	0.251371 
624.936384  	0.250098 
626.865200  	0.249336 
628.794016  	0.248667 
630.722832  	0.248555 
632.651648  	0.248405 
634.580464  	0.248001 
636.509280  	0.247000 
638.438096  	0.245954 
640.366912  	0.245420 
642.295728  	0.244378 
644.224544  	0.242343 
646.153360  	0.240173 
648.082176  	0.237518 
650.010992  	0.235323 
651.939808  	0.233272 
653.868624  	0.231264 
655.797440  	0.228188 
657.726256  	0.225895 
659.655072  	0.223835 
661.583888  	0.221324 
663.512704  	0.218778 
665.441520  	0.215374 
667.370336  	0.212777 
669.299152  	0.213842 
671.227968  	0.209881 
673.156784  	0.206040 
675.085600  	0.204071 
677.014416  	0.202016 
678.943232  	0.200185 
680.872048  	0.199220 
682.800864  	0.198345 
684.729680  	0.197288 
686.658496  	0.195881 
688.587312  	0.195254 
690.516128  	0.194242 
692.444944  	0.193252 
694.373760  	0.191628 
696.302576  	0.190834 
698.231392  	0.189303 
700.160208  	0.187216 
702.089024  	0.185322 
704.017840  	0.183617 
705.946656  	0.181908 
707.875472  	0.179647 
709.804288  	0.177881 
711.733104  	0.176892 
713.661920  	0.175569 
715.590736  	0.174283 
717.519552  	0.173687 
719.448368  	0.173405 
721.377184  	0.172966 
723.306000  	0.172644 
725.234816  	0.172164 
727.163632  	0.171371 
729.092448  	0.169670 
731.021264  	0.167828 
732.950080  	0.165715 
734.878896  	0.163692 
736.807712  	0.161750 
738.736528  	0.160118 
740.665344  	0.158821 
742.594160  	0.157757 
744.522976  	0.156531 
746.451792  	0.155336 
748.380608  	0.154053 
750.309424  	0.152800 
752.238240  	0.151414 
754.167056  	0.150831 
756.095872  	0.150148 
758.024688  	0.149033 
759.953504  	0.148249 
761.882320  	0.148314 
763.811136  	0.148313 
765.739952  	0.146970 
767.668768  	0.144570 
769.597584  	0.142398 
771.526400  	0.141303 
773.455216  	0.141304 
775.384032  	0.142711 
777.312848  	0.145369 
779.241664  	0.147187 
781.170480  	0.146130 
783.099296  	0.142932 
785.028112  	0.139476 
786.956928  	0.135999 
788.885744  	0.133266 
790.814560  	0.131226 
792.743376  	0.129876 
794.672192  	0.128937 
796.601008  	0.127947 
798.529824  	0.125396 
800.458640  	0.122563 
802.387456  	0.120408 
804.316272  	0.118824 
806.245088  	0.117745 
808.173904  	0.116947 
810.102720  	0.116212 
812.031536  	0.115499 
813.960352  	0.114737 
815.889168  	0.114366 
817.817984  	0.114218 
819.746800  	0.114199 
821.675616  	0.114080 
823.604432  	0.114094 
825.533248  	0.113884 
827.462064  	0.113506 
829.390880  	0.112724 
831.319696  	0.112320 
833.248512  	0.111710 
835.177328  	0.110432 
837.106144  	0.108681 
839.034960  	0.106650 
840.963776  	0.104175 
842.892592  	0.101688 
844.821408  	0.099336 
846.750224  	0.097286 
848.679040  	0.095373 
850.607856  	0.093801 
852.536672  	0.092554 
854.465488  	0.091562 
856.394304  	0.090625 
858.323120  	0.089337 
860.251936  	0.088207 
862.180752  	0.087234 
864.109568  	0.085800 
866.038384  	0.084179 
867.967200  	0.082587 
869.896016  	0.081103 
871.824832  	0.080015 
873.753648  	0.079817 
875.682464  	0.079742 
877.611280  	0.080268 
879.540096  	0.081160 
881.468912  	0.082178 
883.397728  	0.083318 
885.326544  	0.084447 
887.255360  	0.085264 
889.184176  	0.085422 
891.112992  	0.085235 
893.041808  	0.084433 
894.970624  	0.083183 
896.899440  	0.080982 
898.828256  	0.078084 
900.757072  	0.075268 
902.685888  	0.072843 
904.614704  	0.071342 
906.543520  	0.070735 
908.472336  	0.071263 
910.401152  	0.072240 
912.329968  	0.073471 
914.258784  	0.074605 
916.187600  	0.075895 
918.116416  	0.076812 
920.045232  	0.077314 
921.974048  	0.077686 
923.902864  	0.078198 
925.831680  	0.078571 
927.760496  	0.078777 
929.689312  	0.079145 
931.618128  	0.079665 
933.546944  	0.079938 
935.475760  	0.079933 
937.404576  	0.079699 
939.333392  	0.079075 
941.262208  	0.078526 
943.191024  	0.078739 
945.119840  	0.079794 
947.048656  	0.082065 
948.977472  	0.085871 
950.906288  	0.090700 
952.835104  	0.096743 
954.763920  	0.103780 
956.692736  	0.110918 
958.621552  	0.117728 
960.550368  	0.123100 
962.479184  	0.126487 
964.408000  	0.127249 
966.336816  	0.125647 
968.265632  	0.121564 
970.194448  	0.115478 
972.123264  	0.107655 
974.052080  	0.099111 
975.980896  	0.090708 
977.909712  	0.082591 
979.838528  	0.075296 
981.767344  	0.069072 
983.696160  	0.064388 
985.624976  	0.061138 
987.553792  	0.059734 
989.482608  	0.059793 
991.411424  	0.061401 
993.340240  	0.064185 
995.269056  	0.067440 
997.197872  	0.071109 
999.126688  	0.074748 
1001.055504  	0.078882 
1002.984320  	0.082570 
1004.913136  	0.086215 
1006.841952  	0.089914 
1008.770768  	0.093551 
1010.699584  	0.096575 
1012.628400  	0.098945 
1014.557216  	0.100793 
1016.486032  	0.101798 
1018.414848  	0.102382 
1020.343664  	0.102668 
1022.272480  	0.102931 
1024.201296  	0.102852 
1026.130112  	0.102597 
1028.058928  	0.102970 
1029.987744  	0.104259 
1031.916560  	0.105604 
1033.845376  	0.107157 
1035.774192  	0.109402 
1037.703008  	0.112414 
1039.631824  	0.117183 
1041.560640  	0.123572 
1043.489456  	0.131769 
1045.418272  	0.141130 
1047.347088  	0.150903 
1049.275904  	0.158611 
1051.204720  	0.163546 
1053.133536  	0.165746 
1055.062352  	0.165492 
1056.991168  	0.163817 
1058.919984  	0.162724 
1060.848800  	0.162222 
1062.777616  	0.161725 
1064.706432  	0.160866 
1066.635248  	0.160042 
1068.564064  	0.158849 
1070.492880  	0.156117 
1072.421696  	0.152661 
1074.350512  	0.150783 
1076.279328  	0.150948 
1078.208144  	0.153428 
1080.136960  	0.157119 
1082.065776  	0.160762 
1083.994592  	0.162233 
1085.923408  	0.161148 
1087.852224  	0.157159 
1089.781040  	0.151820 
1091.709856  	0.145237 
1093.638672  	0.137692 
1095.567488  	0.129161 
1097.496304  	0.120416 
1099.425120  	0.111681 
1101.353936  	0.103246 
1103.282752  	0.095129 
1105.211568  	0.087481 
1107.140384  	0.080704 
1109.069200  	0.074746 
1110.998016  	0.069237 
1112.926832  	0.064215 
1114.855648  	0.059898 
1116.784464  	0.055494 
1118.713280  	0.051130 
1120.642096  	0.047325 
1122.570912  	0.043689 
1124.499728  	0.040109 
1126.428544  	0.037080 
1128.357360  	0.034539 
1130.286176  	0.032438 
1132.214992  	0.030572 
1134.143808  	0.029227 
1136.072624  	0.028197 
1138.001440  	0.027100 
1139.930256  	0.026212 
1141.859072  	0.025517 
1143.787888  	0.024618 
1145.716704  	0.023824 
1147.645520  	0.023079 
1149.574336  	0.022722 
1151.503152  	0.022305 
1153.431968  	0.022002 
1155.360784  	0.021966 
1157.289600  	0.022609 
1159.218416  	0.023204 
1161.147232  	0.023862 
1163.076048  	0.024763 
1165.004864  	0.025681 
1166.933680  	0.026499 
1168.862496  	0.027351 
1170.791312  	0.028415 
1172.720128  	0.029866 
1174.648944  	0.031480 
1176.577760  	0.032939 
1178.506576  	0.034544 
1180.435392  	0.036448 
1182.364208  	0.038207 
1184.293024  	0.040256 
1186.221840  	0.042715 
1188.150656  	0.045395 
1190.079472  	0.048254 
1192.008288  	0.051711 
1193.937104  	0.055629 
1195.865920  	0.060161 
1197.794736  	0.065016 
1199.723552  	0.070289 
1201.652368  	0.075789 
1203.581184  	0.080683 
1205.510000  	0.085610 
1207.438816  	0.090178 
1209.367632  	0.094252 
1211.296448  	0.097678 
1213.225264  	0.100280 
1215.154080  	0.101882 
1217.082896  	0.103104 
1219.011712  	0.103590 
1220.940528  	0.103532 
1222.869344  	0.103076 
1224.798160  	0.102340 
1226.726976  	0.100978 
1228.655792  	0.099060 
1230.584608  	0.096975 
1232.513424  	0.094505 
1234.442240  	0.091668 
1236.371056  	0.088622 
1238.299872  	0.085268 
1240.228688  	0.081195 
1242.157504  	0.077151 
1244.086320  	0.073496 
1246.015136  	0.069567 
1247.943952  	0.065631 
1249.872768  	0.061680 
1251.801584  	0.057954 
1253.730400  	0.054532 
1255.659216  	0.051107 
1257.588032  	0.047800 
1259.516848  	0.044970 
1261.445664  	0.042021 
1263.374480  	0.039157 
1265.303296  	0.036957 
1267.232112  	0.035321 
1269.160928  	0.034198 
1271.089744  	0.033339 
1273.018560  	0.032562 
1274.947376  	0.032271 
1276.876192  	0.032683 
1278.805008  	0.033130 
1280.733824  	0.033122 
1282.662640  	0.032180 
1284.591456  	0.031084 
1286.520272  	0.030412 
1288.449088  	0.030077 
1290.377904  	0.029696 
1292.306720  	0.029980 
1294.235536  	0.030548 
1296.164352  	0.030730 
1298.093168  	0.029689 
1300.021984  	0.028202 
1301.950800  	0.026663 
1303.879616  	0.024976 
1305.808432  	0.023110 
1307.737248  	0.021266 
1309.666064  	0.019287 
1311.594880  	0.018483 
1313.523696  	0.018085 
1315.452512  	0.017228 
1317.381328  	0.017312 
1319.310144  	0.017390 
1321.238960  	0.016569 
1323.167776  	0.016378 
1325.096592  	0.016582 
1327.025408  	0.016646 
1328.954224  	0.016594 
1330.883040  	0.016197 
1332.811856  	0.015283 
1334.740672  	0.015066 
1336.669488  	0.016653 
1338.598304  	0.019544 
1340.527120  	0.018726 
1342.455936  	0.014546 
1344.384752  	0.013221 
1346.313568  	0.013435 
1348.242384  	0.014032 
1350.171200  	0.014655 
1352.100016  	0.015481 
1354.028832  	0.016944 
1355.957648  	0.018154 
1357.886464  	0.019163 
1359.815280  	0.021282 
1361.744096  	0.025305 
1363.672912  	0.026317 
1365.601728  	0.024188 
1367.530544  	0.025174 
1369.459360  	0.026643 
1371.388176  	0.026910 
1373.316992  	0.028889 
1375.245808  	0.028561 
1377.174624  	0.025420 
1379.103440  	0.023513 
1381.032256  	0.021303 
1382.961072  	0.019566 
1384.889888  	0.019396 
1386.818704  	0.021301 
1388.747520  	0.019431 
1390.676336  	0.016441 
1392.605152  	0.015991 
1394.533968  	0.018369 
1396.462784  	0.019244 
1398.391600  	0.018607 
1400.320416  	0.016395 
1402.249232  	0.014624 
1404.178048  	0.016281 
1406.106864  	0.016529 
1408.035680  	0.015942 
1409.964496  	0.017242 
1411.893312  	0.018538 
1413.822128  	0.019400 
1415.750944  	0.022660 
1417.679760  	0.027176 
1419.608576  	0.027914 
1421.537392  	0.024713 
1423.466208  	0.024754 
1425.395024  	0.023063 
1427.323840  	0.020800 
1429.252656  	0.020877 
1431.181472  	0.019919 
1433.110288  	0.018888 
1435.039104  	0.020221 
1436.967920  	0.022492 
1438.896736  	0.020111 
1440.825552  	0.019074 
1442.754368  	0.019336 
1444.683184  	0.019655 
1446.612000  	0.021159 
1448.540816  	0.022090 
1450.469632  	0.021355 
1452.398448  	0.022063 
1454.327264  	0.023841 
1456.256080  	0.029342 
1458.184896  	0.030773 
1460.113712  	0.024093 
1462.042528  	0.020650 
1463.971344  	0.021517 
1465.900160  	0.022075 
1467.828976  	0.020641 
1469.757792  	0.021408 
1471.686608  	0.027410 
1473.615424  	0.033682 
1475.544240  	0.033577 
1477.473056  	0.033372 
1479.401872  	0.033324 
1481.330688  	0.035849 
1483.259504  	0.036676 
1485.188320  	0.038115 
1487.117136  	0.042038 
1489.045952  	0.046812 
1490.974768  	0.044418 
1492.903584  	0.038136 
1494.832400  	0.035992 
1496.761216  	0.036170 
1498.690032  	0.032659 
1500.618848  	0.028310 
1502.547664  	0.024652 
1504.476480  	0.023784 
1506.405296  	0.032650 
1508.334112  	0.034966 
1510.262928  	0.026463 
1512.191744  	0.021536 
1514.120560  	0.020606 
1516.049376  	0.024465 
1517.978192  	0.025238 
1519.907008  	0.025465 
1521.835824  	0.030611 
1523.764640  	0.029415 
1525.693456  	0.030664 
1527.622272  	0.030662 
1529.551088  	0.027961 
1531.479904  	0.027513 
1533.408720  	0.029441 
1535.337536  	0.025650 
1537.266352  	0.023311 
1539.195168  	0.027018 
1541.123984  	0.029972 
1543.052800  	0.027106 
1544.981616  	0.023689 
1546.910432  	0.017529 
1548.839248  	0.017447 
1550.768064  	0.018571 
1552.696880  	0.017038 
1554.625696  	0.019171 
1556.554512  	0.020311 
1558.483328  	0.027321 
1560.412144  	0.025482 
1562.340960  	0.020405 
1564.269776  	0.020721 
1566.198592  	0.022439 
1568.127408  	0.024408 
1570.056224  	0.029406 
1571.985040  	0.029302 
1573.913856  	0.029941 
1575.842672  	0.034397 
1577.771488  	0.036215 
1579.700304  	0.033011 
1581.629120  	0.031894 
1583.557936  	0.031410 
1585.486752  	0.031798 
1587.415568  	0.032846 
1589.344384  	0.035362 
1591.273200  	0.038176 
1593.202016  	0.041798 
1595.130832  	0.045791 
1597.059648  	0.049167 
1598.988464  	0.051932 
1600.917280  	0.055662 
1602.846096  	0.058719 
1604.774912  	0.060414 
1606.703728  	0.061455 
1608.632544  	0.062501 
1610.561360  	0.061337 
1612.490176  	0.059793 
1614.418992  	0.058553 
1616.347808  	0.061449 
1618.276624  	0.062951 
1620.205440  	0.061680 
1622.134256  	0.063686 
1624.063072  	0.069082 
1625.991888  	0.070199 
1627.920704  	0.074136 
1629.849520  	0.077650 
1631.778336  	0.079713 
1633.707152  	0.082486 
1635.635968  	0.093993 
1637.564784  	0.100658 
1639.493600  	0.098620 
1641.422416  	0.099282 
1643.351232  	0.100024 
1645.280048  	0.102198 
1647.208864  	0.112172 
1649.137680  	0.109367 
1651.066496  	0.102631 
1652.995312  	0.109625 
1654.924128  	0.114862 
1656.852944  	0.105844 
1658.781760  	0.101657 
1660.710576  	0.100076 
1662.639392  	0.101194 
1664.568208  	0.098644 
1666.497024  	0.094298 
1668.425840  	0.094003 
1670.354656  	0.094545 
1672.283472  	0.089651 
1674.212288  	0.086035 
1676.141104  	0.085670 
1678.069920  	0.082298 
1679.998736  	0.082630 
1681.927552  	0.081875 
1683.856368  	0.085362 
1685.785184  	0.085653 
1687.714000  	0.080854 
1689.642816  	0.079904 
1691.571632  	0.077081 
1693.500448  	0.074538 
1695.429264  	0.077645 
1697.358080  	0.081741 
1699.286896  	0.079009 
1701.215712  	0.081327 
1703.144528  	0.076876 
1705.073344  	0.075580 
1707.002160  	0.073427 
1708.930976  	0.068988 
1710.859792  	0.065578 
1712.788608  	0.062987 
1714.717424  	0.062025 
1716.646240  	0.059868 
1718.575056  	0.051290 
1720.503872  	0.040818 
1722.432688  	0.034294 
1724.361504  	0.028088 
1726.290320  	0.022008 
1728.219136  	0.018901 
1730.147952  	0.017891 
1732.076768  	0.016345 
1734.005584  	0.015383 
1735.934400  	0.009272 
1737.863216  	0.006629 
1739.792032  	0.005381 
1741.720848  	0.004063 
1743.649664  	0.004633 
1745.578480  	0.003833 
1747.507296  	0.004528 
1749.436112  	0.005284 
1751.364928  	0.002945 
1753.293744  	-0.001335 
1755.222560  	-0.002499 
1757.151376  	-0.001239 
1759.080192  	-0.002275 
1761.009008  	-0.002152 
1762.937824  	-0.003091 
1764.866640  	-0.004819 
1766.795456  	-0.003865 
1768.724272  	-0.002501 
1770.653088  	-0.002131 
1772.581904  	-0.001237 
1774.510720  	-0.003027 
1776.439536  	-0.004483 
1778.368352  	-0.005335 
1780.297168  	-0.004652 
1782.225984  	-0.005672 
1784.154800  	-0.005801 
1786.083616  	-0.006359 
1788.012432  	-0.006945 
1789.941248  	-0.004945 
1791.870064  	-0.002534 
1793.798880  	-0.004279 
1795.727696  	-0.005218 
1797.656512  	-0.006122 
1799.585328  	-0.005862 
1801.514144  	-0.004963 
1803.442960  	-0.006495 
1805.371776  	-0.007738 
1807.300592  	-0.007521 
1809.229408  	-0.007144 
1811.158224  	-0.006756 
1813.087040  	-0.007997 
1815.015856  	-0.009104 
1816.944672  	-0.008524 
1818.873488  	-0.008598 
1820.802304  	-0.008708 
1822.731120  	-0.007812 
1824.659936  	-0.006735 
1826.588752  	-0.007185 
1828.517568  	-0.006813 
1830.446384  	-0.006227 
1832.375200  	-0.008296 
1834.304016  	-0.008801 
1836.232832  	-0.008580 
1838.161648  	-0.008616 
1840.090464  	-0.009148 
1842.019280  	-0.007771 
1843.948096  	-0.005832 
1845.876912  	-0.006330 
1847.805728  	-0.007689 
1849.734544  	-0.009244 
1851.663360  	-0.009944 
1853.592176  	-0.009634 
1855.520992  	-0.009823 
1857.449808  	-0.009525 
1859.378624  	-0.009707 
1861.307440  	-0.009618 
1863.236256  	-0.009838 
1865.165072  	-0.009132 
1867.093888  	-0.007087 
1869.022704  	-0.005515 
1870.951520  	-0.007896 
1872.880336  	-0.009770 
1874.809152  	-0.010435 
1876.737968  	-0.010660 
1878.666784  	-0.010685 
1880.595600  	-0.010753 
1882.524416  	-0.010537 
1884.453232  	-0.009957 
1886.382048  	-0.010147 
1888.310864  	-0.009105 
1890.239680  	-0.008728 
1892.168496  	-0.009754 
1894.097312  	-0.009431 
1896.026128  	-0.009474 
1897.954944  	-0.010278 
1899.883760  	-0.010526 
1901.812576  	-0.010698 
1903.741392  	-0.010633 
1905.670208  	-0.010786 
1907.599024  	-0.010327 
1909.527840  	-0.009554 
1911.456656  	-0.009623 
1913.385472  	-0.010138 
1915.314288  	-0.009788 
1917.243104  	-0.008904 
1919.171920  	-0.008875 
1921.100736  	-0.009227 
1923.029552  	-0.008883 
1924.958368  	-0.010986 
1926.887184  	-0.011430 
1928.816000  	-0.011791 
1930.744816  	-0.011566 
1932.673632  	-0.011274 
1934.602448  	-0.010924 
1936.531264  	-0.011235 
1938.460080  	-0.010787 
1940.388896  	-0.009302 
1942.317712  	-0.007640 
1944.246528  	-0.009389 
1946.175344  	-0.010503 
1948.104160  	-0.010888 
1950.032976  	-0.010819 
1951.961792  	-0.011195 
1953.890608  	-0.011494 
1955.819424  	-0.011773 
1957.748240  	-0.012415 
1959.677056  	-0.013371 
1961.605872  	-0.012575 
1963.534688  	-0.011713 
1965.463504  	-0.010785 
1967.392320  	-0.010687 
1969.321136  	-0.011534 
1971.249952  	-0.012910 
1973.178768  	-0.012744 
1975.107584  	-0.011866 
1977.036400  	-0.010515 
1978.965216  	-0.011174 
1980.894032  	-0.012042 
1982.822848  	-0.011897 
1984.751664  	-0.010866 
1986.680480  	-0.009955 
1988.609296  	-0.009764 
1990.538112  	-0.009934 
1992.466928  	-0.009040 
1994.395744  	-0.010886 
1996.324560  	-0.011260 
1998.253376  	-0.010507 
2000.182192  	-0.011296 
2002.111008  	-0.012506 
2004.039824  	-0.011890 
2005.968640  	-0.011361 
2007.897456  	-0.010802 
2009.826272  	-0.010745 
2011.755088  	-0.010357 
2013.683904  	-0.010500 
2015.612720  	-0.009509 
2017.541536  	-0.008597 
2019.470352  	-0.008756 
2021.399168  	-0.010833 
2023.327984  	-0.011173 
2025.256800  	-0.010999 
2027.185616  	-0.009958 
2029.114432  	-0.009414 
2031.043248  	-0.009838 
2032.972064  	-0.010547 
2034.900880  	-0.009165 
2036.829696  	-0.009425 
2038.758512  	-0.009765 
2040.687328  	-0.009672 
2042.616144  	-0.009201 
2044.544960  	-0.009449 
2046.473776  	-0.009573 
2048.402592  	-0.009659 
2050.331408  	-0.009025 
2052.260224  	-0.008824 
2054.189040  	-0.009359 
2056.117856  	-0.010090 
2058.046672  	-0.010017 
2059.975488  	-0.009404 
2061.904304  	-0.008750 
2063.833120  	-0.008994 
2065.761936  	-0.008839 
2067.690752  	-0.009078 
2069.619568  	-0.009156 
2071.548384  	-0.009678 
2073.477200  	-0.009274 
2075.406016  	-0.008889 
2077.334832  	-0.008662 
2079.263648  	-0.008076 
2081.192464  	-0.007749 
2083.121280  	-0.008425 
2085.050096  	-0.008945 
2086.978912  	-0.009379 
2088.907728  	-0.008685 
2090.836544  	-0.007969 
2092.765360  	-0.008191 
2094.694176  	-0.008515 
2096.622992  	-0.008425 
2098.551808  	-0.008485 
2100.480624  	-0.008380 
2102.409440  	-0.008247 
2104.338256  	-0.007923 
2106.267072  	-0.008356 
2108.195888  	-0.008700 
2110.124704  	-0.008567 
2112.053520  	-0.008222 
2113.982336  	-0.008433 
2115.911152  	-0.008766 
2117.839968  	-0.008737 
2119.768784  	-0.008424 
2121.697600  	-0.008431 
2123.626416  	-0.008349 
2125.555232  	-0.009040 
2127.484048  	-0.009518 
2129.412864  	-0.009247 
2131.341680  	-0.008848 
2133.270496  	-0.008512 
2135.199312  	-0.008121 
2137.128128  	-0.008246 
2139.056944  	-0.007430 
2140.985760  	-0.007482 
2142.914576  	-0.007671 
2144.843392  	-0.008630 
2146.772208  	-0.009366 
2148.701024  	-0.008901 
2150.629840  	-0.008347 
2152.558656  	-0.008038 
2154.487472  	-0.007746 
2156.416288  	-0.007642 
2158.345104  	-0.005748 
2160.273920  	-0.004257 
2162.202736  	-0.004883 
2164.131552  	-0.006505 
2166.060368  	-0.005758 
2167.989184  	-0.005439 
2169.918000  	-0.006427 
2171.846816  	-0.006883 
2173.775632  	-0.006441 
2175.704448  	-0.007027 
2177.633264  	-0.007124 
2179.562080  	-0.007947 
2181.490896  	-0.007436 
2183.419712  	-0.007308 
2185.348528  	-0.007173 
2187.277344  	-0.007090 
2189.206160  	-0.006702 
2191.134976  	-0.006787 
2193.063792  	-0.007413 
2194.992608  	-0.008250 
2196.921424  	-0.008390 
2198.850240  	-0.008265 
2200.779056  	-0.008014 
2202.707872  	-0.008108 
2204.636688  	-0.007720 
2206.565504  	-0.008263 
2208.494320  	-0.008714 
2210.423136  	-0.008327 
2212.351952  	-0.007867 
2214.280768  	-0.008217 
2216.209584  	-0.008224 
2218.138400  	-0.008766 
2220.067216  	-0.008957 
2221.996032  	-0.008918 
2223.924848  	-0.008555 
2225.853664  	-0.008574 
2227.782480  	-0.008643 
2229.711296  	-0.009716 
2231.640112  	-0.010068 
2233.568928  	-0.009654 
2235.497744  	-0.009123 
2237.426560  	-0.008799 
2239.355376  	-0.008972 
2241.284192  	-0.010012 
2243.213008  	-0.010107 
2245.141824  	-0.009652 
2247.070640  	-0.009669 
2248.999456  	-0.009730 
2250.928272  	-0.009560 
2252.857088  	-0.009680 
2254.785904  	-0.009538 
2256.714720  	-0.009345 
2258.643536  	-0.009206 
2260.572352  	-0.008815 
2262.501168  	-0.008419 
2264.429984  	-0.008672 
2266.358800  	-0.009013 
2268.287616  	-0.009295 
2270.216432  	-0.009256 
2272.145248  	-0.009242 
2274.074064  	-0.008852 
2276.002880  	-0.008579 
2277.931696  	-0.008487 
2279.860512  	-0.008716 
2281.789328  	-0.008510 
2283.718144  	-0.008379 
2285.646960  	-0.008155 
2287.575776  	-0.008129 
2289.504592  	-0.007946 
2291.433408  	-0.007510 
2293.362224  	-0.007256 
2295.291040  	-0.007233 
2297.219856  	-0.006885 
2299.148672  	-0.006642 
2301.077488  	-0.006373 
2303.006304  	-0.005773 
2304.935120  	-0.005191 
2306.863936  	-0.005015 
2308.792752  	-0.004939 
2310.721568  	-0.004907 
2312.650384  	-0.005136 
2314.579200  	-0.005656 
2316.508016  	-0.005568 
2318.436832  	-0.005505 
2320.365648  	-0.005569 
2322.294464  	-0.006018 
2324.223280  	-0.007248 
2326.152096  	-0.009111 
2328.080912  	-0.010217 
2330.009728  	-0.010657 
2331.938544  	-0.011341 
2333.867360  	-0.012422 
2335.796176  	-0.013165 
2337.724992  	-0.014031 
2339.653808  	-0.014317 
2341.582624  	-0.013675 
2343.511440  	-0.012349 
2345.440256  	-0.010535 
2347.369072  	-0.008880 
2349.297888  	-0.008351 
2351.226704  	-0.009801 
2353.155520  	-0.012204 
2355.084336  	-0.013759 
2357.013152  	-0.014409 
2358.941968  	-0.014927 
2360.870784  	-0.015586 
2362.799600  	-0.015143 
2364.728416  	-0.013945 
2366.657232  	-0.013117 
2368.586048  	-0.011898 
2370.514864  	-0.010169 
2372.443680  	-0.009053 
2374.372496  	-0.007756 
2376.301312  	-0.006531 
2378.230128  	-0.005984 
2380.158944  	-0.006191 
2382.087760  	-0.006790 
2384.016576  	-0.007703 
2385.945392  	-0.008454 
2387.874208  	-0.008838 
2389.803024  	-0.009229 
2391.731840  	-0.009594 
2393.660656  	-0.009732 
2395.589472  	-0.009708 
2397.518288  	-0.009582 
2399.447104  	-0.009602 
2401.375920  	-0.009608 
2403.304736  	-0.009882 
2405.233552  	-0.009919 
2407.162368  	-0.009774 
2409.091184  	-0.009793 
2411.020000  	-0.009894 
2412.948816  	-0.009915 
2414.877632  	-0.009887 
2416.806448  	-0.009531 
2418.735264  	-0.009445 
2420.664080  	-0.009588 
2422.592896  	-0.009660 
2424.521712  	-0.009566 
2426.450528  	-0.009559 
2428.379344  	-0.009596 
2430.308160  	-0.009562 
2432.236976  	-0.009555 
2434.165792  	-0.009297 
2436.094608  	-0.009175 
2438.023424  	-0.009102 
2439.952240  	-0.008957 
2441.881056  	-0.009079 
2443.809872  	-0.009181 
2445.738688  	-0.009214 
2447.667504  	-0.009120 
2449.596320  	-0.008896 
2451.525136  	-0.008772 
2453.453952  	-0.008731 
2455.382768  	-0.008717 
2457.311584  	-0.008946 
2459.240400  	-0.009067 
2461.169216  	-0.008901 
2463.098032  	-0.008804 
2465.026848  	-0.008818 
2466.955664  	-0.008749 
2468.884480  	-0.008969 
2470.813296  	-0.009159 
2472.742112  	-0.008971 
2474.670928  	-0.008741 
2476.599744  	-0.008420 
2478.528560  	-0.008167 
2480.457376  	-0.008058 
2482.386192  	-0.007923 
2484.315008  	-0.008035 
2486.243824  	-0.008156 
2488.172640  	-0.008011 
2490.101456  	-0.007809 
2492.030272  	-0.007651 
2493.959088  	-0.007792 
2495.887904  	-0.007968 
2497.816720  	-0.007658 
2499.745536  	-0.007470 
2501.674352  	-0.007463 
2503.603168  	-0.007434 
2505.531984  	-0.007446 
2507.460800  	-0.007701 
2509.389616  	-0.007849 
2511.318432  	-0.007784 
2513.247248  	-0.007629 
2515.176064  	-0.007524 
2517.104880  	-0.007632 
2519.033696  	-0.007887 
2520.962512  	-0.007833 
2522.891328  	-0.007672 
2524.820144  	-0.007236 
2526.748960  	-0.007039 
2528.677776  	-0.007014 
2530.606592  	-0.007054 
2532.535408  	-0.006964 
2534.464224  	-0.007047 
2536.393040  	-0.007267 
2538.321856  	-0.007215 
2540.250672  	-0.006958 
2542.179488  	-0.006806 
2544.108304  	-0.006720 
2546.037120  	-0.006668 
2547.965936  	-0.006568 
2549.894752  	-0.006512 
2551.823568  	-0.006221 
2553.752384  	-0.006083 
2555.681200  	-0.006242 
2557.610016  	-0.006358 
2559.538832  	-0.006315 
2561.467648  	-0.006215 
2563.396464  	-0.006128 
2565.325280  	-0.005976 
2567.254096  	-0.006013 
2569.182912  	-0.006124 
2571.111728  	-0.005982 
2573.040544  	-0.005823 
2574.969360  	-0.005568 
2576.898176  	-0.005274 
2578.826992  	-0.005416 
2580.755808  	-0.005662 
2582.684624  	-0.005610 
2584.613440  	-0.005545 
2586.542256  	-0.005333 
2588.471072  	-0.005247 
2590.399888  	-0.005236 
2592.328704  	-0.005193 
2594.257520  	-0.004983 
2596.186336  	-0.005096 
2598.115152  	-0.005101 
2600.043968  	-0.004785 
2601.972784  	-0.004724 
2603.901600  	-0.004793 
2605.830416  	-0.004890 
2607.759232  	-0.004867 
2609.688048  	-0.004832 
2611.616864  	-0.004746 
2613.545680  	-0.004597 
2615.474496  	-0.004504 
2617.403312  	-0.004190 
2619.332128  	-0.004128 
2621.260944  	-0.004327 
2623.189760  	-0.004210 
2625.118576  	-0.003970 
2627.047392  	-0.003975 
2628.976208  	-0.003888 
2630.905024  	-0.003857 
2632.833840  	-0.003953 
2634.762656  	-0.003910 
2636.691472  	-0.003630 
2638.620288  	-0.003580 
2640.549104  	-0.003549 
2642.477920  	-0.003377 
2644.406736  	-0.003391 
2646.335552  	-0.003439 
2648.264368  	-0.003264 
2650.193184  	-0.003100 
2652.122000  	-0.003044 
2654.050816  	-0.002989 
2655.979632  	-0.002933 
2657.908448  	-0.002795 
2659.837264  	-0.002688 
2661.766080  	-0.002662 
2663.694896  	-0.002581 
2665.623712  	-0.002534 
2667.552528  	-0.002497 
2669.481344  	-0.002481 
2671.410160  	-0.002389 
2673.338976  	-0.002208 
2675.267792  	-0.002047 
2677.196608  	-0.001854 
2679.125424  	-0.001786 
2681.054240  	-0.001820 
2682.983056  	-0.001735 
2684.911872  	-0.001682 
2686.840688  	-0.001551 
2688.769504  	-0.001419 
2690.698320  	-0.001387 
2692.627136  	-0.001355 
2694.555952  	-0.001301 
2696.484768  	-0.001221 
2698.413584  	-0.001140 
2700.342400  	-0.001141 
2702.271216  	-0.000987 
2704.200032  	-0.000754 
2706.128848  	-0.000645 
2708.057664  	-0.000631 
2709.986480  	-0.000663 
2711.915296  	-0.000627 
2713.844112  	-0.000528 
2715.772928  	-0.000462 
2717.701744  	-0.000421 
2719.630560  	-0.000249 
2721.559376  	-0.000134 
2723.488192  	-0.000063 
2725.417008  	0.000048 
2727.345824  	0.000114 
2729.274640  	0.000295 
2731.203456  	0.000441 
2733.132272  	0.000458 
2735.061088  	0.000477 
2736.989904  	0.000480 
2738.918720  	0.000553 
2740.847536  	0.000700 
2742.776352  	0.000867 
2744.705168  	0.001008 
2746.633984  	0.000998 
2748.562800  	0.001028 
2750.491616  	0.001150 
2752.420432  	0.001192 
2754.349248  	0.001150 
2756.278064  	0.001134 
2758.206880  	0.001085 
2760.135696  	0.001089 
2762.064512  	0.001161 
2763.993328  	0.001146 
2765.922144  	0.001114 
2767.850960  	0.001164 
2769.779776  	0.001150 
2771.708592  	0.001148 
2773.637408  	0.001151 
2775.566224  	0.001144 
2777.495040  	0.001139 
2779.423856  	0.001124 
2781.352672  	0.001234 
2783.281488  	0.001348 
2785.210304  	0.001295 
2787.139120  	0.001283 
2789.067936  	0.001260 
2790.996752  	0.001259 
2792.925568  	0.001267 
2794.854384  	0.001274 
2796.783200  	0.001265 
2798.712016  	0.001218 
2800.640832  	0.001191 
2802.569648  	0.001267 
2804.498464  	0.001361 
2806.427280  	0.001491 
2808.356096  	0.001631 
2810.284912  	0.001607 
2812.213728  	0.001436 
2814.142544  	0.001401 
2816.071360  	0.001405 
2818.000176  	0.001477 
2819.928992  	0.001521 
2821.857808  	0.001438 
2823.786624  	0.001372 
2825.715440  	0.001444 
2827.644256  	0.001523 
2829.573072  	0.001377 
2831.501888  	0.001342 
2833.430704  	0.001438 
2835.359520  	0.001414 
2837.288336  	0.001362 
2839.217152  	0.001350 
2841.145968  	0.001254 
2843.074784  	0.001225 
2845.003600  	0.001265 
2846.932416  	0.001245 
2848.861232  	0.001290 
2850.790048  	0.001284 
2852.718864  	0.001303 
2854.647680  	0.001312 
2856.576496  	0.001358 
2858.505312  	0.001394 
2860.434128  	0.001456 
2862.362944  	0.001478 
2864.291760  	0.001439 
2866.220576  	0.001450 
2868.149392  	0.001524 
2870.078208  	0.001492 
2872.007024  	0.001570 
2873.935840  	0.001772 
2875.864656  	0.001941 
2877.793472  	0.002142 
2879.722288  	0.002479 
2881.651104  	0.002704 
2883.579920  	0.002835 
2885.508736  	0.002991 
2887.437552  	0.003087 
2889.366368  	0.003054 
2891.295184  	0.003077 
2893.224000  	0.003123 
2895.152816  	0.003128 
2897.081632  	0.003181 
2899.010448  	0.002949 
2900.939264  	0.002615 
2902.868080  	0.002819 
2904.796896  	0.003106 
2906.725712  	0.003260 
2908.654528  	0.003455 
2910.583344  	0.003707 
2912.512160  	0.003950 
2914.440976  	0.004197 
2916.369792  	0.004542 
2918.298608  	0.004810 
2920.227424  	0.005066 
2922.156240  	0.005343 
2924.085056  	0.005731 
2926.013872  	0.006084 
2927.942688  	0.006518 
2929.871504  	0.007019 
2931.800320  	0.007377 
2933.729136  	0.007830 
2935.657952  	0.008262 
2937.586768  	0.008577 
2939.515584  	0.008756 
2941.444400  	0.008909 
2943.373216  	0.009201 
2945.302032  	0.009472 
2947.230848  	0.009560 
2949.159664  	0.009459 
2951.088480  	0.009337 
2953.017296  	0.009214 
2954.946112  	0.009047 
2956.874928  	0.008869 
2958.803744  	0.008737 
2960.732560  	0.008630 
2962.661376  	0.008512 
2964.590192  	0.008385 
2966.519008  	0.008253 
2968.447824  	0.008030 
2970.376640  	0.007810 
2972.305456  	0.007613 
2974.234272  	0.007764 
2976.163088  	0.007854 
2978.091904  	0.007642 
2980.020720  	0.007470 
2981.949536  	0.007403 
2983.878352  	0.007333 
2985.807168  	0.007269 
2987.735984  	0.007185 
2989.664800  	0.007159 
2991.593616  	0.007624 
2993.522432  	0.008091 
2995.451248  	0.008113 
2997.380064  	0.008156 
2999.308880  	0.008513 
3001.237696  	0.008913 
3003.166512  	0.009367 
3005.095328  	0.009730 
3007.024144  	0.009917 
3008.952960  	0.010395 
3010.881776  	0.011056 
3012.810592  	0.011547 
3014.739408  	0.011785 
3016.668224  	0.012087 
3018.597040  	0.012429 
3020.525856  	0.012783 
3022.454672  	0.013089 
3024.383488  	0.013450 
3026.312304  	0.013892 
3028.241120  	0.014216 
3030.169936  	0.014655 
3032.098752  	0.015261 
3034.027568  	0.015462 
3035.956384  	0.015684 
3037.885200  	0.015943 
3039.814016  	0.016304 
3041.742832  	0.016551 
3043.671648  	0.016894 
3045.600464  	0.017231 
3047.529280  	0.017624 
3049.458096  	0.018157 
3051.386912  	0.018385 
3053.315728  	0.018447 
3055.244544  	0.018841 
3057.173360  	0.019498 
3059.102176  	0.019879 
3061.030992  	0.020309 
3062.959808  	0.020759 
3064.888624  	0.021312 
3066.817440  	0.021907 
3068.746256  	0.022311 
3070.675072  	0.022527 
3072.603888  	0.022983 
3074.532704  	0.023564 
3076.461520  	0.024021 
3078.390336  	0.024551 
3080.319152  	0.025278 
3082.247968  	0.025727 
3084.176784  	0.026040 
3086.105600  	0.026616 
3088.034416  	0.027167 
3089.963232  	0.027411 
3091.892048  	0.027827 
3093.820864  	0.028399 
3095.749680  	0.029234 
3097.678496  	0.029856 
3099.607312  	0.030362 
3101.536128  	0.031028 
3103.464944  	0.031294 
3105.393760  	0.031485 
3107.322576  	0.032021 
3109.251392  	0.032640 
3111.180208  	0.032942 
3113.109024  	0.033214 
3115.037840  	0.033795 
3116.966656  	0.034471 
3118.895472  	0.034920 
3120.824288  	0.035290 
3122.753104  	0.035857 
3124.681920  	0.036086 
3126.610736  	0.036339 
3128.539552  	0.036682 
3130.468368  	0.036993 
3132.397184  	0.037433 
3134.326000  	0.037693 
3136.254816  	0.037873 
3138.183632  	0.038289 
3140.112448  	0.038717 
3142.041264  	0.039223 
3143.970080  	0.039790 
3145.898896  	0.040205 
3147.827712  	0.040419 
3149.756528  	0.040831 
3151.685344  	0.041297 
3153.614160  	0.041556 
3155.542976  	0.041751 
3157.471792  	0.042236 
3159.400608  	0.042856 
3161.329424  	0.043314 
3163.258240  	0.043724 
3165.187056  	0.044049 
3167.115872  	0.044258 
3169.044688  	0.044722 
3170.973504  	0.045002 
3172.902320  	0.045165 
3174.831136  	0.045310 
3176.759952  	0.045693 
3178.688768  	0.046394 
3180.617584  	0.046460 
3182.546400  	0.046317 
3184.475216  	0.046435 
3186.404032  	0.046609 
3188.332848  	0.046615 
3190.261664  	0.046658 
3192.190480  	0.046881 
3194.119296  	0.047166 
3196.048112  	0.047137 
3197.976928  	0.047428 
3199.905744  	0.047470 
3201.834560  	0.047363 
3203.763376  	0.047284 
3205.692192  	0.047145 
3207.621008  	0.047086 
3209.549824  	0.047344 
3211.478640  	0.047347 
3213.407456  	0.047172 
3215.336272  	0.047220 
3217.265088  	0.047050 
3219.193904  	0.047168 
3221.122720  	0.047253 
3223.051536  	0.046956 
3224.980352  	0.046606 
3226.909168  	0.046456 
3228.837984  	0.046360 
3230.766800  	0.046289 
3232.695616  	0.046414 
3234.624432  	0.046321 
3236.553248  	0.046343 
3238.482064  	0.046518 
3240.410880  	0.046488 
3242.339696  	0.046464 
3244.268512  	0.046643 
3246.197328  	0.046773 
3248.126144  	0.046472 
3250.054960  	0.046540 
3251.983776  	0.046786 
3253.912592  	0.047181 
3255.841408  	0.047295 
3257.770224  	0.047227 
3259.699040  	0.047371 
3261.627856  	0.047594 
3263.556672  	0.047507 
3265.485488  	0.047723 
3267.414304  	0.047912 
3269.343120  	0.048001 
3271.271936  	0.048118 
3273.200752  	0.048324 
3275.129568  	0.048512 
3277.058384  	0.048627 
3278.987200  	0.048577 
3280.916016  	0.048498 
3282.844832  	0.048685 
3284.773648  	0.048902 
3286.702464  	0.048952 
3288.631280  	0.049048 
3290.560096  	0.049132 
3292.488912  	0.049201 
3294.417728  	0.049112 
3296.346544  	0.049222 
3298.275360  	0.049487 
3300.204176  	0.049636 
3302.132992  	0.049633 
3304.061808  	0.049963 
3305.990624  	0.050211 
3307.919440  	0.050454 
3309.848256  	0.050767 
3311.777072  	0.050929 
3313.705888  	0.051119 
3315.634704  	0.051242 
3317.563520  	0.051379 
3319.492336  	0.051426 
3321.421152  	0.051547 
3323.349968  	0.051668 
3325.278784  	0.051781 
3327.207600  	0.051964 
3329.136416  	0.051839 
3331.065232  	0.051633 
3332.994048  	0.051705 
3334.922864  	0.052300 
3336.851680  	0.052546 
3338.780496  	0.052126 
3340.709312  	0.051627 
3342.638128  	0.051736 
3344.566944  	0.051648 
3346.495760  	0.051275 
3348.424576  	0.051142 
3350.353392  	0.051176 
3352.282208  	0.050819 
3354.211024  	0.050671 
3356.139840  	0.050871 
3358.068656  	0.050738 
3359.997472  	0.050440 
3361.926288  	0.050144 
3363.855104  	0.049692 
3365.783920  	0.049742 
3367.712736  	0.049724 
3369.641552  	0.049185 
3371.570368  	0.048732 
3373.499184  	0.048759 
3375.428000  	0.048692 
3377.356816  	0.048537 
3379.285632  	0.048290 
3381.214448  	0.047989 
3383.143264  	0.047869 
3385.072080  	0.047963 
3387.000896  	0.047374 
3388.929712  	0.046846 
3390.858528  	0.046952 
3392.787344  	0.047526 
3394.716160  	0.047094 
3396.644976  	0.046793 
3398.573792  	0.046396 
3400.502608  	0.045546 
3402.431424  	0.045053 
3404.360240  	0.044715 
3406.289056  	0.044349 
3408.217872  	0.043953 
3410.146688  	0.043540 
3412.075504  	0.043206 
3414.004320  	0.043052 
3415.933136  	0.042864 
3417.861952  	0.042609 
3419.790768  	0.042940 
3421.719584  	0.042996 
3423.648400  	0.042164 
3425.577216  	0.041178 
3427.506032  	0.040677 
3429.434848  	0.040418 
3431.363664  	0.040363 
3433.292480  	0.040065 
3435.221296  	0.039519 
3437.150112  	0.039043 
3439.078928  	0.038546 
3441.007744  	0.038273 
3442.936560  	0.038455 
3444.865376  	0.037940 
3446.794192  	0.038596 
3448.723008  	0.038263 
3450.651824  	0.036389 
3452.580640  	0.035702 
3454.509456  	0.035259 
3456.438272  	0.035006 
3458.367088  	0.034786 
3460.295904  	0.034520 
3462.224720  	0.034316 
3464.153536  	0.033509 
3466.082352  	0.032785 
3468.011168  	0.032508 
3469.939984  	0.031915 
3471.868800  	0.031186 
3473.797616  	0.030574 
3475.726432  	0.030120 
3477.655248  	0.029402 
3479.584064  	0.029229 
3481.512880  	0.029934 
3483.441696  	0.029522 
3485.370512  	0.027925 
3487.299328  	0.027445 
3489.228144  	0.026843 
3491.156960  	0.025738 
3493.085776  	0.025308 
3495.014592  	0.025433 
3496.943408  	0.025168 
3498.872224  	0.024210 
3500.801040  	0.024516 
3502.729856  	0.025715 
3504.658672  	0.024866 
3506.587488  	0.022614 
3508.516304  	0.022566 
3510.445120  	0.022826 
3512.373936  	0.021358 
3514.302752  	0.020339 
3516.231568  	0.019805 
3518.160384  	0.019518 
3520.089200  	0.018892 
3522.018016  	0.019541 
3523.946832  	0.021120 
3525.875648  	0.020526 
3527.804464  	0.019913 
3529.733280  	0.018807 
3531.662096  	0.016981 
3533.590912  	0.015616 
3535.519728  	0.015986 
3537.448544  	0.016012 
3539.377360  	0.014439 
3541.306176  	0.013884 
3543.234992  	0.015182 
3545.163808  	0.017535 
3547.092624  	0.017413 
3549.021440  	0.014210 
3550.950256  	0.012795 
3552.879072  	0.013754 
3554.807888  	0.012106 
3556.736704  	0.010238 
3558.665520  	0.010391 
3560.594336  	0.011064 
3562.523152  	0.010811 
3564.451968  	0.012208 
3566.380784  	0.017110 
3568.309600  	0.016973 
3570.238416  	0.010836 
3572.167232  	0.007636 
3574.096048  	0.006967 
3576.024864  	0.006623 
3577.953680  	0.006149 
3579.882496  	0.006009 
3581.811312  	0.005204 
3583.740128  	0.004779 
3585.668944  	0.006679 
3587.597760  	0.010761 
3589.526576  	0.007536 
3591.455392  	0.003398 
3593.384208  	0.003973 
3595.313024  	0.005146 
3597.241840  	0.003569 
3599.170656  	0.002094 
3601.099472  	0.001722 
3603.028288  	0.000087 
3604.957104  	-0.001060 
3606.885920  	0.000934 
3608.814736  	0.002392 
3610.743552  	0.000585 
3612.672368  	0.001293 
3614.601184  	0.001454 
3616.530000  	-0.000633 
3618.458816  	0.000247 
3620.387632  	-0.000449 
3622.316448  	-0.004186 
3624.245264  	-0.006140 
3626.174080  	-0.005697 
3628.102896  	-0.002176 
3630.031712  	-0.000502 
3631.960528  	-0.005449 
3633.889344  	-0.007239 
3635.818160  	-0.008783 
3637.746976  	-0.010018 
3639.675792  	-0.010653 
3641.604608  	-0.010465 
3643.533424  	-0.010568 
3645.462240  	-0.009989 
3647.391056  	-0.004925 
3649.319872  	-0.001634 
3651.248688  	-0.005570 
3653.177504  	-0.011547 
3655.106320  	-0.013104 
3657.035136  	-0.012758 
3658.963952  	-0.014676 
3660.892768  	-0.015785 
3662.821584  	-0.016692 
3664.750400  	-0.017078 
3666.679216  	-0.016336 
3668.608032  	-0.013549 
3670.536848  	-0.011102 
3672.465664  	-0.013648 
3674.394480  	-0.012543 
3676.323296  	-0.009515 
3678.252112  	-0.013087 
3680.180928  	-0.015700 
3682.109744  	-0.017628 
3684.038560  	-0.017875 
3685.967376  	-0.017411 
3687.896192  	-0.014792 
3689.825008  	-0.012032 
3691.753824  	-0.014131 
3693.682640  	-0.017103 
3695.611456  	-0.018142 
3697.540272  	-0.018392 
3699.469088  	-0.018760 
3701.397904  	-0.017509 
3703.326720  	-0.017456 
3705.255536  	-0.018240 
3707.184352  	-0.017524 
3709.113168  	-0.015279 
3711.041984  	-0.012265 
3712.970800  	-0.013371 
3714.899616  	-0.016313 
3716.828432  	-0.017732 
3718.757248  	-0.017087 
3720.686064  	-0.016378 
3722.614880  	-0.014924 
3724.543696  	-0.014137 
3726.472512  	-0.013812 
3728.401328  	-0.016196 
3730.330144  	-0.017722 
3732.258960  	-0.015279 
3734.187776  	-0.009913 
3736.116592  	-0.007456 
3738.045408  	-0.012108 
3739.974224  	-0.014316 
3741.903040  	-0.014661 
3743.831856  	-0.013281 
3745.760672  	-0.011526 
3747.689488  	-0.013004 
3749.618304  	-0.011106 
3751.547120  	-0.009734 
3753.475936  	-0.013279 
3755.404752  	-0.016023 
3757.333568  	-0.015854 
3759.262384  	-0.015054 
3761.191200  	-0.016606 
3763.120016  	-0.018045 
3765.048832  	-0.016845 
3766.977648  	-0.016819 
3768.906464  	-0.016903 
3770.835280  	-0.016512 
3772.764096  	-0.018307 
3774.692912  	-0.019363 
3776.621728  	-0.019240 
3778.550544  	-0.017774 
3780.479360  	-0.017193 
3782.408176  	-0.018315 
3784.336992  	-0.017818 
3786.265808  	-0.017960 
3788.194624  	-0.019138 
3790.123440  	-0.019528 
3792.052256  	-0.019590 
3793.981072  	-0.019470 
3795.909888  	-0.017307 
3797.838704  	-0.015558 
3799.767520  	-0.015588 
3801.696336  	-0.013363 
3803.625152  	-0.015514 
3805.553968  	-0.017543 
3807.482784  	-0.016910 
3809.411600  	-0.018241 
3811.340416  	-0.019196 
3813.269232  	-0.019075 
3815.198048  	-0.016859 
3817.126864  	-0.014847 
3819.055680  	-0.015089 
3820.984496  	-0.012921 
3822.913312  	-0.014562 
3824.842128  	-0.016925 
3826.770944  	-0.016783 
3828.699760  	-0.017431 
3830.628576  	-0.017761 
3832.557392  	-0.017113 
3834.486208  	-0.016744 
3836.415024  	-0.015255 
3838.343840  	-0.012994 
3840.272656  	-0.012685 
3842.201472  	-0.014668 
3844.130288  	-0.016053 
3846.059104  	-0.017934 
3847.987920  	-0.018414 
3849.916736  	-0.016937 
3851.845552  	-0.013663 
3853.774368  	-0.009502 
3855.703184  	-0.012542 
3857.632000  	-0.015376 
3859.560816  	-0.017302 
3861.489632  	-0.016458 
3863.418448  	-0.014458 
3865.347264  	-0.013786 
3867.276080  	-0.015816 
3869.204896  	-0.013929 
3871.133712  	-0.012353 
3873.062528  	-0.014835 
3874.991344  	-0.016123 
3876.920160  	-0.018529 
3878.848976  	-0.017703 
3880.777792  	-0.014305 
3882.706608  	-0.014816 
3884.635424  	-0.015409 
3886.564240  	-0.015873 
3888.493056  	-0.018375 
3890.421872  	-0.017312 
3892.350688  	-0.015639 
3894.279504  	-0.017525 
3896.208320  	-0.018810 
3898.137136  	-0.016999 
3900.065952  	-0.013912 
3901.994768  	-0.012782 
3903.923584  	-0.012315 
3905.852400  	-0.014509 
3907.781216  	-0.018290 
3909.710032  	-0.020149 
3911.638848  	-0.020422 
3913.567664  	-0.020094 
3915.496480  	-0.018226 
3917.425296  	-0.016190 
3919.354112  	-0.016831 
3921.282928  	-0.017568 
3923.211744  	-0.016833 
3925.140560  	-0.016175 
3927.069376  	-0.018203 
3928.998192  	-0.018173 
3930.927008  	-0.016313 
3932.855824  	-0.016052 
3934.784640  	-0.018361 
3936.713456  	-0.019510 
3938.642272  	-0.019412 
3940.571088  	-0.018982 
3942.499904  	-0.017133 
3944.428720  	-0.017521 
3946.357536  	-0.018325 
3948.286352  	-0.016956 
3950.215168  	-0.017530 
3952.143984  	-0.019264 
3954.072800  	-0.019988 
3956.001616  	-0.019671 
3957.930432  	-0.019277 
3959.859248  	-0.019081 
3961.788064  	-0.018745 
3963.716880  	-0.019285 
3965.645696  	-0.020284 
3967.574512  	-0.020328 
3969.503328  	-0.020096 
3971.432144  	-0.019815 
3973.360960  	-0.019227 
3975.289776  	-0.018748 
3977.218592  	-0.019271 
3979.147408  	-0.019920 
3981.076224  	-0.019929 
3983.005040  	-0.020065 
3984.933856  	-0.020096 
3986.862672  	-0.019925 
3988.791488  	-0.019715 
3990.720304  	-0.019268 
3992.649120  	-0.019593 
3994.577936  	-0.019924 
3996.506752  	-0.020201 
3998.435568  	-0.020411 
4000.364384  	-0.020237 