##TITLE=No Description
##DATA TYPE=INFRARED SPECTRUM
##XUNITS=1/CM
##YUNITS=Abs
399.264912  	0.588570 
401.193728  	0.593059 
403.122544  	0.615746 
405.051360  	0.607478 
406.980176  	0.608315 
408.908992  	0.599285 
410.837808  	0.590295 
412.766624  	0.573337 
414.695440  	0.569451 
416.624256  	0.565351 
418.553072  	0.581622 
420.481888  	0.578087 
422.410704  	0.581645 
424.339520  	0.571935 
426.268336  	0.564453 
428.197152  	0.562078 
430.125968  	0.572802 
432.054784  	0.560556 
433.983600  	0.556603 
435.912416  	0.559769 
437.841232  	0.556171 
439.770048  	0.543879 
441.698864  	0.544739 
443.627680  	0.544014 
445.556496  	0.545089 
447.485312  	0.542983 
449.414128  	0.547020 
451.342944  	0.545079 
453.271760  	0.544985 
455.200576  	0.542444 
457.129392  	0.542483 
459.058208  	0.535611 
460.987024  	0.542398 
462.915840  	0.545535 
464.844656  	0.546745 
466.773472  	0.541926 
468.702288  	0.543110 
470.631104  	0.542144 
472.559920  	0.541763 
474.488736  	0.537773 
476.417552  	0.535912 
478.346368  	0.534374 
480.275184  	0.538170 
482.204000  	0.534648 
484.132816  	0.528720 
486.061632  	0.527256 
487.990448  	0.532268 
489.919264  	0.532699 
491.848080  	0.533386 
493.776896  	0.526324 
495.705712  	0.521890 
497.634528  	0.518562 
499.563344  	0.519748 
501.492160  	0.519694 
503.420976  	0.523081 
505.349792  	0.525585 
507.278608  	0.528102 
509.207424  	0.525963 
511.136240  	0.525305 
513.065056  	0.523470 
514.993872  	0.528360 
516.922688  	0.530636 
518.851504  	0.531002 
520.780320  	0.526325 
522.709136  	0.522723 
524.637952  	0.521262 
526.566768  	0.524391 
528.495584  	0.524356 
530.424400  	0.524585 
532.353216  	0.519853 
534.282032  	0.511581 
536.210848  	0.504780 
538.139664  	0.501114 
540.068480  	0.496079 
541.997296  	0.492878 
543.926112  	0.487132 
545.854928  	0.484763 
547.783744  	0.480971 
549.712560  	0.478531 
551.641376  	0.474535 
553.570192  	0.471590 
555.499008  	0.467585 
557.427824  	0.464042 
559.356640  	0.458755 
561.285456  	0.455191 
563.214272  	0.450078 
565.143088  	0.447557 
567.071904  	0.444734 
569.000720  	0.440948 
570.929536  	0.437205 
572.858352  	0.435856 
574.787168  	0.433518 
576.715984  	0.431236 
578.644800  	0.427348 
580.573616  	0.423744 
582.502432  	0.418075 
584.431248  	0.414481 
586.360064  	0.410964 
588.288880  	0.408923 
590.217696  	0.406814 
592.146512  	0.404461 
594.075328  	0.401540 
596.004144  	0.399834 
597.932960  	0.397308 
599.861776  	0.395923 
601.790592  	0.393733 
603.719408  	0.391794 
605.648224  	0.389608 
607.577040  	0.388042 
609.505856  	0.387382 
611.434672  	0.386841 
613.363488  	0.383870 
615.292304  	0.382642 
617.221120  	0.381188 
619.149936  	0.379258 
621.078752  	0.377618 
623.007568  	0.377328 
624.936384  	0.375360 
626.865200  	0.373602 
628.794016  	0.373152 
630.722832  	0.372393 
632.651648  	0.371047 
634.580464  	0.371153 
636.509280  	0.371380 
638.438096  	0.372095 
640.366912  	0.371524 
642.295728  	0.369367 
644.224544  	0.366074 
646.153360  	0.363101 
648.082176  	0.358887 
650.010992  	0.355490 
651.939808  	0.351886 
653.868624  	0.348108 
655.797440  	0.344140 
657.726256  	0.340438 
659.655072  	0.336160 
661.583888  	0.331839 
663.512704  	0.327284 
665.441520  	0.324625 
667.370336  	0.320783 
669.299152  	0.315795 
671.227968  	0.312357 
673.156784  	0.309041 
675.085600  	0.306132 
677.014416  	0.303436 
678.943232  	0.300967 
680.872048  	0.299142 
682.800864  	0.297556 
684.729680  	0.296122 
686.658496  	0.294275 
688.587312  	0.293143 
690.516128  	0.291465 
692.444944  	0.289496 
694.373760  	0.287841 
696.302576  	0.286485 
698.231392  	0.283732 
700.160208  	0.280828 
702.089024  	0.278409 
704.017840  	0.276209 
705.946656  	0.273791 
707.875472  	0.271390 
709.804288  	0.268921 
711.733104  	0.267036 
713.661920  	0.265239 
715.590736  	0.263972 
717.519552  	0.263170 
719.448368  	0.263259 
721.377184  	0.263248 
723.306000  	0.263091 
725.234816  	0.263378 
727.163632  	0.263170 
729.092448  	0.261215 
731.021264  	0.258291 
732.950080  	0.254682 
734.878896  	0.251451 
736.807712  	0.248750 
738.736528  	0.245969 
740.665344  	0.243639 
742.594160  	0.241889 
744.522976  	0.240262 
746.451792  	0.238758 
748.380608  	0.237186 
750.309424  	0.235928 
752.238240  	0.234928 
754.167056  	0.234052 
756.095872  	0.232804 
758.024688  	0.231738 
759.953504  	0.231284 
761.882320  	0.231955 
763.811136  	0.232233 
765.739952  	0.231223 
767.668768  	0.228841 
769.597584  	0.226075 
771.526400  	0.224670 
773.455216  	0.225933 
775.384032  	0.228847 
777.312848  	0.233508 
779.241664  	0.237448 
781.170480  	0.237781 
783.099296  	0.234303 
785.028112  	0.228858 
786.956928  	0.222966 
788.885744  	0.217929 
790.814560  	0.214108 
792.743376  	0.211607 
794.672192  	0.210168 
796.601008  	0.209436 
798.529824  	0.206567 
800.458640  	0.201758 
802.387456  	0.198131 
804.316272  	0.196018 
806.245088  	0.194478 
808.173904  	0.193591 
810.102720  	0.193224 
812.031536  	0.193206 
813.960352  	0.193361 
815.889168  	0.193443 
817.817984  	0.193411 
819.746800  	0.193513 
821.675616  	0.193604 
823.604432  	0.193376 
825.533248  	0.192796 
827.462064  	0.192080 
829.390880  	0.191013 
831.319696  	0.189717 
833.248512  	0.187767 
835.177328  	0.185342 
837.106144  	0.182517 
839.034960  	0.179336 
840.963776  	0.175856 
842.892592  	0.171894 
844.821408  	0.168239 
846.750224  	0.165295 
848.679040  	0.162618 
850.607856  	0.160419 
852.536672  	0.158516 
854.465488  	0.156795 
856.394304  	0.155362 
858.323120  	0.153880 
860.251936  	0.152067 
862.180752  	0.149788 
864.109568  	0.147094 
866.038384  	0.144646 
867.967200  	0.142539 
869.896016  	0.140908 
871.824832  	0.139756 
873.753648  	0.139381 
875.682464  	0.139974 
877.611280  	0.140359 
879.540096  	0.141096 
881.468912  	0.142907 
883.397728  	0.144128 
885.326544  	0.144991 
887.255360  	0.145071 
889.184176  	0.144000 
891.112992  	0.142083 
893.041808  	0.140235 
894.970624  	0.137718 
896.899440  	0.134316 
898.828256  	0.130380 
900.757072  	0.126533 
902.685888  	0.123386 
904.614704  	0.121552 
906.543520  	0.121638 
908.472336  	0.122975 
910.401152  	0.125237 
912.329968  	0.128054 
914.258784  	0.131039 
916.187600  	0.133745 
918.116416  	0.135908 
920.045232  	0.137439 
921.974048  	0.138321 
923.902864  	0.138712 
925.831680  	0.138411 
927.760496  	0.138231 
929.689312  	0.138558 
931.618128  	0.139116 
933.546944  	0.139523 
935.475760  	0.139892 
937.404576  	0.139756 
939.333392  	0.139134 
941.262208  	0.139085 
943.191024  	0.140293 
945.119840  	0.143714 
947.048656  	0.149518 
948.977472  	0.157026 
950.906288  	0.165825 
952.835104  	0.175719 
954.763920  	0.186249 
956.692736  	0.196016 
958.621552  	0.204446 
960.550368  	0.210128 
962.479184  	0.212911 
964.408000  	0.211978 
966.336816  	0.207542 
968.265632  	0.199525 
970.194448  	0.188787 
972.123264  	0.176400 
974.052080  	0.163373 
975.980896  	0.150649 
977.909712  	0.138571 
979.838528  	0.127939 
981.767344  	0.118970 
983.696160  	0.112150 
985.624976  	0.107709 
987.553792  	0.105941 
989.482608  	0.106884 
991.411424  	0.109953 
993.340240  	0.114651 
995.269056  	0.120434 
997.197872  	0.126771 
999.126688  	0.133200 
1001.055504  	0.139628 
1002.984320  	0.145856 
1004.913136  	0.151955 
1006.841952  	0.157924 
1008.770768  	0.163028 
1010.699584  	0.166705 
1012.628400  	0.168859 
1014.557216  	0.169651 
1016.486032  	0.169703 
1018.414848  	0.169512 
1020.343664  	0.169265 
1022.272480  	0.168604 
1024.201296  	0.167338 
1026.130112  	0.164183 
1028.058928  	0.163073 
1029.987744  	0.166121 
1031.916560  	0.167920 
1033.845376  	0.168905 
1035.774192  	0.170061 
1037.703008  	0.172647 
1039.631824  	0.178636 
1041.560640  	0.186864 
1043.489456  	0.197683 
1045.418272  	0.210871 
1047.347088  	0.225830 
1049.275904  	0.239719 
1051.204720  	0.250469 
1053.133536  	0.257241 
1055.062352  	0.260585 
1056.991168  	0.260818 
1058.919984  	0.262316 
1060.848800  	0.263496 
1062.777616  	0.261244 
1064.706432  	0.255074 
1066.635248  	0.250056 
1068.564064  	0.248798 
1070.492880  	0.244476 
1072.421696  	0.237228 
1074.350512  	0.232043 
1076.279328  	0.229877 
1078.208144  	0.231620 
1080.136960  	0.236423 
1082.065776  	0.242226 
1083.994592  	0.246213 
1085.923408  	0.247844 
1087.852224  	0.246060 
1089.781040  	0.242133 
1091.709856  	0.237036 
1093.638672  	0.229756 
1095.567488  	0.219691 
1097.496304  	0.208440 
1099.425120  	0.196338 
1101.353936  	0.183857 
1103.282752  	0.171551 
1105.211568  	0.159947 
1107.140384  	0.148937 
1109.069200  	0.138565 
1110.998016  	0.128905 
1112.926832  	0.119954 
1114.855648  	0.111683 
1116.784464  	0.103980 
1118.713280  	0.096864 
1120.642096  	0.090112 
1122.570912  	0.083774 
1124.499728  	0.077794 
1126.428544  	0.072374 
1128.357360  	0.067577 
1130.286176  	0.063537 
1132.214992  	0.060248 
1134.143808  	0.057576 
1136.072624  	0.055173 
1138.001440  	0.053139 
1139.930256  	0.050802 
1141.859072  	0.048604 
1143.787888  	0.046162 
1145.716704  	0.043892 
1147.645520  	0.041792 
1149.574336  	0.040107 
1151.503152  	0.038685 
1153.431968  	0.038156 
1155.360784  	0.038374 
1157.289600  	0.039125 
1159.218416  	0.040388 
1161.147232  	0.042192 
1163.076048  	0.044271 
1165.004864  	0.046592 
1166.933680  	0.048690 
1168.862496  	0.050967 
1170.791312  	0.053294 
1172.720128  	0.056102 
1174.648944  	0.058788 
1176.577760  	0.061430 
1178.506576  	0.063893 
1180.435392  	0.066499 
1182.364208  	0.068953 
1184.293024  	0.071847 
1186.221840  	0.075040 
1188.150656  	0.078681 
1190.079472  	0.082881 
1192.008288  	0.088041 
1193.937104  	0.094255 
1195.865920  	0.101496 
1197.794736  	0.109495 
1199.723552  	0.118229 
1201.652368  	0.127251 
1203.581184  	0.136326 
1205.510000  	0.145016 
1207.438816  	0.153394 
1209.367632  	0.161464 
1211.296448  	0.168462 
1213.225264  	0.174229 
1215.154080  	0.178345 
1217.082896  	0.181545 
1219.011712  	0.183618 
1220.940528  	0.185088 
1222.869344  	0.185926 
1224.798160  	0.185994 
1226.726976  	0.185368 
1228.655792  	0.184528 
1230.584608  	0.183066 
1232.513424  	0.181020 
1234.442240  	0.178299 
1236.371056  	0.174905 
1238.299872  	0.170383 
1240.228688  	0.163606 
1242.157504  	0.156792 
1244.086320  	0.151053 
1246.015136  	0.143802 
1247.943952  	0.135631 
1249.872768  	0.127505 
1251.801584  	0.120598 
1253.730400  	0.113670 
1255.659216  	0.106825 
1257.588032  	0.100432 
1259.516848  	0.094307 
1261.445664  	0.088629 
1263.374480  	0.083502 
1265.303296  	0.079142 
1267.232112  	0.075603 
1269.160928  	0.072868 
1271.089744  	0.070781 
1273.018560  	0.069642 
1274.947376  	0.069184 
1276.876192  	0.069319 
1278.805008  	0.069151 
1280.733824  	0.068036 
1282.662640  	0.066106 
1284.591456  	0.063836 
1286.520272  	0.061761 
1288.449088  	0.060382 
1290.377904  	0.059757 
1292.306720  	0.059769 
1294.235536  	0.059713 
1296.164352  	0.058891 
1298.093168  	0.056822 
1300.021984  	0.053988 
1301.950800  	0.050912 
1303.879616  	0.048047 
1305.808432  	0.045017 
1307.737248  	0.041895 
1309.666064  	0.038834 
1311.594880  	0.036553 
1313.523696  	0.034852 
1315.452512  	0.033737 
1317.381328  	0.033036 
1319.310144  	0.032885 
1321.238960  	0.033021 
1323.167776  	0.033657 
1325.096592  	0.034509 
1327.025408  	0.035202 
1328.954224  	0.035283 
1330.883040  	0.034902 
1332.811856  	0.034147 
1334.740672  	0.033584 
1336.669488  	0.033250 
1338.598304  	0.033175 
1340.527120  	0.032098 
1342.455936  	0.030782 
1344.384752  	0.030358 
1346.313568  	0.030606 
1348.242384  	0.031220 
1350.171200  	0.032355 
1352.100016  	0.033728 
1354.028832  	0.035510 
1355.957648  	0.037237 
1357.886464  	0.039146 
1359.815280  	0.041308 
1361.744096  	0.043536 
1363.672912  	0.044769 
1365.601728  	0.045864 
1367.530544  	0.047091 
1369.459360  	0.047457 
1371.388176  	0.047274 
1373.316992  	0.046080 
1375.245808  	0.043001 
1377.174624  	0.040415 
1379.103440  	0.037550 
1381.032256  	0.034675 
1382.961072  	0.032556 
1384.889888  	0.031783 
1386.818704  	0.031153 
1388.747520  	0.029427 
1390.676336  	0.027175 
1392.605152  	0.024013 
1394.533968  	0.022217 
1396.462784  	0.024956 
1398.391600  	0.026129 
1400.320416  	0.025450 
1402.249232  	0.025698 
1404.178048  	0.026209 
1406.106864  	0.026718 
1408.035680  	0.028416 
1409.964496  	0.030800 
1411.893312  	0.033578 
1413.822128  	0.036536 
1415.750944  	0.040075 
1417.679760  	0.042521 
1419.608576  	0.042547 
1421.537392  	0.042925 
1423.466208  	0.043063 
1425.395024  	0.041529 
1427.323840  	0.040252 
1429.252656  	0.037999 
1431.181472  	0.036244 
1433.110288  	0.036096 
1435.039104  	0.036803 
1436.967920  	0.036262 
1438.896736  	0.036941 
1440.825552  	0.037960 
1442.754368  	0.038497 
1444.683184  	0.038779 
1446.612000  	0.038782 
1448.540816  	0.037708 
1450.469632  	0.037955 
1452.398448  	0.038736 
1454.327264  	0.039893 
1456.256080  	0.039831 
1458.184896  	0.037757 
1460.113712  	0.038662 
1462.042528  	0.040061 
1463.971344  	0.040044 
1465.900160  	0.040411 
1467.828976  	0.042731 
1469.757792  	0.045923 
1471.686608  	0.049096 
1473.615424  	0.054380 
1475.544240  	0.060282 
1477.473056  	0.065664 
1479.401872  	0.069578 
1481.330688  	0.072667 
1483.259504  	0.074828 
1485.188320  	0.076529 
1487.117136  	0.076708 
1489.045952  	0.076070 
1490.974768  	0.072819 
1492.903584  	0.070814 
1494.832400  	0.068129 
1496.761216  	0.062053 
1498.690032  	0.056173 
1500.618848  	0.052233 
1502.547664  	0.048804 
1504.476480  	0.045623 
1506.405296  	0.039789 
1508.334112  	0.035910 
1510.262928  	0.035679 
1512.191744  	0.034079 
1514.120560  	0.033298 
1516.049376  	0.032852 
1517.978192  	0.032292 
1519.907008  	0.033835 
1521.835824  	0.034677 
1523.764640  	0.038382 
1525.693456  	0.042069 
1527.622272  	0.044002 
1529.551088  	0.044754 
1531.479904  	0.044650 
1533.408720  	0.041192 
1535.337536  	0.038136 
1537.266352  	0.036865 
1539.195168  	0.031151 
1541.123984  	0.024548 
1543.052800  	0.025452 
1544.981616  	0.025174 
1546.910432  	0.024642 
1548.839248  	0.024839 
1550.768064  	0.024760 
1552.696880  	0.024988 
1554.625696  	0.025747 
1556.554512  	0.026468 
1558.483328  	0.025411 
1560.412144  	0.028423 
1562.340960  	0.034517 
1564.269776  	0.038237 
1566.198592  	0.043302 
1568.127408  	0.047491 
1570.056224  	0.052366 
1571.985040  	0.058871 
1573.913856  	0.063811 
1575.842672  	0.065128 
1577.771488  	0.067263 
1579.700304  	0.068998 
1581.629120  	0.068929 
1583.557936  	0.068336 
1585.486752  	0.069085 
1587.415568  	0.071260 
1589.344384  	0.075438 
1591.273200  	0.080944 
1593.202016  	0.087683 
1595.130832  	0.094735 
1597.059648  	0.102249 
1598.988464  	0.108884 
1600.917280  	0.114797 
1602.846096  	0.118489 
1604.774912  	0.120808 
1606.703728  	0.121173 
1608.632544  	0.120380 
1610.561360  	0.118416 
1612.490176  	0.117127 
1614.418992  	0.115538 
1616.347808  	0.112994 
1618.276624  	0.113181 
1620.205440  	0.117503 
1622.134256  	0.120562 
1624.063072  	0.125630 
1625.991888  	0.132277 
1627.920704  	0.139858 
1629.849520  	0.148981 
1631.778336  	0.158536 
1633.707152  	0.165797 
1635.635968  	0.172747 
1637.564784  	0.181584 
1639.493600  	0.189684 
1641.422416  	0.195083 
1643.351232  	0.199668 
1645.280048  	0.201152 
1647.208864  	0.200145 
1649.137680  	0.201288 
1651.066496  	0.203478 
1652.995312  	0.197012 
1654.924128  	0.193897 
1656.852944  	0.194979 
1658.781760  	0.193538 
1660.710576  	0.190464 
1662.639392  	0.185389 
1664.568208  	0.180951 
1666.497024  	0.179073 
1668.425840  	0.174187 
1670.354656  	0.167004 
1672.283472  	0.163998 
1674.212288  	0.161510 
1676.141104  	0.156251 
1678.069920  	0.155553 
1679.998736  	0.154784 
1681.927552  	0.153847 
1683.856368  	0.149484 
1685.785184  	0.147741 
1687.714000  	0.149896 
1689.642816  	0.149426 
1691.571632  	0.147946 
1693.500448  	0.147402 
1695.429264  	0.143685 
1697.358080  	0.140537 
1699.286896  	0.138987 
1701.215712  	0.133177 
1703.144528  	0.132607 
1705.073344  	0.128948 
1707.002160  	0.122988 
1708.930976  	0.118785 
1710.859792  	0.113189 
1712.788608  	0.106784 
1714.717424  	0.098877 
1716.646240  	0.088477 
1718.575056  	0.075100 
1720.503872  	0.067314 
1722.432688  	0.060794 
1724.361504  	0.051812 
1726.290320  	0.044460 
1728.219136  	0.038236 
1730.147952  	0.032691 
1732.076768  	0.028310 
1734.005584  	0.022168 
1735.934400  	0.017296 
1737.863216  	0.017121 
1739.792032  	0.013902 
1741.720848  	0.012575 
1743.649664  	0.011769 
1745.578480  	0.011036 
1747.507296  	0.009635 
1749.436112  	0.008817 
1751.364928  	0.007471 
1753.293744  	0.006920 
1755.222560  	0.006710 
1757.151376  	0.005990 
1759.080192  	0.005448 
1761.009008  	0.004986 
1762.937824  	0.003654 
1764.866640  	0.003935 
1766.795456  	0.004169 
1768.724272  	0.003917 
1770.653088  	0.002579 
1772.581904  	0.000570 
1774.510720  	0.000985 
1776.439536  	0.002075 
1778.368352  	0.002110 
1780.297168  	0.001834 
1782.225984  	0.001332 
1784.154800  	0.001596 
1786.083616  	0.001102 
1788.012432  	0.001411 
1789.941248  	0.001548 
1791.870064  	0.000527 
1793.798880  	-0.000549 
1795.727696  	0.000517 
1797.656512  	0.000291 
1799.585328  	0.000304 
1801.514144  	0.000450 
1803.442960  	0.000401 
1805.371776  	-0.000099 
1807.300592  	0.000089 
1809.229408  	-0.000274 
1811.158224  	-0.000550 
1813.087040  	-0.000913 
1815.015856  	-0.000713 
1816.944672  	-0.000716 
1818.873488  	-0.000556 
1820.802304  	-0.000673 
1822.731120  	-0.000207 
1824.659936  	-0.000846 
1826.588752  	-0.001240 
1828.517568  	-0.001592 
1830.446384  	-0.001964 
1832.375200  	-0.001541 
1834.304016  	-0.000922 
1836.232832  	-0.001092 
1838.161648  	-0.001052 
1840.090464  	-0.001203 
1842.019280  	-0.000612 
1843.948096  	-0.001439 
1845.876912  	-0.001473 
1847.805728  	-0.001042 
1849.734544  	-0.001067 
1851.663360  	-0.001487 
1853.592176  	-0.001439 
1855.520992  	-0.001571 
1857.449808  	-0.001327 
1859.378624  	-0.001430 
1861.307440  	-0.001348 
1863.236256  	-0.001555 
1865.165072  	-0.001354 
1867.093888  	-0.001421 
1869.022704  	-0.001741 
1870.951520  	-0.002050 
1872.880336  	-0.001536 
1874.809152  	-0.001646 
1876.737968  	-0.001584 
1878.666784  	-0.001995 
1880.595600  	-0.001516 
1882.524416  	-0.001576 
1884.453232  	-0.001554 
1886.382048  	-0.001985 
1888.310864  	-0.001742 
1890.239680  	-0.002106 
1892.168496  	-0.001827 
1894.097312  	-0.001964 
1896.026128  	-0.001818 
1897.954944  	-0.001868 
1899.883760  	-0.001605 
1901.812576  	-0.001959 
1903.741392  	-0.002197 
1905.670208  	-0.002300 
1907.599024  	-0.001811 
1909.527840  	-0.002279 
1911.456656  	-0.002191 
1913.385472  	-0.002092 
1915.314288  	-0.001309 
1917.243104  	-0.001686 
1919.171920  	-0.001967 
1921.100736  	-0.001802 
1923.029552  	-0.001447 
1924.958368  	-0.002006 
1926.887184  	-0.002064 
1928.816000  	-0.002321 
1930.744816  	-0.002146 
1932.673632  	-0.002149 
1934.602448  	-0.001926 
1936.531264  	-0.002049 
1938.460080  	-0.001529 
1940.388896  	-0.001735 
1942.317712  	-0.001948 
1944.246528  	-0.002811 
1946.175344  	-0.002118 
1948.104160  	-0.002079 
1950.032976  	-0.002088 
1951.961792  	-0.002639 
1953.890608  	-0.001589 
1955.819424  	-0.002001 
1957.748240  	-0.002307 
1959.677056  	-0.002867 
1961.605872  	-0.002033 
1963.534688  	-0.002625 
1965.463504  	-0.001738 
1967.392320  	-0.002044 
1969.321136  	-0.002083 
1971.249952  	-0.001884 
1973.178768  	-0.000453 
1975.107584  	-0.001105 
1977.036400  	-0.000153 
1978.965216  	0.000414 
1980.894032  	0.000192 
1982.822848  	-0.000737 
1984.751664  	-0.000632 
1986.680480  	-0.001857 
1988.609296  	-0.001117 
1990.538112  	-0.001617 
1992.466928  	-0.001426 
1994.395744  	-0.002154 
1996.324560  	-0.002170 
1998.253376  	-0.002368 
2000.182192  	-0.001789 
2002.111008  	-0.001324 
2004.039824  	-0.000770 
2005.968640  	-0.001459 
2007.897456  	-0.000443 
2009.826272  	-0.001243 
2011.755088  	-0.001103 
2013.683904  	-0.001600 
2015.612720  	-0.001107 
2017.541536  	-0.001363 
2019.470352  	-0.000798 
2021.399168  	-0.002355 
2023.327984  	-0.001472 
2025.256800  	-0.000250 
2027.185616  	0.000019 
2029.114432  	-0.000663 
2031.043248  	0.000302 
2032.972064  	-0.000035 
2034.900880  	0.000206 
2036.829696  	-0.000723 
2038.758512  	0.000307 
2040.687328  	0.000316 
2042.616144  	0.000208 
2044.544960  	-0.000895 
2046.473776  	-0.000933 
2048.402592  	-0.000959 
2050.331408  	-0.000400 
2052.260224  	-0.001276 
2054.189040  	-0.001754 
2056.117856  	-0.002360 
2058.046672  	-0.002022 
2059.975488  	-0.001783 
2061.904304  	-0.001451 
2063.833120  	-0.001484 
2065.761936  	-0.001998 
2067.690752  	-0.002362 
2069.619568  	-0.001107 
2071.548384  	-0.001272 
2073.477200  	-0.001860 
2075.406016  	-0.001686 
2077.334832  	-0.001208 
2079.263648  	-0.001233 
2081.192464  	-0.000897 
2083.121280  	-0.001186 
2085.050096  	-0.001397 
2086.978912  	-0.001516 
2088.907728  	-0.001313 
2090.836544  	-0.001424 
2092.765360  	-0.001225 
2094.694176  	-0.001315 
2096.622992  	-0.001239 
2098.551808  	-0.001240 
2100.480624  	-0.000862 
2102.409440  	-0.001306 
2104.338256  	-0.001814 
2106.267072  	-0.001566 
2108.195888  	-0.000854 
2110.124704  	-0.000862 
2112.053520  	-0.000804 
2113.982336  	-0.001204 
2115.911152  	-0.001280 
2117.839968  	-0.001235 
2119.768784  	-0.001279 
2121.697600  	-0.001681 
2123.626416  	-0.001947 
2125.555232  	-0.002341 
2127.484048  	-0.001928 
2129.412864  	-0.002107 
2131.341680  	-0.001914 
2133.270496  	-0.001978 
2135.199312  	-0.001767 
2137.128128  	-0.001498 
2139.056944  	-0.001028 
2140.985760  	-0.001307 
2142.914576  	-0.001238 
2144.843392  	-0.001196 
2146.772208  	-0.001240 
2148.701024  	-0.001769 
2150.629840  	-0.000624 
2152.558656  	-0.000617 
2154.487472  	-0.000848 
2156.416288  	-0.001807 
2158.345104  	-0.000129 
2160.273920  	0.002070 
2162.202736  	0.002293 
2164.131552  	0.001411 
2166.060368  	0.001948 
2167.989184  	0.002405 
2169.918000  	0.003270 
2171.846816  	0.001671 
2173.775632  	0.000762 
2175.704448  	0.000705 
2177.633264  	0.000979 
2179.562080  	0.000118 
2181.490896  	0.000072 
2183.419712  	-0.000907 
2185.348528  	-0.001096 
2187.277344  	-0.000710 
2189.206160  	-0.000186 
2191.134976  	-0.000121 
2193.063792  	0.000111 
2194.992608  	-0.000372 
2196.921424  	-0.000185 
2198.850240  	0.000171 
2200.779056  	-0.000062 
2202.707872  	-0.001126 
2204.636688  	-0.001153 
2206.565504  	-0.000944 
2208.494320  	-0.000502 
2210.423136  	-0.000819 
2212.351952  	-0.000945 
2214.280768  	-0.001315 
2216.209584  	-0.001593 
2218.138400  	-0.001843 
2220.067216  	-0.001227 
2221.996032  	-0.000901 
2223.924848  	-0.000497 
2225.853664  	-0.000207 
2227.782480  	-0.000128 
2229.711296  	-0.000960 
2231.640112  	-0.001177 
2233.568928  	-0.001249 
2235.497744  	-0.001361 
2237.426560  	-0.001935 
2239.355376  	-0.001909 
2241.284192  	-0.001828 
2243.213008  	-0.001663 
2245.141824  	-0.001929 
2247.070640  	-0.001529 
2248.999456  	-0.001483 
2250.928272  	-0.001750 
2252.857088  	-0.002094 
2254.785904  	-0.002069 
2256.714720  	-0.002193 
2258.643536  	-0.002376 
2260.572352  	-0.002569 
2262.501168  	-0.002218 
2264.429984  	-0.002332 
2266.358800  	-0.002229 
2268.287616  	-0.002296 
2270.216432  	-0.002074 
2272.145248  	-0.001839 
2274.074064  	-0.001680 
2276.002880  	-0.001710 
2277.931696  	-0.001686 
2279.860512  	-0.001885 
2281.789328  	-0.001456 
2283.718144  	-0.001632 
2285.646960  	-0.001553 
2287.575776  	-0.001303 
2289.504592  	-0.001403 
2291.433408  	-0.001728 
2293.362224  	-0.001237 
2295.291040  	-0.000665 
2297.219856  	-0.000248 
2299.148672  	-0.000251 
2301.077488  	0.000007 
2303.006304  	0.000288 
2304.935120  	0.000708 
2306.863936  	0.000910 
2308.792752  	0.001005 
2310.721568  	0.001191 
2312.650384  	0.001434 
2314.579200  	0.001193 
2316.508016  	0.000736 
2318.436832  	0.000697 
2320.365648  	0.000646 
2322.294464  	0.000148 
2324.223280  	-0.000468 
2326.152096  	-0.001747 
2328.080912  	-0.002679 
2330.009728  	-0.003665 
2331.938544  	-0.004616 
2333.867360  	-0.005562 
2335.796176  	-0.006263 
2337.724992  	-0.006812 
2339.653808  	-0.006713 
2341.582624  	-0.006442 
2343.511440  	-0.005788 
2345.440256  	-0.004913 
2347.369072  	-0.003207 
2349.297888  	-0.001559 
2351.226704  	-0.002002 
2353.155520  	-0.004138 
2355.084336  	-0.005695 
2357.013152  	-0.006964 
2358.941968  	-0.007649 
2360.870784  	-0.008466 
2362.799600  	-0.008301 
2364.728416  	-0.008075 
2366.657232  	-0.007000 
2368.586048  	-0.005688 
2370.514864  	-0.004614 
2372.443680  	-0.003630 
2374.372496  	-0.002520 
2376.301312  	-0.001629 
2378.230128  	-0.001166 
2380.158944  	-0.001146 
2382.087760  	-0.001406 
2384.016576  	-0.001953 
2385.945392  	-0.002385 
2387.874208  	-0.002629 
2389.803024  	-0.002866 
2391.731840  	-0.003187 
2393.660656  	-0.003170 
2395.589472  	-0.003018 
2397.518288  	-0.002852 
2399.447104  	-0.003031 
2401.375920  	-0.003260 
2403.304736  	-0.003538 
2405.233552  	-0.003173 
2407.162368  	-0.003030 
2409.091184  	-0.003097 
2411.020000  	-0.003109 
2412.948816  	-0.003069 
2414.877632  	-0.003063 
2416.806448  	-0.002824 
2418.735264  	-0.002905 
2420.664080  	-0.003036 
2422.592896  	-0.002997 
2424.521712  	-0.002931 
2426.450528  	-0.003224 
2428.379344  	-0.003186 
2430.308160  	-0.002955 
2432.236976  	-0.002736 
2434.165792  	-0.002792 
2436.094608  	-0.002839 
2438.023424  	-0.002702 
2439.952240  	-0.002428 
2441.881056  	-0.002491 
2443.809872  	-0.002649 
2445.738688  	-0.002631 
2447.667504  	-0.002359 
2449.596320  	-0.002312 
2451.525136  	-0.002252 
2453.453952  	-0.002210 
2455.382768  	-0.002306 
2457.311584  	-0.002542 
2459.240400  	-0.002552 
2461.169216  	-0.002504 
2463.098032  	-0.002675 
2465.026848  	-0.002768 
2466.955664  	-0.002602 
2468.884480  	-0.002719 
2470.813296  	-0.002886 
2472.742112  	-0.002889 
2474.670928  	-0.002733 
2476.599744  	-0.002807 
2478.528560  	-0.002636 
2480.457376  	-0.002533 
2482.386192  	-0.002570 
2484.315008  	-0.002469 
2486.243824  	-0.002375 
2488.172640  	-0.002459 
2490.101456  	-0.002364 
2492.030272  	-0.002189 
2493.959088  	-0.002190 
2495.887904  	-0.002329 
2497.816720  	-0.002199 
2499.745536  	-0.002071 
2501.674352  	-0.001982 
2503.603168  	-0.001927 
2505.531984  	-0.002043 
2507.460800  	-0.002132 
2509.389616  	-0.001914 
2511.318432  	-0.001785 
2513.247248  	-0.001761 
2515.176064  	-0.001677 
2517.104880  	-0.001655 
2519.033696  	-0.001885 
2520.962512  	-0.001844 
2522.891328  	-0.001747 
2524.820144  	-0.001613 
2526.748960  	-0.001421 
2528.677776  	-0.001244 
2530.606592  	-0.001323 
2532.535408  	-0.001336 
2534.464224  	-0.001249 
2536.393040  	-0.001238 
2538.321856  	-0.001086 
2540.250672  	-0.000868 
2542.179488  	-0.000939 
2544.108304  	-0.000912 
2546.037120  	-0.000804 
2547.965936  	-0.000867 
2549.894752  	-0.000980 
2551.823568  	-0.000914 
2553.752384  	-0.000840 
2555.681200  	-0.000600 
2557.610016  	-0.000559 
2559.538832  	-0.000486 
2561.467648  	-0.000318 
2563.396464  	-0.000200 
2565.325280  	-0.000049 
2567.254096  	-0.000084 
2569.182912  	-0.000110 
2571.111728  	-0.000021 
2573.040544  	-0.000115 
2574.969360  	-0.000028 
2576.898176  	0.000272 
2578.826992  	0.000343 
2580.755808  	0.000348 
2582.684624  	0.000605 
2584.613440  	0.000633 
2586.542256  	0.000638 
2588.471072  	0.000735 
2590.399888  	0.000811 
2592.328704  	0.000756 
2594.257520  	0.000710 
2596.186336  	0.000837 
2598.115152  	0.000892 
2600.043968  	0.000814 
2601.972784  	0.001091 
2603.901600  	0.001237 
2605.830416  	0.001339 
2607.759232  	0.001396 
2609.688048  	0.001471 
2611.616864  	0.001535 
2613.545680  	0.001635 
2615.474496  	0.001854 
2617.403312  	0.001981 
2619.332128  	0.001974 
2621.260944  	0.002023 
2623.189760  	0.002074 
2625.118576  	0.002230 
2627.047392  	0.002304 
2628.976208  	0.002291 
2630.905024  	0.002408 
2632.833840  	0.002483 
2634.762656  	0.002615 
2636.691472  	0.002787 
2638.620288  	0.002855 
2640.549104  	0.002886 
2642.477920  	0.002946 
2644.406736  	0.003222 
2646.335552  	0.003334 
2648.264368  	0.003511 
2650.193184  	0.003578 
2652.122000  	0.003583 
2654.050816  	0.003766 
2655.979632  	0.003918 
2657.908448  	0.003980 
2659.837264  	0.004058 
2661.766080  	0.004068 
2663.694896  	0.004134 
2665.623712  	0.004199 
2667.552528  	0.004388 
2669.481344  	0.004576 
2671.410160  	0.004610 
2673.338976  	0.004674 
2675.267792  	0.004805 
2677.196608  	0.005003 
2679.125424  	0.005156 
2681.054240  	0.005222 
2682.983056  	0.005274 
2684.911872  	0.005251 
2686.840688  	0.005400 
2688.769504  	0.005484 
2690.698320  	0.005512 
2692.627136  	0.005611 
2694.555952  	0.005761 
2696.484768  	0.005886 
2698.413584  	0.005948 
2700.342400  	0.006024 
2702.271216  	0.006236 
2704.200032  	0.006446 
2706.128848  	0.006452 
2708.057664  	0.006382 
2709.986480  	0.006465 
2711.915296  	0.006608 
2713.844112  	0.006798 
2715.772928  	0.006882 
2717.701744  	0.006981 
2719.630560  	0.007197 
2721.559376  	0.007319 
2723.488192  	0.007417 
2725.417008  	0.007611 
2727.345824  	0.007750 
2729.274640  	0.007847 
2731.203456  	0.008012 
2733.132272  	0.008188 
2735.061088  	0.008277 
2736.989904  	0.008418 
2738.918720  	0.008493 
2740.847536  	0.008551 
2742.776352  	0.008583 
2744.705168  	0.008654 
2746.633984  	0.008727 
2748.562800  	0.008774 
2750.491616  	0.008860 
2752.420432  	0.008944 
2754.349248  	0.008947 
2756.278064  	0.008976 
2758.206880  	0.008811 
2760.135696  	0.008819 
2762.064512  	0.008926 
2763.993328  	0.008977 
2765.922144  	0.008970 
2767.850960  	0.008970 
2769.779776  	0.008963 
2771.708592  	0.008998 
2773.637408  	0.008969 
2775.566224  	0.008904 
2777.495040  	0.008874 
2779.423856  	0.008908 
2781.352672  	0.008903 
2783.281488  	0.008818 
2785.210304  	0.008880 
2787.139120  	0.008961 
2789.067936  	0.008918 
2790.996752  	0.008839 
2792.925568  	0.008793 
2794.854384  	0.008799 
2796.783200  	0.008754 
2798.712016  	0.008719 
2800.640832  	0.008682 
2802.569648  	0.008775 
2804.498464  	0.008824 
2806.427280  	0.008700 
2808.356096  	0.008566 
2810.284912  	0.008653 
2812.213728  	0.008811 
2814.142544  	0.008812 
2816.071360  	0.008741 
2818.000176  	0.008565 
2819.928992  	0.008489 
2821.857808  	0.008472 
2823.786624  	0.008373 
2825.715440  	0.008258 
2827.644256  	0.008138 
2829.573072  	0.008002 
2831.501888  	0.007719 
2833.430704  	0.007347 
2835.359520  	0.007040 
2837.288336  	0.006726 
2839.217152  	0.006348 
2841.145968  	0.005978 
2843.074784  	0.005573 
2845.003600  	0.005061 
2846.932416  	0.004632 
2848.861232  	0.004333 
2850.790048  	0.003841 
2852.718864  	0.003368 
2854.647680  	0.002918 
2856.576496  	0.002273 
2858.505312  	0.001630 
2860.434128  	0.001121 
2862.362944  	0.000422 
2864.291760  	-0.000298 
2866.220576  	-0.000923 
2868.149392  	-0.001275 
2870.078208  	-0.001530 
2872.007024  	-0.001580 
2873.935840  	-0.001416 
2875.864656  	-0.001437 
2877.793472  	-0.001611 
2879.722288  	-0.001817 
2881.651104  	-0.002168 
2883.579920  	-0.002341 
2885.508736  	-0.002175 
2887.437552  	-0.001959 
2889.366368  	-0.002001 
2891.295184  	-0.002248 
2893.224000  	-0.002394 
2895.152816  	-0.002329 
2897.081632  	-0.002672 
2899.010448  	-0.004409 
2900.939264  	-0.005963 
2902.868080  	-0.004710 
2904.796896  	-0.003367 
2906.725712  	-0.002857 
2908.654528  	-0.002301 
2910.583344  	-0.001931 
2912.512160  	-0.001477 
2914.440976  	-0.000339 
2916.369792  	0.000563 
2918.298608  	0.000993 
2920.227424  	0.001427 
2922.156240  	0.002159 
2924.085056  	0.003091 
2926.013872  	0.004171 
2927.942688  	0.005138 
2929.871504  	0.005954 
2931.800320  	0.006855 
2933.729136  	0.007749 
2935.657952  	0.008463 
2937.586768  	0.009187 
2939.515584  	0.009763 
2941.444400  	0.009978 
2943.373216  	0.010133 
2945.302032  	0.010451 
2947.230848  	0.010656 
2949.159664  	0.010384 
2951.088480  	0.009788 
2953.017296  	0.009274 
2954.946112  	0.008647 
2956.874928  	0.007906 
2958.803744  	0.007037 
2960.732560  	0.006460 
2962.661376  	0.005895 
2964.590192  	0.005069 
2966.519008  	0.003873 
2968.447824  	0.002708 
2970.376640  	0.001759 
2972.305456  	0.001267 
2974.234272  	0.001510 
2976.163088  	0.001891 
2978.091904  	0.001893 
2980.020720  	0.001864 
2981.949536  	0.002211 
2983.878352  	0.002038 
2985.807168  	0.000965 
2987.735984  	-0.000012 
2989.664800  	0.000376 
2991.593616  	0.003578 
2993.522432  	0.005662 
2995.451248  	0.006108 
2997.380064  	0.006954 
2999.308880  	0.008169 
3001.237696  	0.009538 
3003.166512  	0.011179 
3005.095328  	0.012671 
3007.024144  	0.014057 
3008.952960  	0.015430 
3010.881776  	0.016902 
3012.810592  	0.018369 
3014.739408  	0.019641 
3016.668224  	0.020916 
3018.597040  	0.022223 
3020.525856  	0.023392 
3022.454672  	0.024550 
3024.383488  	0.025655 
3026.312304  	0.026603 
3028.241120  	0.027669 
3030.169936  	0.028596 
3032.098752  	0.029344 
3034.027568  	0.030184 
3035.956384  	0.031201 
3037.885200  	0.032088 
3039.814016  	0.032635 
3041.742832  	0.033370 
3043.671648  	0.033998 
3045.600464  	0.034458 
3047.529280  	0.034970 
3049.458096  	0.035642 
3051.386912  	0.036382 
3053.315728  	0.037016 
3055.244544  	0.037586 
3057.173360  	0.038283 
3059.102176  	0.038854 
3061.030992  	0.039487 
3062.959808  	0.040211 
3064.888624  	0.040935 
3066.817440  	0.041728 
3068.746256  	0.042624 
3070.675072  	0.043425 
3072.603888  	0.043939 
3074.532704  	0.044655 
3076.461520  	0.045600 
3078.390336  	0.046511 
3080.319152  	0.047274 
3082.247968  	0.048096 
3084.176784  	0.048904 
3086.105600  	0.049621 
3088.034416  	0.050260 
3089.963232  	0.050931 
3091.892048  	0.051562 
3093.820864  	0.052390 
3095.749680  	0.053270 
3097.678496  	0.054064 
3099.607312  	0.054884 
3101.536128  	0.055755 
3103.464944  	0.056761 
3105.393760  	0.057539 
3107.322576  	0.058298 
3109.251392  	0.059113 
3111.180208  	0.059844 
3113.109024  	0.060641 
3115.037840  	0.061407 
3116.966656  	0.061978 
3118.895472  	0.062527 
3120.824288  	0.063200 
3122.753104  	0.064006 
3124.681920  	0.064612 
3126.610736  	0.065064 
3128.539552  	0.065744 
3130.468368  	0.066576 
3132.397184  	0.067153 
3134.326000  	0.067828 
3136.254816  	0.068629 
3138.183632  	0.069223 
3140.112448  	0.069673 
3142.041264  	0.070291 
3143.970080  	0.070943 
3145.898896  	0.071535 
3147.827712  	0.072153 
3149.756528  	0.072683 
3151.685344  	0.073257 
3153.614160  	0.074174 
3155.542976  	0.074909 
3157.471792  	0.075416 
3159.400608  	0.076099 
3161.329424  	0.076876 
3163.258240  	0.077241 
3165.187056  	0.077618 
3167.115872  	0.078314 
3169.044688  	0.078889 
3170.973504  	0.079431 
3172.902320  	0.079912 
3174.831136  	0.080411 
3176.759952  	0.081102 
3178.688768  	0.081499 
3180.617584  	0.081718 
3182.546400  	0.082031 
3184.475216  	0.082307 
3186.404032  	0.082382 
3188.332848  	0.082610 
3190.261664  	0.082916 
3192.190480  	0.083147 
3194.119296  	0.083140 
3196.048112  	0.083263 
3197.976928  	0.083312 
3199.905744  	0.083281 
3201.834560  	0.083173 
3203.763376  	0.083208 
3205.692192  	0.083295 
3207.621008  	0.083044 
3209.549824  	0.082734 
3211.478640  	0.082753 
3213.407456  	0.082858 
3215.336272  	0.082881 
3217.265088  	0.082764 
3219.193904  	0.082594 
3221.122720  	0.082461 
3223.051536  	0.082249 
3224.980352  	0.082063 
3226.909168  	0.081917 
3228.837984  	0.081685 
3230.766800  	0.081542 
3232.695616  	0.081553 
3234.624432  	0.081383 
3236.553248  	0.081383 
3238.482064  	0.081598 
3240.410880  	0.081646 
3242.339696  	0.081717 
3244.268512  	0.081630 
3246.197328  	0.081700 
3248.126144  	0.081829 
3250.054960  	0.081803 
3251.983776  	0.082007 
3253.912592  	0.082251 
3255.841408  	0.082465 
3257.770224  	0.082767 
3259.699040  	0.083161 
3261.627856  	0.083537 
3263.556672  	0.083811 
3265.485488  	0.083907 
3267.414304  	0.084030 
3269.343120  	0.084311 
3271.271936  	0.084550 
3273.200752  	0.084666 
3275.129568  	0.084627 
3277.058384  	0.084801 
3278.987200  	0.085303 
3280.916016  	0.085719 
3282.844832  	0.085861 
3284.773648  	0.086017 
3286.702464  	0.086299 
3288.631280  	0.086613 
3290.560096  	0.087001 
3292.488912  	0.087240 
3294.417728  	0.087507 
3296.346544  	0.087891 
3298.275360  	0.087979 
3300.204176  	0.088239 
3302.132992  	0.088681 
3304.061808  	0.089116 
3305.990624  	0.089718 
3307.919440  	0.090063 
3309.848256  	0.090147 
3311.777072  	0.090471 
3313.705888  	0.091003 
3315.634704  	0.091503 
3317.563520  	0.091853 
3319.492336  	0.092061 
3321.421152  	0.092148 
3323.349968  	0.092415 
3325.278784  	0.092674 
3327.207600  	0.092900 
3329.136416  	0.093033 
3331.065232  	0.093249 
3332.994048  	0.093298 
3334.922864  	0.093455 
3336.851680  	0.093501 
3338.780496  	0.093216 
3340.709312  	0.093144 
3342.638128  	0.093150 
3344.566944  	0.092948 
3346.495760  	0.092759 
3348.424576  	0.092467 
3350.353392  	0.092312 
3352.282208  	0.092181 
3354.211024  	0.091701 
3356.139840  	0.091387 
3358.068656  	0.091254 
3359.997472  	0.090880 
3361.926288  	0.090355 
3363.855104  	0.090005 
3365.783920  	0.089774 
3367.712736  	0.089372 
3369.641552  	0.089084 
3371.570368  	0.088650 
3373.499184  	0.088116 
3375.428000  	0.087508 
3377.356816  	0.087133 
3379.285632  	0.087144 
3381.214448  	0.086837 
3383.143264  	0.086319 
3385.072080  	0.085853 
3387.000896  	0.085519 
3388.929712  	0.085073 
3390.858528  	0.084604 
3392.787344  	0.084241 
3394.716160  	0.083947 
3396.644976  	0.083754 
3398.573792  	0.083378 
3400.502608  	0.082849 
3402.431424  	0.082319 
3404.360240  	0.081787 
3406.289056  	0.081150 
3408.217872  	0.080710 
3410.146688  	0.080333 
3412.075504  	0.080014 
3414.004320  	0.079535 
3415.933136  	0.078998 
3417.861952  	0.078489 
3419.790768  	0.077930 
3421.719584  	0.077305 
3423.648400  	0.076817 
3425.577216  	0.076346 
3427.506032  	0.075976 
3429.434848  	0.075369 
3431.363664  	0.074721 
3433.292480  	0.073973 
3435.221296  	0.073238 
3437.150112  	0.072658 
3439.078928  	0.072352 
3441.007744  	0.071851 
3442.936560  	0.071244 
3444.865376  	0.070898 
3446.794192  	0.070108 
3448.723008  	0.069055 
3450.651824  	0.068388 
3452.580640  	0.067728 
3454.509456  	0.067256 
3456.438272  	0.066814 
3458.367088  	0.066247 
3460.295904  	0.065518 
3462.224720  	0.064464 
3464.153536  	0.063587 
3466.082352  	0.063046 
3468.011168  	0.062259 
3469.939984  	0.061558 
3471.868800  	0.060955 
3473.797616  	0.060247 
3475.726432  	0.059350 
3477.655248  	0.058544 
3479.584064  	0.057855 
3481.512880  	0.057026 
3483.441696  	0.056114 
3485.370512  	0.055370 
3487.299328  	0.054315 
3489.228144  	0.053604 
3491.156960  	0.052842 
3493.085776  	0.051987 
3495.014592  	0.051246 
3496.943408  	0.050662 
3498.872224  	0.049997 
3500.801040  	0.049476 
3502.729856  	0.048457 
3504.658672  	0.047357 
3506.587488  	0.047146 
3508.516304  	0.046805 
3510.445120  	0.045673 
3512.373936  	0.044682 
3514.302752  	0.044137 
3516.231568  	0.043912 
3518.160384  	0.043462 
3520.089200  	0.042778 
3522.018016  	0.042308 
3523.946832  	0.041959 
3525.875648  	0.041266 
3527.804464  	0.040070 
3529.733280  	0.039168 
3531.662096  	0.038559 
3533.590912  	0.037959 
3535.519728  	0.037753 
3537.448544  	0.037252 
3539.377360  	0.036239 
3541.306176  	0.035671 
3543.234992  	0.035603 
3545.163808  	0.035422 
3547.092624  	0.034533 
3549.021440  	0.033383 
3550.950256  	0.032781 
3552.879072  	0.031772 
3554.807888  	0.031057 
3556.736704  	0.030842 
3558.665520  	0.030416 
3560.594336  	0.029688 
3562.523152  	0.029093 
3564.451968  	0.029093 
3566.380784  	0.028745 
3568.309600  	0.026699 
3570.238416  	0.025690 
3572.167232  	0.025512 
3574.096048  	0.024857 
3576.024864  	0.024047 
3577.953680  	0.023445 
3579.882496  	0.022718 
3581.811312  	0.022343 
3583.740128  	0.022060 
3585.668944  	0.021882 
3587.597760  	0.020371 
3589.526576  	0.019003 
3591.455392  	0.018746 
3593.384208  	0.018221 
3595.313024  	0.017326 
3597.241840  	0.016291 
3599.170656  	0.014988 
3601.099472  	0.013867 
3603.028288  	0.013651 
3604.957104  	0.013831 
3606.885920  	0.013218 
3608.814736  	0.011599 
3610.743552  	0.011035 
3612.672368  	0.010156 
3614.601184  	0.008798 
3616.530000  	0.008689 
3618.458816  	0.006814 
3620.387632  	0.004803 
3622.316448  	0.004903 
3624.245264  	0.004948 
3626.174080  	0.004876 
3628.102896  	0.002667 
3630.031712  	-0.000799 
3631.960528  	0.000526 
3633.889344  	0.000038 
3635.818160  	-0.001003 
3637.746976  	-0.001788 
3639.675792  	-0.002218 
3641.604608  	-0.002596 
3643.533424  	-0.003030 
3645.462240  	-0.003531 
3647.391056  	-0.006039 
3649.319872  	-0.009981 
3651.248688  	-0.011459 
3653.177504  	-0.009292 
3655.106320  	-0.009404 
3657.035136  	-0.011846 
3658.963952  	-0.011896 
3660.892768  	-0.012198 
3662.821584  	-0.012655 
3664.750400  	-0.012610 
3666.679216  	-0.012201 
3668.608032  	-0.013509 
3670.536848  	-0.016667 
3672.465664  	-0.015086 
3674.394480  	-0.015369 
3676.323296  	-0.019483 
3678.252112  	-0.016596 
3680.180928  	-0.015211 
3682.109744  	-0.014885 
3684.038560  	-0.014916 
3685.967376  	-0.014644 
3687.896192  	-0.016499 
3689.825008  	-0.018806 
3691.753824  	-0.017941 
3693.682640  	-0.016101 
3695.611456  	-0.015236 
3697.540272  	-0.014521 
3699.469088  	-0.013567 
3701.397904  	-0.013942 
3703.326720  	-0.013855 
3705.255536  	-0.012609 
3707.184352  	-0.012026 
3709.113168  	-0.012859 
3711.041984  	-0.014695 
3712.970800  	-0.014540 
3714.899616  	-0.012414 
3716.828432  	-0.011513 
3718.757248  	-0.011598 
3720.686064  	-0.011866 
3722.614880  	-0.012304 
3724.543696  	-0.011982 
3726.472512  	-0.012264 
3728.401328  	-0.012011 
3730.330144  	-0.011923 
3732.258960  	-0.013081 
3734.187776  	-0.012814 
3736.116592  	-0.014111 
3738.045408  	-0.013962 
3739.974224  	-0.012189 
3741.903040  	-0.010817 
3743.831856  	-0.012550 
3745.760672  	-0.014624 
3747.689488  	-0.012667 
3749.618304  	-0.014579 
3751.547120  	-0.016635 
3753.475936  	-0.015261 
3755.404752  	-0.012959 
3757.333568  	-0.012468 
3759.262384  	-0.013068 
3761.191200  	-0.013049 
3763.120016  	-0.011648 
3765.048832  	-0.012226 
3766.977648  	-0.012306 
3768.906464  	-0.012770 
3770.835280  	-0.013548 
3772.764096  	-0.012382 
3774.692912  	-0.011833 
3776.621728  	-0.011674 
3778.550544  	-0.012461 
3780.479360  	-0.013360 
3782.408176  	-0.012188 
3784.336992  	-0.012414 
3786.265808  	-0.012602 
3788.194624  	-0.012161 
3790.123440  	-0.012064 
3792.052256  	-0.012118 
3793.981072  	-0.011884 
3795.909888  	-0.012808 
3797.838704  	-0.012700 
3799.767520  	-0.012365 
3801.696336  	-0.015703 
3803.625152  	-0.014640 
3805.553968  	-0.013222 
3807.482784  	-0.014676 
3809.411600  	-0.013187 
3811.340416  	-0.012133 
3813.269232  	-0.011569 
3815.198048  	-0.013264 
3817.126864  	-0.014759 
3819.055680  	-0.013181 
3820.984496  	-0.015661 
3822.913312  	-0.015192 
3824.842128  	-0.012767 
3826.770944  	-0.013201 
3828.699760  	-0.012689 
3830.628576  	-0.012514 
3832.557392  	-0.013040 
3834.486208  	-0.012726 
3836.415024  	-0.013329 
3838.343840  	-0.014750 
3840.272656  	-0.014559 
3842.201472  	-0.013460 
3844.130288  	-0.013405 
3846.059104  	-0.012633 
3847.987920  	-0.011613 
3849.916736  	-0.011168 
3851.845552  	-0.012352 
3853.774368  	-0.017165 
3855.703184  	-0.015733 
3857.632000  	-0.013330 
3859.560816  	-0.012253 
3861.489632  	-0.012260 
3863.418448  	-0.012680 
3865.347264  	-0.013293 
3867.276080  	-0.012123 
3869.204896  	-0.012820 
3871.133712  	-0.013627 
3873.062528  	-0.012817 
3874.991344  	-0.013517 
3876.920160  	-0.011991 
3878.848976  	-0.011260 
3880.777792  	-0.012363 
3882.706608  	-0.011780 
3884.635424  	-0.011775 
3886.564240  	-0.013194 
3888.493056  	-0.011939 
3890.421872  	-0.012238 
3892.350688  	-0.013423 
3894.279504  	-0.012544 
3896.208320  	-0.011366 
3898.137136  	-0.011011 
3900.065952  	-0.011449 
3901.994768  	-0.011463 
3903.923584  	-0.012508 
3905.852400  	-0.013146 
3907.781216  	-0.012438 
3909.710032  	-0.012049 
3911.638848  	-0.011933 
3913.567664  	-0.011675 
3915.496480  	-0.011435 
3917.425296  	-0.011840 
3919.354112  	-0.012126 
3921.282928  	-0.011981 
3923.211744  	-0.011508 
3925.140560  	-0.011778 
3927.069376  	-0.011891 
3928.998192  	-0.011749 
3930.927008  	-0.011415 
3932.855824  	-0.011580 
3934.784640  	-0.011942 
3936.713456  	-0.011941 
3938.642272  	-0.011690 
3940.571088  	-0.011201 
3942.499904  	-0.011366 
3944.428720  	-0.011738 
3946.357536  	-0.011462 
3948.286352  	-0.011522 
3950.215168  	-0.011814 
3952.143984  	-0.012051 
3954.072800  	-0.011999 
3956.001616  	-0.011670 
3957.930432  	-0.011729 
3959.859248  	-0.011852 
3961.788064  	-0.011958 
3963.716880  	-0.012148 
3965.645696  	-0.012280 
3967.574512  	-0.012153 
3969.503328  	-0.012015 
3971.432144  	-0.012101 
3973.360960  	-0.012076 
3975.289776  	-0.012210 
3977.218592  	-0.012146 
3979.147408  	-0.012034 
3981.076224  	-0.012086 
3983.005040  	-0.012107 
3984.933856  	-0.012154 
3986.862672  	-0.012235 
3988.791488  	-0.012186 
3990.720304  	-0.012059 
3992.649120  	-0.012127 
3994.577936  	-0.012270 
3996.506752  	-0.012219 
3998.435568  	-0.012192 
4000.364384  	-0.012113 