##TITLE=No Description
##DATA TYPE=INFRARED SPECTRUM
##XUNITS=1/CM
##YUNITS=Abs
399.264912  	0.675929 
401.193728  	0.660795 
403.122544  	0.650969 
405.051360  	0.637948 
406.980176  	0.634877 
408.908992  	0.607896 
410.837808  	0.602001 
412.766624  	0.599356 
414.695440  	0.605953 
416.624256  	0.606822 
418.553072  	0.618691 
420.481888  	0.602845 
422.410704  	0.611870 
424.339520  	0.599230 
426.268336  	0.590775 
428.197152  	0.575054 
430.125968  	0.580957 
432.054784  	0.580251 
433.983600  	0.577683 
435.912416  	0.571289 
437.841232  	0.571128 
439.770048  	0.567493 
441.698864  	0.569685 
443.627680  	0.569769 
445.556496  	0.575756 
447.485312  	0.567929 
449.414128  	0.562878 
451.342944  	0.560991 
453.271760  	0.559431 
455.200576  	0.552171 
457.129392  	0.556600 
459.058208  	0.552019 
460.987024  	0.557776 
462.915840  	0.557018 
464.844656  	0.556579 
466.773472  	0.554070 
468.702288  	0.555361 
470.631104  	0.548021 
472.559920  	0.540118 
474.488736  	0.533138 
476.417552  	0.540047 
478.346368  	0.539226 
480.275184  	0.538264 
482.204000  	0.535250 
484.132816  	0.534352 
486.061632  	0.527684 
487.990448  	0.528519 
489.919264  	0.528650 
491.848080  	0.529890 
493.776896  	0.528394 
495.705712  	0.532352 
497.634528  	0.529921 
499.563344  	0.528329 
501.492160  	0.521739 
503.420976  	0.522498 
505.349792  	0.521155 
507.278608  	0.522095 
509.207424  	0.521301 
511.136240  	0.523434 
513.065056  	0.521022 
514.993872  	0.522401 
516.922688  	0.522198 
518.851504  	0.523092 
520.780320  	0.522263 
522.709136  	0.522085 
524.637952  	0.518795 
526.566768  	0.519260 
528.495584  	0.516148 
530.424400  	0.514094 
532.353216  	0.509784 
534.282032  	0.507879 
536.210848  	0.505067 
538.139664  	0.501748 
540.068480  	0.496835 
541.997296  	0.496420 
543.926112  	0.490834 
545.854928  	0.487099 
547.783744  	0.483274 
549.712560  	0.481628 
551.641376  	0.478627 
553.570192  	0.476651 
555.499008  	0.473039 
557.427824  	0.470507 
559.356640  	0.468013 
561.285456  	0.466937 
563.214272  	0.462764 
565.143088  	0.460704 
567.071904  	0.457909 
569.000720  	0.454632 
570.929536  	0.451415 
572.858352  	0.450747 
574.787168  	0.447977 
576.715984  	0.445572 
578.644800  	0.442898 
580.573616  	0.439823 
582.502432  	0.434966 
584.431248  	0.433506 
586.360064  	0.430727 
588.288880  	0.427924 
590.217696  	0.425630 
592.146512  	0.424767 
594.075328  	0.421870 
596.004144  	0.419844 
597.932960  	0.416994 
599.861776  	0.415200 
601.790592  	0.412342 
603.719408  	0.410940 
605.648224  	0.409009 
607.577040  	0.407119 
609.505856  	0.405053 
611.434672  	0.403705 
613.363488  	0.401397 
615.292304  	0.400087 
617.221120  	0.398076 
619.149936  	0.396343 
621.078752  	0.393690 
623.007568  	0.392315 
624.936384  	0.390246 
626.865200  	0.388801 
628.794016  	0.387123 
630.722832  	0.386452 
632.651648  	0.384888 
634.580464  	0.383566 
636.509280  	0.382456 
638.438096  	0.381786 
640.366912  	0.379689 
642.295728  	0.378198 
644.224544  	0.375290 
646.153360  	0.372531 
648.082176  	0.369064 
650.010992  	0.365918 
651.939808  	0.362320 
653.868624  	0.359452 
655.797440  	0.355880 
657.726256  	0.353001 
659.655072  	0.349695 
661.583888  	0.346512 
663.512704  	0.342717 
665.441520  	0.340340 
667.370336  	0.336866 
669.299152  	0.332073 
671.227968  	0.328788 
673.156784  	0.325998 
675.085600  	0.322987 
677.014416  	0.320568 
678.943232  	0.318073 
680.872048  	0.316424 
682.800864  	0.314147 
684.729680  	0.312116 
686.658496  	0.310144 
688.587312  	0.308991 
690.516128  	0.306677 
692.444944  	0.304754 
694.373760  	0.302809 
696.302576  	0.300093 
698.231392  	0.296865 
700.160208  	0.294343 
702.089024  	0.292128 
704.017840  	0.289869 
705.946656  	0.287153 
707.875472  	0.285187 
709.804288  	0.282990 
711.733104  	0.281060 
713.661920  	0.278298 
715.590736  	0.276250 
717.519552  	0.275145 
719.448368  	0.274260 
721.377184  	0.272597 
723.306000  	0.271707 
725.234816  	0.270900 
727.163632  	0.269338 
729.092448  	0.266854 
731.021264  	0.264730 
732.950080  	0.262107 
734.878896  	0.259267 
736.807712  	0.256664 
738.736528  	0.254555 
740.665344  	0.252282 
742.594160  	0.250480 
744.522976  	0.248610 
746.451792  	0.246678 
748.380608  	0.244490 
750.309424  	0.242719 
752.238240  	0.241349 
754.167056  	0.240362 
756.095872  	0.238260 
758.024688  	0.236355 
759.953504  	0.235065 
761.882320  	0.234323 
763.811136  	0.233153 
765.739952  	0.231334 
767.668768  	0.228932 
769.597584  	0.226221 
771.526400  	0.223994 
773.455216  	0.223430 
775.384032  	0.224148 
777.312848  	0.225186 
779.241664  	0.225522 
781.170480  	0.224595 
783.099296  	0.221865 
785.028112  	0.217861 
786.956928  	0.213488 
788.885744  	0.209640 
790.814560  	0.206421 
792.743376  	0.203921 
794.672192  	0.202161 
796.601008  	0.200617 
798.529824  	0.198045 
800.458640  	0.194352 
802.387456  	0.191009 
804.316272  	0.188896 
806.245088  	0.186790 
808.173904  	0.184845 
810.102720  	0.183558 
812.031536  	0.182286 
813.960352  	0.180987 
815.889168  	0.179935 
817.817984  	0.178830 
819.746800  	0.177835 
821.675616  	0.176513 
823.604432  	0.175078 
825.533248  	0.173849 
827.462064  	0.172703 
829.390880  	0.170693 
831.319696  	0.168828 
833.248512  	0.166922 
835.177328  	0.164696 
837.106144  	0.162505 
839.034960  	0.160045 
840.963776  	0.156979 
842.892592  	0.154230 
844.821408  	0.151511 
846.750224  	0.148979 
848.679040  	0.146763 
850.607856  	0.144828 
852.536672  	0.143015 
854.465488  	0.141280 
856.394304  	0.139640 
858.323120  	0.138124 
860.251936  	0.136167 
862.180752  	0.133837 
864.109568  	0.131293 
866.038384  	0.129137 
867.967200  	0.127435 
869.896016  	0.125763 
871.824832  	0.124427 
873.753648  	0.123841 
875.682464  	0.123428 
877.611280  	0.122664 
879.540096  	0.122029 
881.468912  	0.122776 
883.397728  	0.123187 
885.326544  	0.123298 
887.255360  	0.122918 
889.184176  	0.121684 
891.112992  	0.119700 
893.041808  	0.118388 
894.970624  	0.116845 
896.899440  	0.114530 
898.828256  	0.111929 
900.757072  	0.109520 
902.685888  	0.107661 
904.614704  	0.106339 
906.543520  	0.105962 
908.472336  	0.106288 
910.401152  	0.107278 
912.329968  	0.108391 
914.258784  	0.109452 
916.187600  	0.110592 
918.116416  	0.111426 
920.045232  	0.111891 
921.974048  	0.111873 
923.902864  	0.111549 
925.831680  	0.110884 
927.760496  	0.110325 
929.689312  	0.109916 
931.618128  	0.109696 
933.546944  	0.109230 
935.475760  	0.108676 
937.404576  	0.108074 
939.333392  	0.107333 
941.262208  	0.106563 
943.191024  	0.106354 
945.119840  	0.107352 
947.048656  	0.109458 
948.977472  	0.112444 
950.906288  	0.116255 
952.835104  	0.120512 
954.763920  	0.125022 
956.692736  	0.129314 
958.621552  	0.133130 
960.550368  	0.135507 
962.479184  	0.136621 
964.408000  	0.136014 
966.336816  	0.133325 
968.265632  	0.128659 
970.194448  	0.122583 
972.123264  	0.115412 
974.052080  	0.107739 
975.980896  	0.100182 
977.909712  	0.092904 
979.838528  	0.086262 
981.767344  	0.080581 
983.696160  	0.076117 
985.624976  	0.072941 
987.553792  	0.070988 
989.482608  	0.070537 
991.411424  	0.071228 
993.340240  	0.072709 
995.269056  	0.074856 
997.197872  	0.077305 
999.126688  	0.079748 
1001.055504  	0.082222 
1002.984320  	0.084603 
1004.913136  	0.087170 
1006.841952  	0.089758 
1008.770768  	0.091773 
1010.699584  	0.093134 
1012.628400  	0.093874 
1014.557216  	0.093944 
1016.486032  	0.093811 
1018.414848  	0.093528 
1020.343664  	0.093126 
1022.272480  	0.092622 
1024.201296  	0.091512 
1026.130112  	0.088396 
1028.058928  	0.086957 
1029.987744  	0.089223 
1031.916560  	0.089803 
1033.845376  	0.089165 
1035.774192  	0.087923 
1037.703008  	0.087402 
1039.631824  	0.089598 
1041.560640  	0.092942 
1043.489456  	0.097645 
1045.418272  	0.103726 
1047.347088  	0.111136 
1049.275904  	0.118666 
1051.204720  	0.125376 
1053.133536  	0.130359 
1055.062352  	0.133126 
1056.991168  	0.134088 
1058.919984  	0.136837 
1060.848800  	0.139944 
1062.777616  	0.139368 
1064.706432  	0.135369 
1066.635248  	0.132621 
1068.564064  	0.134271 
1070.492880  	0.133193 
1072.421696  	0.129173 
1074.350512  	0.126333 
1076.279328  	0.125410 
1078.208144  	0.126833 
1080.136960  	0.130677 
1082.065776  	0.135725 
1083.994592  	0.140093 
1085.923408  	0.143141 
1087.852224  	0.144323 
1089.781040  	0.144402 
1091.709856  	0.143805 
1093.638672  	0.141275 
1095.567488  	0.136384 
1097.496304  	0.130427 
1099.425120  	0.123809 
1101.353936  	0.116777 
1103.282752  	0.109760 
1105.211568  	0.102926 
1107.140384  	0.096106 
1109.069200  	0.089694 
1110.998016  	0.083970 
1112.926832  	0.078556 
1114.855648  	0.073541 
1116.784464  	0.068823 
1118.713280  	0.064283 
1120.642096  	0.060083 
1122.570912  	0.056246 
1124.499728  	0.052530 
1126.428544  	0.049181 
1128.357360  	0.046244 
1130.286176  	0.043690 
1132.214992  	0.041476 
1134.143808  	0.039814 
1136.072624  	0.038380 
1138.001440  	0.037088 
1139.930256  	0.035532 
1141.859072  	0.034012 
1143.787888  	0.032641 
1145.716704  	0.031349 
1147.645520  	0.030019 
1149.574336  	0.028900 
1151.503152  	0.027900 
1153.431968  	0.027465 
1155.360784  	0.027513 
1157.289600  	0.027902 
1159.218416  	0.028346 
1161.147232  	0.029112 
1163.076048  	0.030031 
1165.004864  	0.031155 
1166.933680  	0.032167 
1168.862496  	0.033250 
1170.791312  	0.034422 
1172.720128  	0.035814 
1174.648944  	0.037018 
1176.577760  	0.038226 
1178.506576  	0.039244 
1180.435392  	0.040431 
1182.364208  	0.041538 
1184.293024  	0.042755 
1186.221840  	0.044184 
1188.150656  	0.045909 
1190.079472  	0.047820 
1192.008288  	0.050320 
1193.937104  	0.053332 
1195.865920  	0.056846 
1197.794736  	0.060738 
1199.723552  	0.065150 
1201.652368  	0.069597 
1203.581184  	0.074311 
1205.510000  	0.078980 
1207.438816  	0.083430 
1209.367632  	0.087814 
1211.296448  	0.091651 
1213.225264  	0.094861 
1215.154080  	0.097293 
1217.082896  	0.099263 
1219.011712  	0.100611 
1220.940528  	0.101651 
1222.869344  	0.102468 
1224.798160  	0.102755 
1226.726976  	0.102689 
1228.655792  	0.102593 
1230.584608  	0.102230 
1232.513424  	0.101667 
1234.442240  	0.101011 
1236.371056  	0.099864 
1238.299872  	0.097823 
1240.228688  	0.093664 
1242.157504  	0.089760 
1244.086320  	0.087018 
1246.015136  	0.082904 
1247.943952  	0.077849 
1249.872768  	0.072678 
1251.801584  	0.068703 
1253.730400  	0.064591 
1255.659216  	0.060519 
1257.588032  	0.056669 
1259.516848  	0.053038 
1261.445664  	0.049673 
1263.374480  	0.046594 
1265.303296  	0.043934 
1267.232112  	0.041836 
1269.160928  	0.040320 
1271.089744  	0.039125 
1273.018560  	0.038414 
1274.947376  	0.038119 
1276.876192  	0.038205 
1278.805008  	0.038083 
1280.733824  	0.037472 
1282.662640  	0.036422 
1284.591456  	0.035078 
1286.520272  	0.033846 
1288.449088  	0.032882 
1290.377904  	0.032311 
1292.306720  	0.032233 
1294.235536  	0.032290 
1296.164352  	0.031857 
1298.093168  	0.030586 
1300.021984  	0.028868 
1301.950800  	0.027054 
1303.879616  	0.025363 
1305.808432  	0.023523 
1307.737248  	0.021682 
1309.666064  	0.019914 
1311.594880  	0.018584 
1313.523696  	0.017425 
1315.452512  	0.016704 
1317.381328  	0.016295 
1319.310144  	0.016228 
1321.238960  	0.016219 
1323.167776  	0.016401 
1325.096592  	0.016787 
1327.025408  	0.017195 
1328.954224  	0.017234 
1330.883040  	0.016956 
1332.811856  	0.016411 
1334.740672  	0.016045 
1336.669488  	0.016003 
1338.598304  	0.016155 
1340.527120  	0.015383 
1342.455936  	0.014240 
1344.384752  	0.013916 
1346.313568  	0.013986 
1348.242384  	0.014173 
1350.171200  	0.014706 
1352.100016  	0.015473 
1354.028832  	0.016473 
1355.957648  	0.017301 
1357.886464  	0.018201 
1359.815280  	0.019341 
1361.744096  	0.020676 
1363.672912  	0.021198 
1365.601728  	0.021310 
1367.530544  	0.021777 
1369.459360  	0.021831 
1371.388176  	0.021441 
1373.316992  	0.020556 
1375.245808  	0.018617 
1377.174624  	0.016848 
1379.103440  	0.014896 
1381.032256  	0.012986 
1382.961072  	0.011715 
1384.889888  	0.011468 
1386.818704  	0.011559 
1388.747520  	0.010834 
1390.676336  	0.009008 
1392.605152  	0.006040 
1394.533968  	0.004703 
1396.462784  	0.007604 
1398.391600  	0.008604 
1400.320416  	0.007754 
1402.249232  	0.007366 
1404.178048  	0.007346 
1406.106864  	0.007536 
1408.035680  	0.008630 
1409.964496  	0.010225 
1411.893312  	0.012290 
1413.822128  	0.014392 
1415.750944  	0.016838 
1417.679760  	0.018607 
1419.608576  	0.019039 
1421.537392  	0.019525 
1423.466208  	0.019884 
1425.395024  	0.019215 
1427.323840  	0.018533 
1429.252656  	0.017302 
1431.181472  	0.016410 
1433.110288  	0.016334 
1435.039104  	0.016740 
1436.967920  	0.016510 
1438.896736  	0.016776 
1440.825552  	0.017277 
1442.754368  	0.017556 
1444.683184  	0.017676 
1446.612000  	0.017621 
1448.540816  	0.016778 
1450.469632  	0.016874 
1452.398448  	0.017415 
1454.327264  	0.018116 
1456.256080  	0.018082 
1458.184896  	0.016917 
1460.113712  	0.017622 
1462.042528  	0.018398 
1463.971344  	0.018127 
1465.900160  	0.018357 
1467.828976  	0.019876 
1469.757792  	0.021650 
1471.686608  	0.023262 
1473.615424  	0.026147 
1475.544240  	0.029578 
1477.473056  	0.032623 
1479.401872  	0.034795 
1481.330688  	0.036772 
1483.259504  	0.038186 
1485.188320  	0.039265 
1487.117136  	0.039443 
1489.045952  	0.039406 
1490.974768  	0.038035 
1492.903584  	0.037015 
1494.832400  	0.035335 
1496.761216  	0.031873 
1498.690032  	0.028660 
1500.618848  	0.026631 
1502.547664  	0.024616 
1504.476480  	0.022315 
1506.405296  	0.018766 
1508.334112  	0.017592 
1510.262928  	0.017587 
1512.191744  	0.016501 
1514.120560  	0.015913 
1516.049376  	0.015514 
1517.978192  	0.014961 
1519.907008  	0.015605 
1521.835824  	0.015727 
1523.764640  	0.018124 
1525.693456  	0.020549 
1527.622272  	0.021802 
1529.551088  	0.022230 
1531.479904  	0.022191 
1533.408720  	0.020079 
1535.337536  	0.018473 
1537.266352  	0.017389 
1539.195168  	0.013076 
1541.123984  	0.009567 
1543.052800  	0.011160 
1544.981616  	0.011378 
1546.910432  	0.010927 
1548.839248  	0.011099 
1550.768064  	0.011119 
1552.696880  	0.010809 
1554.625696  	0.010883 
1556.554512  	0.010793 
1558.483328  	0.009198 
1560.412144  	0.011559 
1562.340960  	0.015437 
1564.269776  	0.017382 
1566.198592  	0.020072 
1568.127408  	0.022012 
1570.056224  	0.024507 
1571.985040  	0.028295 
1573.913856  	0.030694 
1575.842672  	0.031052 
1577.771488  	0.032991 
1579.700304  	0.034270 
1581.629120  	0.034344 
1583.557936  	0.033998 
1585.486752  	0.034212 
1587.415568  	0.035156 
1589.344384  	0.037281 
1591.273200  	0.040149 
1593.202016  	0.043749 
1595.130832  	0.047616 
1597.059648  	0.051859 
1598.988464  	0.055581 
1600.917280  	0.058980 
1602.846096  	0.061336 
1604.774912  	0.062929 
1606.703728  	0.063297 
1608.632544  	0.063159 
1610.561360  	0.062352 
1612.490176  	0.061660 
1614.418992  	0.060296 
1616.347808  	0.058542 
1618.276624  	0.059125 
1620.205440  	0.061439 
1622.134256  	0.062607 
1624.063072  	0.065457 
1625.991888  	0.069194 
1627.920704  	0.073417 
1629.849520  	0.078749 
1631.778336  	0.083985 
1633.707152  	0.087537 
1635.635968  	0.092131 
1637.564784  	0.099035 
1639.493600  	0.104300 
1641.422416  	0.108193 
1643.351232  	0.111346 
1645.280048  	0.112424 
1647.208864  	0.113783 
1649.137680  	0.116201 
1651.066496  	0.116739 
1652.995312  	0.113563 
1654.924128  	0.115514 
1656.852944  	0.116402 
1658.781760  	0.115801 
1660.710576  	0.114158 
1662.639392  	0.111722 
1664.568208  	0.110178 
1666.497024  	0.109148 
1668.425840  	0.105927 
1670.354656  	0.102207 
1672.283472  	0.100904 
1674.212288  	0.099203 
1676.141104  	0.096699 
1678.069920  	0.096319 
1679.998736  	0.095912 
1681.927552  	0.094955 
1683.856368  	0.091898 
1685.785184  	0.092218 
1687.714000  	0.093677 
1689.642816  	0.093736 
1691.571632  	0.093225 
1693.500448  	0.092786 
1695.429264  	0.090579 
1697.358080  	0.089367 
1699.286896  	0.087976 
1701.215712  	0.085724 
1703.144528  	0.085750 
1705.073344  	0.083583 
1707.002160  	0.080443 
1708.930976  	0.078155 
1710.859792  	0.074631 
1712.788608  	0.070474 
1714.717424  	0.065265 
1716.646240  	0.058362 
1718.575056  	0.049620 
1720.503872  	0.044465 
1722.432688  	0.039787 
1724.361504  	0.033548 
1726.290320  	0.028369 
1728.219136  	0.024062 
1730.147952  	0.020124 
1732.076768  	0.016704 
1734.005584  	0.012184 
1735.934400  	0.008970 
1737.863216  	0.008742 
1739.792032  	0.006471 
1741.720848  	0.005633 
1743.649664  	0.005266 
1745.578480  	0.004704 
1747.507296  	0.003539 
1749.436112  	0.002849 
1751.364928  	0.002148 
1753.293744  	0.001882 
1755.222560  	0.001664 
1757.151376  	0.001249 
1759.080192  	0.000909 
1761.009008  	0.000392 
1762.937824  	-0.000466 
1764.866640  	-0.000190 
1766.795456  	-0.000053 
1768.724272  	-0.000357 
1770.653088  	-0.001627 
1772.581904  	-0.003111 
1774.510720  	-0.002482 
1776.439536  	-0.001675 
1778.368352  	-0.001518 
1780.297168  	-0.001666 
1782.225984  	-0.002095 
1784.154800  	-0.001938 
1786.083616  	-0.002213 
1788.012432  	-0.002034 
1789.941248  	-0.001801 
1791.870064  	-0.002491 
1793.798880  	-0.003189 
1795.727696  	-0.002428 
1797.656512  	-0.002662 
1799.585328  	-0.002797 
1801.514144  	-0.002610 
1803.442960  	-0.002663 
1805.371776  	-0.002928 
1807.300592  	-0.002743 
1809.229408  	-0.003158 
1811.158224  	-0.003486 
1813.087040  	-0.003625 
1815.015856  	-0.003438 
1816.944672  	-0.003418 
1818.873488  	-0.003358 
1820.802304  	-0.003381 
1822.731120  	-0.002898 
1824.659936  	-0.003330 
1826.588752  	-0.003755 
1828.517568  	-0.004242 
1830.446384  	-0.004414 
1832.375200  	-0.003954 
1834.304016  	-0.003587 
1836.232832  	-0.003638 
1838.161648  	-0.003543 
1840.090464  	-0.003702 
1842.019280  	-0.003463 
1843.948096  	-0.004223 
1845.876912  	-0.004275 
1847.805728  	-0.003836 
1849.734544  	-0.003700 
1851.663360  	-0.003784 
1853.592176  	-0.003802 
1855.520992  	-0.003795 
1857.449808  	-0.003509 
1859.378624  	-0.003730 
1861.307440  	-0.003937 
1863.236256  	-0.004163 
1865.165072  	-0.003890 
1867.093888  	-0.003811 
1869.022704  	-0.003984 
1870.951520  	-0.004244 
1872.880336  	-0.004025 
1874.809152  	-0.004321 
1876.737968  	-0.004292 
1878.666784  	-0.004471 
1880.595600  	-0.004190 
1882.524416  	-0.004221 
1884.453232  	-0.004105 
1886.382048  	-0.004309 
1888.310864  	-0.004140 
1890.239680  	-0.004339 
1892.168496  	-0.004401 
1894.097312  	-0.004462 
1896.026128  	-0.004179 
1897.954944  	-0.004576 
1899.883760  	-0.004491 
1901.812576  	-0.004613 
1903.741392  	-0.004744 
1905.670208  	-0.004859 
1907.599024  	-0.004486 
1909.527840  	-0.004371 
1911.456656  	-0.004319 
1913.385472  	-0.004640 
1915.314288  	-0.004212 
1917.243104  	-0.004189 
1919.171920  	-0.004136 
1921.100736  	-0.004201 
1923.029552  	-0.004090 
1924.958368  	-0.004577 
1926.887184  	-0.004579 
1928.816000  	-0.004672 
1930.744816  	-0.004385 
1932.673632  	-0.004600 
1934.602448  	-0.004528 
1936.531264  	-0.004507 
1938.460080  	-0.004202 
1940.388896  	-0.004599 
1942.317712  	-0.004459 
1944.246528  	-0.004739 
1946.175344  	-0.004413 
1948.104160  	-0.004606 
1950.032976  	-0.004258 
1951.961792  	-0.004049 
1953.890608  	-0.003914 
1955.819424  	-0.004782 
1957.748240  	-0.004593 
1959.677056  	-0.004829 
1961.605872  	-0.004532 
1963.534688  	-0.004547 
1965.463504  	-0.004039 
1967.392320  	-0.004850 
1969.321136  	-0.005023 
1971.249952  	-0.004862 
1973.178768  	-0.004313 
1975.107584  	-0.005250 
1977.036400  	-0.003737 
1978.965216  	-0.002294 
1980.894032  	-0.002978 
1982.822848  	-0.003560 
1984.751664  	-0.003347 
1986.680480  	-0.003810 
1988.609296  	-0.003301 
1990.538112  	-0.004061 
1992.466928  	-0.004541 
1994.395744  	-0.005395 
1996.324560  	-0.005167 
1998.253376  	-0.004978 
2000.182192  	-0.004570 
2002.111008  	-0.004495 
2004.039824  	-0.003980 
2005.968640  	-0.003889 
2007.897456  	-0.003288 
2009.826272  	-0.003932 
2011.755088  	-0.004575 
2013.683904  	-0.005503 
2015.612720  	-0.004691 
2017.541536  	-0.004754 
2019.470352  	-0.004687 
2021.399168  	-0.005827 
2023.327984  	-0.005675 
2025.256800  	-0.004429 
2027.185616  	-0.003314 
2029.114432  	-0.003026 
2031.043248  	-0.002832 
2032.972064  	-0.003705 
2034.900880  	-0.003465 
2036.829696  	-0.003246 
2038.758512  	-0.002062 
2040.687328  	-0.002824 
2042.616144  	-0.003390 
2044.544960  	-0.003531 
2046.473776  	-0.002975 
2048.402592  	-0.003356 
2050.331408  	-0.003130 
2052.260224  	-0.003829 
2054.189040  	-0.004254 
2056.117856  	-0.004355 
2058.046672  	-0.004025 
2059.975488  	-0.004279 
2061.904304  	-0.004564 
2063.833120  	-0.004956 
2065.761936  	-0.004975 
2067.690752  	-0.004709 
2069.619568  	-0.004168 
2071.548384  	-0.003929 
2073.477200  	-0.004016 
2075.406016  	-0.004406 
2077.334832  	-0.004246 
2079.263648  	-0.003991 
2081.192464  	-0.004012 
2083.121280  	-0.004469 
2085.050096  	-0.004515 
2086.978912  	-0.004496 
2088.907728  	-0.004111 
2090.836544  	-0.003974 
2092.765360  	-0.003885 
2094.694176  	-0.003801 
2096.622992  	-0.004059 
2098.551808  	-0.004473 
2100.480624  	-0.003870 
2102.409440  	-0.003941 
2104.338256  	-0.004315 
2106.267072  	-0.004090 
2108.195888  	-0.003800 
2110.124704  	-0.004051 
2112.053520  	-0.003888 
2113.982336  	-0.004154 
2115.911152  	-0.004415 
2117.839968  	-0.004294 
2119.768784  	-0.004148 
2121.697600  	-0.004461 
2123.626416  	-0.004279 
2125.555232  	-0.004504 
2127.484048  	-0.004827 
2129.412864  	-0.005151 
2131.341680  	-0.005447 
2133.270496  	-0.005672 
2135.199312  	-0.005309 
2137.128128  	-0.004588 
2139.056944  	-0.004178 
2140.985760  	-0.004379 
2142.914576  	-0.004203 
2144.843392  	-0.004282 
2146.772208  	-0.003683 
2148.701024  	-0.003790 
2150.629840  	-0.003994 
2152.558656  	-0.004623 
2154.487472  	-0.004658 
2156.416288  	-0.004522 
2158.345104  	-0.003920 
2160.273920  	-0.003096 
2162.202736  	-0.002440 
2164.131552  	-0.002909 
2166.060368  	-0.002309 
2167.989184  	-0.001897 
2169.918000  	-0.001745 
2171.846816  	-0.002993 
2173.775632  	-0.003045 
2175.704448  	-0.002804 
2177.633264  	-0.002640 
2179.562080  	-0.002643 
2181.490896  	-0.002993 
2183.419712  	-0.003235 
2185.348528  	-0.002945 
2187.277344  	-0.003030 
2189.206160  	-0.002808 
2191.134976  	-0.003419 
2193.063792  	-0.003854 
2194.992608  	-0.003700 
2196.921424  	-0.003138 
2198.850240  	-0.002919 
2200.779056  	-0.002959 
2202.707872  	-0.003736 
2204.636688  	-0.003660 
2206.565504  	-0.003388 
2208.494320  	-0.003188 
2210.423136  	-0.004116 
2212.351952  	-0.004225 
2214.280768  	-0.003929 
2216.209584  	-0.003750 
2218.138400  	-0.004106 
2220.067216  	-0.004014 
2221.996032  	-0.004169 
2223.924848  	-0.004326 
2225.853664  	-0.003860 
2227.782480  	-0.003218 
2229.711296  	-0.003436 
2231.640112  	-0.004364 
2233.568928  	-0.004534 
2235.497744  	-0.004140 
2237.426560  	-0.004571 
2239.355376  	-0.004699 
2241.284192  	-0.004709 
2243.213008  	-0.004209 
2245.141824  	-0.004298 
2247.070640  	-0.004149 
2248.999456  	-0.004205 
2250.928272  	-0.004461 
2252.857088  	-0.004637 
2254.785904  	-0.004489 
2256.714720  	-0.004812 
2258.643536  	-0.004722 
2260.572352  	-0.004492 
2262.501168  	-0.004572 
2264.429984  	-0.004694 
2266.358800  	-0.004569 
2268.287616  	-0.004680 
2270.216432  	-0.004500 
2272.145248  	-0.004533 
2274.074064  	-0.004459 
2276.002880  	-0.004210 
2277.931696  	-0.003777 
2279.860512  	-0.003755 
2281.789328  	-0.003768 
2283.718144  	-0.003957 
2285.646960  	-0.003878 
2287.575776  	-0.003476 
2289.504592  	-0.003393 
2291.433408  	-0.003712 
2293.362224  	-0.003522 
2295.291040  	-0.003071 
2297.219856  	-0.002608 
2299.148672  	-0.002403 
2301.077488  	-0.002250 
2303.006304  	-0.002164 
2304.935120  	-0.001845 
2306.863936  	-0.001504 
2308.792752  	-0.001016 
2310.721568  	-0.000866 
2312.650384  	-0.000963 
2314.579200  	-0.001162 
2316.508016  	-0.001297 
2318.436832  	-0.001304 
2320.365648  	-0.001385 
2322.294464  	-0.001400 
2324.223280  	-0.001900 
2326.152096  	-0.003026 
2328.080912  	-0.003557 
2330.009728  	-0.004175 
2331.938544  	-0.005466 
2333.867360  	-0.006403 
2335.796176  	-0.006786 
2337.724992  	-0.006931 
2339.653808  	-0.006685 
2341.582624  	-0.006795 
2343.511440  	-0.006168 
2345.440256  	-0.005015 
2347.369072  	-0.003764 
2349.297888  	-0.002746 
2351.226704  	-0.003136 
2353.155520  	-0.004828 
2355.084336  	-0.005643 
2357.013152  	-0.006307 
2358.941968  	-0.006934 
2360.870784  	-0.007690 
2362.799600  	-0.007619 
2364.728416  	-0.007773 
2366.657232  	-0.006951 
2368.586048  	-0.005742 
2370.514864  	-0.005192 
2372.443680  	-0.004494 
2374.372496  	-0.003693 
2376.301312  	-0.003118 
2378.230128  	-0.002675 
2380.158944  	-0.002836 
2382.087760  	-0.003335 
2384.016576  	-0.003900 
2385.945392  	-0.004575 
2387.874208  	-0.005044 
2389.803024  	-0.005259 
2391.731840  	-0.005403 
2393.660656  	-0.005276 
2395.589472  	-0.005211 
2397.518288  	-0.005078 
2399.447104  	-0.005185 
2401.375920  	-0.005421 
2403.304736  	-0.005500 
2405.233552  	-0.005337 
2407.162368  	-0.005446 
2409.091184  	-0.005416 
2411.020000  	-0.005328 
2412.948816  	-0.005373 
2414.877632  	-0.005321 
2416.806448  	-0.005107 
2418.735264  	-0.005204 
2420.664080  	-0.005324 
2422.592896  	-0.005421 
2424.521712  	-0.005388 
2426.450528  	-0.005449 
2428.379344  	-0.005237 
2430.308160  	-0.004975 
2432.236976  	-0.004893 
2434.165792  	-0.005065 
2436.094608  	-0.005273 
2438.023424  	-0.005265 
2439.952240  	-0.005093 
2441.881056  	-0.004991 
2443.809872  	-0.004858 
2445.738688  	-0.004812 
2447.667504  	-0.004806 
2449.596320  	-0.004788 
2451.525136  	-0.004528 
2453.453952  	-0.004492 
2455.382768  	-0.004589 
2457.311584  	-0.004772 
2459.240400  	-0.005099 
2461.169216  	-0.005056 
2463.098032  	-0.004978 
2465.026848  	-0.004988 
2466.955664  	-0.004958 
2468.884480  	-0.005094 
2470.813296  	-0.005140 
2472.742112  	-0.005100 
2474.670928  	-0.005069 
2476.599744  	-0.004986 
2478.528560  	-0.004915 
2480.457376  	-0.004967 
2482.386192  	-0.004939 
2484.315008  	-0.004779 
2486.243824  	-0.004863 
2488.172640  	-0.004993 
2490.101456  	-0.004812 
2492.030272  	-0.004609 
2493.959088  	-0.004680 
2495.887904  	-0.004750 
2497.816720  	-0.004696 
2499.745536  	-0.004641 
2501.674352  	-0.004525 
2503.603168  	-0.004300 
2505.531984  	-0.004324 
2507.460800  	-0.004615 
2509.389616  	-0.004611 
2511.318432  	-0.004472 
2513.247248  	-0.004380 
2515.176064  	-0.004252 
2517.104880  	-0.004152 
2519.033696  	-0.004446 
2520.962512  	-0.004375 
2522.891328  	-0.004077 
2524.820144  	-0.004188 
2526.748960  	-0.004273 
2528.677776  	-0.004125 
2530.606592  	-0.004141 
2532.535408  	-0.004195 
2534.464224  	-0.004116 
2536.393040  	-0.004072 
2538.321856  	-0.004086 
2540.250672  	-0.003976 
2542.179488  	-0.004101 
2544.108304  	-0.004011 
2546.037120  	-0.003935 
2547.965936  	-0.003979 
2549.894752  	-0.003969 
2551.823568  	-0.004046 
2553.752384  	-0.003838 
2555.681200  	-0.003540 
2557.610016  	-0.003539 
2559.538832  	-0.003443 
2561.467648  	-0.003293 
2563.396464  	-0.003428 
2565.325280  	-0.003540 
2567.254096  	-0.003583 
2569.182912  	-0.003635 
2571.111728  	-0.003654 
2573.040544  	-0.003547 
2574.969360  	-0.003360 
2576.898176  	-0.002990 
2578.826992  	-0.002927 
2580.755808  	-0.003055 
2582.684624  	-0.003040 
2584.613440  	-0.003025 
2586.542256  	-0.002989 
2588.471072  	-0.003049 
2590.399888  	-0.003020 
2592.328704  	-0.002998 
2594.257520  	-0.002983 
2596.186336  	-0.002960 
2598.115152  	-0.002866 
2600.043968  	-0.002849 
2601.972784  	-0.002685 
2603.901600  	-0.002564 
2605.830416  	-0.002546 
2607.759232  	-0.002567 
2609.688048  	-0.002492 
2611.616864  	-0.002397 
2613.545680  	-0.002304 
2615.474496  	-0.002198 
2617.403312  	-0.002154 
2619.332128  	-0.002146 
2621.260944  	-0.002126 
2623.189760  	-0.002134 
2625.118576  	-0.002082 
2627.047392  	-0.002015 
2628.976208  	-0.001974 
2630.905024  	-0.001959 
2632.833840  	-0.001839 
2634.762656  	-0.001714 
2636.691472  	-0.001747 
2638.620288  	-0.001777 
2640.549104  	-0.001658 
2642.477920  	-0.001552 
2644.406736  	-0.001493 
2646.335552  	-0.001432 
2648.264368  	-0.001353 
2650.193184  	-0.001345 
2652.122000  	-0.001358 
2654.050816  	-0.001198 
2655.979632  	-0.001080 
2657.908448  	-0.001082 
2659.837264  	-0.001053 
2661.766080  	-0.001001 
2663.694896  	-0.001005 
2665.623712  	-0.001005 
2667.552528  	-0.000865 
2669.481344  	-0.000804 
2671.410160  	-0.000887 
2673.338976  	-0.000867 
2675.267792  	-0.000647 
2677.196608  	-0.000479 
2679.125424  	-0.000495 
2681.054240  	-0.000468 
2682.983056  	-0.000348 
2684.911872  	-0.000320 
2686.840688  	-0.000267 
2688.769504  	-0.000166 
2690.698320  	-0.000144 
2692.627136  	-0.000154 
2694.555952  	-0.000105 
2696.484768  	-0.000003 
2698.413584  	-0.000011 
2700.342400  	-0.000085 
2702.271216  	0.000038 
2704.200032  	0.000262 
2706.128848  	0.000272 
2708.057664  	0.000196 
2709.986480  	0.000224 
2711.915296  	0.000332 
2713.844112  	0.000506 
2715.772928  	0.000474 
2717.701744  	0.000547 
2719.630560  	0.000689 
2721.559376  	0.000714 
2723.488192  	0.000682 
2725.417008  	0.000797 
2727.345824  	0.000891 
2729.274640  	0.000942 
2731.203456  	0.001014 
2733.132272  	0.001138 
2735.061088  	0.001250 
2736.989904  	0.001300 
2738.918720  	0.001254 
2740.847536  	0.001180 
2742.776352  	0.001167 
2744.705168  	0.001228 
2746.633984  	0.001365 
2748.562800  	0.001402 
2750.491616  	0.001423 
2752.420432  	0.001590 
2754.349248  	0.001557 
2756.278064  	0.001495 
2758.206880  	0.001436 
2760.135696  	0.001389 
2762.064512  	0.001429 
2763.993328  	0.001427 
2765.922144  	0.001362 
2767.850960  	0.001440 
2769.779776  	0.001501 
2771.708592  	0.001509 
2773.637408  	0.001428 
2775.566224  	0.001400 
2777.495040  	0.001328 
2779.423856  	0.001351 
2781.352672  	0.001431 
2783.281488  	0.001305 
2785.210304  	0.001242 
2787.139120  	0.001255 
2789.067936  	0.001243 
2790.996752  	0.001276 
2792.925568  	0.001194 
2794.854384  	0.001136 
2796.783200  	0.001106 
2798.712016  	0.001060 
2800.640832  	0.001067 
2802.569648  	0.001151 
2804.498464  	0.001229 
2806.427280  	0.001120 
2808.356096  	0.001087 
2810.284912  	0.001133 
2812.213728  	0.001070 
2814.142544  	0.000884 
2816.071360  	0.000837 
2818.000176  	0.000841 
2819.928992  	0.000774 
2821.857808  	0.000687 
2823.786624  	0.000506 
2825.715440  	0.000417 
2827.644256  	0.000343 
2829.573072  	0.000240 
2831.501888  	-0.000059 
2833.430704  	-0.000390 
2835.359520  	-0.000656 
2837.288336  	-0.000973 
2839.217152  	-0.001256 
2841.145968  	-0.001536 
2843.074784  	-0.001895 
2845.003600  	-0.002305 
2846.932416  	-0.002652 
2848.861232  	-0.002966 
2850.790048  	-0.003432 
2852.718864  	-0.003984 
2854.647680  	-0.004524 
2856.576496  	-0.005230 
2858.505312  	-0.005862 
2860.434128  	-0.006377 
2862.362944  	-0.007077 
2864.291760  	-0.007897 
2866.220576  	-0.008560 
2868.149392  	-0.008973 
2870.078208  	-0.009445 
2872.007024  	-0.009633 
2873.935840  	-0.009589 
2875.864656  	-0.009820 
2877.793472  	-0.010207 
2879.722288  	-0.010595 
2881.651104  	-0.011203 
2883.579920  	-0.011677 
2885.508736  	-0.011677 
2887.437552  	-0.011533 
2889.366368  	-0.011615 
2891.295184  	-0.011949 
2893.224000  	-0.012153 
2895.152816  	-0.012112 
2897.081632  	-0.012478 
2899.010448  	-0.014293 
2900.939264  	-0.015880 
2902.868080  	-0.014629 
2904.796896  	-0.013302 
2906.725712  	-0.012820 
2908.654528  	-0.012374 
2910.583344  	-0.012100 
2912.512160  	-0.011647 
2914.440976  	-0.010709 
2916.369792  	-0.010031 
2918.298608  	-0.009720 
2920.227424  	-0.009474 
2922.156240  	-0.009019 
2924.085056  	-0.008481 
2926.013872  	-0.007766 
2927.942688  	-0.006994 
2929.871504  	-0.006323 
2931.800320  	-0.005689 
2933.729136  	-0.005140 
2935.657952  	-0.004872 
2937.586768  	-0.004455 
2939.515584  	-0.003973 
2941.444400  	-0.003924 
2943.373216  	-0.004040 
2945.302032  	-0.003878 
2947.230848  	-0.003664 
2949.159664  	-0.003898 
2951.088480  	-0.004546 
2953.017296  	-0.005215 
2954.946112  	-0.005847 
2956.874928  	-0.006468 
2958.803744  	-0.007260 
2960.732560  	-0.007782 
2962.661376  	-0.008233 
2964.590192  	-0.009113 
2966.519008  	-0.010308 
2968.447824  	-0.011321 
2970.376640  	-0.011978 
2972.305456  	-0.012441 
2974.234272  	-0.012224 
2976.163088  	-0.011870 
2978.091904  	-0.011909 
2980.020720  	-0.011909 
2981.949536  	-0.011642 
2983.878352  	-0.011795 
2985.807168  	-0.012775 
2987.735984  	-0.013778 
2989.664800  	-0.013404 
2991.593616  	-0.010222 
2993.522432  	-0.008208 
2995.451248  	-0.007764 
2997.380064  	-0.007111 
2999.308880  	-0.005952 
3001.237696  	-0.004630 
3003.166512  	-0.003307 
3005.095328  	-0.001920 
3007.024144  	-0.000597 
3008.952960  	0.000613 
3010.881776  	0.001913 
3012.810592  	0.003245 
3014.739408  	0.004473 
3016.668224  	0.005605 
3018.597040  	0.006661 
3020.525856  	0.007639 
3022.454672  	0.008611 
3024.383488  	0.009534 
3026.312304  	0.010437 
3028.241120  	0.011337 
3030.169936  	0.012214 
3032.098752  	0.012919 
3034.027568  	0.013536 
3035.956384  	0.014191 
3037.885200  	0.014979 
3039.814016  	0.015490 
3041.742832  	0.015800 
3043.671648  	0.016258 
3045.600464  	0.016740 
3047.529280  	0.017031 
3049.458096  	0.017398 
3051.386912  	0.017858 
3053.315728  	0.018174 
3055.244544  	0.018500 
3057.173360  	0.018995 
3059.102176  	0.019338 
3061.030992  	0.019697 
3062.959808  	0.020203 
3064.888624  	0.020621 
3066.817440  	0.021001 
3068.746256  	0.021527 
3070.675072  	0.022035 
3072.603888  	0.022392 
3074.532704  	0.022889 
3076.461520  	0.023365 
3078.390336  	0.023786 
3080.319152  	0.024219 
3082.247968  	0.024695 
3084.176784  	0.025236 
3086.105600  	0.025753 
3088.034416  	0.026214 
3089.963232  	0.026667 
3091.892048  	0.027001 
3093.820864  	0.027378 
3095.749680  	0.027931 
3097.678496  	0.028437 
3099.607312  	0.028850 
3101.536128  	0.029559 
3103.464944  	0.030321 
3105.393760  	0.030659 
3107.322576  	0.030974 
3109.251392  	0.031497 
3111.180208  	0.031995 
3113.109024  	0.032405 
3115.037840  	0.032803 
3116.966656  	0.033261 
3118.895472  	0.033659 
3120.824288  	0.034093 
3122.753104  	0.034626 
3124.681920  	0.035113 
3126.610736  	0.035472 
3128.539552  	0.035969 
3130.468368  	0.036420 
3132.397184  	0.036777 
3134.326000  	0.037228 
3136.254816  	0.037532 
3138.183632  	0.037861 
3140.112448  	0.038390 
3142.041264  	0.038896 
3143.970080  	0.039221 
3145.898896  	0.039568 
3147.827712  	0.040127 
3149.756528  	0.040461 
3151.685344  	0.040652 
3153.614160  	0.041143 
3155.542976  	0.041763 
3157.471792  	0.042313 
3159.400608  	0.042906 
3161.329424  	0.043430 
3163.258240  	0.043677 
3165.187056  	0.043991 
3167.115872  	0.044468 
3169.044688  	0.044734 
3170.973504  	0.045036 
3172.902320  	0.045355 
3174.831136  	0.045831 
3176.759952  	0.046376 
3178.688768  	0.046589 
3180.617584  	0.046771 
3182.546400  	0.047118 
3184.475216  	0.047454 
3186.404032  	0.047501 
3188.332848  	0.047606 
3190.261664  	0.047928 
3192.190480  	0.048108 
3194.119296  	0.048043 
3196.048112  	0.048255 
3197.976928  	0.048422 
3199.905744  	0.048558 
3201.834560  	0.048593 
3203.763376  	0.048661 
3205.692192  	0.048641 
3207.621008  	0.048337 
3209.549824  	0.048332 
3211.478640  	0.048610 
3213.407456  	0.048775 
3215.336272  	0.048688 
3217.265088  	0.048655 
3219.193904  	0.048638 
3221.122720  	0.048630 
3223.051536  	0.048546 
3224.980352  	0.048402 
3226.909168  	0.048275 
3228.837984  	0.048116 
3230.766800  	0.048147 
3232.695616  	0.048362 
3234.624432  	0.048219 
3236.553248  	0.048146 
3238.482064  	0.048291 
3240.410880  	0.048320 
3242.339696  	0.048295 
3244.268512  	0.048031 
3246.197328  	0.048143 
3248.126144  	0.048528 
3250.054960  	0.048605 
3251.983776  	0.048679 
3253.912592  	0.048987 
3255.841408  	0.049185 
3257.770224  	0.049285 
3259.699040  	0.049457 
3261.627856  	0.049855 
3263.556672  	0.050091 
3265.485488  	0.050082 
3267.414304  	0.050140 
3269.343120  	0.050416 
3271.271936  	0.050768 
3273.200752  	0.050735 
3275.129568  	0.050781 
3277.058384  	0.051266 
3278.987200  	0.051443 
3280.916016  	0.051470 
3282.844832  	0.051675 
3284.773648  	0.051860 
3286.702464  	0.052139 
3288.631280  	0.052514 
3290.560096  	0.052692 
3292.488912  	0.052937 
3294.417728  	0.053142 
3296.346544  	0.053367 
3298.275360  	0.053578 
3300.204176  	0.053875 
3302.132992  	0.054202 
3304.061808  	0.054392 
3305.990624  	0.054668 
3307.919440  	0.054986 
3309.848256  	0.055130 
3311.777072  	0.055428 
3313.705888  	0.055826 
3315.634704  	0.056319 
3317.563520  	0.056660 
3319.492336  	0.057019 
3321.421152  	0.057275 
3323.349968  	0.057365 
3325.278784  	0.057512 
3327.207600  	0.057765 
3329.136416  	0.057827 
3331.065232  	0.057988 
3332.994048  	0.058297 
3334.922864  	0.058370 
3336.851680  	0.058451 
3338.780496  	0.058593 
3340.709312  	0.058718 
3342.638128  	0.058603 
3344.566944  	0.058374 
3346.495760  	0.058444 
3348.424576  	0.058446 
3350.353392  	0.058231 
3352.282208  	0.058151 
3354.211024  	0.058029 
3356.139840  	0.057898 
3358.068656  	0.057897 
3359.997472  	0.057757 
3361.926288  	0.057457 
3363.855104  	0.057313 
3365.783920  	0.057009 
3367.712736  	0.056768 
3369.641552  	0.056650 
3371.570368  	0.056434 
3373.499184  	0.056177 
3375.428000  	0.056017 
3377.356816  	0.055819 
3379.285632  	0.055716 
3381.214448  	0.055616 
3383.143264  	0.055417 
3385.072080  	0.055111 
3387.000896  	0.054770 
3388.929712  	0.054408 
3390.858528  	0.054259 
3392.787344  	0.054054 
3394.716160  	0.053751 
3396.644976  	0.053668 
3398.573792  	0.053469 
3400.502608  	0.053173 
3402.431424  	0.052967 
3404.360240  	0.052809 
3406.289056  	0.052418 
3408.217872  	0.052041 
3410.146688  	0.051753 
3412.075504  	0.051575 
3414.004320  	0.051418 
3415.933136  	0.051284 
3417.861952  	0.050886 
3419.790768  	0.050491 
3421.719584  	0.050229 
3423.648400  	0.050071 
3425.577216  	0.049622 
3427.506032  	0.049027 
3429.434848  	0.048680 
3431.363664  	0.048368 
3433.292480  	0.048020 
3435.221296  	0.047556 
3437.150112  	0.047170 
3439.078928  	0.046920 
3441.007744  	0.046525 
3442.936560  	0.046321 
3444.865376  	0.046214 
3446.794192  	0.045591 
3448.723008  	0.044858 
3450.651824  	0.044374 
3452.580640  	0.044080 
3454.509456  	0.043875 
3456.438272  	0.043477 
3458.367088  	0.043077 
3460.295904  	0.042654 
3462.224720  	0.041968 
3464.153536  	0.041352 
3466.082352  	0.040952 
3468.011168  	0.040309 
3469.939984  	0.039762 
3471.868800  	0.039391 
3473.797616  	0.038817 
3475.726432  	0.038232 
3477.655248  	0.037774 
3479.584064  	0.037280 
3481.512880  	0.036802 
3483.441696  	0.036164 
3485.370512  	0.035821 
3487.299328  	0.035168 
3489.228144  	0.034665 
3491.156960  	0.034101 
3493.085776  	0.033369 
3495.014592  	0.032828 
3496.943408  	0.032432 
3498.872224  	0.031969 
3500.801040  	0.031775 
3502.729856  	0.031355 
3504.658672  	0.030562 
3506.587488  	0.030198 
3508.516304  	0.029893 
3510.445120  	0.029042 
3512.373936  	0.028412 
3514.302752  	0.028156 
3516.231568  	0.028006 
3518.160384  	0.027595 
3520.089200  	0.027078 
3522.018016  	0.026751 
3523.946832  	0.026597 
3525.875648  	0.026150 
3527.804464  	0.025415 
3529.733280  	0.024816 
3531.662096  	0.024427 
3533.590912  	0.023959 
3535.519728  	0.023571 
3537.448544  	0.023205 
3539.377360  	0.022778 
3541.306176  	0.022473 
3543.234992  	0.022298 
3545.163808  	0.022229 
3547.092624  	0.021602 
3549.021440  	0.020577 
3550.950256  	0.020174 
3552.879072  	0.019817 
3554.807888  	0.019485 
3556.736704  	0.018990 
3558.665520  	0.018598 
3560.594336  	0.018267 
3562.523152  	0.017659 
3564.451968  	0.017552 
3566.380784  	0.017505 
3568.309600  	0.016263 
3570.238416  	0.015670 
3572.167232  	0.015479 
3574.096048  	0.014936 
3576.024864  	0.014417 
3577.953680  	0.014007 
3579.882496  	0.013306 
3581.811312  	0.012788 
3583.740128  	0.012504 
3585.668944  	0.012478 
3587.597760  	0.011691 
3589.526576  	0.010696 
3591.455392  	0.010369 
3593.384208  	0.009966 
3595.313024  	0.009375 
3597.241840  	0.008562 
3599.170656  	0.007793 
3601.099472  	0.007179 
3603.028288  	0.006933 
3604.957104  	0.006729 
3606.885920  	0.006220 
3608.814736  	0.005314 
3610.743552  	0.004864 
3612.672368  	0.004065 
3614.601184  	0.003154 
3616.530000  	0.003163 
3618.458816  	0.001878 
3620.387632  	0.000617 
3622.316448  	0.000835 
3624.245264  	0.000537 
3626.174080  	0.000161 
3628.102896  	-0.001322 
3630.031712  	-0.003519 
3631.960528  	-0.002575 
3633.889344  	-0.002889 
3635.818160  	-0.003748 
3637.746976  	-0.004491 
3639.675792  	-0.004983 
3641.604608  	-0.005198 
3643.533424  	-0.005618 
3645.462240  	-0.006125 
3647.391056  	-0.007641 
3649.319872  	-0.010771 
3651.248688  	-0.012173 
3653.177504  	-0.010601 
3655.106320  	-0.010662 
3657.035136  	-0.012470 
3658.963952  	-0.012661 
3660.892768  	-0.012770 
3662.821584  	-0.012995 
3664.750400  	-0.012938 
3666.679216  	-0.012917 
3668.608032  	-0.014191 
3670.536848  	-0.016268 
3672.465664  	-0.014952 
3674.394480  	-0.015323 
3676.323296  	-0.018397 
3678.252112  	-0.016066 
3680.180928  	-0.014764 
3682.109744  	-0.014582 
3684.038560  	-0.014705 
3685.967376  	-0.014545 
3687.896192  	-0.015868 
3689.825008  	-0.017767 
3691.753824  	-0.016953 
3693.682640  	-0.015127 
3695.611456  	-0.014095 
3697.540272  	-0.013345 
3699.469088  	-0.012599 
3701.397904  	-0.013127 
3703.326720  	-0.013006 
3705.255536  	-0.011787 
3707.184352  	-0.011288 
3709.113168  	-0.012091 
3711.041984  	-0.013638 
3712.970800  	-0.013183 
3714.899616  	-0.011225 
3716.828432  	-0.010436 
3718.757248  	-0.010661 
3720.686064  	-0.010928 
3722.614880  	-0.010924 
3724.543696  	-0.010561 
3726.472512  	-0.010723 
3728.401328  	-0.010835 
3730.330144  	-0.011036 
3732.258960  	-0.011844 
3734.187776  	-0.011594 
3736.116592  	-0.012517 
3738.045408  	-0.012437 
3739.974224  	-0.011180 
3741.903040  	-0.010255 
3743.831856  	-0.011517 
3745.760672  	-0.013320 
3747.689488  	-0.011867 
3749.618304  	-0.013060 
3751.547120  	-0.014395 
3753.475936  	-0.013542 
3755.404752  	-0.011858 
3757.333568  	-0.011381 
3759.262384  	-0.011760 
3761.191200  	-0.011731 
3763.120016  	-0.010522 
3765.048832  	-0.010723 
3766.977648  	-0.010924 
3768.906464  	-0.011181 
3770.835280  	-0.011641 
3772.764096  	-0.010831 
3774.692912  	-0.010472 
3776.621728  	-0.010374 
3778.550544  	-0.011075 
3780.479360  	-0.012001 
3782.408176  	-0.011081 
3784.336992  	-0.011084 
3786.265808  	-0.011211 
3788.194624  	-0.010897 
3790.123440  	-0.010764 
3792.052256  	-0.010736 
3793.981072  	-0.010749 
3795.909888  	-0.011544 
3797.838704  	-0.011576 
3799.767520  	-0.011459 
3801.696336  	-0.013798 
3803.625152  	-0.012976 
3805.553968  	-0.011922 
3807.482784  	-0.012887 
3809.411600  	-0.011613 
3811.340416  	-0.010861 
3813.269232  	-0.010644 
3815.198048  	-0.011978 
3817.126864  	-0.013084 
3819.055680  	-0.011917 
3820.984496  	-0.013710 
3822.913312  	-0.013362 
3824.842128  	-0.011474 
3826.770944  	-0.011730 
3828.699760  	-0.011443 
3830.628576  	-0.011355 
3832.557392  	-0.011857 
3834.486208  	-0.011736 
3836.415024  	-0.012256 
3838.343840  	-0.013119 
3840.272656  	-0.012719 
3842.201472  	-0.011794 
3844.130288  	-0.011924 
3846.059104  	-0.011432 
3847.987920  	-0.010654 
3849.916736  	-0.010562 
3851.845552  	-0.011894 
3853.774368  	-0.015331 
3855.703184  	-0.013745 
3857.632000  	-0.011588 
3859.560816  	-0.010705 
3861.489632  	-0.010687 
3863.418448  	-0.011222 
3865.347264  	-0.011774 
3867.276080  	-0.010985 
3869.204896  	-0.011572 
3871.133712  	-0.012194 
3873.062528  	-0.011449 
3874.991344  	-0.011993 
3876.920160  	-0.010926 
3878.848976  	-0.010264 
3880.777792  	-0.011008 
3882.706608  	-0.010728 
3884.635424  	-0.010675 
3886.564240  	-0.011785 
3888.493056  	-0.010859 
3890.421872  	-0.010821 
3892.350688  	-0.011823 
3894.279504  	-0.011128 
3896.208320  	-0.010227 
3898.137136  	-0.010031 
3900.065952  	-0.010549 
3901.994768  	-0.010534 
3903.923584  	-0.011063 
3905.852400  	-0.011562 
3907.781216  	-0.011160 
3909.710032  	-0.010871 
3911.638848  	-0.010786 
3913.567664  	-0.010478 
3915.496480  	-0.010264 
3917.425296  	-0.010580 
3919.354112  	-0.010866 
3921.282928  	-0.010752 
3923.211744  	-0.010363 
3925.140560  	-0.010531 
3927.069376  	-0.010567 
3928.998192  	-0.010443 
3930.927008  	-0.010286 
3932.855824  	-0.010382 
3934.784640  	-0.010616 
3936.713456  	-0.010663 
3938.642272  	-0.010606 
3940.571088  	-0.010131 
3942.499904  	-0.010113 
3944.428720  	-0.010473 
3946.357536  	-0.010218 
3948.286352  	-0.010123 
3950.215168  	-0.010507 
3952.143984  	-0.010794 
3954.072800  	-0.010768 
3956.001616  	-0.010621 
3957.930432  	-0.010689 
3959.859248  	-0.010618 
3961.788064  	-0.010491 
3963.716880  	-0.010647 
3965.645696  	-0.010918 
3967.574512  	-0.010834 
3969.503328  	-0.010617 
3971.432144  	-0.010724 
3973.360960  	-0.010769 
3975.289776  	-0.010787 
3977.218592  	-0.010850 
3979.147408  	-0.010910 
3981.076224  	-0.010952 
3983.005040  	-0.010903 
3984.933856  	-0.010794 
3986.862672  	-0.010726 
3988.791488  	-0.010671 
3990.720304  	-0.010622 
3992.649120  	-0.010733 
3994.577936  	-0.010876 
3996.506752  	-0.010804 
3998.435568  	-0.010765 
4000.364384  	-0.010687 