##TITLE=No Description
##DATA TYPE=INFRARED SPECTRUM
##XUNITS=1/CM
##YUNITS=Abs
399.264912  	0.401974 
401.193728  	0.399039 
403.122544  	0.409438 
405.051360  	0.404136 
406.980176  	0.396738 
408.908992  	0.397012 
410.837808  	0.398553 
412.766624  	0.397021 
414.695440  	0.407906 
416.624256  	0.406216 
418.553072  	0.400867 
420.481888  	0.391923 
422.410704  	0.391645 
424.339520  	0.388242 
426.268336  	0.384463 
428.197152  	0.374667 
430.125968  	0.370501 
432.054784  	0.362436 
433.983600  	0.363650 
435.912416  	0.369300 
437.841232  	0.367435 
439.770048  	0.360798 
441.698864  	0.362052 
443.627680  	0.361849 
445.556496  	0.361475 
447.485312  	0.356603 
449.414128  	0.354524 
451.342944  	0.353202 
453.271760  	0.353284 
455.200576  	0.349330 
457.129392  	0.351509 
459.058208  	0.352666 
460.987024  	0.349695 
462.915840  	0.345111 
464.844656  	0.347254 
466.773472  	0.348606 
468.702288  	0.347594 
470.631104  	0.346021 
472.559920  	0.349080 
474.488736  	0.342217 
476.417552  	0.338140 
478.346368  	0.336314 
480.275184  	0.335053 
482.204000  	0.335561 
484.132816  	0.339312 
486.061632  	0.339218 
487.990448  	0.337108 
489.919264  	0.336719 
491.848080  	0.336207 
493.776896  	0.335532 
495.705712  	0.335073 
497.634528  	0.332295 
499.563344  	0.330976 
501.492160  	0.329733 
503.420976  	0.328902 
505.349792  	0.328267 
507.278608  	0.330159 
509.207424  	0.326974 
511.136240  	0.326627 
513.065056  	0.325462 
514.993872  	0.327178 
516.922688  	0.329157 
518.851504  	0.331471 
520.780320  	0.329469 
522.709136  	0.328291 
524.637952  	0.327332 
526.566768  	0.326053 
528.495584  	0.322383 
530.424400  	0.319284 
532.353216  	0.318138 
534.282032  	0.316475 
536.210848  	0.312436 
538.139664  	0.308212 
540.068480  	0.305383 
541.997296  	0.304067 
543.926112  	0.302308 
545.854928  	0.300153 
547.783744  	0.296424 
549.712560  	0.294903 
551.641376  	0.292629 
553.570192  	0.290703 
555.499008  	0.287593 
557.427824  	0.285833 
559.356640  	0.282938 
561.285456  	0.281677 
563.214272  	0.279573 
565.143088  	0.277387 
567.071904  	0.275838 
569.000720  	0.274402 
570.929536  	0.272057 
572.858352  	0.269262 
574.787168  	0.267311 
576.715984  	0.266203 
578.644800  	0.263808 
580.573616  	0.260828 
582.502432  	0.256967 
584.431248  	0.253738 
586.360064  	0.250566 
588.288880  	0.248684 
590.217696  	0.247704 
592.146512  	0.247702 
594.075328  	0.245806 
596.004144  	0.244015 
597.932960  	0.242040 
599.861776  	0.241379 
601.790592  	0.240065 
603.719408  	0.238599 
605.648224  	0.237821 
607.577040  	0.236818 
609.505856  	0.235317 
611.434672  	0.234389 
613.363488  	0.233177 
615.292304  	0.232660 
617.221120  	0.231756 
619.149936  	0.230305 
621.078752  	0.228769 
623.007568  	0.228021 
624.936384  	0.227498 
626.865200  	0.226591 
628.794016  	0.225309 
630.722832  	0.225444 
632.651648  	0.225736 
634.580464  	0.225525 
636.509280  	0.225082 
638.438096  	0.224504 
640.366912  	0.224371 
642.295728  	0.223242 
644.224544  	0.221021 
646.153360  	0.218677 
648.082176  	0.215817 
650.010992  	0.214039 
651.939808  	0.212172 
653.868624  	0.209843 
655.797440  	0.206738 
657.726256  	0.204537 
659.655072  	0.201988 
661.583888  	0.199070 
663.512704  	0.196495 
665.441520  	0.193056 
667.370336  	0.190397 
669.299152  	0.191571 
671.227968  	0.187471 
673.156784  	0.183835 
675.085600  	0.181923 
677.014416  	0.179886 
678.943232  	0.178365 
680.872048  	0.177462 
682.800864  	0.176618 
684.729680  	0.175796 
686.658496  	0.174470 
688.587312  	0.173843 
690.516128  	0.172993 
692.444944  	0.172334 
694.373760  	0.171241 
696.302576  	0.170126 
698.231392  	0.168950 
700.160208  	0.167508 
702.089024  	0.165489 
704.017840  	0.163589 
705.946656  	0.161734 
707.875472  	0.159785 
709.804288  	0.158062 
711.733104  	0.156974 
713.661920  	0.156159 
715.590736  	0.155028 
717.519552  	0.154290 
719.448368  	0.154752 
721.377184  	0.155268 
723.306000  	0.155483 
725.234816  	0.155974 
727.163632  	0.155687 
729.092448  	0.154045 
731.021264  	0.151879 
732.950080  	0.149264 
734.878896  	0.146774 
736.807712  	0.144747 
738.736528  	0.143356 
740.665344  	0.142286 
742.594160  	0.141478 
744.522976  	0.140368 
746.451792  	0.139073 
748.380608  	0.137822 
750.309424  	0.137012 
752.238240  	0.136094 
754.167056  	0.135339 
756.095872  	0.134667 
758.024688  	0.133627 
759.953504  	0.133245 
761.882320  	0.133816 
763.811136  	0.134202 
765.739952  	0.132837 
767.668768  	0.131101 
769.597584  	0.129907 
771.526400  	0.129361 
773.455216  	0.129917 
775.384032  	0.132509 
777.312848  	0.136011 
779.241664  	0.138264 
781.170480  	0.138141 
783.099296  	0.135363 
785.028112  	0.131693 
786.956928  	0.128021 
788.885744  	0.124897 
790.814560  	0.122464 
792.743376  	0.121474 
794.672192  	0.121036 
796.601008  	0.120245 
798.529824  	0.118015 
800.458640  	0.115004 
802.387456  	0.112638 
804.316272  	0.111312 
806.245088  	0.110886 
808.173904  	0.110265 
810.102720  	0.109660 
812.031536  	0.109418 
813.960352  	0.109287 
815.889168  	0.109397 
817.817984  	0.109864 
819.746800  	0.110384 
821.675616  	0.110413 
823.604432  	0.110448 
825.533248  	0.110685 
827.462064  	0.110841 
829.390880  	0.110392 
831.319696  	0.109961 
833.248512  	0.109121 
835.177328  	0.107913 
837.106144  	0.106213 
839.034960  	0.104383 
840.963776  	0.101723 
842.892592  	0.098986 
844.821408  	0.096718 
846.750224  	0.094562 
848.679040  	0.092585 
850.607856  	0.090906 
852.536672  	0.089888 
854.465488  	0.089028 
856.394304  	0.088099 
858.323120  	0.086908 
860.251936  	0.085898 
862.180752  	0.084790 
864.109568  	0.083162 
866.038384  	0.081671 
867.967200  	0.080186 
869.896016  	0.078980 
871.824832  	0.078282 
873.753648  	0.078136 
875.682464  	0.078245 
877.611280  	0.079170 
879.540096  	0.080356 
881.468912  	0.081547 
883.397728  	0.082998 
885.326544  	0.084211 
887.255360  	0.084974 
889.184176  	0.085061 
891.112992  	0.084703 
893.041808  	0.083726 
894.970624  	0.082176 
896.899440  	0.079736 
898.828256  	0.076919 
900.757072  	0.074248 
902.685888  	0.071948 
904.614704  	0.070474 
906.543520  	0.070260 
908.472336  	0.071384 
910.401152  	0.072931 
912.329968  	0.074796 
914.258784  	0.076641 
916.187600  	0.078744 
918.116416  	0.080245 
920.045232  	0.081136 
921.974048  	0.081766 
923.902864  	0.082374 
925.831680  	0.082824 
927.760496  	0.083237 
929.689312  	0.083947 
931.618128  	0.084867 
933.546944  	0.085451 
935.475760  	0.085638 
937.404576  	0.085565 
939.333392  	0.085288 
941.262208  	0.085332 
943.191024  	0.086272 
945.119840  	0.088452 
947.048656  	0.091869 
948.977472  	0.097005 
950.906288  	0.103453 
952.835104  	0.110825 
954.763920  	0.118978 
956.692736  	0.127039 
958.621552  	0.134243 
960.550368  	0.139416 
962.479184  	0.142430 
964.408000  	0.142424 
966.336816  	0.139679 
968.265632  	0.134343 
970.194448  	0.127258 
972.123264  	0.118614 
974.052080  	0.109322 
975.980896  	0.100061 
977.909712  	0.091438 
979.838528  	0.083928 
981.767344  	0.077557 
983.696160  	0.072893 
985.624976  	0.070031 
987.553792  	0.069257 
989.482608  	0.070255 
991.411424  	0.073059 
993.340240  	0.077225 
995.269056  	0.081923 
997.197872  	0.087057 
999.126688  	0.092105 
1001.055504  	0.097308 
1002.984320  	0.102063 
1004.913136  	0.106824 
1006.841952  	0.111154 
1008.770768  	0.115232 
1010.699584  	0.118513 
1012.628400  	0.121037 
1014.557216  	0.122817 
1016.486032  	0.123724 
1018.414848  	0.124097 
1020.343664  	0.124214 
1022.272480  	0.124393 
1024.201296  	0.124242 
1026.130112  	0.123779 
1028.058928  	0.124046 
1029.987744  	0.125511 
1031.916560  	0.127191 
1033.845376  	0.129027 
1035.774192  	0.131734 
1037.703008  	0.135214 
1039.631824  	0.140550 
1041.560640  	0.147219 
1043.489456  	0.155539 
1045.418272  	0.164756 
1047.347088  	0.174183 
1049.275904  	0.180999 
1051.204720  	0.184689 
1053.133536  	0.186009 
1055.062352  	0.185329 
1056.991168  	0.183276 
1058.919984  	0.181706 
1060.848800  	0.180359 
1062.777616  	0.178869 
1064.706432  	0.176572 
1066.635248  	0.173876 
1068.564064  	0.170995 
1070.492880  	0.167426 
1072.421696  	0.163513 
1074.350512  	0.160678 
1076.279328  	0.159630 
1078.208144  	0.161199 
1080.136960  	0.163731 
1082.065776  	0.165229 
1083.994592  	0.164450 
1085.923408  	0.161965 
1087.852224  	0.157572 
1089.781040  	0.152289 
1091.709856  	0.145638 
1093.638672  	0.138172 
1095.567488  	0.129736 
1097.496304  	0.121246 
1099.425120  	0.112955 
1101.353936  	0.104654 
1103.282752  	0.096745 
1105.211568  	0.089516 
1107.140384  	0.082972 
1109.069200  	0.076738 
1110.998016  	0.071060 
1112.926832  	0.066076 
1114.855648  	0.061636 
1116.784464  	0.057100 
1118.713280  	0.052796 
1120.642096  	0.048894 
1122.570912  	0.045259 
1124.499728  	0.041851 
1126.428544  	0.038779 
1128.357360  	0.036116 
1130.286176  	0.033741 
1132.214992  	0.031965 
1134.143808  	0.030728 
1136.072624  	0.029505 
1138.001440  	0.028244 
1139.930256  	0.027217 
1141.859072  	0.026366 
1143.787888  	0.025207 
1145.716704  	0.024318 
1147.645520  	0.023628 
1149.574336  	0.023312 
1151.503152  	0.022801 
1153.431968  	0.022555 
1155.360784  	0.022727 
1157.289600  	0.023428 
1159.218416  	0.024228 
1161.147232  	0.025286 
1163.076048  	0.026505 
1165.004864  	0.027695 
1166.933680  	0.028733 
1168.862496  	0.030024 
1170.791312  	0.031694 
1172.720128  	0.033489 
1174.648944  	0.035446 
1176.577760  	0.037147 
1178.506576  	0.038960 
1180.435392  	0.041115 
1182.364208  	0.043340 
1184.293024  	0.045867 
1186.221840  	0.048858 
1188.150656  	0.051965 
1190.079472  	0.055308 
1192.008288  	0.059491 
1193.937104  	0.064236 
1195.865920  	0.069528 
1197.794736  	0.074964 
1199.723552  	0.080834 
1201.652368  	0.086693 
1203.581184  	0.091942 
1205.510000  	0.096944 
1207.438816  	0.101540 
1209.367632  	0.105575 
1211.296448  	0.108697 
1213.225264  	0.111120 
1215.154080  	0.112319 
1217.082896  	0.112844 
1219.011712  	0.112724 
1220.940528  	0.112280 
1222.869344  	0.111228 
1224.798160  	0.110016 
1226.726976  	0.108239 
1228.655792  	0.105957 
1230.584608  	0.103574 
1232.513424  	0.100738 
1234.442240  	0.097457 
1236.371056  	0.094133 
1238.299872  	0.090588 
1240.228688  	0.086356 
1242.157504  	0.082313 
1244.086320  	0.078475 
1246.015136  	0.074217 
1247.943952  	0.070103 
1249.872768  	0.066095 
1251.801584  	0.062288 
1253.730400  	0.058637 
1255.659216  	0.055018 
1257.588032  	0.051610 
1259.516848  	0.048801 
1261.445664  	0.045912 
1263.374480  	0.042881 
1265.303296  	0.040370 
1267.232112  	0.038681 
1269.160928  	0.037770 
1271.089744  	0.037056 
1273.018560  	0.036293 
1274.947376  	0.036071 
1276.876192  	0.036587 
1278.805008  	0.037001 
1280.733824  	0.036849 
1282.662640  	0.035765 
1284.591456  	0.034594 
1286.520272  	0.033899 
1288.449088  	0.033512 
1290.377904  	0.033043 
1292.306720  	0.033268 
1294.235536  	0.033663 
1296.164352  	0.033767 
1298.093168  	0.032631 
1300.021984  	0.030900 
1301.950800  	0.029101 
1303.879616  	0.027208 
1305.808432  	0.025311 
1307.737248  	0.023534 
1309.666064  	0.021591 
1311.594880  	0.020804 
1313.523696  	0.020378 
1315.452512  	0.019482 
1317.381328  	0.019646 
1319.310144  	0.019945 
1321.238960  	0.019278 
1323.167776  	0.019042 
1325.096592  	0.019243 
1327.025408  	0.019397 
1328.954224  	0.019355 
1330.883040  	0.018958 
1332.811856  	0.018111 
1334.740672  	0.017907 
1336.669488  	0.019441 
1338.598304  	0.022334 
1340.527120  	0.021490 
1342.455936  	0.017247 
1344.384752  	0.015950 
1346.313568  	0.016173 
1348.242384  	0.016926 
1350.171200  	0.017730 
1352.100016  	0.018590 
1354.028832  	0.020274 
1355.957648  	0.021843 
1357.886464  	0.023033 
1359.815280  	0.025196 
1361.744096  	0.029400 
1363.672912  	0.030817 
1365.601728  	0.028735 
1367.530544  	0.029587 
1369.459360  	0.030875 
1371.388176  	0.030898 
1373.316992  	0.032658 
1375.245808  	0.032199 
1377.174624  	0.028920 
1379.103440  	0.026957 
1381.032256  	0.024453 
1382.961072  	0.022423 
1384.889888  	0.022088 
1386.818704  	0.023921 
1388.747520  	0.022080 
1390.676336  	0.018987 
1392.605152  	0.018393 
1394.533968  	0.020740 
1396.462784  	0.021794 
1398.391600  	0.021237 
1400.320416  	0.019222 
1402.249232  	0.017477 
1404.178048  	0.019371 
1406.106864  	0.019962 
1408.035680  	0.019426 
1409.964496  	0.020803 
1411.893312  	0.022375 
1413.822128  	0.023376 
1415.750944  	0.026589 
1417.679760  	0.030962 
1419.608576  	0.031944 
1421.537392  	0.028751 
1423.466208  	0.028567 
1425.395024  	0.026712 
1427.323840  	0.024050 
1429.252656  	0.024002 
1431.181472  	0.023204 
1433.110288  	0.022153 
1435.039104  	0.023209 
1436.967920  	0.025429 
1438.896736  	0.023316 
1440.825552  	0.022236 
1442.754368  	0.022425 
1444.683184  	0.022654 
1446.612000  	0.024124 
1448.540816  	0.025078 
1450.469632  	0.024191 
1452.398448  	0.024783 
1454.327264  	0.026563 
1456.256080  	0.032115 
1458.184896  	0.034031 
1460.113712  	0.027406 
1462.042528  	0.023848 
1463.971344  	0.024770 
1465.900160  	0.025970 
1467.828976  	0.024905 
1469.757792  	0.025830 
1471.686608  	0.032265 
1473.615424  	0.039545 
1475.544240  	0.039728 
1477.473056  	0.039855 
1479.401872  	0.039789 
1481.330688  	0.042234 
1483.259504  	0.042975 
1485.188320  	0.044025 
1487.117136  	0.047370 
1489.045952  	0.051862 
1490.974768  	0.049473 
1492.903584  	0.042532 
1494.832400  	0.039668 
1496.761216  	0.039631 
1498.690032  	0.036179 
1500.618848  	0.031779 
1502.547664  	0.027901 
1504.476480  	0.026573 
1506.405296  	0.035066 
1508.334112  	0.037961 
1510.262928  	0.029187 
1512.191744  	0.024047 
1514.120560  	0.023022 
1516.049376  	0.026791 
1517.978192  	0.027786 
1519.907008  	0.027884 
1521.835824  	0.033329 
1523.764640  	0.032441 
1525.693456  	0.033890 
1527.622272  	0.034357 
1529.551088  	0.031634 
1531.479904  	0.030734 
1533.408720  	0.032628 
1535.337536  	0.029083 
1537.266352  	0.026233 
1539.195168  	0.029335 
1541.123984  	0.032468 
1543.052800  	0.029584 
1544.981616  	0.026171 
1546.910432  	0.020101 
1548.839248  	0.019958 
1550.768064  	0.021312 
1552.696880  	0.019771 
1554.625696  	0.021832 
1556.554512  	0.022752 
1558.483328  	0.029561 
1560.412144  	0.029548 
1562.340960  	0.024662 
1564.269776  	0.025168 
1566.198592  	0.027535 
1568.127408  	0.029812 
1570.056224  	0.035757 
1571.985040  	0.036031 
1573.913856  	0.036534 
1575.842672  	0.041249 
1577.771488  	0.043772 
1579.700304  	0.040119 
1581.629120  	0.038868 
1583.557936  	0.038486 
1585.486752  	0.038980 
1587.415568  	0.040170 
1589.344384  	0.043041 
1591.273200  	0.046292 
1593.202016  	0.050425 
1595.130832  	0.054965 
1597.059648  	0.058711 
1598.988464  	0.061448 
1600.917280  	0.065024 
1602.846096  	0.067827 
1604.774912  	0.069129 
1606.703728  	0.069544 
1608.632544  	0.070294 
1610.561360  	0.069061 
1612.490176  	0.067348 
1614.418992  	0.065496 
1616.347808  	0.068795 
1618.276624  	0.071529 
1620.205440  	0.070021 
1622.134256  	0.071995 
1624.063072  	0.078369 
1625.991888  	0.079546 
1627.920704  	0.083914 
1629.849520  	0.087874 
1631.778336  	0.089452 
1633.707152  	0.091273 
1635.635968  	0.102918 
1637.564784  	0.110279 
1639.493600  	0.106960 
1641.422416  	0.106574 
1643.351232  	0.105995 
1645.280048  	0.106740 
1647.208864  	0.116550 
1649.137680  	0.113194 
1651.066496  	0.104423 
1652.995312  	0.110874 
1654.924128  	0.116971 
1656.852944  	0.106696 
1658.781760  	0.101703 
1660.710576  	0.099330 
1662.639392  	0.100047 
1664.568208  	0.097568 
1666.497024  	0.092412 
1668.425840  	0.091753 
1670.354656  	0.093192 
1672.283472  	0.088524 
1674.212288  	0.084669 
1676.141104  	0.085098 
1678.069920  	0.081664 
1679.998736  	0.081849 
1681.927552  	0.080644 
1683.856368  	0.083905 
1685.785184  	0.085169 
1687.714000  	0.080081 
1689.642816  	0.078867 
1691.571632  	0.075821 
1693.500448  	0.072666 
1695.429264  	0.075219 
1697.358080  	0.078958 
1699.286896  	0.075583 
1701.215712  	0.077917 
1703.144528  	0.072540 
1705.073344  	0.070600 
1707.002160  	0.068168 
1708.930976  	0.063059 
1710.859792  	0.059153 
1712.788608  	0.056291 
1714.717424  	0.055328 
1716.646240  	0.053489 
1718.575056  	0.046145 
1720.503872  	0.036137 
1722.432688  	0.030052 
1724.361504  	0.024589 
1726.290320  	0.019080 
1728.219136  	0.016382 
1730.147952  	0.015792 
1732.076768  	0.014442 
1734.005584  	0.013767 
1735.934400  	0.007929 
1737.863216  	0.005357 
1739.792032  	0.004326 
1741.720848  	0.003222 
1743.649664  	0.003797 
1745.578480  	0.002908 
1747.507296  	0.003447 
1749.436112  	0.004399 
1751.364928  	0.002203 
1753.293744  	-0.002046 
1755.222560  	-0.003151 
1757.151376  	-0.001925 
1759.080192  	-0.002932 
1761.009008  	-0.002779 
1762.937824  	-0.003759 
1764.866640  	-0.005463 
1766.795456  	-0.004371 
1768.724272  	-0.002889 
1770.653088  	-0.002556 
1772.581904  	-0.001707 
1774.510720  	-0.003600 
1776.439536  	-0.005026 
1778.368352  	-0.005849 
1780.297168  	-0.005037 
1782.225984  	-0.006087 
1784.154800  	-0.006283 
1786.083616  	-0.006966 
1788.012432  	-0.007648 
1789.941248  	-0.005534 
1791.870064  	-0.003072 
1793.798880  	-0.004796 
1795.727696  	-0.005656 
1797.656512  	-0.006562 
1799.585328  	-0.006292 
1801.514144  	-0.005588 
1803.442960  	-0.007152 
1805.371776  	-0.008382 
1807.300592  	-0.008207 
1809.229408  	-0.007779 
1811.158224  	-0.007287 
1813.087040  	-0.008519 
1815.015856  	-0.009630 
1816.944672  	-0.009097 
1818.873488  	-0.009042 
1820.802304  	-0.009149 
1822.731120  	-0.008366 
1824.659936  	-0.007342 
1826.588752  	-0.007738 
1828.517568  	-0.007327 
1830.446384  	-0.006908 
1832.375200  	-0.008944 
1834.304016  	-0.009494 
1836.232832  	-0.009045 
1838.161648  	-0.008989 
1840.090464  	-0.009697 
1842.019280  	-0.008491 
1843.948096  	-0.006713 
1845.876912  	-0.007120 
1847.805728  	-0.008381 
1849.734544  	-0.009715 
1851.663360  	-0.010522 
1853.592176  	-0.010339 
1855.520992  	-0.010403 
1857.449808  	-0.010147 
1859.378624  	-0.010530 
1861.307440  	-0.010553 
1863.236256  	-0.010703 
1865.165072  	-0.009896 
1867.093888  	-0.007750 
1869.022704  	-0.006240 
1870.951520  	-0.008562 
1872.880336  	-0.010371 
1874.809152  	-0.010945 
1876.737968  	-0.011044 
1878.666784  	-0.011204 
1880.595600  	-0.011277 
1882.524416  	-0.011055 
1884.453232  	-0.010354 
1886.382048  	-0.010517 
1888.310864  	-0.009669 
1890.239680  	-0.009600 
1892.168496  	-0.010379 
1894.097312  	-0.010082 
1896.026128  	-0.010362 
1897.954944  	-0.010991 
1899.883760  	-0.010778 
1901.812576  	-0.010940 
1903.741392  	-0.010990 
1905.670208  	-0.011192 
1907.599024  	-0.010795 
1909.527840  	-0.010345 
1911.456656  	-0.010513 
1913.385472  	-0.010913 
1915.314288  	-0.010446 
1917.243104  	-0.009699 
1919.171920  	-0.009474 
1921.100736  	-0.009234 
1923.029552  	-0.008577 
1924.958368  	-0.010921 
1926.887184  	-0.011650 
1928.816000  	-0.012126 
1930.744816  	-0.012034 
1932.673632  	-0.011979 
1934.602448  	-0.011555 
1936.531264  	-0.011639 
1938.460080  	-0.011314 
1940.388896  	-0.010269 
1942.317712  	-0.009030 
1944.246528  	-0.011021 
1946.175344  	-0.011680 
1948.104160  	-0.011760 
1950.032976  	-0.011564 
1951.961792  	-0.012233 
1953.890608  	-0.012348 
1955.819424  	-0.013034 
1957.748240  	-0.013116 
1959.677056  	-0.012919 
1961.605872  	-0.012375 
1963.534688  	-0.012335 
1965.463504  	-0.011135 
1967.392320  	-0.011097 
1969.321136  	-0.011908 
1971.249952  	-0.013726 
1973.178768  	-0.014233 
1975.107584  	-0.013082 
1977.036400  	-0.011614 
1978.965216  	-0.012656 
1980.894032  	-0.012536 
1982.822848  	-0.011706 
1984.751664  	-0.011188 
1986.680480  	-0.010682 
1988.609296  	-0.009827 
1990.538112  	-0.010313 
1992.466928  	-0.010436 
1994.395744  	-0.011707 
1996.324560  	-0.011690 
1998.253376  	-0.012270 
2000.182192  	-0.013050 
2002.111008  	-0.012932 
2004.039824  	-0.011953 
2005.968640  	-0.012388 
2007.897456  	-0.011725 
2009.826272  	-0.011684 
2011.755088  	-0.011751 
2013.683904  	-0.012397 
2015.612720  	-0.011605 
2017.541536  	-0.010577 
2019.470352  	-0.011133 
2021.399168  	-0.013011 
2023.327984  	-0.012452 
2025.256800  	-0.011690 
2027.185616  	-0.011022 
2029.114432  	-0.010742 
2031.043248  	-0.010447 
2032.972064  	-0.011233 
2034.900880  	-0.011106 
2036.829696  	-0.010978 
2038.758512  	-0.010839 
2040.687328  	-0.010798 
2042.616144  	-0.010881 
2044.544960  	-0.011647 
2046.473776  	-0.010772 
2048.402592  	-0.010122 
2050.331408  	-0.010150 
2052.260224  	-0.010450 
2054.189040  	-0.010143 
2056.117856  	-0.010170 
2058.046672  	-0.010019 
2059.975488  	-0.009947 
2061.904304  	-0.009527 
2063.833120  	-0.009284 
2065.761936  	-0.008777 
2067.690752  	-0.009222 
2069.619568  	-0.009479 
2071.548384  	-0.009839 
2073.477200  	-0.009666 
2075.406016  	-0.009469 
2077.334832  	-0.009419 
2079.263648  	-0.009385 
2081.192464  	-0.009203 
2083.121280  	-0.009670 
2085.050096  	-0.009841 
2086.978912  	-0.009847 
2088.907728  	-0.009081 
2090.836544  	-0.008749 
2092.765360  	-0.009155 
2094.694176  	-0.009302 
2096.622992  	-0.008873 
2098.551808  	-0.008757 
2100.480624  	-0.008508 
2102.409440  	-0.008688 
2104.338256  	-0.008747 
2106.267072  	-0.008928 
2108.195888  	-0.008843 
2110.124704  	-0.008987 
2112.053520  	-0.008967 
2113.982336  	-0.008860 
2115.911152  	-0.008791 
2117.839968  	-0.009191 
2119.768784  	-0.009320 
2121.697600  	-0.009074 
2123.626416  	-0.008997 
2125.555232  	-0.009658 
2127.484048  	-0.009998 
2129.412864  	-0.009755 
2131.341680  	-0.009257 
2133.270496  	-0.009452 
2135.199312  	-0.009494 
2137.128128  	-0.008994 
2139.056944  	-0.008673 
2140.985760  	-0.009165 
2142.914576  	-0.008814 
2144.843392  	-0.009781 
2146.772208  	-0.009698 
2148.701024  	-0.009345 
2150.629840  	-0.009950 
2152.558656  	-0.010542 
2154.487472  	-0.010219 
2156.416288  	-0.009992 
2158.345104  	-0.008105 
2160.273920  	-0.005969 
2162.202736  	-0.006215 
2164.131552  	-0.007304 
2166.060368  	-0.007304 
2167.989184  	-0.008437 
2169.918000  	-0.009554 
2171.846816  	-0.009105 
2173.775632  	-0.008180 
2175.704448  	-0.009464 
2177.633264  	-0.009360 
2179.562080  	-0.009830 
2181.490896  	-0.009305 
2183.419712  	-0.008751 
2185.348528  	-0.009084 
2187.277344  	-0.009615 
2189.206160  	-0.009503 
2191.134976  	-0.009885 
2193.063792  	-0.009670 
2194.992608  	-0.008830 
2196.921424  	-0.008069 
2198.850240  	-0.008760 
2200.779056  	-0.010114 
2202.707872  	-0.010431 
2204.636688  	-0.009674 
2206.565504  	-0.009883 
2208.494320  	-0.010411 
2210.423136  	-0.009966 
2212.351952  	-0.009584 
2214.280768  	-0.009974 
2216.209584  	-0.009916 
2218.138400  	-0.010190 
2220.067216  	-0.010516 
2221.996032  	-0.010927 
2223.924848  	-0.010186 
2225.853664  	-0.009966 
2227.782480  	-0.009896 
2229.711296  	-0.010370 
2231.640112  	-0.010336 
2233.568928  	-0.010294 
2235.497744  	-0.010131 
2237.426560  	-0.010081 
2239.355376  	-0.010080 
2241.284192  	-0.010765 
2243.213008  	-0.011235 
2245.141824  	-0.010946 
2247.070640  	-0.010508 
2248.999456  	-0.010385 
2250.928272  	-0.010280 
2252.857088  	-0.010466 
2254.785904  	-0.010134 
2256.714720  	-0.009966 
2258.643536  	-0.009879 
2260.572352  	-0.009690 
2262.501168  	-0.009540 
2264.429984  	-0.009164 
2266.358800  	-0.009328 
2268.287616  	-0.010069 
2270.216432  	-0.010386 
2272.145248  	-0.010159 
2274.074064  	-0.009605 
2276.002880  	-0.009484 
2277.931696  	-0.009349 
2279.860512  	-0.009463 
2281.789328  	-0.009590 
2283.718144  	-0.009539 
2285.646960  	-0.008976 
2287.575776  	-0.008850 
2289.504592  	-0.008770 
2291.433408  	-0.008593 
2293.362224  	-0.008072 
2295.291040  	-0.008041 
2297.219856  	-0.007729 
2299.148672  	-0.007180 
2301.077488  	-0.006878 
2303.006304  	-0.006533 
2304.935120  	-0.006077 
2306.863936  	-0.005869 
2308.792752  	-0.005674 
2310.721568  	-0.005663 
2312.650384  	-0.006076 
2314.579200  	-0.006897 
2316.508016  	-0.007183 
2318.436832  	-0.007002 
2320.365648  	-0.006680 
2322.294464  	-0.007095 
2324.223280  	-0.008333 
2326.152096  	-0.009964 
2328.080912  	-0.011171 
2330.009728  	-0.011769 
2331.938544  	-0.012655 
2333.867360  	-0.014017 
2335.796176  	-0.014967 
2337.724992  	-0.015680 
2339.653808  	-0.015750 
2341.582624  	-0.015140 
2343.511440  	-0.013824 
2345.440256  	-0.011822 
2347.369072  	-0.009872 
2349.297888  	-0.009425 
2351.226704  	-0.011158 
2353.155520  	-0.013754 
2355.084336  	-0.015486 
2357.013152  	-0.016558 
2358.941968  	-0.017338 
2360.870784  	-0.018085 
2362.799600  	-0.017499 
2364.728416  	-0.016203 
2366.657232  	-0.014829 
2368.586048  	-0.013374 
2370.514864  	-0.011762 
2372.443680  	-0.010329 
2374.372496  	-0.008712 
2376.301312  	-0.007523 
2378.230128  	-0.007043 
2380.158944  	-0.007040 
2382.087760  	-0.007470 
2384.016576  	-0.008301 
2385.945392  	-0.008995 
2387.874208  	-0.009395 
2389.803024  	-0.009795 
2391.731840  	-0.010200 
2393.660656  	-0.010376 
2395.589472  	-0.010460 
2397.518288  	-0.010347 
2399.447104  	-0.010257 
2401.375920  	-0.010331 
2403.304736  	-0.010617 
2405.233552  	-0.010622 
2407.162368  	-0.010626 
2409.091184  	-0.010741 
2411.020000  	-0.010768 
2412.948816  	-0.010752 
2414.877632  	-0.010656 
2416.806448  	-0.010399 
2418.735264  	-0.010428 
2420.664080  	-0.010295 
2422.592896  	-0.010251 
2424.521712  	-0.010387 
2426.450528  	-0.010487 
2428.379344  	-0.010347 
2430.308160  	-0.010211 
2432.236976  	-0.010259 
2434.165792  	-0.010195 
2436.094608  	-0.009966 
2438.023424  	-0.009903 
2439.952240  	-0.009904 
2441.881056  	-0.009835 
2443.809872  	-0.009896 
2445.738688  	-0.009846 
2447.667504  	-0.009634 
2449.596320  	-0.009581 
2451.525136  	-0.009509 
2453.453952  	-0.009534 
2455.382768  	-0.009521 
2457.311584  	-0.009626 
2459.240400  	-0.009767 
2461.169216  	-0.009706 
2463.098032  	-0.009554 
2465.026848  	-0.009664 
2466.955664  	-0.009761 
2468.884480  	-0.009901 
2470.813296  	-0.010063 
2472.742112  	-0.010028 
2474.670928  	-0.009812 
2476.599744  	-0.009488 
2478.528560  	-0.009100 
2480.457376  	-0.008982 
2482.386192  	-0.008970 
2484.315008  	-0.008986 
2486.243824  	-0.008922 
2488.172640  	-0.008811 
2490.101456  	-0.008696 
2492.030272  	-0.008778 
2493.959088  	-0.008892 
2495.887904  	-0.009004 
2497.816720  	-0.008706 
2499.745536  	-0.008475 
2501.674352  	-0.008622 
2503.603168  	-0.008777 
2505.531984  	-0.008656 
2507.460800  	-0.008759 
2509.389616  	-0.008957 
2511.318432  	-0.008851 
2513.247248  	-0.008714 
2515.176064  	-0.008635 
2517.104880  	-0.008590 
2519.033696  	-0.008532 
2520.962512  	-0.008478 
2522.891328  	-0.008388 
2524.820144  	-0.008099 
2526.748960  	-0.008161 
2528.677776  	-0.008241 
2530.606592  	-0.008074 
2532.535408  	-0.007894 
2534.464224  	-0.008005 
2536.393040  	-0.008189 
2538.321856  	-0.008158 
2540.250672  	-0.008005 
2542.179488  	-0.007934 
2544.108304  	-0.007788 
2546.037120  	-0.007748 
2547.965936  	-0.007434 
2549.894752  	-0.007204 
2551.823568  	-0.007119 
2553.752384  	-0.007092 
2555.681200  	-0.007084 
2557.610016  	-0.007230 
2559.538832  	-0.007231 
2561.467648  	-0.006883 
2563.396464  	-0.006780 
2565.325280  	-0.007081 
2567.254096  	-0.007188 
2569.182912  	-0.007080 
2571.111728  	-0.006808 
2573.040544  	-0.006680 
2574.969360  	-0.006595 
2576.898176  	-0.006443 
2578.826992  	-0.006471 
2580.755808  	-0.006449 
2582.684624  	-0.006263 
2584.613440  	-0.006257 
2586.542256  	-0.006172 
2588.471072  	-0.006281 
2590.399888  	-0.006332 
2592.328704  	-0.006179 
2594.257520  	-0.006030 
2596.186336  	-0.006191 
2598.115152  	-0.006303 
2600.043968  	-0.006065 
2601.972784  	-0.005821 
2603.901600  	-0.005716 
2605.830416  	-0.005817 
2607.759232  	-0.005853 
2609.688048  	-0.005737 
2611.616864  	-0.005450 
2613.545680  	-0.005271 
2615.474496  	-0.005176 
2617.403312  	-0.004984 
2619.332128  	-0.005026 
2621.260944  	-0.004981 
2623.189760  	-0.004805 
2625.118576  	-0.004711 
2627.047392  	-0.004706 
2628.976208  	-0.004601 
2630.905024  	-0.004529 
2632.833840  	-0.004452 
2634.762656  	-0.004459 
2636.691472  	-0.004423 
2638.620288  	-0.004274 
2640.549104  	-0.004150 
2642.477920  	-0.003961 
2644.406736  	-0.003904 
2646.335552  	-0.003847 
2648.264368  	-0.003686 
2650.193184  	-0.003624 
2652.122000  	-0.003561 
2654.050816  	-0.003497 
2655.979632  	-0.003440 
2657.908448  	-0.003263 
2659.837264  	-0.003184 
2661.766080  	-0.003152 
2663.694896  	-0.003066 
2665.623712  	-0.003005 
2667.552528  	-0.002860 
2669.481344  	-0.002798 
2671.410160  	-0.002816 
2673.338976  	-0.002716 
2675.267792  	-0.002587 
2677.196608  	-0.002342 
2679.125424  	-0.002184 
2681.054240  	-0.002168 
2682.983056  	-0.002068 
2684.911872  	-0.001959 
2686.840688  	-0.001969 
2688.769504  	-0.001921 
2690.698320  	-0.001733 
2692.627136  	-0.001737 
2694.555952  	-0.001718 
2696.484768  	-0.001611 
2698.413584  	-0.001604 
2700.342400  	-0.001609 
2702.271216  	-0.001505 
2704.200032  	-0.001397 
2706.128848  	-0.001241 
2708.057664  	-0.001199 
2709.986480  	-0.001139 
2711.915296  	-0.000966 
2713.844112  	-0.000950 
2715.772928  	-0.000950 
2717.701744  	-0.000871 
2719.630560  	-0.000747 
2721.559376  	-0.000617 
2723.488192  	-0.000534 
2725.417008  	-0.000495 
2727.345824  	-0.000336 
2729.274640  	-0.000055 
2731.203456  	-0.000029 
2733.132272  	-0.000002 
2735.061088  	0.000145 
2736.989904  	0.000206 
2738.918720  	0.000282 
2740.847536  	0.000301 
2742.776352  	0.000381 
2744.705168  	0.000545 
2746.633984  	0.000665 
2748.562800  	0.000787 
2750.491616  	0.000810 
2752.420432  	0.000721 
2754.349248  	0.000633 
2756.278064  	0.000628 
2758.206880  	0.000570 
2760.135696  	0.000594 
2762.064512  	0.000639 
2763.993328  	0.000673 
2765.922144  	0.000644 
2767.850960  	0.000619 
2769.779776  	0.000603 
2771.708592  	0.000649 
2773.637408  	0.000622 
2775.566224  	0.000654 
2777.495040  	0.000711 
2779.423856  	0.000749 
2781.352672  	0.000874 
2783.281488  	0.000971 
2785.210304  	0.000946 
2787.139120  	0.001005 
2789.067936  	0.000966 
2790.996752  	0.000923 
2792.925568  	0.000904 
2794.854384  	0.000851 
2796.783200  	0.000928 
2798.712016  	0.000955 
2800.640832  	0.000917 
2802.569648  	0.001005 
2804.498464  	0.001147 
2806.427280  	0.001249 
2808.356096  	0.001290 
2810.284912  	0.001274 
2812.213728  	0.001203 
2814.142544  	0.001208 
2816.071360  	0.001154 
2818.000176  	0.001115 
2819.928992  	0.001218 
2821.857808  	0.001253 
2823.786624  	0.001130 
2825.715440  	0.001173 
2827.644256  	0.001204 
2829.573072  	0.001193 
2831.501888  	0.001291 
2833.430704  	0.001322 
2835.359520  	0.001319 
2837.288336  	0.001233 
2839.217152  	0.001154 
2841.145968  	0.001028 
2843.074784  	0.000951 
2845.003600  	0.001056 
2846.932416  	0.001034 
2848.861232  	0.001114 
2850.790048  	0.001172 
2852.718864  	0.001241 
2854.647680  	0.001221 
2856.576496  	0.001218 
2858.505312  	0.001191 
2860.434128  	0.001167 
2862.362944  	0.001195 
2864.291760  	0.001211 
2866.220576  	0.001199 
2868.149392  	0.001239 
2870.078208  	0.001314 
2872.007024  	0.001501 
2873.935840  	0.001745 
2875.864656  	0.001965 
2877.793472  	0.002103 
2879.722288  	0.002306 
2881.651104  	0.002538 
2883.579920  	0.002801 
2885.508736  	0.003014 
2887.437552  	0.003054 
2889.366368  	0.002917 
2891.295184  	0.003005 
2893.224000  	0.003174 
2895.152816  	0.003262 
2897.081632  	0.003266 
2899.010448  	0.002908 
2900.939264  	0.002588 
2902.868080  	0.002764 
2904.796896  	0.003073 
2906.725712  	0.003215 
2908.654528  	0.003445 
2910.583344  	0.003714 
2912.512160  	0.003935 
2914.440976  	0.004188 
2916.369792  	0.004573 
2918.298608  	0.004852 
2920.227424  	0.005122 
2922.156240  	0.005443 
2924.085056  	0.005777 
2926.013872  	0.006170 
2927.942688  	0.006581 
2929.871504  	0.007065 
2931.800320  	0.007515 
2933.729136  	0.007952 
2935.657952  	0.008339 
2937.586768  	0.008696 
2939.515584  	0.008867 
2941.444400  	0.008982 
2943.373216  	0.009114 
2945.302032  	0.009382 
2947.230848  	0.009559 
2949.159664  	0.009484 
2951.088480  	0.009425 
2953.017296  	0.009360 
2954.946112  	0.009152 
2956.874928  	0.008989 
2958.803744  	0.008807 
2960.732560  	0.008663 
2962.661376  	0.008613 
2964.590192  	0.008410 
2966.519008  	0.008181 
2968.447824  	0.008008 
2970.376640  	0.007749 
2972.305456  	0.007410 
2974.234272  	0.007576 
2976.163088  	0.007692 
2978.091904  	0.007589 
2980.020720  	0.007559 
2981.949536  	0.007479 
2983.878352  	0.007357 
2985.807168  	0.007231 
2987.735984  	0.007189 
2989.664800  	0.007380 
2991.593616  	0.007853 
2993.522432  	0.008133 
2995.451248  	0.008247 
2997.380064  	0.008537 
2999.308880  	0.008932 
3001.237696  	0.009273 
3003.166512  	0.009627 
3005.095328  	0.009990 
3007.024144  	0.010280 
3008.952960  	0.010776 
3010.881776  	0.011373 
3012.810592  	0.011826 
3014.739408  	0.012045 
3016.668224  	0.012277 
3018.597040  	0.012618 
3020.525856  	0.012993 
3022.454672  	0.013177 
3024.383488  	0.013566 
3026.312304  	0.014063 
3028.241120  	0.014385 
3030.169936  	0.015055 
3032.098752  	0.015673 
3034.027568  	0.015756 
3035.956384  	0.015879 
3037.885200  	0.016158 
3039.814016  	0.016579 
3041.742832  	0.016925 
3043.671648  	0.017370 
3045.600464  	0.017745 
3047.529280  	0.018099 
3049.458096  	0.018454 
3051.386912  	0.018548 
3053.315728  	0.018761 
3055.244544  	0.019319 
3057.173360  	0.019910 
3059.102176  	0.020377 
3061.030992  	0.020769 
3062.959808  	0.021047 
3064.888624  	0.021648 
3066.817440  	0.022183 
3068.746256  	0.022551 
3070.675072  	0.022812 
3072.603888  	0.023235 
3074.532704  	0.023754 
3076.461520  	0.024207 
3078.390336  	0.024832 
3080.319152  	0.025482 
3082.247968  	0.025779 
3084.176784  	0.026015 
3086.105600  	0.026491 
3088.034416  	0.027125 
3089.963232  	0.027392 
3091.892048  	0.027679 
3093.820864  	0.027999 
3095.749680  	0.028766 
3097.678496  	0.029426 
3099.607312  	0.029842 
3101.536128  	0.030556 
3103.464944  	0.030937 
3105.393760  	0.031042 
3107.322576  	0.031446 
3109.251392  	0.032003 
3111.180208  	0.032335 
3113.109024  	0.032466 
3115.037840  	0.032941 
3116.966656  	0.033748 
3118.895472  	0.034204 
3120.824288  	0.034443 
3122.753104  	0.034855 
3124.681920  	0.034924 
3126.610736  	0.034939 
3128.539552  	0.035266 
3130.468368  	0.035545 
3132.397184  	0.036136 
3134.326000  	0.036458 
3136.254816  	0.036441 
3138.183632  	0.036759 
3140.112448  	0.037076 
3142.041264  	0.037534 
3143.970080  	0.037861 
3145.898896  	0.038089 
3147.827712  	0.038384 
3149.756528  	0.038817 
3151.685344  	0.039132 
3153.614160  	0.039412 
3155.542976  	0.039797 
3157.471792  	0.040150 
3159.400608  	0.040370 
3161.329424  	0.040706 
3163.258240  	0.041073 
3165.187056  	0.041190 
3167.115872  	0.041260 
3169.044688  	0.041685 
3170.973504  	0.042045 
3172.902320  	0.042038 
3174.831136  	0.042090 
3176.759952  	0.042440 
3178.688768  	0.042931 
3180.617584  	0.042876 
3182.546400  	0.042774 
3184.475216  	0.042816 
3186.404032  	0.042984 
3188.332848  	0.043079 
3190.261664  	0.043007 
3192.190480  	0.042920 
3194.119296  	0.042971 
3196.048112  	0.043006 
3197.976928  	0.043327 
3199.905744  	0.043310 
3201.834560  	0.043133 
3203.763376  	0.042840 
3205.692192  	0.042558 
3207.621008  	0.042516 
3209.549824  	0.042821 
3211.478640  	0.042885 
3213.407456  	0.042708 
3215.336272  	0.042723 
3217.265088  	0.042481 
3219.193904  	0.042626 
3221.122720  	0.042647 
3223.051536  	0.042231 
3224.980352  	0.042019 
3226.909168  	0.042011 
3228.837984  	0.041934 
3230.766800  	0.041738 
3232.695616  	0.041878 
3234.624432  	0.041935 
3236.553248  	0.041959 
3238.482064  	0.042012 
3240.410880  	0.041811 
3242.339696  	0.041563 
3244.268512  	0.041718 
3246.197328  	0.041860 
3248.126144  	0.041554 
3250.054960  	0.041693 
3251.983776  	0.041899 
3253.912592  	0.042146 
3255.841408  	0.042157 
3257.770224  	0.042069 
3259.699040  	0.042236 
3261.627856  	0.042368 
3263.556672  	0.042269 
3265.485488  	0.042335 
3267.414304  	0.042422 
3269.343120  	0.042503 
3271.271936  	0.042574 
3273.200752  	0.042770 
3275.129568  	0.042968 
3277.058384  	0.043069 
3278.987200  	0.042813 
3280.916016  	0.042842 
3282.844832  	0.043002 
3284.773648  	0.043045 
3286.702464  	0.042914 
3288.631280  	0.043116 
3290.560096  	0.043295 
3292.488912  	0.043404 
3294.417728  	0.043348 
3296.346544  	0.043426 
3298.275360  	0.043599 
3300.204176  	0.043656 
3302.132992  	0.043603 
3304.061808  	0.043688 
3305.990624  	0.043785 
3307.919440  	0.044115 
3309.848256  	0.044507 
3311.777072  	0.044534 
3313.705888  	0.044450 
3315.634704  	0.044521 
3317.563520  	0.044659 
3319.492336  	0.044705 
3321.421152  	0.044798 
3323.349968  	0.044997 
3325.278784  	0.045105 
3327.207600  	0.045148 
3329.136416  	0.044965 
3331.065232  	0.044830 
3332.994048  	0.044825 
3334.922864  	0.045175 
3336.851680  	0.045411 
3338.780496  	0.045157 
3340.709312  	0.044720 
3342.638128  	0.044564 
3344.566944  	0.044265 
3346.495760  	0.044025 
3348.424576  	0.043976 
3350.353392  	0.043972 
3352.282208  	0.043748 
3354.211024  	0.043542 
3356.139840  	0.043519 
3358.068656  	0.043348 
3359.997472  	0.043120 
3361.926288  	0.042864 
3363.855104  	0.042464 
3365.783920  	0.042392 
3367.712736  	0.042348 
3369.641552  	0.041975 
3371.570368  	0.041359 
3373.499184  	0.041149 
3375.428000  	0.041004 
3377.356816  	0.040963 
3379.285632  	0.040927 
3381.214448  	0.040710 
3383.143264  	0.040603 
3385.072080  	0.040660 
3387.000896  	0.039949 
3388.929712  	0.039346 
3390.858528  	0.039404 
3392.787344  	0.040042 
3394.716160  	0.039492 
3396.644976  	0.039079 
3398.573792  	0.038917 
3400.502608  	0.038210 
3402.431424  	0.037753 
3404.360240  	0.037505 
3406.289056  	0.037028 
3408.217872  	0.036735 
3410.146688  	0.036391 
3412.075504  	0.036007 
3414.004320  	0.035851 
3415.933136  	0.035659 
3417.861952  	0.035338 
3419.790768  	0.035711 
3421.719584  	0.035997 
3423.648400  	0.035187 
3425.577216  	0.034242 
3427.506032  	0.033811 
3429.434848  	0.033568 
3431.363664  	0.033336 
3433.292480  	0.032880 
3435.221296  	0.032481 
3437.150112  	0.032147 
3439.078928  	0.031848 
3441.007744  	0.031591 
3442.936560  	0.031815 
3444.865376  	0.031202 
3446.794192  	0.031667 
3448.723008  	0.031426 
3450.651824  	0.029820 
3452.580640  	0.029253 
3454.509456  	0.028910 
3456.438272  	0.028484 
3458.367088  	0.028176 
3460.295904  	0.028091 
3462.224720  	0.027969 
3464.153536  	0.027214 
3466.082352  	0.026567 
3468.011168  	0.026321 
3469.939984  	0.025806 
3471.868800  	0.025130 
3473.797616  	0.024572 
3475.726432  	0.024202 
3477.655248  	0.023182 
3479.584064  	0.022905 
3481.512880  	0.023750 
3483.441696  	0.023347 
3485.370512  	0.021969 
3487.299328  	0.021887 
3489.228144  	0.021408 
3491.156960  	0.020230 
3493.085776  	0.019642 
3495.014592  	0.019717 
3496.943408  	0.019701 
3498.872224  	0.018870 
3500.801040  	0.019060 
3502.729856  	0.020356 
3504.658672  	0.019793 
3506.587488  	0.017585 
3508.516304  	0.017587 
3510.445120  	0.018050 
3512.373936  	0.016621 
3514.302752  	0.015621 
3516.231568  	0.015115 
3518.160384  	0.014890 
3520.089200  	0.014326 
3522.018016  	0.014972 
3523.946832  	0.016717 
3525.875648  	0.015999 
3527.804464  	0.015425 
3529.733280  	0.014524 
3531.662096  	0.012624 
3533.590912  	0.011188 
3535.519728  	0.011740 
3537.448544  	0.011925 
3539.377360  	0.010256 
3541.306176  	0.009654 
3543.234992  	0.011047 
3545.163808  	0.013569 
3547.092624  	0.013554 
3549.021440  	0.010417 
3550.950256  	0.009105 
3552.879072  	0.010082 
3554.807888  	0.008372 
3556.736704  	0.006586 
3558.665520  	0.006781 
3560.594336  	0.007397 
3562.523152  	0.007020 
3564.451968  	0.008252 
3566.380784  	0.013303 
3568.309600  	0.013707 
3570.238416  	0.007452 
3572.167232  	0.004230 
3574.096048  	0.003701 
3576.024864  	0.003521 
3577.953680  	0.003091 
3579.882496  	0.002980 
3581.811312  	0.002219 
3583.740128  	0.001795 
3585.668944  	0.003430 
3587.597760  	0.007758 
3589.526576  	0.004904 
3591.455392  	0.000646 
3593.384208  	0.001007 
3595.313024  	0.002195 
3597.241840  	0.000756 
3599.170656  	-0.000592 
3601.099472  	-0.000809 
3603.028288  	-0.002540 
3604.957104  	-0.003712 
3606.885920  	-0.001514 
3608.814736  	0.000263 
3610.743552  	-0.001666 
3612.672368  	-0.001450 
3614.601184  	-0.001262 
3616.530000  	-0.003231 
3618.458816  	-0.002243 
3620.387632  	-0.002673 
3622.316448  	-0.006262 
3624.245264  	-0.008273 
3626.174080  	-0.007892 
3628.102896  	-0.004748 
3630.031712  	-0.003025 
3631.960528  	-0.007723 
3633.889344  	-0.009376 
3635.818160  	-0.010760 
3637.746976  	-0.011826 
3639.675792  	-0.012230 
3641.604608  	-0.012229 
3643.533424  	-0.012333 
3645.462240  	-0.011539 
3647.391056  	-0.006784 
3649.319872  	-0.003866 
3651.248688  	-0.007320 
3653.177504  	-0.013291 
3655.106320  	-0.014865 
3657.035136  	-0.014281 
3658.963952  	-0.016029 
3660.892768  	-0.017223 
3662.821584  	-0.017954 
3664.750400  	-0.018271 
3666.679216  	-0.017679 
3668.608032  	-0.014855 
3670.536848  	-0.012141 
3672.465664  	-0.014717 
3674.394480  	-0.013941 
3676.323296  	-0.011223 
3678.252112  	-0.014724 
3680.180928  	-0.017115 
3682.109744  	-0.018841 
3684.038560  	-0.019041 
3685.967376  	-0.018893 
3687.896192  	-0.016672 
3689.825008  	-0.013926 
3691.753824  	-0.015655 
3693.682640  	-0.018299 
3695.611456  	-0.019287 
3697.540272  	-0.019482 
3699.469088  	-0.019733 
3701.397904  	-0.018625 
3703.326720  	-0.018662 
3705.255536  	-0.019422 
3707.184352  	-0.018962 
3709.113168  	-0.016741 
3711.041984  	-0.013443 
3712.970800  	-0.014419 
3714.899616  	-0.017521 
3716.828432  	-0.018974 
3718.757248  	-0.018185 
3720.686064  	-0.017454 
3722.614880  	-0.016205 
3724.543696  	-0.015523 
3726.472512  	-0.015216 
3728.401328  	-0.017536 
3730.330144  	-0.018935 
3732.258960  	-0.016528 
3734.187776  	-0.011326 
3736.116592  	-0.008876 
3738.045408  	-0.013473 
3739.974224  	-0.015588 
3741.903040  	-0.016026 
3743.831856  	-0.015077 
3745.760672  	-0.013250 
3747.689488  	-0.014398 
3749.618304  	-0.012704 
3751.547120  	-0.011192 
3753.475936  	-0.014345 
3755.404752  	-0.016833 
3757.333568  	-0.016723 
3759.262384  	-0.016207 
3761.191200  	-0.017700 
3763.120016  	-0.019127 
3765.048832  	-0.017919 
3766.977648  	-0.017597 
3768.906464  	-0.017661 
3770.835280  	-0.017660 
3772.764096  	-0.019528 
3774.692912  	-0.020441 
3776.621728  	-0.020108 
3778.550544  	-0.018633 
3780.479360  	-0.018153 
3782.408176  	-0.019170 
3784.336992  	-0.018551 
3786.265808  	-0.018804 
3788.194624  	-0.020004 
3790.123440  	-0.020311 
3792.052256  	-0.020419 
3793.981072  	-0.020277 
3795.909888  	-0.018248 
3797.838704  	-0.016767 
3799.767520  	-0.016987 
3801.696336  	-0.014646 
3803.625152  	-0.016470 
3805.553968  	-0.018233 
3807.482784  	-0.017674 
3809.411600  	-0.019308 
3811.340416  	-0.020323 
3813.269232  	-0.020197 
3815.198048  	-0.018150 
3817.126864  	-0.015974 
3819.055680  	-0.016093 
3820.984496  	-0.014169 
3822.913312  	-0.015934 
3824.842128  	-0.018205 
3826.770944  	-0.017911 
3828.699760  	-0.018584 
3830.628576  	-0.018711 
3832.557392  	-0.017971 
3834.486208  	-0.017750 
3836.415024  	-0.016609 
3838.343840  	-0.014458 
3840.272656  	-0.013955 
3842.201472  	-0.015903 
3844.130288  	-0.017175 
3846.059104  	-0.018937 
3847.987920  	-0.019543 
3849.916736  	-0.018186 
3851.845552  	-0.015372 
3853.774368  	-0.011619 
3855.703184  	-0.014031 
3857.632000  	-0.016540 
3859.560816  	-0.018402 
3861.489632  	-0.017574 
3863.418448  	-0.015664 
3865.347264  	-0.015045 
3867.276080  	-0.017144 
3869.204896  	-0.015490 
3871.133712  	-0.014106 
3873.062528  	-0.016149 
3874.991344  	-0.017087 
3876.920160  	-0.019496 
3878.848976  	-0.018691 
3880.777792  	-0.015651 
3882.706608  	-0.016436 
3884.635424  	-0.016822 
3886.564240  	-0.017065 
3888.493056  	-0.019481 
3890.421872  	-0.018544 
3892.350688  	-0.016880 
3894.279504  	-0.018433 
3896.208320  	-0.019548 
3898.137136  	-0.017926 
3900.065952  	-0.015072 
3901.994768  	-0.013948 
3903.923584  	-0.013533 
3905.852400  	-0.015721 
3907.781216  	-0.019404 
3909.710032  	-0.021158 
3911.638848  	-0.021250 
3913.567664  	-0.020897 
3915.496480  	-0.019015 
3917.425296  	-0.016951 
3919.354112  	-0.017647 
3921.282928  	-0.018519 
3923.211744  	-0.017913 
3925.140560  	-0.017179 
3927.069376  	-0.019107 
3928.998192  	-0.019070 
3930.927008  	-0.017388 
3932.855824  	-0.017183 
3934.784640  	-0.019347 
3936.713456  	-0.020422 
3938.642272  	-0.020410 
3940.571088  	-0.019969 
3942.499904  	-0.017944 
3944.428720  	-0.018209 
3946.357536  	-0.019143 
3948.286352  	-0.018056 
3950.215168  	-0.018714 
3952.143984  	-0.020348 
3954.072800  	-0.020973 
3956.001616  	-0.020686 
3957.930432  	-0.020265 
3959.859248  	-0.019954 
3961.788064  	-0.019669 
3963.716880  	-0.020250 
3965.645696  	-0.021061 
3967.574512  	-0.021141 
3969.503328  	-0.020971 
3971.432144  	-0.020667 
3973.360960  	-0.020130 
3975.289776  	-0.019682 
3977.218592  	-0.020306 
3979.147408  	-0.021173 
3981.076224  	-0.021211 
3983.005040  	-0.021080 
3984.933856  	-0.020976 
3986.862672  	-0.020914 
3988.791488  	-0.020888 
3990.720304  	-0.020566 
3992.649120  	-0.020778 
3994.577936  	-0.020900 
3996.506752  	-0.021140 
3998.435568  	-0.021328 
4000.364384  	-0.021255 