##TITLE=No Description
##DATA TYPE=INFRARED SPECTRUM
##XUNITS=1/CM
##YUNITS=Abs
399.264912  	0.599370 
401.193728  	0.595093 
403.122544  	0.602438 
405.051360  	0.586717 
406.980176  	0.587953 
408.908992  	0.589449 
410.837808  	0.596611 
412.766624  	0.585225 
414.695440  	0.574794 
416.624256  	0.556231 
418.553072  	0.559974 
420.481888  	0.567316 
422.410704  	0.575124 
424.339520  	0.569245 
426.268336  	0.561117 
428.197152  	0.554655 
430.125968  	0.556051 
432.054784  	0.552972 
433.983600  	0.555067 
435.912416  	0.555454 
437.841232  	0.556328 
439.770048  	0.546488 
441.698864  	0.544356 
443.627680  	0.543318 
445.556496  	0.545910 
447.485312  	0.545747 
449.414128  	0.546220 
451.342944  	0.540707 
453.271760  	0.542905 
455.200576  	0.541320 
457.129392  	0.541847 
459.058208  	0.540610 
460.987024  	0.539869 
462.915840  	0.534727 
464.844656  	0.537361 
466.773472  	0.543302 
468.702288  	0.543484 
470.631104  	0.535047 
472.559920  	0.533216 
474.488736  	0.530140 
476.417552  	0.534118 
478.346368  	0.534449 
480.275184  	0.534629 
482.204000  	0.528732 
484.132816  	0.529092 
486.061632  	0.530287 
487.990448  	0.531662 
489.919264  	0.532440 
491.848080  	0.533019 
493.776896  	0.528497 
495.705712  	0.528765 
497.634528  	0.526291 
499.563344  	0.527577 
501.492160  	0.523213 
503.420976  	0.522746 
505.349792  	0.518808 
507.278608  	0.517821 
509.207424  	0.520759 
511.136240  	0.525647 
513.065056  	0.524213 
514.993872  	0.528180 
516.922688  	0.528911 
518.851504  	0.527498 
520.780320  	0.527764 
522.709136  	0.528515 
524.637952  	0.525426 
526.566768  	0.524194 
528.495584  	0.522079 
530.424400  	0.520846 
532.353216  	0.516518 
534.282032  	0.511408 
536.210848  	0.505461 
538.139664  	0.502004 
540.068480  	0.497107 
541.997296  	0.492554 
543.926112  	0.487414 
545.854928  	0.484265 
547.783744  	0.479689 
549.712560  	0.477071 
551.641376  	0.472906 
553.570192  	0.468755 
555.499008  	0.464392 
557.427824  	0.462032 
559.356640  	0.457516 
561.285456  	0.454145 
563.214272  	0.450048 
565.143088  	0.446650 
567.071904  	0.441703 
569.000720  	0.438074 
570.929536  	0.434992 
572.858352  	0.432698 
574.787168  	0.429374 
576.715984  	0.427060 
578.644800  	0.423489 
580.573616  	0.419625 
582.502432  	0.414160 
584.431248  	0.410756 
586.360064  	0.407442 
588.288880  	0.405344 
590.217696  	0.402285 
592.146512  	0.399032 
594.075328  	0.396792 
596.004144  	0.395950 
597.932960  	0.393858 
599.861776  	0.391967 
601.790592  	0.389675 
603.719408  	0.388322 
605.648224  	0.387879 
607.577040  	0.387115 
609.505856  	0.384614 
611.434672  	0.382343 
613.363488  	0.379880 
615.292304  	0.378800 
617.221120  	0.378004 
619.149936  	0.376834 
621.078752  	0.375234 
623.007568  	0.374717 
624.936384  	0.373042 
626.865200  	0.371468 
628.794016  	0.370024 
630.722832  	0.369384 
632.651648  	0.369086 
634.580464  	0.369288 
636.509280  	0.369019 
638.438096  	0.368798 
640.366912  	0.368092 
642.295728  	0.367181 
644.224544  	0.364700 
646.153360  	0.361368 
648.082176  	0.356659 
650.010992  	0.353199 
651.939808  	0.349694 
653.868624  	0.345479 
655.797440  	0.341580 
657.726256  	0.337957 
659.655072  	0.333753 
661.583888  	0.329359 
663.512704  	0.325102 
665.441520  	0.322464 
667.370336  	0.317291 
669.299152  	0.310256 
671.227968  	0.308153 
673.156784  	0.305670 
675.085600  	0.302795 
677.014416  	0.300389 
678.943232  	0.298347 
680.872048  	0.296513 
682.800864  	0.294531 
684.729680  	0.292785 
686.658496  	0.291548 
688.587312  	0.290564 
690.516128  	0.288741 
692.444944  	0.287078 
694.373760  	0.285830 
696.302576  	0.283870 
698.231392  	0.281351 
700.160208  	0.278729 
702.089024  	0.276499 
704.017840  	0.274446 
705.946656  	0.271853 
707.875472  	0.269154 
709.804288  	0.266891 
711.733104  	0.265004 
713.661920  	0.262700 
715.590736  	0.261272 
717.519552  	0.260883 
719.448368  	0.261288 
721.377184  	0.261586 
723.306000  	0.262195 
725.234816  	0.262727 
727.163632  	0.262078 
729.092448  	0.259835 
731.021264  	0.256638 
732.950080  	0.252988 
734.878896  	0.249818 
736.807712  	0.246863 
738.736528  	0.244215 
740.665344  	0.241788 
742.594160  	0.240228 
744.522976  	0.238994 
746.451792  	0.237576 
748.380608  	0.235844 
750.309424  	0.234428 
752.238240  	0.233421 
754.167056  	0.232489 
756.095872  	0.231445 
758.024688  	0.230546 
759.953504  	0.230146 
761.882320  	0.230964 
763.811136  	0.231661 
765.739952  	0.230611 
767.668768  	0.227987 
769.597584  	0.225553 
771.526400  	0.224353 
773.455216  	0.225246 
775.384032  	0.228629 
777.312848  	0.234223 
779.241664  	0.238810 
781.170480  	0.239388 
783.099296  	0.235903 
785.028112  	0.230021 
786.956928  	0.223789 
788.885744  	0.218639 
790.814560  	0.214696 
792.743376  	0.212016 
794.672192  	0.210619 
796.601008  	0.209896 
798.529824  	0.207076 
800.458640  	0.202519 
802.387456  	0.198530 
804.316272  	0.196307 
806.245088  	0.195302 
808.173904  	0.194278 
810.102720  	0.193697 
812.031536  	0.193744 
813.960352  	0.194077 
815.889168  	0.194408 
817.817984  	0.194633 
819.746800  	0.195016 
821.675616  	0.195182 
823.604432  	0.194891 
825.533248  	0.194588 
827.462064  	0.194131 
829.390880  	0.192995 
831.319696  	0.191418 
833.248512  	0.189543 
835.177328  	0.187250 
837.106144  	0.184489 
839.034960  	0.181219 
840.963776  	0.177420 
842.892592  	0.173702 
844.821408  	0.170123 
846.750224  	0.166943 
848.679040  	0.164003 
850.607856  	0.161616 
852.536672  	0.160011 
854.465488  	0.158512 
856.394304  	0.156933 
858.323120  	0.155637 
860.251936  	0.153598 
862.180752  	0.151387 
864.109568  	0.148802 
866.038384  	0.146245 
867.967200  	0.144057 
869.896016  	0.142155 
871.824832  	0.141097 
873.753648  	0.140787 
875.682464  	0.141239 
877.611280  	0.141619 
879.540096  	0.142461 
881.468912  	0.144380 
883.397728  	0.145845 
885.326544  	0.147186 
887.255360  	0.147507 
889.184176  	0.146417 
891.112992  	0.144413 
893.041808  	0.142541 
894.970624  	0.139887 
896.899440  	0.136455 
898.828256  	0.132237 
900.757072  	0.128160 
902.685888  	0.125109 
904.614704  	0.123483 
906.543520  	0.123518 
908.472336  	0.124856 
910.401152  	0.127485 
912.329968  	0.130420 
914.258784  	0.133548 
916.187600  	0.136586 
918.116416  	0.139171 
920.045232  	0.140933 
921.974048  	0.141967 
923.902864  	0.142268 
925.831680  	0.141999 
927.760496  	0.142008 
929.689312  	0.142573 
931.618128  	0.143313 
933.546944  	0.143882 
935.475760  	0.144173 
937.404576  	0.144028 
939.333392  	0.143728 
941.262208  	0.143746 
943.191024  	0.145309 
945.119840  	0.149116 
947.048656  	0.155096 
948.977472  	0.162996 
950.906288  	0.172778 
952.835104  	0.183756 
954.763920  	0.195374 
956.692736  	0.206337 
958.621552  	0.215509 
960.550368  	0.221685 
962.479184  	0.224725 
964.408000  	0.223730 
966.336816  	0.218676 
968.265632  	0.210068 
970.194448  	0.198581 
972.123264  	0.185376 
974.052080  	0.171529 
975.980896  	0.157871 
977.909712  	0.145120 
979.838528  	0.133792 
981.767344  	0.124537 
983.696160  	0.117395 
985.624976  	0.112809 
987.553792  	0.111189 
989.482608  	0.112229 
991.411424  	0.115489 
993.340240  	0.120528 
995.269056  	0.126817 
997.197872  	0.133692 
999.126688  	0.140674 
1001.055504  	0.147685 
1002.984320  	0.154882 
1004.913136  	0.161817 
1006.841952  	0.168301 
1008.770768  	0.173702 
1010.699584  	0.177614 
1012.628400  	0.180059 
1014.557216  	0.181155 
1016.486032  	0.181417 
1018.414848  	0.181106 
1020.343664  	0.180772 
1022.272480  	0.179957 
1024.201296  	0.178614 
1026.130112  	0.175430 
1028.058928  	0.174353 
1029.987744  	0.177513 
1031.916560  	0.179777 
1033.845376  	0.181210 
1035.774192  	0.182521 
1037.703008  	0.185293 
1039.631824  	0.191739 
1041.560640  	0.200949 
1043.489456  	0.213033 
1045.418272  	0.227313 
1047.347088  	0.243416 
1049.275904  	0.258402 
1051.204720  	0.270187 
1053.133536  	0.277562 
1055.062352  	0.280640 
1056.991168  	0.280588 
1058.919984  	0.281575 
1060.848800  	0.282487 
1062.777616  	0.280112 
1064.706432  	0.273930 
1066.635248  	0.268752 
1068.564064  	0.266736 
1070.492880  	0.261569 
1072.421696  	0.253485 
1074.350512  	0.247906 
1076.279328  	0.245710 
1078.208144  	0.247706 
1080.136960  	0.252667 
1082.065776  	0.258670 
1083.994592  	0.262638 
1085.923408  	0.263680 
1087.852224  	0.261331 
1089.781040  	0.256935 
1091.709856  	0.250878 
1093.638672  	0.242702 
1095.567488  	0.231838 
1097.496304  	0.219535 
1099.425120  	0.206531 
1101.353936  	0.193277 
1103.282752  	0.180284 
1105.211568  	0.168071 
1107.140384  	0.156231 
1109.069200  	0.145066 
1110.998016  	0.134854 
1112.926832  	0.125362 
1114.855648  	0.116617 
1116.784464  	0.108624 
1118.713280  	0.100957 
1120.642096  	0.093753 
1122.570912  	0.087027 
1124.499728  	0.080742 
1126.428544  	0.075248 
1128.357360  	0.070133 
1130.286176  	0.066083 
1132.214992  	0.062738 
1134.143808  	0.059771 
1136.072624  	0.057207 
1138.001440  	0.055221 
1139.930256  	0.052820 
1141.859072  	0.050387 
1143.787888  	0.047923 
1145.716704  	0.045560 
1147.645520  	0.043081 
1149.574336  	0.041253 
1151.503152  	0.039950 
1153.431968  	0.039335 
1155.360784  	0.039460 
1157.289600  	0.040476 
1159.218416  	0.041962 
1161.147232  	0.043804 
1163.076048  	0.045784 
1165.004864  	0.048267 
1166.933680  	0.050658 
1168.862496  	0.053144 
1170.791312  	0.055775 
1172.720128  	0.058866 
1174.648944  	0.061659 
1176.577760  	0.064553 
1178.506576  	0.067255 
1180.435392  	0.070068 
1182.364208  	0.072844 
1184.293024  	0.076061 
1186.221840  	0.079487 
1188.150656  	0.083466 
1190.079472  	0.087922 
1192.008288  	0.093267 
1193.937104  	0.099911 
1195.865920  	0.107743 
1197.794736  	0.116287 
1199.723552  	0.125695 
1201.652368  	0.135341 
1203.581184  	0.144880 
1205.510000  	0.154437 
1207.438816  	0.163623 
1209.367632  	0.172174 
1211.296448  	0.179591 
1213.225264  	0.185653 
1215.154080  	0.190261 
1217.082896  	0.193693 
1219.011712  	0.196080 
1220.940528  	0.197880 
1222.869344  	0.198722 
1224.798160  	0.198669 
1226.726976  	0.198119 
1228.655792  	0.197321 
1230.584608  	0.195654 
1232.513424  	0.193304 
1234.442240  	0.190423 
1236.371056  	0.186765 
1238.299872  	0.181707 
1240.228688  	0.174417 
1242.157504  	0.166992 
1244.086320  	0.160656 
1246.015136  	0.152991 
1247.943952  	0.144524 
1249.872768  	0.136055 
1251.801584  	0.128708 
1253.730400  	0.121208 
1255.659216  	0.113747 
1257.588032  	0.106936 
1259.516848  	0.100541 
1261.445664  	0.094551 
1263.374480  	0.089072 
1265.303296  	0.084377 
1267.232112  	0.080571 
1269.160928  	0.077670 
1271.089744  	0.075549 
1273.018560  	0.074432 
1274.947376  	0.074033 
1276.876192  	0.074067 
1278.805008  	0.073815 
1280.733824  	0.072711 
1282.662640  	0.070741 
1284.591456  	0.068270 
1286.520272  	0.065975 
1288.449088  	0.064497 
1290.377904  	0.063900 
1292.306720  	0.064072 
1294.235536  	0.064067 
1296.164352  	0.063113 
1298.093168  	0.060812 
1300.021984  	0.057869 
1301.950800  	0.054688 
1303.879616  	0.051683 
1305.808432  	0.048382 
1307.737248  	0.045068 
1309.666064  	0.041852 
1311.594880  	0.039367 
1313.523696  	0.037415 
1315.452512  	0.036176 
1317.381328  	0.035462 
1319.310144  	0.035320 
1321.238960  	0.035477 
1323.167776  	0.036208 
1325.096592  	0.037083 
1327.025408  	0.037803 
1328.954224  	0.037873 
1330.883040  	0.037474 
1332.811856  	0.036669 
1334.740672  	0.036064 
1336.669488  	0.035772 
1338.598304  	0.035615 
1340.527120  	0.034360 
1342.455936  	0.033193 
1344.384752  	0.032825 
1346.313568  	0.033045 
1348.242384  	0.033625 
1350.171200  	0.034915 
1352.100016  	0.036490 
1354.028832  	0.038397 
1355.957648  	0.040264 
1357.886464  	0.042428 
1359.815280  	0.044836 
1361.744096  	0.047089 
1363.672912  	0.048361 
1365.601728  	0.049740 
1367.530544  	0.051064 
1369.459360  	0.051406 
1371.388176  	0.051226 
1373.316992  	0.049986 
1375.245808  	0.046783 
1377.174624  	0.044118 
1379.103440  	0.041106 
1381.032256  	0.038156 
1382.961072  	0.035958 
1384.889888  	0.035199 
1386.818704  	0.034318 
1388.747520  	0.032348 
1390.676336  	0.030075 
1392.605152  	0.026943 
1394.533968  	0.024981 
1396.462784  	0.027649 
1398.391600  	0.028932 
1400.320416  	0.028323 
1402.249232  	0.028631 
1404.178048  	0.029128 
1406.106864  	0.029565 
1408.035680  	0.031516 
1409.964496  	0.034083 
1411.893312  	0.036945 
1413.822128  	0.040047 
1415.750944  	0.043720 
1417.679760  	0.046281 
1419.608576  	0.046155 
1421.537392  	0.046643 
1423.466208  	0.046737 
1425.395024  	0.044946 
1427.323840  	0.043659 
1429.252656  	0.041214 
1431.181472  	0.039366 
1433.110288  	0.039146 
1435.039104  	0.039907 
1436.967920  	0.039212 
1438.896736  	0.040020 
1440.825552  	0.041210 
1442.754368  	0.041851 
1444.683184  	0.042064 
1446.612000  	0.042044 
1448.540816  	0.040999 
1450.469632  	0.041459 
1452.398448  	0.042334 
1454.327264  	0.043602 
1456.256080  	0.043455 
1458.184896  	0.040860 
1460.113712  	0.041882 
1462.042528  	0.043517 
1463.971344  	0.043443 
1465.900160  	0.043683 
1467.828976  	0.046357 
1469.757792  	0.049989 
1471.686608  	0.053422 
1473.615424  	0.058810 
1475.544240  	0.065130 
1477.473056  	0.070942 
1479.401872  	0.075334 
1481.330688  	0.078802 
1483.259504  	0.081060 
1485.188320  	0.082819 
1487.117136  	0.082956 
1489.045952  	0.082185 
1490.974768  	0.078637 
1492.903584  	0.076560 
1494.832400  	0.073726 
1496.761216  	0.066972 
1498.690032  	0.060509 
1500.618848  	0.056291 
1502.547664  	0.052698 
1504.476480  	0.049298 
1506.405296  	0.042658 
1508.334112  	0.038389 
1510.262928  	0.038329 
1512.191744  	0.036766 
1514.120560  	0.035987 
1516.049376  	0.035446 
1517.978192  	0.034872 
1519.907008  	0.036698 
1521.835824  	0.037458 
1523.764640  	0.041358 
1525.693456  	0.045379 
1527.622272  	0.047562 
1529.551088  	0.048521 
1531.479904  	0.048469 
1533.408720  	0.044384 
1535.337536  	0.041101 
1537.266352  	0.040066 
1539.195168  	0.033750 
1541.123984  	0.026378 
1543.052800  	0.027362 
1544.981616  	0.027009 
1546.910432  	0.026555 
1548.839248  	0.026892 
1550.768064  	0.026840 
1552.696880  	0.027092 
1554.625696  	0.027750 
1556.554512  	0.028670 
1558.483328  	0.027508 
1560.412144  	0.030517 
1562.340960  	0.037335 
1564.269776  	0.041492 
1566.198592  	0.046961 
1568.127408  	0.051568 
1570.056224  	0.056754 
1571.985040  	0.063763 
1573.913856  	0.069174 
1575.842672  	0.070520 
1577.771488  	0.072972 
1579.700304  	0.075020 
1581.629120  	0.074883 
1583.557936  	0.074216 
1585.486752  	0.074973 
1587.415568  	0.077347 
1589.344384  	0.081844 
1591.273200  	0.087812 
1593.202016  	0.095153 
1595.130832  	0.102852 
1597.059648  	0.111079 
1598.988464  	0.118140 
1600.917280  	0.124350 
1602.846096  	0.128325 
1604.774912  	0.130968 
1606.703728  	0.131317 
1608.632544  	0.130355 
1610.561360  	0.128131 
1612.490176  	0.126741 
1614.418992  	0.125246 
1616.347808  	0.122232 
1618.276624  	0.122312 
1620.205440  	0.127338 
1622.134256  	0.130630 
1624.063072  	0.135806 
1625.991888  	0.142983 
1627.920704  	0.151209 
1629.849520  	0.161060 
1631.778336  	0.171474 
1633.707152  	0.179372 
1635.635968  	0.186332 
1637.564784  	0.195392 
1639.493600  	0.204148 
1641.422416  	0.209907 
1643.351232  	0.214790 
1645.280048  	0.216045 
1647.208864  	0.214403 
1649.137680  	0.215766 
1651.066496  	0.218298 
1652.995312  	0.210158 
1654.924128  	0.206373 
1656.852944  	0.208062 
1658.781760  	0.206414 
1660.710576  	0.202919 
1662.639392  	0.197198 
1664.568208  	0.192536 
1666.497024  	0.190641 
1668.425840  	0.185275 
1670.354656  	0.177377 
1672.283472  	0.174177 
1674.212288  	0.171504 
1676.141104  	0.165775 
1678.069920  	0.165017 
1679.998736  	0.164187 
1681.927552  	0.163395 
1683.856368  	0.158339 
1685.785184  	0.156110 
1687.714000  	0.158632 
1689.642816  	0.158002 
1691.571632  	0.156513 
1693.500448  	0.156242 
1695.429264  	0.152233 
1697.358080  	0.148839 
1699.286896  	0.146901 
1701.215712  	0.140025 
1703.144528  	0.140068 
1705.073344  	0.136121 
1707.002160  	0.129657 
1708.930976  	0.125424 
1710.859792  	0.119493 
1712.788608  	0.112682 
1714.717424  	0.104220 
1716.646240  	0.092975 
1718.575056  	0.078572 
1720.503872  	0.070728 
1722.432688  	0.064048 
1724.361504  	0.054581 
1726.290320  	0.046936 
1728.219136  	0.040531 
1730.147952  	0.034631 
1732.076768  	0.029898 
1734.005584  	0.023069 
1735.934400  	0.017952 
1737.863216  	0.017972 
1739.792032  	0.014590 
1741.720848  	0.013371 
1743.649664  	0.012488 
1745.578480  	0.011615 
1747.507296  	0.010054 
1749.436112  	0.009167 
1751.364928  	0.007764 
1753.293744  	0.007337 
1755.222560  	0.007268 
1757.151376  	0.006498 
1759.080192  	0.005915 
1761.009008  	0.005410 
1762.937824  	0.003866 
1764.866640  	0.004325 
1766.795456  	0.004508 
1768.724272  	0.004086 
1770.653088  	0.002817 
1772.581904  	0.000691 
1774.510720  	0.001112 
1776.439536  	0.002300 
1778.368352  	0.002518 
1780.297168  	0.002193 
1782.225984  	0.001571 
1784.154800  	0.001800 
1786.083616  	0.001257 
1788.012432  	0.001696 
1789.941248  	0.001930 
1791.870064  	0.000760 
1793.798880  	-0.000428 
1795.727696  	0.000924 
1797.656512  	0.000774 
1799.585328  	0.000485 
1801.514144  	0.000240 
1803.442960  	0.000366 
1805.371776  	0.000097 
1807.300592  	0.000311 
1809.229408  	-0.000214 
1811.158224  	-0.000565 
1813.087040  	-0.000725 
1815.015856  	-0.000232 
1816.944672  	-0.000262 
1818.873488  	-0.000262 
1820.802304  	-0.000431 
1822.731120  	0.000252 
1824.659936  	-0.000307 
1826.588752  	-0.000789 
1828.517568  	-0.001203 
1830.446384  	-0.001772 
1832.375200  	-0.001384 
1834.304016  	-0.000729 
1836.232832  	-0.000759 
1838.161648  	-0.000601 
1840.090464  	-0.000829 
1842.019280  	-0.000092 
1843.948096  	-0.001161 
1845.876912  	-0.001366 
1847.805728  	-0.001073 
1849.734544  	-0.001049 
1851.663360  	-0.001089 
1853.592176  	-0.000991 
1855.520992  	-0.001195 
1857.449808  	-0.001021 
1859.378624  	-0.001224 
1861.307440  	-0.001295 
1863.236256  	-0.001492 
1865.165072  	-0.000910 
1867.093888  	-0.001008 
1869.022704  	-0.001497 
1870.951520  	-0.001858 
1872.880336  	-0.001341 
1874.809152  	-0.001507 
1876.737968  	-0.001522 
1878.666784  	-0.001900 
1880.595600  	-0.001465 
1882.524416  	-0.001559 
1884.453232  	-0.001532 
1886.382048  	-0.001771 
1888.310864  	-0.001507 
1890.239680  	-0.001886 
1892.168496  	-0.001457 
1894.097312  	-0.001640 
1896.026128  	-0.001525 
1897.954944  	-0.001860 
1899.883760  	-0.001693 
1901.812576  	-0.001820 
1903.741392  	-0.001897 
1905.670208  	-0.001923 
1907.599024  	-0.001518 
1909.527840  	-0.001854 
1911.456656  	-0.001689 
1913.385472  	-0.001769 
1915.314288  	-0.001002 
1917.243104  	-0.001335 
1919.171920  	-0.001640 
1921.100736  	-0.001549 
1923.029552  	-0.001143 
1924.958368  	-0.001635 
1926.887184  	-0.001390 
1928.816000  	-0.001577 
1930.744816  	-0.001495 
1932.673632  	-0.001956 
1934.602448  	-0.001715 
1936.531264  	-0.001542 
1938.460080  	-0.000811 
1940.388896  	-0.001135 
1942.317712  	-0.001228 
1944.246528  	-0.001390 
1946.175344  	-0.000785 
1948.104160  	-0.001532 
1950.032976  	-0.001531 
1951.961792  	-0.001414 
1953.890608  	-0.000450 
1955.819424  	-0.001245 
1957.748240  	-0.001361 
1959.677056  	-0.002212 
1961.605872  	-0.001020 
1963.534688  	-0.000803 
1965.463504  	-0.000465 
1967.392320  	-0.001469 
1969.321136  	-0.001001 
1971.249952  	-0.001043 
1973.178768  	-0.000367 
1975.107584  	-0.001906 
1977.036400  	-0.000870 
1978.965216  	0.000022 
1980.894032  	0.000362 
1982.822848  	-0.000420 
1984.751664  	-0.000180 
1986.680480  	-0.000780 
1988.609296  	-0.000386 
1990.538112  	-0.001127 
1992.466928  	-0.000660 
1994.395744  	-0.001284 
1996.324560  	-0.001347 
1998.253376  	-0.002577 
2000.182192  	-0.002612 
2002.111008  	-0.002248 
2004.039824  	-0.001263 
2005.968640  	-0.001538 
2007.897456  	-0.000083 
2009.826272  	-0.000700 
2011.755088  	-0.000969 
2013.683904  	-0.001107 
2015.612720  	-0.000099 
2017.541536  	-0.000713 
2019.470352  	-0.000477 
2021.399168  	-0.001166 
2023.327984  	-0.001754 
2025.256800  	-0.002317 
2027.185616  	-0.000882 
2029.114432  	-0.000502 
2031.043248  	0.000603 
2032.972064  	0.000063 
2034.900880  	0.000195 
2036.829696  	-0.000802 
2038.758512  	-0.000136 
2040.687328  	-0.000580 
2042.616144  	-0.000285 
2044.544960  	-0.000746 
2046.473776  	-0.000457 
2048.402592  	-0.000579 
2050.331408  	-0.000613 
2052.260224  	-0.001935 
2054.189040  	-0.001795 
2056.117856  	-0.001760 
2058.046672  	-0.001469 
2059.975488  	-0.001966 
2061.904304  	-0.002225 
2063.833120  	-0.002705 
2065.761936  	-0.002327 
2067.690752  	-0.002376 
2069.619568  	-0.001675 
2071.548384  	-0.001768 
2073.477200  	-0.001919 
2075.406016  	-0.001612 
2077.334832  	-0.001075 
2079.263648  	-0.001147 
2081.192464  	-0.001151 
2083.121280  	-0.001600 
2085.050096  	-0.001714 
2086.978912  	-0.001722 
2088.907728  	-0.001241 
2090.836544  	-0.001335 
2092.765360  	-0.001167 
2094.694176  	-0.001247 
2096.622992  	-0.000868 
2098.551808  	-0.001241 
2100.480624  	-0.000947 
2102.409440  	-0.000874 
2104.338256  	-0.001122 
2106.267072  	-0.001083 
2108.195888  	-0.000543 
2110.124704  	-0.000724 
2112.053520  	-0.000499 
2113.982336  	-0.000495 
2115.911152  	-0.000507 
2117.839968  	-0.000716 
2119.768784  	-0.000713 
2121.697600  	-0.001281 
2123.626416  	-0.001396 
2125.555232  	-0.001442 
2127.484048  	-0.001249 
2129.412864  	-0.001757 
2131.341680  	-0.002151 
2133.270496  	-0.002067 
2135.199312  	-0.001010 
2137.128128  	-0.000847 
2139.056944  	-0.000250 
2140.985760  	-0.000603 
2142.914576  	-0.000699 
2144.843392  	-0.000967 
2146.772208  	-0.001400 
2148.701024  	-0.002133 
2150.629840  	-0.000753 
2152.558656  	-0.000313 
2154.487472  	-0.000165 
2156.416288  	-0.000913 
2158.345104  	-0.000175 
2160.273920  	0.001901 
2162.202736  	0.003341 
2164.131552  	0.001505 
2166.060368  	0.000768 
2167.989184  	0.001838 
2169.918000  	0.002964 
2171.846816  	0.001261 
2173.775632  	0.001235 
2175.704448  	0.001632 
2177.633264  	0.002128 
2179.562080  	0.001485 
2181.490896  	0.000661 
2183.419712  	-0.000271 
2185.348528  	-0.000102 
2187.277344  	0.000250 
2189.206160  	0.000545 
2191.134976  	-0.000620 
2193.063792  	-0.000322 
2194.992608  	0.000181 
2196.921424  	0.000233 
2198.850240  	-0.000351 
2200.779056  	0.000032 
2202.707872  	-0.000251 
2204.636688  	-0.000257 
2206.565504  	-0.000082 
2208.494320  	-0.000529 
2210.423136  	-0.001208 
2212.351952  	-0.001222 
2214.280768  	-0.001632 
2216.209584  	-0.001458 
2218.138400  	-0.002118 
2220.067216  	-0.001713 
2221.996032  	-0.001323 
2223.924848  	-0.000686 
2225.853664  	-0.000483 
2227.782480  	-0.000323 
2229.711296  	-0.001086 
2231.640112  	-0.001720 
2233.568928  	-0.002320 
2235.497744  	-0.002142 
2237.426560  	-0.001918 
2239.355376  	-0.001636 
2241.284192  	-0.001709 
2243.213008  	-0.001726 
2245.141824  	-0.001895 
2247.070640  	-0.001516 
2248.999456  	-0.001635 
2250.928272  	-0.001996 
2252.857088  	-0.002228 
2254.785904  	-0.001972 
2256.714720  	-0.002814 
2258.643536  	-0.002925 
2260.572352  	-0.002446 
2262.501168  	-0.002128 
2264.429984  	-0.002096 
2266.358800  	-0.002110 
2268.287616  	-0.002338 
2270.216432  	-0.002116 
2272.145248  	-0.001989 
2274.074064  	-0.002205 
2276.002880  	-0.002118 
2277.931696  	-0.001559 
2279.860512  	-0.001431 
2281.789328  	-0.001462 
2283.718144  	-0.001758 
2285.646960  	-0.001709 
2287.575776  	-0.001580 
2289.504592  	-0.001610 
2291.433408  	-0.001812 
2293.362224  	-0.001546 
2295.291040  	-0.001276 
2297.219856  	-0.000892 
2299.148672  	-0.000755 
2301.077488  	-0.000438 
2303.006304  	-0.000421 
2304.935120  	-0.000252 
2306.863936  	-0.000047 
2308.792752  	0.000195 
2310.721568  	0.000154 
2312.650384  	0.000071 
2314.579200  	-0.000331 
2316.508016  	-0.000758 
2318.436832  	-0.001217 
2320.365648  	-0.001725 
2322.294464  	-0.002394 
2324.223280  	-0.003262 
2326.152096  	-0.004641 
2328.080912  	-0.005460 
2330.009728  	-0.006571 
2331.938544  	-0.007919 
2333.867360  	-0.008733 
2335.796176  	-0.009226 
2337.724992  	-0.009715 
2339.653808  	-0.009530 
2341.582624  	-0.009871 
2343.511440  	-0.009673 
2345.440256  	-0.008669 
2347.369072  	-0.005831 
2349.297888  	-0.003566 
2351.226704  	-0.004517 
2353.155520  	-0.007411 
2355.084336  	-0.009502 
2357.013152  	-0.011327 
2358.941968  	-0.012305 
2360.870784  	-0.013250 
2362.799600  	-0.012870 
2364.728416  	-0.012540 
2366.657232  	-0.011155 
2368.586048  	-0.009419 
2370.514864  	-0.007902 
2372.443680  	-0.006351 
2374.372496  	-0.004735 
2376.301312  	-0.003410 
2378.230128  	-0.002492 
2380.158944  	-0.002221 
2382.087760  	-0.002094 
2384.016576  	-0.002291 
2385.945392  	-0.002528 
2387.874208  	-0.002681 
2389.803024  	-0.002802 
2391.731840  	-0.003113 
2393.660656  	-0.003144 
2395.589472  	-0.003128 
2397.518288  	-0.003015 
2399.447104  	-0.003134 
2401.375920  	-0.003305 
2403.304736  	-0.003412 
2405.233552  	-0.003190 
2407.162368  	-0.003199 
2409.091184  	-0.003146 
2411.020000  	-0.003053 
2412.948816  	-0.003017 
2414.877632  	-0.002849 
2416.806448  	-0.002623 
2418.735264  	-0.002896 
2420.664080  	-0.003175 
2422.592896  	-0.003235 
2424.521712  	-0.003133 
2426.450528  	-0.003205 
2428.379344  	-0.003115 
2430.308160  	-0.002850 
2432.236976  	-0.002585 
2434.165792  	-0.002643 
2436.094608  	-0.002952 
2438.023424  	-0.002933 
2439.952240  	-0.002570 
2441.881056  	-0.002549 
2443.809872  	-0.002688 
2445.738688  	-0.002622 
2447.667504  	-0.002491 
2449.596320  	-0.002580 
2451.525136  	-0.002312 
2453.453952  	-0.002234 
2455.382768  	-0.002350 
2457.311584  	-0.002499 
2459.240400  	-0.002592 
2461.169216  	-0.002752 
2463.098032  	-0.002771 
2465.026848  	-0.002627 
2466.955664  	-0.002477 
2468.884480  	-0.002685 
2470.813296  	-0.002690 
2472.742112  	-0.002484 
2474.670928  	-0.002355 
2476.599744  	-0.002511 
2478.528560  	-0.002324 
2480.457376  	-0.002234 
2482.386192  	-0.002318 
2484.315008  	-0.002394 
2486.243824  	-0.002456 
2488.172640  	-0.002434 
2490.101456  	-0.002016 
2492.030272  	-0.001968 
2493.959088  	-0.001981 
2495.887904  	-0.001945 
2497.816720  	-0.001983 
2499.745536  	-0.001921 
2501.674352  	-0.001913 
2503.603168  	-0.001798 
2505.531984  	-0.001670 
2507.460800  	-0.001804 
2509.389616  	-0.001616 
2511.318432  	-0.001597 
2513.247248  	-0.001594 
2515.176064  	-0.001548 
2517.104880  	-0.001507 
2519.033696  	-0.001673 
2520.962512  	-0.001561 
2522.891328  	-0.001388 
2524.820144  	-0.001467 
2526.748960  	-0.001446 
2528.677776  	-0.001119 
2530.606592  	-0.001011 
2532.535408  	-0.001040 
2534.464224  	-0.001179 
2536.393040  	-0.001223 
2538.321856  	-0.000943 
2540.250672  	-0.000853 
2542.179488  	-0.000998 
2544.108304  	-0.000882 
2546.037120  	-0.000969 
2547.965936  	-0.001047 
2549.894752  	-0.000819 
2551.823568  	-0.000756 
2553.752384  	-0.000714 
2555.681200  	-0.000401 
2557.610016  	-0.000413 
2559.538832  	-0.000367 
2561.467648  	-0.000158 
2563.396464  	0.000033 
2565.325280  	0.000092 
2567.254096  	-0.000029 
2569.182912  	-0.000050 
2571.111728  	0.000101 
2573.040544  	0.000214 
2574.969360  	0.000350 
2576.898176  	0.000434 
2578.826992  	0.000279 
2580.755808  	0.000278 
2582.684624  	0.000446 
2584.613440  	0.000420 
2586.542256  	0.000445 
2588.471072  	0.000634 
2590.399888  	0.000842 
2592.328704  	0.000842 
2594.257520  	0.000828 
2596.186336  	0.000946 
2598.115152  	0.001177 
2600.043968  	0.001217 
2601.972784  	0.001293 
2603.901600  	0.001325 
2605.830416  	0.001498 
2607.759232  	0.001624 
2609.688048  	0.001594 
2611.616864  	0.001715 
2613.545680  	0.001943 
2615.474496  	0.002039 
2617.403312  	0.002232 
2619.332128  	0.002279 
2621.260944  	0.002138 
2623.189760  	0.002126 
2625.118576  	0.002310 
2627.047392  	0.002447 
2628.976208  	0.002687 
2630.905024  	0.002906 
2632.833840  	0.002894 
2634.762656  	0.002967 
2636.691472  	0.003012 
2638.620288  	0.003088 
2640.549104  	0.003301 
2642.477920  	0.003433 
2644.406736  	0.003667 
2646.335552  	0.003808 
2648.264368  	0.003852 
2650.193184  	0.003832 
2652.122000  	0.003923 
2654.050816  	0.004121 
2655.979632  	0.004331 
2657.908448  	0.004491 
2659.837264  	0.004620 
2661.766080  	0.004745 
2663.694896  	0.004822 
2665.623712  	0.004886 
2667.552528  	0.005048 
2669.481344  	0.005209 
2671.410160  	0.005268 
2673.338976  	0.005331 
2675.267792  	0.005557 
2677.196608  	0.005758 
2679.125424  	0.005830 
2681.054240  	0.005906 
2682.983056  	0.006116 
2684.911872  	0.006197 
2686.840688  	0.006330 
2688.769504  	0.006467 
2690.698320  	0.006528 
2692.627136  	0.006556 
2694.555952  	0.006674 
2696.484768  	0.006792 
2698.413584  	0.006864 
2700.342400  	0.006898 
2702.271216  	0.007084 
2704.200032  	0.007351 
2706.128848  	0.007425 
2708.057664  	0.007392 
2709.986480  	0.007532 
2711.915296  	0.007759 
2713.844112  	0.007984 
2715.772928  	0.008039 
2717.701744  	0.008091 
2719.630560  	0.008320 
2721.559376  	0.008497 
2723.488192  	0.008552 
2725.417008  	0.008714 
2727.345824  	0.008905 
2729.274640  	0.009018 
2731.203456  	0.009150 
2733.132272  	0.009264 
2735.061088  	0.009335 
2736.989904  	0.009509 
2738.918720  	0.009656 
2740.847536  	0.009727 
2742.776352  	0.009718 
2744.705168  	0.009834 
2746.633984  	0.009983 
2748.562800  	0.010065 
2750.491616  	0.010123 
2752.420432  	0.010266 
2754.349248  	0.010277 
2756.278064  	0.010290 
2758.206880  	0.010233 
2760.135696  	0.010131 
2762.064512  	0.010119 
2763.993328  	0.010167 
2765.922144  	0.010180 
2767.850960  	0.010247 
2769.779776  	0.010309 
2771.708592  	0.010317 
2773.637408  	0.010211 
2775.566224  	0.010136 
2777.495040  	0.010085 
2779.423856  	0.010207 
2781.352672  	0.010269 
2783.281488  	0.010234 
2785.210304  	0.010145 
2787.139120  	0.010145 
2789.067936  	0.010199 
2790.996752  	0.010174 
2792.925568  	0.010036 
2794.854384  	0.010077 
2796.783200  	0.010083 
2798.712016  	0.010032 
2800.640832  	0.010019 
2802.569648  	0.010104 
2804.498464  	0.010120 
2806.427280  	0.010082 
2808.356096  	0.010008 
2810.284912  	0.010030 
2812.213728  	0.010040 
2814.142544  	0.010068 
2816.071360  	0.010054 
2818.000176  	0.009892 
2819.928992  	0.009867 
2821.857808  	0.009868 
2823.786624  	0.009665 
2825.715440  	0.009572 
2827.644256  	0.009479 
2829.573072  	0.009340 
2831.501888  	0.008989 
2833.430704  	0.008591 
2835.359520  	0.008300 
2837.288336  	0.007986 
2839.217152  	0.007614 
2841.145968  	0.007252 
2843.074784  	0.006789 
2845.003600  	0.006306 
2846.932416  	0.005970 
2848.861232  	0.005615 
2850.790048  	0.005095 
2852.718864  	0.004636 
2854.647680  	0.004228 
2856.576496  	0.003605 
2858.505312  	0.002966 
2860.434128  	0.002447 
2862.362944  	0.001856 
2864.291760  	0.001132 
2866.220576  	0.000435 
2868.149392  	0.000093 
2870.078208  	-0.000125 
2872.007024  	-0.000252 
2873.935840  	-0.000229 
2875.864656  	-0.000120 
2877.793472  	-0.000102 
2879.722288  	-0.000276 
2881.651104  	-0.000657 
2883.579920  	-0.000873 
2885.508736  	-0.000667 
2887.437552  	-0.000388 
2889.366368  	-0.000296 
2891.295184  	-0.000476 
2893.224000  	-0.000692 
2895.152816  	-0.000663 
2897.081632  	-0.000889 
2899.010448  	-0.002679 
2900.939264  	-0.004286 
2902.868080  	-0.003007 
2904.796896  	-0.001608 
2906.725712  	-0.001099 
2908.654528  	-0.000509 
2910.583344  	-0.000056 
2912.512160  	0.000510 
2914.440976  	0.001615 
2916.369792  	0.002453 
2918.298608  	0.002959 
2920.227424  	0.003477 
2922.156240  	0.004288 
2924.085056  	0.005244 
2926.013872  	0.006175 
2927.942688  	0.007206 
2929.871504  	0.008202 
2931.800320  	0.009123 
2933.729136  	0.010052 
2935.657952  	0.010758 
2937.586768  	0.011579 
2939.515584  	0.012384 
2941.444400  	0.012613 
2943.373216  	0.012688 
2945.302032  	0.012996 
2947.230848  	0.013188 
2949.159664  	0.012977 
2951.088480  	0.012494 
2953.017296  	0.012017 
2954.946112  	0.011373 
2956.874928  	0.010507 
2958.803744  	0.009704 
2960.732560  	0.009192 
2962.661376  	0.008510 
2964.590192  	0.007471 
2966.519008  	0.006356 
2968.447824  	0.005365 
2970.376640  	0.004506 
2972.305456  	0.003997 
2974.234272  	0.004200 
2976.163088  	0.004525 
2978.091904  	0.004525 
2980.020720  	0.004454 
2981.949536  	0.004654 
2983.878352  	0.004592 
2985.807168  	0.003590 
2987.735984  	0.002518 
2989.664800  	0.003032 
2991.593616  	0.006276 
2993.522432  	0.008351 
2995.451248  	0.008888 
2997.380064  	0.009656 
2999.308880  	0.010890 
3001.237696  	0.012338 
3003.166512  	0.013834 
3005.095328  	0.015258 
3007.024144  	0.016705 
3008.952960  	0.018206 
3010.881776  	0.019789 
3012.810592  	0.021214 
3014.739408  	0.022583 
3016.668224  	0.023788 
3018.597040  	0.025136 
3020.525856  	0.026347 
3022.454672  	0.027389 
3024.383488  	0.028513 
3026.312304  	0.029623 
3028.241120  	0.030748 
3030.169936  	0.031800 
3032.098752  	0.032561 
3034.027568  	0.033432 
3035.956384  	0.034400 
3037.885200  	0.035289 
3039.814016  	0.035970 
3041.742832  	0.036636 
3043.671648  	0.037367 
3045.600464  	0.038167 
3047.529280  	0.038799 
3049.458096  	0.039379 
3051.386912  	0.040061 
3053.315728  	0.040719 
3055.244544  	0.041412 
3057.173360  	0.042152 
3059.102176  	0.042798 
3061.030992  	0.043472 
3062.959808  	0.044348 
3064.888624  	0.045100 
3066.817440  	0.045762 
3068.746256  	0.046753 
3070.675072  	0.047689 
3072.603888  	0.048425 
3074.532704  	0.049258 
3076.461520  	0.050121 
3078.390336  	0.050930 
3080.319152  	0.051779 
3082.247968  	0.052648 
3084.176784  	0.053377 
3086.105600  	0.054138 
3088.034416  	0.055069 
3089.963232  	0.056076 
3091.892048  	0.056748 
3093.820864  	0.057498 
3095.749680  	0.058428 
3097.678496  	0.059456 
3099.607312  	0.060383 
3101.536128  	0.061335 
3103.464944  	0.062335 
3105.393760  	0.063214 
3107.322576  	0.064032 
3109.251392  	0.064769 
3111.180208  	0.065432 
3113.109024  	0.066238 
3115.037840  	0.067076 
3116.966656  	0.067820 
3118.895472  	0.068443 
3120.824288  	0.069251 
3122.753104  	0.070118 
3124.681920  	0.070707 
3126.610736  	0.071277 
3128.539552  	0.072126 
3130.468368  	0.072995 
3132.397184  	0.073644 
3134.326000  	0.074270 
3136.254816  	0.074897 
3138.183632  	0.075588 
3140.112448  	0.076148 
3142.041264  	0.076751 
3143.970080  	0.077352 
3145.898896  	0.077953 
3147.827712  	0.078735 
3149.756528  	0.079440 
3151.685344  	0.079913 
3153.614160  	0.080560 
3155.542976  	0.081396 
3157.471792  	0.082123 
3159.400608  	0.082868 
3161.329424  	0.083663 
3163.258240  	0.084128 
3165.187056  	0.084555 
3167.115872  	0.085270 
3169.044688  	0.085908 
3170.973504  	0.086369 
3172.902320  	0.086929 
3174.831136  	0.087498 
3176.759952  	0.087956 
3178.688768  	0.088141 
3180.617584  	0.088525 
3182.546400  	0.088947 
3184.475216  	0.089103 
3186.404032  	0.089148 
3188.332848  	0.089388 
3190.261664  	0.089746 
3192.190480  	0.090058 
3194.119296  	0.090025 
3196.048112  	0.090166 
3197.976928  	0.090178 
3199.905744  	0.090056 
3201.834560  	0.089855 
3203.763376  	0.089803 
3205.692192  	0.089845 
3207.621008  	0.089669 
3209.549824  	0.089473 
3211.478640  	0.089504 
3213.407456  	0.089378 
3215.336272  	0.089195 
3217.265088  	0.089147 
3219.193904  	0.088919 
3221.122720  	0.088626 
3223.051536  	0.088546 
3224.980352  	0.088623 
3226.909168  	0.088398 
3228.837984  	0.088103 
3230.766800  	0.088104 
3232.695616  	0.088053 
3234.624432  	0.087949 
3236.553248  	0.087800 
3238.482064  	0.087741 
3240.410880  	0.087898 
3242.339696  	0.087968 
3244.268512  	0.087685 
3246.197328  	0.087874 
3248.126144  	0.088253 
3250.054960  	0.088338 
3251.983776  	0.088605 
3253.912592  	0.088926 
3255.841408  	0.089109 
3257.770224  	0.089360 
3259.699040  	0.089604 
3261.627856  	0.089953 
3263.556672  	0.090136 
3265.485488  	0.090191 
3267.414304  	0.090440 
3269.343120  	0.090994 
3271.271936  	0.091227 
3273.200752  	0.091141 
3275.129568  	0.091321 
3277.058384  	0.091736 
3278.987200  	0.091896 
3280.916016  	0.092061 
3282.844832  	0.092348 
3284.773648  	0.092659 
3286.702464  	0.092876 
3288.631280  	0.093007 
3290.560096  	0.093276 
3292.488912  	0.093859 
3294.417728  	0.094291 
3296.346544  	0.094578 
3298.275360  	0.094818 
3300.204176  	0.095124 
3302.132992  	0.095620 
3304.061808  	0.096120 
3305.990624  	0.096518 
3307.919440  	0.096794 
3309.848256  	0.097016 
3311.777072  	0.097310 
3313.705888  	0.097764 
3315.634704  	0.098368 
3317.563520  	0.098749 
3319.492336  	0.099000 
3321.421152  	0.099018 
3323.349968  	0.099172 
3325.278784  	0.099476 
3327.207600  	0.099810 
3329.136416  	0.099884 
3331.065232  	0.100015 
3332.994048  	0.100126 
3334.922864  	0.100199 
3336.851680  	0.100258 
3338.780496  	0.100083 
3340.709312  	0.099991 
3342.638128  	0.099885 
3344.566944  	0.099438 
3346.495760  	0.099046 
3348.424576  	0.098770 
3350.353392  	0.098569 
3352.282208  	0.098387 
3354.211024  	0.098002 
3356.139840  	0.097686 
3358.068656  	0.097582 
3359.997472  	0.097267 
3361.926288  	0.096611 
3363.855104  	0.096223 
3365.783920  	0.095830 
3367.712736  	0.095269 
3369.641552  	0.094978 
3371.570368  	0.094617 
3373.499184  	0.094174 
3375.428000  	0.093749 
3377.356816  	0.093337 
3379.285632  	0.093117 
3381.214448  	0.092821 
3383.143264  	0.092257 
3385.072080  	0.091687 
3387.000896  	0.091189 
3388.929712  	0.090845 
3390.858528  	0.090500 
3392.787344  	0.090086 
3394.716160  	0.089679 
3396.644976  	0.089192 
3398.573792  	0.088674 
3400.502608  	0.088271 
3402.431424  	0.087712 
3404.360240  	0.087112 
3406.289056  	0.086577 
3408.217872  	0.086090 
3410.146688  	0.085587 
3412.075504  	0.085224 
3414.004320  	0.084726 
3415.933136  	0.084137 
3417.861952  	0.083467 
3419.790768  	0.083061 
3421.719584  	0.082552 
3423.648400  	0.082158 
3425.577216  	0.081613 
3427.506032  	0.080913 
3429.434848  	0.080402 
3431.363664  	0.079834 
3433.292480  	0.078961 
3435.221296  	0.078257 
3437.150112  	0.077614 
3439.078928  	0.077113 
3441.007744  	0.076641 
3442.936560  	0.076064 
3444.865376  	0.075650 
3446.794192  	0.074738 
3448.723008  	0.073537 
3450.651824  	0.072993 
3452.580640  	0.072433 
3454.509456  	0.071812 
3456.438272  	0.071003 
3458.367088  	0.070227 
3460.295904  	0.069606 
3462.224720  	0.068703 
3464.153536  	0.067728 
3466.082352  	0.067056 
3468.011168  	0.066152 
3469.939984  	0.065401 
3471.868800  	0.064718 
3473.797616  	0.063965 
3475.726432  	0.062965 
3477.655248  	0.062112 
3479.584064  	0.061535 
3481.512880  	0.060577 
3483.441696  	0.059393 
3485.370512  	0.058715 
3487.299328  	0.057791 
3489.228144  	0.056995 
3491.156960  	0.056237 
3493.085776  	0.055286 
3495.014592  	0.054440 
3496.943408  	0.053698 
3498.872224  	0.053067 
3500.801040  	0.052627 
3502.729856  	0.051753 
3504.658672  	0.050589 
3506.587488  	0.050262 
3508.516304  	0.049762 
3510.445120  	0.048675 
3512.373936  	0.047769 
3514.302752  	0.047156 
3516.231568  	0.046924 
3518.160384  	0.046349 
3520.089200  	0.045553 
3522.018016  	0.045084 
3523.946832  	0.044420 
3525.875648  	0.043588 
3527.804464  	0.042605 
3529.733280  	0.041947 
3531.662096  	0.041436 
3533.590912  	0.040867 
3535.519728  	0.040390 
3537.448544  	0.039679 
3539.377360  	0.038790 
3541.306176  	0.038192 
3543.234992  	0.037946 
3545.163808  	0.037474 
3547.092624  	0.036362 
3549.021440  	0.035269 
3550.950256  	0.034859 
3552.879072  	0.033920 
3554.807888  	0.033059 
3556.736704  	0.032656 
3558.665520  	0.032420 
3560.594336  	0.031852 
3562.523152  	0.031112 
3564.451968  	0.030950 
3566.380784  	0.030293 
3568.309600  	0.028093 
3570.238416  	0.027638 
3572.167232  	0.027541 
3574.096048  	0.026656 
3576.024864  	0.025639 
3577.953680  	0.024906 
3579.882496  	0.024001 
3581.811312  	0.023576 
3583.740128  	0.023394 
3585.668944  	0.023172 
3587.597760  	0.021210 
3589.526576  	0.019617 
3591.455392  	0.019717 
3593.384208  	0.019330 
3595.313024  	0.018105 
3597.241840  	0.016880 
3599.170656  	0.015596 
3601.099472  	0.014461 
3603.028288  	0.014226 
3604.957104  	0.014172 
3606.885920  	0.013442 
3608.814736  	0.011938 
3610.743552  	0.011507 
3612.672368  	0.010292 
3614.601184  	0.008914 
3616.530000  	0.009001 
3618.458816  	0.007035 
3620.387632  	0.004957 
3622.316448  	0.005139 
3624.245264  	0.005144 
3626.174080  	0.005013 
3628.102896  	0.002458 
3630.031712  	-0.001356 
3631.960528  	0.000433 
3633.889344  	0.000056 
3635.818160  	-0.000994 
3637.746976  	-0.001795 
3639.675792  	-0.002266 
3641.604608  	-0.002827 
3643.533424  	-0.003297 
3645.462240  	-0.003636 
3647.391056  	-0.006111 
3649.319872  	-0.010505 
3651.248688  	-0.012521 
3653.177504  	-0.009975 
3655.106320  	-0.010178 
3657.035136  	-0.012926 
3658.963952  	-0.012926 
3660.892768  	-0.012960 
3662.821584  	-0.013332 
3664.750400  	-0.013204 
3666.679216  	-0.012915 
3668.608032  	-0.014587 
3670.536848  	-0.018043 
3672.465664  	-0.016032 
3674.394480  	-0.016505 
3676.323296  	-0.021112 
3678.252112  	-0.017698 
3680.180928  	-0.016154 
3682.109744  	-0.015840 
3684.038560  	-0.015911 
3685.967376  	-0.015605 
3687.896192  	-0.017646 
3689.825008  	-0.020316 
3691.753824  	-0.019443 
3693.682640  	-0.017368 
3695.611456  	-0.016303 
3697.540272  	-0.015518 
3699.469088  	-0.014600 
3701.397904  	-0.015319 
3703.326720  	-0.015310 
3705.255536  	-0.013961 
3707.184352  	-0.013489 
3709.113168  	-0.014339 
3711.041984  	-0.016331 
3712.970800  	-0.016203 
3714.899616  	-0.013819 
3716.828432  	-0.012650 
3718.757248  	-0.012865 
3720.686064  	-0.013265 
3722.614880  	-0.013646 
3724.543696  	-0.013163 
3726.472512  	-0.013491 
3728.401328  	-0.013284 
3730.330144  	-0.013222 
3732.258960  	-0.014776 
3734.187776  	-0.014725 
3736.116592  	-0.016082 
3738.045408  	-0.015507 
3739.974224  	-0.013516 
3741.903040  	-0.012085 
3743.831856  	-0.014271 
3745.760672  	-0.016585 
3747.689488  	-0.013935 
3749.618304  	-0.015883 
3751.547120  	-0.018167 
3753.475936  	-0.016667 
3755.404752  	-0.014256 
3757.333568  	-0.014038 
3759.262384  	-0.014763 
3761.191200  	-0.014545 
3763.120016  	-0.012852 
3765.048832  	-0.013497 
3766.977648  	-0.013654 
3768.906464  	-0.014106 
3770.835280  	-0.014981 
3772.764096  	-0.013596 
3774.692912  	-0.012794 
3776.621728  	-0.012504 
3778.550544  	-0.013451 
3780.479360  	-0.014775 
3782.408176  	-0.013440 
3784.336992  	-0.013462 
3786.265808  	-0.013594 
3788.194624  	-0.013280 
3790.123440  	-0.013283 
3792.052256  	-0.013306 
3793.981072  	-0.012983 
3795.909888  	-0.014180 
3797.838704  	-0.014271 
3799.767520  	-0.013746 
3801.696336  	-0.017286 
3803.625152  	-0.015865 
3805.553968  	-0.014312 
3807.482784  	-0.016247 
3809.411600  	-0.014634 
3811.340416  	-0.013273 
3813.269232  	-0.012491 
3815.198048  	-0.014433 
3817.126864  	-0.016146 
3819.055680  	-0.014272 
3820.984496  	-0.016985 
3822.913312  	-0.016575 
3824.842128  	-0.013918 
3826.770944  	-0.014361 
3828.699760  	-0.013811 
3830.628576  	-0.013626 
3832.557392  	-0.014428 
3834.486208  	-0.014269 
3836.415024  	-0.014732 
3838.343840  	-0.016291 
3840.272656  	-0.016142 
3842.201472  	-0.014763 
3844.130288  	-0.014653 
3846.059104  	-0.013776 
3847.987920  	-0.012699 
3849.916736  	-0.012283 
3851.845552  	-0.013690 
3853.774368  	-0.019618 
3855.703184  	-0.017667 
3857.632000  	-0.014641 
3859.560816  	-0.013123 
3861.489632  	-0.013040 
3863.418448  	-0.013943 
3865.347264  	-0.014771 
3867.276080  	-0.013205 
3869.204896  	-0.014255 
3871.133712  	-0.015262 
3873.062528  	-0.014018 
3874.991344  	-0.014818 
3876.920160  	-0.013139 
3878.848976  	-0.012497 
3880.777792  	-0.013933 
3882.706608  	-0.013124 
3884.635424  	-0.013179 
3886.564240  	-0.014942 
3888.493056  	-0.013453 
3890.421872  	-0.013696 
3892.350688  	-0.015115 
3894.279504  	-0.014030 
3896.208320  	-0.012680 
3898.137136  	-0.012501 
3900.065952  	-0.013207 
3901.994768  	-0.013184 
3903.923584  	-0.014085 
3905.852400  	-0.014622 
3907.781216  	-0.013804 
3909.710032  	-0.013403 
3911.638848  	-0.013417 
3913.567664  	-0.013026 
3915.496480  	-0.012631 
3917.425296  	-0.013238 
3919.354112  	-0.013619 
3921.282928  	-0.013355 
3923.211744  	-0.012892 
3925.140560  	-0.013194 
3927.069376  	-0.013100 
3928.998192  	-0.012843 
3930.927008  	-0.012821 
3932.855824  	-0.013237 
3934.784640  	-0.013279 
3936.713456  	-0.013083 
3938.642272  	-0.012950 
3940.571088  	-0.012556 
3942.499904  	-0.012765 
3944.428720  	-0.012967 
3946.357536  	-0.012449 
3948.286352  	-0.012581 
3950.215168  	-0.013082 
3952.143984  	-0.013331 
3954.072800  	-0.013292 
3956.001616  	-0.013084 
3957.930432  	-0.013082 
3959.859248  	-0.013173 
3961.788064  	-0.013298 
3963.716880  	-0.013513 
3965.645696  	-0.013617 
3967.574512  	-0.013396 
3969.503328  	-0.013193 
3971.432144  	-0.013293 
3973.360960  	-0.013296 
3975.289776  	-0.013302 
3977.218592  	-0.013315 
3979.147408  	-0.013318 
3981.076224  	-0.013387 
3983.005040  	-0.013320 
3984.933856  	-0.013253 
3986.862672  	-0.013262 
3988.791488  	-0.013111 
3990.720304  	-0.013094 
3992.649120  	-0.013177 
3994.577936  	-0.013170 
3996.506752  	-0.013167 
3998.435568  	-0.013291 
4000.364384  	-0.013299 