##TITLE=No Description
##DATA TYPE=INFRARED SPECTRUM
##XUNITS=1/CM
##YUNITS=Abs
399.264912  	0.423972 
401.193728  	0.406730 
403.122544  	0.397623 
405.051360  	0.390019 
406.980176  	0.391439 
408.908992  	0.385928 
410.837808  	0.385224 
412.766624  	0.385893 
414.695440  	0.385242 
416.624256  	0.376445 
418.553072  	0.376978 
420.481888  	0.377444 
422.410704  	0.379377 
424.339520  	0.375151 
426.268336  	0.362635 
428.197152  	0.358044 
430.125968  	0.360028 
432.054784  	0.356372 
433.983600  	0.356181 
435.912416  	0.360429 
437.841232  	0.356081 
439.770048  	0.344742 
441.698864  	0.345885 
443.627680  	0.349919 
445.556496  	0.348843 
447.485312  	0.342693 
449.414128  	0.339486 
451.342944  	0.339272 
453.271760  	0.338609 
455.200576  	0.333279 
457.129392  	0.337874 
459.058208  	0.338489 
460.987024  	0.335891 
462.915840  	0.332252 
464.844656  	0.330146 
466.773472  	0.328965 
468.702288  	0.327086 
470.631104  	0.325864 
472.559920  	0.332280 
474.488736  	0.327953 
476.417552  	0.324640 
478.346368  	0.321413 
480.275184  	0.319525 
482.204000  	0.319029 
484.132816  	0.320919 
486.061632  	0.321958 
487.990448  	0.321641 
489.919264  	0.321405 
491.848080  	0.319452 
493.776896  	0.315416 
495.705712  	0.312885 
497.634528  	0.310028 
499.563344  	0.311190 
501.492160  	0.311996 
503.420976  	0.313016 
505.349792  	0.310258 
507.278608  	0.309384 
509.207424  	0.307447 
511.136240  	0.307157 
513.065056  	0.306822 
514.993872  	0.311143 
516.922688  	0.314163 
518.851504  	0.313927 
520.780320  	0.309592 
522.709136  	0.307037 
524.637952  	0.306197 
526.566768  	0.306551 
528.495584  	0.304043 
530.424400  	0.302670 
532.353216  	0.299800 
534.282032  	0.297093 
536.210848  	0.294385 
538.139664  	0.290401 
540.068480  	0.287858 
541.997296  	0.286743 
543.926112  	0.284308 
545.854928  	0.283470 
547.783744  	0.282227 
549.712560  	0.280291 
551.641376  	0.276766 
553.570192  	0.275509 
555.499008  	0.273196 
557.427824  	0.271457 
559.356640  	0.269004 
561.285456  	0.268488 
563.214272  	0.266692 
565.143088  	0.264375 
567.071904  	0.262499 
569.000720  	0.261472 
570.929536  	0.258950 
572.858352  	0.256770 
574.787168  	0.255392 
576.715984  	0.254491 
578.644800  	0.251860 
580.573616  	0.249115 
582.502432  	0.245868 
584.431248  	0.243660 
586.360064  	0.240980 
588.288880  	0.239018 
590.217696  	0.237677 
592.146512  	0.237542 
594.075328  	0.235308 
596.004144  	0.233366 
597.932960  	0.231887 
599.861776  	0.231481 
601.790592  	0.229584 
603.719408  	0.228051 
605.648224  	0.227152 
607.577040  	0.226222 
609.505856  	0.224625 
611.434672  	0.223632 
613.363488  	0.222735 
615.292304  	0.222569 
617.221120  	0.221525 
619.149936  	0.220364 
621.078752  	0.218879 
623.007568  	0.217701 
624.936384  	0.216749 
626.865200  	0.215989 
628.794016  	0.215093 
630.722832  	0.214211 
632.651648  	0.214012 
634.580464  	0.213698 
636.509280  	0.213142 
638.438096  	0.212454 
640.366912  	0.211468 
642.295728  	0.210375 
644.224544  	0.208936 
646.153360  	0.207228 
648.082176  	0.204797 
650.010992  	0.203035 
651.939808  	0.201075 
653.868624  	0.199209 
655.797440  	0.196249 
657.726256  	0.193758 
659.655072  	0.191784 
661.583888  	0.189511 
663.512704  	0.187210 
665.441520  	0.184416 
667.370336  	0.182968 
669.299152  	0.183478 
671.227968  	0.178988 
673.156784  	0.175330 
675.085600  	0.173573 
677.014416  	0.172013 
678.943232  	0.170324 
680.872048  	0.169265 
682.800864  	0.168641 
684.729680  	0.167956 
686.658496  	0.166614 
688.587312  	0.165751 
690.516128  	0.164882 
692.444944  	0.164039 
694.373760  	0.162763 
696.302576  	0.161548 
698.231392  	0.160056 
700.160208  	0.158486 
702.089024  	0.156629 
704.017840  	0.155034 
705.946656  	0.153419 
707.875472  	0.151415 
709.804288  	0.149797 
711.733104  	0.148774 
713.661920  	0.147712 
715.590736  	0.146383 
717.519552  	0.145696 
719.448368  	0.145875 
721.377184  	0.146088 
723.306000  	0.145765 
725.234816  	0.145560 
727.163632  	0.144810 
729.092448  	0.143194 
731.021264  	0.141223 
732.950080  	0.139444 
734.878896  	0.137610 
736.807712  	0.135588 
738.736528  	0.133916 
740.665344  	0.132982 
742.594160  	0.132484 
744.522976  	0.131183 
746.451792  	0.129749 
748.380608  	0.128414 
750.309424  	0.127605 
752.238240  	0.126850 
754.167056  	0.126097 
756.095872  	0.125152 
758.024688  	0.124202 
759.953504  	0.123411 
761.882320  	0.123358 
763.811136  	0.123615 
765.739952  	0.122660 
767.668768  	0.120878 
769.597584  	0.119218 
771.526400  	0.118268 
773.455216  	0.118435 
775.384032  	0.119595 
777.312848  	0.122052 
779.241664  	0.124050 
781.170480  	0.123446 
783.099296  	0.120771 
785.028112  	0.117548 
786.956928  	0.114289 
788.885744  	0.111735 
790.814560  	0.109770 
792.743376  	0.108792 
794.672192  	0.108188 
796.601008  	0.107376 
798.529824  	0.105502 
800.458640  	0.102776 
802.387456  	0.100644 
804.316272  	0.099332 
806.245088  	0.098502 
808.173904  	0.097583 
810.102720  	0.096803 
812.031536  	0.096299 
813.960352  	0.095838 
815.889168  	0.095488 
817.817984  	0.095225 
819.746800  	0.095300 
821.675616  	0.095389 
823.604432  	0.095154 
825.533248  	0.095005 
827.462064  	0.095112 
829.390880  	0.094491 
831.319696  	0.093695 
833.248512  	0.092960 
835.177328  	0.092191 
837.106144  	0.090702 
839.034960  	0.089036 
840.963776  	0.086819 
842.892592  	0.084511 
844.821408  	0.082382 
846.750224  	0.080741 
848.679040  	0.078953 
850.607856  	0.077275 
852.536672  	0.076369 
854.465488  	0.075600 
856.394304  	0.074829 
858.323120  	0.073793 
860.251936  	0.072774 
862.180752  	0.071718 
864.109568  	0.070200 
866.038384  	0.068635 
867.967200  	0.067025 
869.896016  	0.065754 
871.824832  	0.064887 
873.753648  	0.064787 
875.682464  	0.064882 
877.611280  	0.065339 
879.540096  	0.066180 
881.468912  	0.067233 
883.397728  	0.068283 
885.326544  	0.069102 
887.255360  	0.069817 
889.184176  	0.070034 
891.112992  	0.069600 
893.041808  	0.068620 
894.970624  	0.067385 
896.899440  	0.065574 
898.828256  	0.063306 
900.757072  	0.061000 
902.685888  	0.058947 
904.614704  	0.057560 
906.543520  	0.057109 
908.472336  	0.057699 
910.401152  	0.058683 
912.329968  	0.060008 
914.258784  	0.061237 
916.187600  	0.062398 
918.116416  	0.063216 
920.045232  	0.063928 
921.974048  	0.064353 
923.902864  	0.064630 
925.831680  	0.064886 
927.760496  	0.065135 
929.689312  	0.065454 
931.618128  	0.065993 
933.546944  	0.066397 
935.475760  	0.066494 
937.404576  	0.066410 
939.333392  	0.066012 
941.262208  	0.065828 
943.191024  	0.066220 
945.119840  	0.067492 
947.048656  	0.069755 
948.977472  	0.073250 
950.906288  	0.077674 
952.835104  	0.082952 
954.763920  	0.089187 
956.692736  	0.095371 
958.621552  	0.101086 
960.550368  	0.105221 
962.479184  	0.107827 
964.408000  	0.108478 
966.336816  	0.106908 
968.265632  	0.103150 
970.194448  	0.097885 
972.123264  	0.091313 
974.052080  	0.084076 
975.980896  	0.076706 
977.909712  	0.069660 
979.838528  	0.063526 
981.767344  	0.058356 
983.696160  	0.054411 
985.624976  	0.051730 
987.553792  	0.050722 
989.482608  	0.051034 
991.411424  	0.052602 
993.340240  	0.055356 
995.269056  	0.058471 
997.197872  	0.061962 
999.126688  	0.065348 
1001.055504  	0.068905 
1002.984320  	0.072257 
1004.913136  	0.075535 
1006.841952  	0.078706 
1008.770768  	0.081669 
1010.699584  	0.083988 
1012.628400  	0.086035 
1014.557216  	0.087806 
1016.486032  	0.088746 
1018.414848  	0.089167 
1020.343664  	0.089195 
1022.272480  	0.089273 
1024.201296  	0.089261 
1026.130112  	0.089049 
1028.058928  	0.089362 
1029.987744  	0.090428 
1031.916560  	0.091460 
1033.845376  	0.092628 
1035.774192  	0.094435 
1037.703008  	0.096918 
1039.631824  	0.100726 
1041.560640  	0.105983 
1043.489456  	0.112632 
1045.418272  	0.119972 
1047.347088  	0.127794 
1049.275904  	0.133841 
1051.204720  	0.137586 
1053.133536  	0.139199 
1055.062352  	0.139042 
1056.991168  	0.137884 
1058.919984  	0.136993 
1060.848800  	0.136471 
1062.777616  	0.135792 
1064.706432  	0.134436 
1066.635248  	0.133040 
1068.564064  	0.131625 
1070.492880  	0.129164 
1072.421696  	0.126384 
1074.350512  	0.124463 
1076.279328  	0.123944 
1078.208144  	0.125555 
1080.136960  	0.128186 
1082.065776  	0.130592 
1083.994592  	0.131221 
1085.923408  	0.130071 
1087.852224  	0.126955 
1089.781040  	0.122899 
1091.709856  	0.117634 
1093.638672  	0.111616 
1095.567488  	0.104668 
1097.496304  	0.097479 
1099.425120  	0.090453 
1101.353936  	0.083554 
1103.282752  	0.077031 
1105.211568  	0.070664 
1107.140384  	0.065004 
1109.069200  	0.059952 
1110.998016  	0.055216 
1112.926832  	0.050947 
1114.855648  	0.047351 
1116.784464  	0.043642 
1118.713280  	0.040046 
1120.642096  	0.036814 
1122.570912  	0.033767 
1124.499728  	0.030890 
1126.428544  	0.028343 
1128.357360  	0.026063 
1130.286176  	0.024097 
1132.214992  	0.022589 
1134.143808  	0.021622 
1136.072624  	0.020780 
1138.001440  	0.019797 
1139.930256  	0.018977 
1141.859072  	0.018297 
1143.787888  	0.017512 
1145.716704  	0.016794 
1147.645520  	0.016014 
1149.574336  	0.015658 
1151.503152  	0.015229 
1153.431968  	0.014899 
1155.360784  	0.014891 
1157.289600  	0.015442 
1159.218416  	0.016022 
1161.147232  	0.016669 
1163.076048  	0.017486 
1165.004864  	0.018277 
1166.933680  	0.019120 
1168.862496  	0.020046 
1170.791312  	0.021177 
1172.720128  	0.022500 
1174.648944  	0.023777 
1176.577760  	0.024891 
1178.506576  	0.026383 
1180.435392  	0.028120 
1182.364208  	0.029722 
1184.293024  	0.031508 
1186.221840  	0.033667 
1188.150656  	0.036038 
1190.079472  	0.038550 
1192.008288  	0.041512 
1193.937104  	0.044911 
1195.865920  	0.048722 
1197.794736  	0.052739 
1199.723552  	0.057312 
1201.652368  	0.061768 
1203.581184  	0.066007 
1205.510000  	0.070094 
1207.438816  	0.073777 
1209.367632  	0.077036 
1211.296448  	0.079700 
1213.225264  	0.081817 
1215.154080  	0.082979 
1217.082896  	0.083691 
1219.011712  	0.083844 
1220.940528  	0.083784 
1222.869344  	0.083344 
1224.798160  	0.082772 
1226.726976  	0.081659 
1228.655792  	0.080028 
1230.584608  	0.078148 
1232.513424  	0.075930 
1234.442240  	0.073635 
1236.371056  	0.071287 
1238.299872  	0.068579 
1240.228688  	0.065119 
1242.157504  	0.061793 
1244.086320  	0.058818 
1246.015136  	0.055565 
1247.943952  	0.052416 
1249.872768  	0.049162 
1251.801584  	0.046073 
1253.730400  	0.043320 
1255.659216  	0.040513 
1257.588032  	0.037741 
1259.516848  	0.035418 
1261.445664  	0.033000 
1263.374480  	0.030548 
1265.303296  	0.028687 
1267.232112  	0.027342 
1269.160928  	0.026541 
1271.089744  	0.025923 
1273.018560  	0.025262 
1274.947376  	0.024938 
1276.876192  	0.025175 
1278.805008  	0.025456 
1280.733824  	0.025383 
1282.662640  	0.024543 
1284.591456  	0.023646 
1286.520272  	0.023139 
1288.449088  	0.022925 
1290.377904  	0.022540 
1292.306720  	0.022743 
1294.235536  	0.023084 
1296.164352  	0.023160 
1298.093168  	0.022284 
1300.021984  	0.020981 
1301.950800  	0.019571 
1303.879616  	0.018142 
1305.808432  	0.016667 
1307.737248  	0.015251 
1309.666064  	0.013678 
1311.594880  	0.013267 
1313.523696  	0.013048 
1315.452512  	0.012278 
1317.381328  	0.012444 
1319.310144  	0.012630 
1321.238960  	0.011883 
1323.167776  	0.011560 
1325.096592  	0.011628 
1327.025408  	0.011679 
1328.954224  	0.011627 
1330.883040  	0.011299 
1332.811856  	0.010537 
1334.740672  	0.010469 
1336.669488  	0.012096 
1338.598304  	0.014948 
1340.527120  	0.014086 
1342.455936  	0.010018 
1344.384752  	0.008904 
1346.313568  	0.009165 
1348.242384  	0.009682 
1350.171200  	0.010200 
1352.100016  	0.010847 
1354.028832  	0.012213 
1355.957648  	0.013404 
1357.886464  	0.014246 
1359.815280  	0.016115 
1361.744096  	0.019850 
1363.672912  	0.020664 
1365.601728  	0.018461 
1367.530544  	0.019226 
1369.459360  	0.020404 
1371.388176  	0.020457 
1373.316992  	0.022217 
1375.245808  	0.021911 
1377.174624  	0.019081 
1379.103440  	0.017527 
1381.032256  	0.015500 
1382.961072  	0.013769 
1384.889888  	0.013733 
1386.818704  	0.015805 
1388.747520  	0.014145 
1390.676336  	0.011265 
1392.605152  	0.010919 
1394.533968  	0.013422 
1396.462784  	0.014500 
1398.391600  	0.013881 
1400.320416  	0.011683 
1402.249232  	0.009883 
1404.178048  	0.011522 
1406.106864  	0.011818 
1408.035680  	0.011150 
1409.964496  	0.012378 
1411.893312  	0.013602 
1413.822128  	0.014240 
1415.750944  	0.017223 
1417.679760  	0.021480 
1419.608576  	0.022060 
1421.537392  	0.018774 
1423.466208  	0.018797 
1425.395024  	0.017302 
1427.323840  	0.015136 
1429.252656  	0.015464 
1431.181472  	0.014762 
1433.110288  	0.013789 
1435.039104  	0.014946 
1436.967920  	0.016965 
1438.896736  	0.014606 
1440.825552  	0.013519 
1442.754368  	0.013617 
1444.683184  	0.013822 
1446.612000  	0.015268 
1448.540816  	0.016153 
1450.469632  	0.015294 
1452.398448  	0.015925 
1454.327264  	0.017734 
1456.256080  	0.023181 
1458.184896  	0.024585 
1460.113712  	0.018045 
1462.042528  	0.014711 
1463.971344  	0.015723 
1465.900160  	0.016561 
1467.828976  	0.015194 
1469.757792  	0.015853 
1471.686608  	0.021677 
1473.615424  	0.027664 
1475.544240  	0.027093 
1477.473056  	0.026492 
1479.401872  	0.026179 
1481.330688  	0.028273 
1483.259504  	0.028828 
1485.188320  	0.029945 
1487.117136  	0.033361 
1489.045952  	0.037766 
1490.974768  	0.035528 
1492.903584  	0.029237 
1494.832400  	0.027130 
1496.761216  	0.027826 
1498.690032  	0.025292 
1500.618848  	0.021643 
1502.547664  	0.018419 
1504.476480  	0.017555 
1506.405296  	0.026095 
1508.334112  	0.029062 
1510.262928  	0.020968 
1512.191744  	0.016098 
1514.120560  	0.015284 
1516.049376  	0.019050 
1517.978192  	0.019684 
1519.907008  	0.019795 
1521.835824  	0.024569 
1523.764640  	0.022963 
1525.693456  	0.023957 
1527.622272  	0.024006 
1529.551088  	0.021244 
1531.479904  	0.020739 
1533.408720  	0.022816 
1535.337536  	0.019635 
1537.266352  	0.017554 
1539.195168  	0.021253 
1541.123984  	0.024397 
1543.052800  	0.021917 
1544.981616  	0.018760 
1546.910432  	0.012744 
1548.839248  	0.012696 
1550.768064  	0.013835 
1552.696880  	0.012325 
1554.625696  	0.014257 
1556.554512  	0.015186 
1558.483328  	0.021698 
1560.412144  	0.020238 
1562.340960  	0.015229 
1564.269776  	0.015384 
1566.198592  	0.016863 
1568.127408  	0.018662 
1570.056224  	0.023393 
1571.985040  	0.022913 
1573.913856  	0.023173 
1575.842672  	0.027470 
1577.771488  	0.029297 
1579.700304  	0.025866 
1581.629120  	0.024649 
1583.557936  	0.024219 
1585.486752  	0.024543 
1587.415568  	0.025426 
1589.344384  	0.027656 
1591.273200  	0.029991 
1593.202016  	0.033021 
1595.130832  	0.036411 
1597.059648  	0.039038 
1598.988464  	0.040987 
1600.917280  	0.043787 
1602.846096  	0.046236 
1604.774912  	0.047460 
1606.703728  	0.048022 
1608.632544  	0.048936 
1610.561360  	0.047949 
1612.490176  	0.046408 
1614.418992  	0.045022 
1616.347808  	0.048053 
1618.276624  	0.050087 
1620.205440  	0.048470 
1622.134256  	0.050170 
1624.063072  	0.055164 
1625.991888  	0.055494 
1627.920704  	0.058870 
1629.849520  	0.061720 
1631.778336  	0.062667 
1633.707152  	0.064315 
1635.635968  	0.074852 
1637.564784  	0.080940 
1639.493600  	0.077872 
1641.422416  	0.077728 
1643.351232  	0.077496 
1645.280048  	0.078774 
1647.208864  	0.088519 
1649.137680  	0.085470 
1651.066496  	0.077726 
1652.995312  	0.084946 
1654.924128  	0.090763 
1656.852944  	0.081341 
1658.781760  	0.077015 
1660.710576  	0.075358 
1662.639392  	0.076674 
1664.568208  	0.074712 
1666.497024  	0.070414 
1668.425840  	0.070568 
1670.354656  	0.072557 
1672.283472  	0.068395 
1674.212288  	0.065020 
1676.141104  	0.065705 
1678.069920  	0.062619 
1679.998736  	0.063047 
1681.927552  	0.062137 
1683.856368  	0.065920 
1685.785184  	0.066910 
1687.714000  	0.061865 
1689.642816  	0.060791 
1691.571632  	0.057986 
1693.500448  	0.055209 
1695.429264  	0.058329 
1697.358080  	0.062225 
1699.286896  	0.059278 
1701.215712  	0.062050 
1703.144528  	0.057074 
1705.073344  	0.055527 
1707.002160  	0.053702 
1708.930976  	0.049543 
1710.859792  	0.046598 
1712.788608  	0.044556 
1714.717424  	0.044464 
1716.646240  	0.043484 
1718.575056  	0.037079 
1720.503872  	0.028148 
1722.432688  	0.022866 
1724.361504  	0.018256 
1726.290320  	0.013483 
1728.219136  	0.011440 
1730.147952  	0.011436 
1732.076768  	0.010419 
1734.005584  	0.009865 
1735.934400  	0.004732 
1737.863216  	0.002406 
1739.792032  	0.001543 
1741.720848  	0.000536 
1743.649664  	0.001189 
1745.578480  	0.000499 
1747.507296  	0.001305 
1749.436112  	0.002313 
1751.364928  	0.000091 
1753.293744  	-0.004110 
1755.222560  	-0.005073 
1757.151376  	-0.003870 
1759.080192  	-0.004796 
1761.009008  	-0.004520 
1762.937824  	-0.005403 
1764.866640  	-0.006986 
1766.795456  	-0.005875 
1768.724272  	-0.004526 
1770.653088  	-0.004232 
1772.581904  	-0.003515 
1774.510720  	-0.005185 
1776.439536  	-0.006515 
1778.368352  	-0.007096 
1780.297168  	-0.006479 
1782.225984  	-0.007555 
1784.154800  	-0.007707 
1786.083616  	-0.008382 
1788.012432  	-0.008871 
1789.941248  	-0.006754 
1791.870064  	-0.004504 
1793.798880  	-0.006260 
1795.727696  	-0.007085 
1797.656512  	-0.007954 
1799.585328  	-0.007564 
1801.514144  	-0.006595 
1803.442960  	-0.008162 
1805.371776  	-0.009439 
1807.300592  	-0.009241 
1809.229408  	-0.008831 
1811.158224  	-0.008391 
1813.087040  	-0.009540 
1815.015856  	-0.010542 
1816.944672  	-0.009963 
1818.873488  	-0.009997 
1820.802304  	-0.010142 
1822.731120  	-0.009404 
1824.659936  	-0.008369 
1826.588752  	-0.008693 
1828.517568  	-0.008146 
1830.446384  	-0.007916 
1832.375200  	-0.010007 
1834.304016  	-0.010394 
1836.232832  	-0.010058 
1838.161648  	-0.010139 
1840.090464  	-0.010593 
1842.019280  	-0.009277 
1843.948096  	-0.007575 
1845.876912  	-0.007961 
1847.805728  	-0.009209 
1849.734544  	-0.010655 
1851.663360  	-0.011450 
1853.592176  	-0.011181 
1855.520992  	-0.011101 
1857.449808  	-0.010838 
1859.378624  	-0.011100 
1861.307440  	-0.011177 
1863.236256  	-0.011300 
1865.165072  	-0.010555 
1867.093888  	-0.008401 
1869.022704  	-0.006987 
1870.951520  	-0.009238 
1872.880336  	-0.011027 
1874.809152  	-0.011724 
1876.737968  	-0.011934 
1878.666784  	-0.011953 
1880.595600  	-0.012112 
1882.524416  	-0.011972 
1884.453232  	-0.011410 
1886.382048  	-0.011507 
1888.310864  	-0.010398 
1890.239680  	-0.010137 
1892.168496  	-0.011113 
1894.097312  	-0.010838 
1896.026128  	-0.010983 
1897.954944  	-0.011911 
1899.883760  	-0.011942 
1901.812576  	-0.011808 
1903.741392  	-0.011649 
1905.670208  	-0.012036 
1907.599024  	-0.011823 
1909.527840  	-0.011175 
1911.456656  	-0.011166 
1913.385472  	-0.011405 
1915.314288  	-0.011100 
1917.243104  	-0.010443 
1919.171920  	-0.010268 
1921.100736  	-0.010282 
1923.029552  	-0.009929 
1924.958368  	-0.011983 
1926.887184  	-0.012654 
1928.816000  	-0.012929 
1930.744816  	-0.012723 
1932.673632  	-0.012465 
1934.602448  	-0.012140 
1936.531264  	-0.012721 
1938.460080  	-0.012297 
1940.388896  	-0.011057 
1942.317712  	-0.009408 
1944.246528  	-0.010875 
1946.175344  	-0.011463 
1948.104160  	-0.012019 
1950.032976  	-0.012012 
1951.961792  	-0.012349 
1953.890608  	-0.012802 
1955.819424  	-0.013484 
1957.748240  	-0.013509 
1959.677056  	-0.013431 
1961.605872  	-0.013157 
1963.534688  	-0.013753 
1965.463504  	-0.012597 
1967.392320  	-0.012025 
1969.321136  	-0.012882 
1971.249952  	-0.013495 
1973.178768  	-0.012863 
1975.107584  	-0.012073 
1977.036400  	-0.011999 
1978.965216  	-0.012917 
1980.894032  	-0.012825 
1982.822848  	-0.012553 
1984.751664  	-0.012205 
1986.680480  	-0.011950 
1988.609296  	-0.010702 
1990.538112  	-0.009845 
1992.466928  	-0.009759 
1994.395744  	-0.012411 
1996.324560  	-0.013486 
1998.253376  	-0.013325 
2000.182192  	-0.012843 
2002.111008  	-0.012567 
2004.039824  	-0.012321 
2005.968640  	-0.012655 
2007.897456  	-0.012440 
2009.826272  	-0.011990 
2011.755088  	-0.012072 
2013.683904  	-0.012797 
2015.612720  	-0.011759 
2017.541536  	-0.011162 
2019.470352  	-0.012060 
2021.399168  	-0.013215 
2023.327984  	-0.012398 
2025.256800  	-0.011468 
2027.185616  	-0.010808 
2029.114432  	-0.011389 
2031.043248  	-0.012045 
2032.972064  	-0.012713 
2034.900880  	-0.012492 
2036.829696  	-0.012336 
2038.758512  	-0.011922 
2040.687328  	-0.011398 
2042.616144  	-0.010825 
2044.544960  	-0.011464 
2046.473776  	-0.011413 
2048.402592  	-0.011284 
2050.331408  	-0.011203 
2052.260224  	-0.011232 
2054.189040  	-0.011115 
2056.117856  	-0.011169 
2058.046672  	-0.010822 
2059.975488  	-0.010716 
2061.904304  	-0.010277 
2063.833120  	-0.009933 
2065.761936  	-0.010173 
2067.690752  	-0.010787 
2069.619568  	-0.010656 
2071.548384  	-0.011031 
2073.477200  	-0.010781 
2075.406016  	-0.010458 
2077.334832  	-0.010407 
2079.263648  	-0.009889 
2081.192464  	-0.009612 
2083.121280  	-0.010141 
2085.050096  	-0.010774 
2086.978912  	-0.011013 
2088.907728  	-0.010306 
2090.836544  	-0.009874 
2092.765360  	-0.010197 
2094.694176  	-0.010346 
2096.622992  	-0.010024 
2098.551808  	-0.010333 
2100.480624  	-0.010535 
2102.409440  	-0.010397 
2104.338256  	-0.010397 
2106.267072  	-0.010379 
2108.195888  	-0.010203 
2110.124704  	-0.010169 
2112.053520  	-0.010028 
2113.982336  	-0.009812 
2115.911152  	-0.010040 
2117.839968  	-0.010547 
2119.768784  	-0.010560 
2121.697600  	-0.010450 
2123.626416  	-0.010493 
2125.555232  	-0.010755 
2127.484048  	-0.010730 
2129.412864  	-0.010628 
2131.341680  	-0.010246 
2133.270496  	-0.009965 
2135.199312  	-0.009975 
2137.128128  	-0.010064 
2139.056944  	-0.009475 
2140.985760  	-0.009506 
2142.914576  	-0.009782 
2144.843392  	-0.010557 
2146.772208  	-0.010747 
2148.701024  	-0.010810 
2150.629840  	-0.010901 
2152.558656  	-0.010769 
2154.487472  	-0.010438 
2156.416288  	-0.011208 
2158.345104  	-0.010409 
2160.273920  	-0.008204 
2162.202736  	-0.008221 
2164.131552  	-0.009191 
2166.060368  	-0.008153 
2167.989184  	-0.008621 
2169.918000  	-0.009282 
2171.846816  	-0.009490 
2173.775632  	-0.008927 
2175.704448  	-0.008903 
2177.633264  	-0.008842 
2179.562080  	-0.009671 
2181.490896  	-0.009304 
2183.419712  	-0.008586 
2185.348528  	-0.009215 
2187.277344  	-0.010045 
2189.206160  	-0.009552 
2191.134976  	-0.009292 
2193.063792  	-0.009711 
2194.992608  	-0.010294 
2196.921424  	-0.010066 
2198.850240  	-0.010321 
2200.779056  	-0.010652 
2202.707872  	-0.010490 
2204.636688  	-0.009841 
2206.565504  	-0.010300 
2208.494320  	-0.010658 
2210.423136  	-0.010608 
2212.351952  	-0.010168 
2214.280768  	-0.010277 
2216.209584  	-0.010608 
2218.138400  	-0.011132 
2220.067216  	-0.011069 
2221.996032  	-0.011226 
2223.924848  	-0.010706 
2225.853664  	-0.010401 
2227.782480  	-0.010294 
2229.711296  	-0.011037 
2231.640112  	-0.011113 
2233.568928  	-0.011268 
2235.497744  	-0.011506 
2237.426560  	-0.011150 
2239.355376  	-0.010872 
2241.284192  	-0.011405 
2243.213008  	-0.011692 
2245.141824  	-0.011713 
2247.070640  	-0.011420 
2248.999456  	-0.010915 
2250.928272  	-0.010768 
2252.857088  	-0.011193 
2254.785904  	-0.011174 
2256.714720  	-0.010699 
2258.643536  	-0.010515 
2260.572352  	-0.010493 
2262.501168  	-0.010528 
2264.429984  	-0.010321 
2266.358800  	-0.010358 
2268.287616  	-0.011021 
2270.216432  	-0.011088 
2272.145248  	-0.010814 
2274.074064  	-0.010575 
2276.002880  	-0.010777 
2277.931696  	-0.010527 
2279.860512  	-0.010552 
2281.789328  	-0.010595 
2283.718144  	-0.010391 
2285.646960  	-0.010077 
2287.575776  	-0.010034 
2289.504592  	-0.009992 
2291.433408  	-0.009763 
2293.362224  	-0.009189 
2295.291040  	-0.008960 
2297.219856  	-0.008639 
2299.148672  	-0.008323 
2301.077488  	-0.008082 
2303.006304  	-0.007534 
2304.935120  	-0.006875 
2306.863936  	-0.006517 
2308.792752  	-0.006375 
2310.721568  	-0.006304 
2312.650384  	-0.006589 
2314.579200  	-0.007297 
2316.508016  	-0.007401 
2318.436832  	-0.007158 
2320.365648  	-0.007169 
2322.294464  	-0.007592 
2324.223280  	-0.008728 
2326.152096  	-0.010192 
2328.080912  	-0.011255 
2330.009728  	-0.012016 
2331.938544  	-0.012692 
2333.867360  	-0.013632 
2335.796176  	-0.014432 
2337.724992  	-0.015017 
2339.653808  	-0.015164 
2341.582624  	-0.014775 
2343.511440  	-0.013495 
2345.440256  	-0.011679 
2347.369072  	-0.010122 
2349.297888  	-0.009515 
2351.226704  	-0.010598 
2353.155520  	-0.012640 
2355.084336  	-0.014213 
2357.013152  	-0.015168 
2358.941968  	-0.015346 
2360.870784  	-0.015918 
2362.799600  	-0.015826 
2364.728416  	-0.014869 
2366.657232  	-0.013721 
2368.586048  	-0.012567 
2370.514864  	-0.011406 
2372.443680  	-0.010556 
2374.372496  	-0.009015 
2376.301312  	-0.007813 
2378.230128  	-0.007602 
2380.158944  	-0.007856 
2382.087760  	-0.008406 
2384.016576  	-0.009316 
2385.945392  	-0.010223 
2387.874208  	-0.010687 
2389.803024  	-0.010992 
2391.731840  	-0.011405 
2393.660656  	-0.011507 
2395.589472  	-0.011477 
2397.518288  	-0.011385 
2399.447104  	-0.011401 
2401.375920  	-0.011562 
2403.304736  	-0.011800 
2405.233552  	-0.011892 
2407.162368  	-0.011782 
2409.091184  	-0.011646 
2411.020000  	-0.011658 
2412.948816  	-0.011967 
2414.877632  	-0.012033 
2416.806448  	-0.011707 
2418.735264  	-0.011521 
2420.664080  	-0.011525 
2422.592896  	-0.011628 
2424.521712  	-0.011499 
2426.450528  	-0.011471 
2428.379344  	-0.011462 
2430.308160  	-0.011411 
2432.236976  	-0.011433 
2434.165792  	-0.011207 
2436.094608  	-0.011141 
2438.023424  	-0.011288 
2439.952240  	-0.011232 
2441.881056  	-0.011247 
2443.809872  	-0.011292 
2445.738688  	-0.011274 
2447.667504  	-0.011171 
2449.596320  	-0.011038 
2451.525136  	-0.010921 
2453.453952  	-0.010804 
2455.382768  	-0.010829 
2457.311584  	-0.011019 
2459.240400  	-0.011040 
2461.169216  	-0.010828 
2463.098032  	-0.010569 
2465.026848  	-0.010753 
2466.955664  	-0.010873 
2468.884480  	-0.011026 
2470.813296  	-0.011266 
2472.742112  	-0.011138 
2474.670928  	-0.010748 
2476.599744  	-0.010540 
2478.528560  	-0.010506 
2480.457376  	-0.010306 
2482.386192  	-0.010229 
2484.315008  	-0.010478 
2486.243824  	-0.010530 
2488.172640  	-0.010188 
2490.101456  	-0.010104 
2492.030272  	-0.010124 
2493.959088  	-0.010135 
2495.887904  	-0.010366 
2497.816720  	-0.010124 
2499.745536  	-0.009916 
2501.674352  	-0.010129 
2503.603168  	-0.010227 
2505.531984  	-0.010096 
2507.460800  	-0.010074 
2509.389616  	-0.010317 
2511.318432  	-0.010389 
2513.247248  	-0.010192 
2515.176064  	-0.010008 
2517.104880  	-0.010103 
2519.033696  	-0.010383 
2520.962512  	-0.010144 
2522.891328  	-0.009908 
2524.820144  	-0.009745 
2526.748960  	-0.009763 
2528.677776  	-0.009674 
2530.606592  	-0.009672 
2532.535408  	-0.009651 
2534.464224  	-0.009746 
2536.393040  	-0.009879 
2538.321856  	-0.009709 
2540.250672  	-0.009578 
2542.179488  	-0.009458 
2544.108304  	-0.009365 
2546.037120  	-0.009186 
2547.965936  	-0.009031 
2549.894752  	-0.008962 
2551.823568  	-0.008873 
2553.752384  	-0.009003 
2555.681200  	-0.009176 
2557.610016  	-0.009147 
2559.538832  	-0.009051 
2561.467648  	-0.008901 
2563.396464  	-0.008673 
2565.325280  	-0.008657 
2567.254096  	-0.008865 
2569.182912  	-0.008908 
2571.111728  	-0.008761 
2573.040544  	-0.008626 
2574.969360  	-0.008521 
2576.898176  	-0.008553 
2578.826992  	-0.008673 
2580.755808  	-0.008692 
2582.684624  	-0.008595 
2584.613440  	-0.008404 
2586.542256  	-0.008269 
2588.471072  	-0.008522 
2590.399888  	-0.008627 
2592.328704  	-0.008436 
2594.257520  	-0.008220 
2596.186336  	-0.008264 
2598.115152  	-0.008229 
2600.043968  	-0.007950 
2601.972784  	-0.007876 
2603.901600  	-0.007968 
2605.830416  	-0.008050 
2607.759232  	-0.007991 
2609.688048  	-0.007905 
2611.616864  	-0.007938 
2613.545680  	-0.007876 
2615.474496  	-0.007747 
2617.403312  	-0.007639 
2619.332128  	-0.007488 
2621.260944  	-0.007441 
2623.189760  	-0.007428 
2625.118576  	-0.007272 
2627.047392  	-0.007199 
2628.976208  	-0.007203 
2630.905024  	-0.007169 
2632.833840  	-0.007148 
2634.762656  	-0.007207 
2636.691472  	-0.007087 
2638.620288  	-0.006927 
2640.549104  	-0.006811 
2642.477920  	-0.006680 
2644.406736  	-0.006699 
2646.335552  	-0.006704 
2648.264368  	-0.006623 
2650.193184  	-0.006562 
2652.122000  	-0.006488 
2654.050816  	-0.006457 
2655.979632  	-0.006378 
2657.908448  	-0.006315 
2659.837264  	-0.006235 
2661.766080  	-0.006143 
2663.694896  	-0.006146 
2665.623712  	-0.006141 
2667.552528  	-0.006106 
2669.481344  	-0.006097 
2671.410160  	-0.006020 
2673.338976  	-0.005875 
2675.267792  	-0.005794 
2677.196608  	-0.005694 
2679.125424  	-0.005568 
2681.054240  	-0.005498 
2682.983056  	-0.005430 
2684.911872  	-0.005403 
2686.840688  	-0.005420 
2688.769504  	-0.005388 
2690.698320  	-0.005249 
2692.627136  	-0.005264 
2694.555952  	-0.005272 
2696.484768  	-0.005101 
2698.413584  	-0.005076 
2700.342400  	-0.005194 
2702.271216  	-0.005082 
2704.200032  	-0.004914 
2706.128848  	-0.004777 
2708.057664  	-0.004737 
2709.986480  	-0.004734 
2711.915296  	-0.004590 
2713.844112  	-0.004527 
2715.772928  	-0.004546 
2717.701744  	-0.004530 
2719.630560  	-0.004303 
2721.559376  	-0.004179 
2723.488192  	-0.004228 
2725.417008  	-0.004208 
2727.345824  	-0.004085 
2729.274640  	-0.003908 
2731.203456  	-0.003852 
2733.132272  	-0.003836 
2735.061088  	-0.003749 
2736.989904  	-0.003724 
2738.918720  	-0.003668 
2740.847536  	-0.003677 
2742.776352  	-0.003568 
2744.705168  	-0.003471 
2746.633984  	-0.003422 
2748.562800  	-0.003293 
2750.491616  	-0.003255 
2752.420432  	-0.003317 
2754.349248  	-0.003327 
2756.278064  	-0.003263 
2758.206880  	-0.003297 
2760.135696  	-0.003353 
2762.064512  	-0.003349 
2763.993328  	-0.003332 
2765.922144  	-0.003295 
2767.850960  	-0.003324 
2769.779776  	-0.003422 
2771.708592  	-0.003429 
2773.637408  	-0.003463 
2775.566224  	-0.003446 
2777.495040  	-0.003482 
2779.423856  	-0.003407 
2781.352672  	-0.003200 
2783.281488  	-0.003139 
2785.210304  	-0.003252 
2787.139120  	-0.003276 
2789.067936  	-0.003243 
2790.996752  	-0.003250 
2792.925568  	-0.003135 
2794.854384  	-0.003039 
2796.783200  	-0.003090 
2798.712016  	-0.003169 
2800.640832  	-0.003108 
2802.569648  	-0.002986 
2804.498464  	-0.003021 
2806.427280  	-0.003019 
2808.356096  	-0.002859 
2810.284912  	-0.002829 
2812.213728  	-0.002962 
2814.142544  	-0.002930 
2816.071360  	-0.002962 
2818.000176  	-0.003020 
2819.928992  	-0.002943 
2821.857808  	-0.002975 
2823.786624  	-0.003068 
2825.715440  	-0.003017 
2827.644256  	-0.002977 
2829.573072  	-0.003007 
2831.501888  	-0.003095 
2833.430704  	-0.003110 
2835.359520  	-0.003107 
2837.288336  	-0.003030 
2839.217152  	-0.003058 
2841.145968  	-0.003191 
2843.074784  	-0.003176 
2845.003600  	-0.003071 
2846.932416  	-0.003130 
2848.861232  	-0.003065 
2850.790048  	-0.003104 
2852.718864  	-0.003140 
2854.647680  	-0.003150 
2856.576496  	-0.003090 
2858.505312  	-0.003100 
2860.434128  	-0.003151 
2862.362944  	-0.003179 
2864.291760  	-0.003139 
2866.220576  	-0.003130 
2868.149392  	-0.003126 
2870.078208  	-0.003101 
2872.007024  	-0.003025 
2873.935840  	-0.002932 
2875.864656  	-0.002861 
2877.793472  	-0.002694 
2879.722288  	-0.002439 
2881.651104  	-0.002289 
2883.579920  	-0.002180 
2885.508736  	-0.002038 
2887.437552  	-0.002020 
2889.366368  	-0.002020 
2891.295184  	-0.001960 
2893.224000  	-0.001978 
2895.152816  	-0.001890 
2897.081632  	-0.001797 
2899.010448  	-0.002110 
2900.939264  	-0.002404 
2902.868080  	-0.002187 
2904.796896  	-0.001963 
2906.725712  	-0.001823 
2908.654528  	-0.001670 
2910.583344  	-0.001454 
2912.512160  	-0.001338 
2914.440976  	-0.001232 
2916.369792  	-0.000944 
2918.298608  	-0.000650 
2920.227424  	-0.000420 
2922.156240  	-0.000193 
2924.085056  	0.000130 
2926.013872  	0.000410 
2927.942688  	0.000714 
2929.871504  	0.001118 
2931.800320  	0.001418 
2933.729136  	0.001825 
2935.657952  	0.002218 
2937.586768  	0.002428 
2939.515584  	0.002509 
2941.444400  	0.002551 
2943.373216  	0.002700 
2945.302032  	0.002899 
2947.230848  	0.002943 
2949.159664  	0.002783 
2951.088480  	0.002719 
2953.017296  	0.002710 
2954.946112  	0.002661 
2956.874928  	0.002648 
2958.803744  	0.002447 
2960.732560  	0.002216 
2962.661376  	0.002122 
2964.590192  	0.001998 
2966.519008  	0.001856 
2968.447824  	0.001623 
2970.376640  	0.001452 
2972.305456  	0.001343 
2974.234272  	0.001455 
2976.163088  	0.001409 
2978.091904  	0.001286 
2980.020720  	0.001307 
2981.949536  	0.001183 
2983.878352  	0.000978 
2985.807168  	0.000831 
2987.735984  	0.000869 
2989.664800  	0.000967 
2991.593616  	0.001414 
2993.522432  	0.001703 
2995.451248  	0.001748 
2997.380064  	0.001878 
2999.308880  	0.002261 
3001.237696  	0.002684 
3003.166512  	0.003013 
3005.095328  	0.003133 
3007.024144  	0.003250 
3008.952960  	0.003728 
3010.881776  	0.004227 
3012.810592  	0.004654 
3014.739408  	0.004896 
3016.668224  	0.005115 
3018.597040  	0.005291 
3020.525856  	0.005453 
3022.454672  	0.005729 
3024.383488  	0.006305 
3026.312304  	0.006693 
3028.241120  	0.006620 
3030.169936  	0.006985 
3032.098752  	0.007526 
3034.027568  	0.007615 
3035.956384  	0.007891 
3037.885200  	0.008135 
3039.814016  	0.008341 
3041.742832  	0.008583 
3043.671648  	0.008828 
3045.600464  	0.008946 
3047.529280  	0.009224 
3049.458096  	0.009662 
3051.386912  	0.009768 
3053.315728  	0.009898 
3055.244544  	0.010299 
3057.173360  	0.010695 
3059.102176  	0.010950 
3061.030992  	0.011271 
3062.959808  	0.011622 
3064.888624  	0.012074 
3066.817440  	0.012469 
3068.746256  	0.012684 
3070.675072  	0.012855 
3072.603888  	0.013207 
3074.532704  	0.013675 
3076.461520  	0.014076 
3078.390336  	0.014466 
3080.319152  	0.015008 
3082.247968  	0.015297 
3084.176784  	0.015441 
3086.105600  	0.015784 
3088.034416  	0.016149 
3089.963232  	0.016323 
3091.892048  	0.016519 
3093.820864  	0.016853 
3095.749680  	0.017564 
3097.678496  	0.018053 
3099.607312  	0.018408 
3101.536128  	0.018949 
3103.464944  	0.019181 
3105.393760  	0.019260 
3107.322576  	0.019605 
3109.251392  	0.020077 
3111.180208  	0.020235 
3113.109024  	0.020311 
3115.037840  	0.020835 
3116.966656  	0.021472 
3118.895472  	0.021701 
3120.824288  	0.021909 
3122.753104  	0.022366 
3124.681920  	0.022366 
3126.610736  	0.022418 
3128.539552  	0.022592 
3130.468368  	0.022727 
3132.397184  	0.023251 
3134.326000  	0.023517 
3136.254816  	0.023464 
3138.183632  	0.023648 
3140.112448  	0.023819 
3142.041264  	0.024206 
3143.970080  	0.024670 
3145.898896  	0.024947 
3147.827712  	0.025258 
3149.756528  	0.025595 
3151.685344  	0.025686 
3153.614160  	0.025737 
3155.542976  	0.025974 
3157.471792  	0.026451 
3159.400608  	0.026893 
3161.329424  	0.027061 
3163.258240  	0.027138 
3165.187056  	0.027353 
3167.115872  	0.027594 
3169.044688  	0.027814 
3170.973504  	0.028019 
3172.902320  	0.028086 
3174.831136  	0.028133 
3176.759952  	0.028455 
3178.688768  	0.028871 
3180.617584  	0.028840 
3182.546400  	0.028837 
3184.475216  	0.028994 
3186.404032  	0.029182 
3188.332848  	0.029175 
3190.261664  	0.029091 
3192.190480  	0.029069 
3194.119296  	0.029073 
3196.048112  	0.028940 
3197.976928  	0.029358 
3199.905744  	0.029515 
3201.834560  	0.029352 
3203.763376  	0.029117 
3205.692192  	0.028881 
3207.621008  	0.028905 
3209.549824  	0.029225 
3211.478640  	0.029246 
3213.407456  	0.029030 
3215.336272  	0.029136 
3217.265088  	0.028918 
3219.193904  	0.029089 
3221.122720  	0.029226 
3223.051536  	0.028907 
3224.980352  	0.028566 
3226.909168  	0.028652 
3228.837984  	0.028620 
3230.766800  	0.028373 
3232.695616  	0.028473 
3234.624432  	0.028361 
3236.553248  	0.028403 
3238.482064  	0.028474 
3240.410880  	0.028207 
3242.339696  	0.028125 
3244.268512  	0.028444 
3246.197328  	0.028610 
3248.126144  	0.028301 
3250.054960  	0.028342 
3251.983776  	0.028374 
3253.912592  	0.028632 
3255.841408  	0.028711 
3257.770224  	0.028665 
3259.699040  	0.028825 
3261.627856  	0.028970 
3263.556672  	0.028925 
3265.485488  	0.029010 
3267.414304  	0.029125 
3269.343120  	0.029208 
3271.271936  	0.029299 
3273.200752  	0.029601 
3275.129568  	0.029702 
3277.058384  	0.029674 
3278.987200  	0.029568 
3280.916016  	0.029657 
3282.844832  	0.029774 
3284.773648  	0.029749 
3286.702464  	0.029738 
3288.631280  	0.029944 
3290.560096  	0.030066 
3292.488912  	0.030211 
3294.417728  	0.030028 
3296.346544  	0.030084 
3298.275360  	0.030330 
3300.204176  	0.030164 
3302.132992  	0.030035 
3304.061808  	0.030318 
3305.990624  	0.030415 
3307.919440  	0.030698 
3309.848256  	0.030995 
3311.777072  	0.030952 
3313.705888  	0.031054 
3315.634704  	0.031176 
3317.563520  	0.031212 
3319.492336  	0.031163 
3321.421152  	0.031185 
3323.349968  	0.031469 
3325.278784  	0.031653 
3327.207600  	0.031792 
3329.136416  	0.031538 
3331.065232  	0.031311 
3332.994048  	0.031364 
3334.922864  	0.031758 
3336.851680  	0.032065 
3338.780496  	0.031856 
3340.709312  	0.031373 
3342.638128  	0.031249 
3344.566944  	0.031136 
3346.495760  	0.030925 
3348.424576  	0.030882 
3350.353392  	0.030824 
3352.282208  	0.030600 
3354.211024  	0.030461 
3356.139840  	0.030563 
3358.068656  	0.030260 
3359.997472  	0.029972 
3361.926288  	0.029983 
3363.855104  	0.029723 
3365.783920  	0.029609 
3367.712736  	0.029586 
3369.641552  	0.029332 
3371.570368  	0.028923 
3373.499184  	0.028829 
3375.428000  	0.028859 
3377.356816  	0.028776 
3379.285632  	0.028592 
3381.214448  	0.028329 
3383.143264  	0.028221 
3385.072080  	0.028338 
3387.000896  	0.027938 
3388.929712  	0.027418 
3390.858528  	0.027308 
3392.787344  	0.027930 
3394.716160  	0.027648 
3396.644976  	0.027558 
3398.573792  	0.027327 
3400.502608  	0.026416 
3402.431424  	0.026035 
3404.360240  	0.025984 
3406.289056  	0.025611 
3408.217872  	0.025291 
3410.146688  	0.025117 
3412.075504  	0.024908 
3414.004320  	0.024813 
3415.933136  	0.024525 
3417.861952  	0.024207 
3419.790768  	0.024685 
3421.719584  	0.024973 
3423.648400  	0.024119 
3425.577216  	0.023257 
3427.506032  	0.022896 
3429.434848  	0.022607 
3431.363664  	0.022618 
3433.292480  	0.022490 
3435.221296  	0.022090 
3437.150112  	0.021705 
3439.078928  	0.021379 
3441.007744  	0.021257 
3442.936560  	0.021455 
3444.865376  	0.020983 
3446.794192  	0.021922 
3448.723008  	0.021762 
3450.651824  	0.020088 
3452.580640  	0.019637 
3454.509456  	0.019231 
3456.438272  	0.018972 
3458.367088  	0.018772 
3460.295904  	0.018716 
3462.224720  	0.018744 
3464.153536  	0.017931 
3466.082352  	0.017324 
3468.011168  	0.017388 
3469.939984  	0.016887 
3471.868800  	0.016121 
3473.797616  	0.015638 
3475.726432  	0.015438 
3477.655248  	0.014739 
3479.584064  	0.014640 
3481.512880  	0.015352 
3483.441696  	0.015072 
3485.370512  	0.013861 
3487.299328  	0.013626 
3489.228144  	0.013207 
3491.156960  	0.012213 
3493.085776  	0.011948 
3495.014592  	0.012267 
3496.943408  	0.012055 
3498.872224  	0.011143 
3500.801040  	0.011449 
3502.729856  	0.012818 
3504.658672  	0.012424 
3506.587488  	0.010556 
3508.516304  	0.010660 
3510.445120  	0.011058 
3512.373936  	0.009554 
3514.302752  	0.008625 
3516.231568  	0.008313 
3518.160384  	0.008170 
3520.089200  	0.007810 
3522.018016  	0.008555 
3523.946832  	0.010083 
3525.875648  	0.009637 
3527.804464  	0.009248 
3529.733280  	0.008231 
3531.662096  	0.006523 
3533.590912  	0.005212 
3535.519728  	0.005662 
3537.448544  	0.005891 
3539.377360  	0.004423 
3541.306176  	0.003761 
3543.234992  	0.004997 
3545.163808  	0.007602 
3547.092624  	0.007729 
3549.021440  	0.004733 
3550.950256  	0.003583 
3552.879072  	0.004644 
3554.807888  	0.003134 
3556.736704  	0.001546 
3558.665520  	0.001851 
3560.594336  	0.002777 
3562.523152  	0.002518 
3564.451968  	0.003812 
3566.380784  	0.008798 
3568.309600  	0.008965 
3570.238416  	0.003105 
3572.167232  	0.000058 
3574.096048  	-0.000451 
3576.024864  	-0.000505 
3577.953680  	-0.000914 
3579.882496  	-0.001119 
3581.811312  	-0.001831 
3583.740128  	-0.002014 
3585.668944  	-0.000012 
3587.597760  	0.004115 
3589.526576  	0.001055 
3591.455392  	-0.002907 
3593.384208  	-0.002342 
3595.313024  	-0.001066 
3597.241840  	-0.002422 
3599.170656  	-0.003569 
3601.099472  	-0.003923 
3603.028288  	-0.005431 
3604.957104  	-0.006348 
3606.885920  	-0.004219 
3608.814736  	-0.002563 
3610.743552  	-0.004437 
3612.672368  	-0.004039 
3614.601184  	-0.003697 
3616.530000  	-0.005564 
3618.458816  	-0.004515 
3620.387632  	-0.004902 
3622.316448  	-0.008339 
3624.245264  	-0.009991 
3626.174080  	-0.009451 
3628.102896  	-0.006371 
3630.031712  	-0.004379 
3631.960528  	-0.008777 
3633.889344  	-0.010551 
3635.818160  	-0.012065 
3637.746976  	-0.013095 
3639.675792  	-0.013417 
3641.604608  	-0.013106 
3643.533424  	-0.013037 
3645.462240  	-0.012194 
3647.391056  	-0.007454 
3649.319872  	-0.004475 
3651.248688  	-0.008093 
3653.177504  	-0.013609 
3655.106320  	-0.015016 
3657.035136  	-0.014625 
3658.963952  	-0.016454 
3660.892768  	-0.017596 
3662.821584  	-0.018156 
3664.750400  	-0.018257 
3666.679216  	-0.017488 
3668.608032  	-0.014856 
3670.536848  	-0.012484 
3672.465664  	-0.014415 
3674.394480  	-0.013529 
3676.323296  	-0.011532 
3678.252112  	-0.014613 
3680.180928  	-0.016976 
3682.109744  	-0.018667 
3684.038560  	-0.018823 
3685.967376  	-0.018473 
3687.896192  	-0.016228 
3689.825008  	-0.013864 
3691.753824  	-0.015727 
3693.682640  	-0.018069 
3695.611456  	-0.018901 
3697.540272  	-0.019128 
3699.469088  	-0.019296 
3701.397904  	-0.018255 
3703.326720  	-0.018290 
3705.255536  	-0.018967 
3707.184352  	-0.018475 
3709.113168  	-0.016543 
3711.041984  	-0.013571 
3712.970800  	-0.014173 
3714.899616  	-0.016932 
3716.828432  	-0.018395 
3718.757248  	-0.017685 
3720.686064  	-0.016822 
3722.614880  	-0.015508 
3724.543696  	-0.014837 
3726.472512  	-0.014770 
3728.401328  	-0.016853 
3730.330144  	-0.018002 
3732.258960  	-0.016050 
3734.187776  	-0.011340 
3736.116592  	-0.008923 
3738.045408  	-0.013295 
3739.974224  	-0.015203 
3741.903040  	-0.015197 
3743.831856  	-0.014313 
3745.760672  	-0.013014 
3747.689488  	-0.013927 
3749.618304  	-0.012006 
3751.547120  	-0.010676 
3753.475936  	-0.013813 
3755.404752  	-0.016265 
3757.333568  	-0.016116 
3759.262384  	-0.015638 
3761.191200  	-0.017402 
3763.120016  	-0.018747 
3765.048832  	-0.017644 
3766.977648  	-0.017373 
3768.906464  	-0.017344 
3770.835280  	-0.017480 
3772.764096  	-0.019046 
3774.692912  	-0.019853 
3776.621728  	-0.019579 
3778.550544  	-0.018256 
3780.479360  	-0.018039 
3782.408176  	-0.019059 
3784.336992  	-0.018481 
3786.265808  	-0.018714 
3788.194624  	-0.019705 
3790.123440  	-0.019993 
3792.052256  	-0.020168 
3793.981072  	-0.020006 
3795.909888  	-0.018075 
3797.838704  	-0.016373 
3799.767520  	-0.016246 
3801.696336  	-0.014637 
3803.625152  	-0.016370 
3805.553968  	-0.018103 
3807.482784  	-0.017877 
3809.411600  	-0.019171 
3811.340416  	-0.019882 
3813.269232  	-0.019600 
3815.198048  	-0.017616 
3817.126864  	-0.015727 
3819.055680  	-0.015780 
3820.984496  	-0.014166 
3822.913312  	-0.015667 
3824.842128  	-0.017838 
3826.770944  	-0.017869 
3828.699760  	-0.018358 
3830.628576  	-0.018334 
3832.557392  	-0.017696 
3834.486208  	-0.017410 
3836.415024  	-0.016188 
3838.343840  	-0.014071 
3840.272656  	-0.013596 
3842.201472  	-0.015420 
3844.130288  	-0.016694 
3846.059104  	-0.018485 
3847.987920  	-0.019080 
3849.916736  	-0.017714 
3851.845552  	-0.014786 
3853.774368  	-0.011577 
3855.703184  	-0.013987 
3857.632000  	-0.016405 
3859.560816  	-0.018186 
3861.489632  	-0.017113 
3863.418448  	-0.015030 
3865.347264  	-0.014678 
3867.276080  	-0.016600 
3869.204896  	-0.014935 
3871.133712  	-0.013593 
3873.062528  	-0.015660 
3874.991344  	-0.016809 
3876.920160  	-0.019094 
3878.848976  	-0.018239 
3880.777792  	-0.015044 
3882.706608  	-0.015522 
3884.635424  	-0.016026 
3886.564240  	-0.016606 
3888.493056  	-0.018886 
3890.421872  	-0.017858 
3892.350688  	-0.016272 
3894.279504  	-0.018081 
3896.208320  	-0.019252 
3898.137136  	-0.017404 
3900.065952  	-0.014406 
3901.994768  	-0.013457 
3903.923584  	-0.013404 
3905.852400  	-0.015578 
3907.781216  	-0.019128 
3909.710032  	-0.020835 
3911.638848  	-0.020976 
3913.567664  	-0.020490 
3915.496480  	-0.018564 
3917.425296  	-0.016634 
3919.354112  	-0.017312 
3921.282928  	-0.018185 
3923.211744  	-0.017762 
3925.140560  	-0.017286 
3927.069376  	-0.019041 
3928.998192  	-0.018869 
3930.927008  	-0.017192 
3932.855824  	-0.016913 
3934.784640  	-0.018960 
3936.713456  	-0.020076 
3938.642272  	-0.020067 
3940.571088  	-0.019648 
3942.499904  	-0.017748 
3944.428720  	-0.018191 
3946.357536  	-0.019172 
3948.286352  	-0.017783 
3950.215168  	-0.018233 
3952.143984  	-0.019953 
3954.072800  	-0.020621 
3956.001616  	-0.020401 
3957.930432  	-0.020082 
3959.859248  	-0.019876 
3961.788064  	-0.019568 
3963.716880  	-0.020005 
3965.645696  	-0.020838 
3967.574512  	-0.020954 
3969.503328  	-0.020703 
3971.432144  	-0.020474 
3973.360960  	-0.020054 
3975.289776  	-0.019568 
3977.218592  	-0.020016 
3979.147408  	-0.020674 
3981.076224  	-0.020650 
3983.005040  	-0.020701 
3984.933856  	-0.020751 
3986.862672  	-0.020796 
3988.791488  	-0.020525 
3990.720304  	-0.020113 
3992.649120  	-0.020481 
3994.577936  	-0.020700 
3996.506752  	-0.020818 
3998.435568  	-0.021083 
4000.364384  	-0.021020 