##TITLE=No Description
##DATA TYPE=INFRARED SPECTRUM
##XUNITS=1/CM
##YUNITS=Abs
399.264912  	0.597925 
401.193728  	0.600349 
403.122544  	0.623015 
405.051360  	0.617604 
406.980176  	0.606016 
408.908992  	0.589357 
410.837808  	0.594047 
412.766624  	0.589234 
414.695440  	0.591117 
416.624256  	0.586248 
418.553072  	0.583249 
420.481888  	0.572924 
422.410704  	0.584484 
424.339520  	0.579696 
426.268336  	0.570235 
428.197152  	0.568727 
430.125968  	0.568558 
432.054784  	0.557545 
433.983600  	0.555042 
435.912416  	0.553135 
437.841232  	0.552734 
439.770048  	0.543722 
441.698864  	0.553709 
443.627680  	0.560630 
445.556496  	0.555219 
447.485312  	0.540936 
449.414128  	0.540493 
451.342944  	0.541070 
453.271760  	0.544460 
455.200576  	0.541251 
457.129392  	0.545603 
459.058208  	0.544698 
460.987024  	0.544043 
462.915840  	0.539724 
464.844656  	0.539773 
466.773472  	0.539064 
468.702288  	0.541970 
470.631104  	0.538446 
472.559920  	0.539072 
474.488736  	0.531660 
476.417552  	0.533844 
478.346368  	0.531659 
480.275184  	0.529366 
482.204000  	0.530840 
484.132816  	0.530164 
486.061632  	0.524084 
487.990448  	0.527808 
489.919264  	0.525145 
491.848080  	0.524893 
493.776896  	0.524124 
495.705712  	0.521936 
497.634528  	0.519885 
499.563344  	0.521916 
501.492160  	0.514334 
503.420976  	0.511436 
505.349792  	0.511475 
507.278608  	0.514684 
509.207424  	0.514542 
511.136240  	0.517042 
513.065056  	0.515434 
514.993872  	0.517221 
516.922688  	0.514972 
518.851504  	0.517480 
520.780320  	0.517042 
522.709136  	0.518095 
524.637952  	0.517078 
526.566768  	0.515397 
528.495584  	0.512097 
530.424400  	0.513266 
532.353216  	0.508841 
534.282032  	0.503136 
536.210848  	0.497666 
538.139664  	0.493552 
540.068480  	0.489276 
541.997296  	0.486388 
543.926112  	0.481136 
545.854928  	0.478782 
547.783744  	0.475857 
549.712560  	0.472810 
551.641376  	0.468664 
553.570192  	0.466156 
555.499008  	0.462949 
557.427824  	0.460819 
559.356640  	0.457247 
561.285456  	0.454953 
563.214272  	0.450650 
565.143088  	0.446774 
567.071904  	0.443887 
569.000720  	0.441432 
570.929536  	0.438202 
572.858352  	0.435507 
574.787168  	0.432593 
576.715984  	0.431013 
578.644800  	0.427004 
580.573616  	0.422972 
582.502432  	0.419310 
584.431248  	0.417590 
586.360064  	0.414770 
588.288880  	0.412525 
590.217696  	0.409152 
592.146512  	0.406560 
594.075328  	0.404371 
596.004144  	0.402510 
597.932960  	0.400258 
599.861776  	0.398102 
601.790592  	0.394974 
603.719408  	0.393341 
605.648224  	0.392262 
607.577040  	0.391797 
609.505856  	0.389998 
611.434672  	0.387977 
613.363488  	0.385568 
615.292304  	0.384214 
617.221120  	0.382873 
619.149936  	0.381922 
621.078752  	0.379705 
623.007568  	0.378662 
624.936384  	0.376684 
626.865200  	0.373986 
628.794016  	0.372323 
630.722832  	0.372057 
632.651648  	0.371285 
634.580464  	0.370923 
636.509280  	0.370173 
638.438096  	0.370316 
640.366912  	0.369361 
642.295728  	0.367744 
644.224544  	0.364883 
646.153360  	0.361386 
648.082176  	0.357730 
650.010992  	0.354907 
651.939808  	0.351340 
653.868624  	0.347936 
655.797440  	0.344418 
657.726256  	0.340893 
659.655072  	0.337082 
661.583888  	0.333553 
663.512704  	0.329541 
665.441520  	0.326809 
667.370336  	0.322383 
669.299152  	0.316486 
671.227968  	0.313806 
673.156784  	0.311223 
675.085600  	0.308563 
677.014416  	0.306014 
678.943232  	0.303218 
680.872048  	0.301763 
682.800864  	0.299718 
684.729680  	0.297964 
686.658496  	0.296339 
688.587312  	0.294893 
690.516128  	0.292846 
692.444944  	0.291704 
694.373760  	0.290425 
696.302576  	0.287953 
698.231392  	0.285045 
700.160208  	0.282760 
702.089024  	0.280682 
704.017840  	0.278073 
705.946656  	0.275328 
707.875472  	0.273659 
709.804288  	0.271346 
711.733104  	0.269007 
713.661920  	0.266773 
715.590736  	0.264896 
717.519552  	0.263360 
719.448368  	0.263328 
721.377184  	0.263094 
723.306000  	0.262772 
725.234816  	0.262435 
727.163632  	0.261649 
729.092448  	0.259709 
731.021264  	0.257119 
732.950080  	0.254133 
734.878896  	0.251323 
736.807712  	0.248167 
738.736528  	0.245562 
740.665344  	0.243365 
742.594160  	0.241840 
744.522976  	0.240202 
746.451792  	0.238509 
748.380608  	0.236571 
750.309424  	0.235194 
752.238240  	0.233756 
754.167056  	0.232520 
756.095872  	0.231083 
758.024688  	0.230031 
759.953504  	0.229323 
761.882320  	0.229510 
763.811136  	0.229843 
765.739952  	0.228303 
767.668768  	0.225276 
769.597584  	0.222759 
771.526400  	0.221146 
773.455216  	0.221416 
775.384032  	0.223664 
777.312848  	0.227006 
779.241664  	0.229782 
781.170480  	0.229787 
783.099296  	0.226171 
785.028112  	0.220946 
786.956928  	0.215499 
788.885744  	0.211181 
790.814560  	0.207802 
792.743376  	0.205462 
794.672192  	0.203623 
796.601008  	0.202392 
798.529824  	0.199657 
800.458640  	0.195480 
802.387456  	0.192119 
804.316272  	0.190122 
806.245088  	0.188608 
808.173904  	0.187299 
810.102720  	0.186345 
812.031536  	0.185785 
813.960352  	0.185468 
815.889168  	0.184903 
817.817984  	0.184343 
819.746800  	0.184220 
821.675616  	0.183740 
823.604432  	0.183045 
825.533248  	0.182249 
827.462064  	0.181349 
829.390880  	0.180044 
831.319696  	0.178360 
833.248512  	0.176287 
835.177328  	0.174144 
837.106144  	0.171699 
839.034960  	0.168873 
840.963776  	0.165571 
842.892592  	0.162376 
844.821408  	0.159366 
846.750224  	0.156371 
848.679040  	0.153807 
850.607856  	0.151740 
852.536672  	0.150000 
854.465488  	0.148351 
856.394304  	0.146752 
858.323120  	0.145239 
860.251936  	0.143390 
862.180752  	0.140964 
864.109568  	0.138274 
866.038384  	0.135882 
867.967200  	0.134079 
869.896016  	0.132362 
871.824832  	0.131211 
873.753648  	0.130847 
875.682464  	0.130919 
877.611280  	0.130930 
879.540096  	0.131127 
881.468912  	0.132458 
883.397728  	0.133256 
885.326544  	0.133930 
887.255360  	0.134009 
889.184176  	0.132768 
891.112992  	0.130638 
893.041808  	0.129019 
894.970624  	0.127031 
896.899440  	0.124118 
898.828256  	0.120575 
900.757072  	0.117331 
902.685888  	0.114835 
904.614704  	0.113306 
906.543520  	0.113262 
908.472336  	0.114323 
910.401152  	0.116045 
912.329968  	0.117967 
914.258784  	0.119956 
916.187600  	0.121933 
918.116416  	0.123599 
920.045232  	0.124856 
921.974048  	0.125166 
923.902864  	0.125044 
925.831680  	0.124731 
927.760496  	0.124576 
929.689312  	0.124570 
931.618128  	0.124697 
933.546944  	0.124788 
935.475760  	0.124657 
937.404576  	0.124251 
939.333392  	0.123516 
941.262208  	0.123181 
943.191024  	0.123881 
945.119840  	0.126254 
947.048656  	0.130294 
948.977472  	0.135662 
950.906288  	0.142267 
952.835104  	0.149642 
954.763920  	0.157661 
956.692736  	0.165318 
958.621552  	0.171873 
960.550368  	0.176394 
962.479184  	0.178387 
964.408000  	0.177366 
966.336816  	0.173618 
968.265632  	0.167343 
970.194448  	0.158753 
972.123264  	0.148657 
974.052080  	0.138058 
975.980896  	0.127659 
977.909712  	0.117907 
979.838528  	0.109022 
981.767344  	0.101527 
983.696160  	0.095669 
985.624976  	0.091706 
987.553792  	0.089936 
989.482608  	0.090151 
991.411424  	0.092122 
993.340240  	0.095198 
995.269056  	0.099393 
997.197872  	0.104082 
999.126688  	0.108516 
1001.055504  	0.113115 
1002.984320  	0.117707 
1004.913136  	0.122332 
1006.841952  	0.126685 
1008.770768  	0.130332 
1010.699584  	0.132908 
1012.628400  	0.134362 
1014.557216  	0.134842 
1016.486032  	0.134904 
1018.414848  	0.134855 
1020.343664  	0.134557 
1022.272480  	0.134013 
1024.201296  	0.132784 
1026.130112  	0.129582 
1028.058928  	0.128344 
1029.987744  	0.131117 
1031.916560  	0.132376 
1033.845376  	0.132487 
1035.774192  	0.132595 
1037.703008  	0.133767 
1039.631824  	0.138117 
1041.560640  	0.143927 
1043.489456  	0.151824 
1045.418272  	0.161648 
1047.347088  	0.172954 
1049.275904  	0.183775 
1051.204720  	0.192781 
1053.133536  	0.198764 
1055.062352  	0.201838 
1056.991168  	0.202409 
1058.919984  	0.204277 
1060.848800  	0.206482 
1062.777616  	0.205191 
1064.706432  	0.200307 
1066.635248  	0.196468 
1068.564064  	0.196542 
1070.492880  	0.194047 
1072.421696  	0.188439 
1074.350512  	0.184029 
1076.279328  	0.182477 
1078.208144  	0.184408 
1080.136960  	0.188862 
1082.065776  	0.194318 
1083.994592  	0.198405 
1085.923408  	0.200817 
1087.852224  	0.200573 
1089.781040  	0.198773 
1091.709856  	0.195752 
1093.638672  	0.190649 
1095.567488  	0.183120 
1097.496304  	0.174091 
1099.425120  	0.164327 
1101.353936  	0.154456 
1103.282752  	0.144520 
1105.211568  	0.134929 
1107.140384  	0.125775 
1109.069200  	0.116805 
1110.998016  	0.108696 
1112.926832  	0.101485 
1114.855648  	0.094766 
1116.784464  	0.088371 
1118.713280  	0.082196 
1120.642096  	0.076395 
1122.570912  	0.071055 
1124.499728  	0.065980 
1126.428544  	0.061480 
1128.357360  	0.057475 
1130.286176  	0.054374 
1132.214992  	0.051790 
1134.143808  	0.049407 
1136.072624  	0.047282 
1138.001440  	0.045607 
1139.930256  	0.043627 
1141.859072  	0.041642 
1143.787888  	0.039684 
1145.716704  	0.037925 
1147.645520  	0.036279 
1149.574336  	0.034816 
1151.503152  	0.033511 
1153.431968  	0.032895 
1155.360784  	0.032850 
1157.289600  	0.033545 
1159.218416  	0.034663 
1161.147232  	0.036030 
1163.076048  	0.037509 
1165.004864  	0.039252 
1166.933680  	0.040979 
1168.862496  	0.042758 
1170.791312  	0.044418 
1172.720128  	0.046558 
1174.648944  	0.048656 
1176.577760  	0.050632 
1178.506576  	0.052497 
1180.435392  	0.054548 
1182.364208  	0.056443 
1184.293024  	0.058680 
1186.221840  	0.061091 
1188.150656  	0.063799 
1190.079472  	0.066933 
1192.008288  	0.070897 
1193.937104  	0.075633 
1195.865920  	0.081179 
1197.794736  	0.087298 
1199.723552  	0.094057 
1201.652368  	0.101090 
1203.581184  	0.108261 
1205.510000  	0.115124 
1207.438816  	0.121739 
1209.367632  	0.127980 
1211.296448  	0.133312 
1213.225264  	0.137934 
1215.154080  	0.141352 
1217.082896  	0.143929 
1219.011712  	0.145644 
1220.940528  	0.146904 
1222.869344  	0.147733 
1224.798160  	0.148078 
1226.726976  	0.147713 
1228.655792  	0.147039 
1230.584608  	0.146267 
1232.513424  	0.144999 
1234.442240  	0.143209 
1236.371056  	0.140803 
1238.299872  	0.137419 
1240.228688  	0.131984 
1242.157504  	0.126544 
1244.086320  	0.122158 
1246.015136  	0.116266 
1247.943952  	0.109436 
1249.872768  	0.102825 
1251.801584  	0.097303 
1253.730400  	0.091609 
1255.659216  	0.086012 
1257.588032  	0.080724 
1259.516848  	0.075723 
1261.445664  	0.071088 
1263.374480  	0.066892 
1265.303296  	0.063290 
1267.232112  	0.060302 
1269.160928  	0.058075 
1271.089744  	0.056370 
1273.018560  	0.055389 
1274.947376  	0.055111 
1276.876192  	0.055180 
1278.805008  	0.054959 
1280.733824  	0.054135 
1282.662640  	0.052654 
1284.591456  	0.050773 
1286.520272  	0.049010 
1288.449088  	0.047795 
1290.377904  	0.047217 
1292.306720  	0.047300 
1294.235536  	0.047392 
1296.164352  	0.046746 
1298.093168  	0.045046 
1300.021984  	0.042733 
1301.950800  	0.040278 
1303.879616  	0.037938 
1305.808432  	0.035373 
1307.737248  	0.032837 
1309.666064  	0.030373 
1311.594880  	0.028572 
1313.523696  	0.027103 
1315.452512  	0.026042 
1317.381328  	0.025474 
1319.310144  	0.025367 
1321.238960  	0.025320 
1323.167776  	0.025797 
1325.096592  	0.026520 
1327.025408  	0.027101 
1328.954224  	0.027136 
1330.883040  	0.026702 
1332.811856  	0.025935 
1334.740672  	0.025489 
1336.669488  	0.025430 
1338.598304  	0.025381 
1340.527120  	0.024362 
1342.455936  	0.023368 
1344.384752  	0.023070 
1346.313568  	0.023165 
1348.242384  	0.023485 
1350.171200  	0.024332 
1352.100016  	0.025472 
1354.028832  	0.026881 
1355.957648  	0.028168 
1357.886464  	0.029680 
1359.815280  	0.031385 
1361.744096  	0.033054 
1363.672912  	0.033864 
1365.601728  	0.034706 
1367.530544  	0.035626 
1369.459360  	0.035842 
1371.388176  	0.035600 
1373.316992  	0.034553 
1375.245808  	0.031906 
1377.174624  	0.029713 
1379.103440  	0.027323 
1381.032256  	0.024980 
1382.961072  	0.023260 
1384.889888  	0.022726 
1386.818704  	0.022259 
1388.747520  	0.020852 
1390.676336  	0.018921 
1392.605152  	0.015938 
1394.533968  	0.014218 
1396.462784  	0.016992 
1398.391600  	0.018221 
1400.320416  	0.017522 
1402.249232  	0.017473 
1404.178048  	0.017722 
1406.106864  	0.018026 
1408.035680  	0.019469 
1409.964496  	0.021452 
1411.893312  	0.023845 
1413.822128  	0.026370 
1415.750944  	0.029514 
1417.679760  	0.031716 
1419.608576  	0.031764 
1421.537392  	0.032296 
1423.466208  	0.032619 
1425.395024  	0.031364 
1427.323840  	0.030434 
1429.252656  	0.028598 
1431.181472  	0.027275 
1433.110288  	0.027244 
1435.039104  	0.027808 
1436.967920  	0.027191 
1438.896736  	0.027680 
1440.825552  	0.028625 
1442.754368  	0.029138 
1444.683184  	0.029283 
1446.612000  	0.029287 
1448.540816  	0.028237 
1450.469632  	0.028439 
1452.398448  	0.029205 
1454.327264  	0.030313 
1456.256080  	0.030268 
1458.184896  	0.028250 
1460.113712  	0.029076 
1462.042528  	0.030327 
1463.971344  	0.030205 
1465.900160  	0.030277 
1467.828976  	0.032237 
1469.757792  	0.034879 
1471.686608  	0.037285 
1473.615424  	0.041249 
1475.544240  	0.046186 
1477.473056  	0.050487 
1479.401872  	0.053565 
1481.330688  	0.056218 
1483.259504  	0.058097 
1485.188320  	0.059494 
1487.117136  	0.059653 
1489.045952  	0.059317 
1490.974768  	0.056951 
1492.903584  	0.055463 
1494.832400  	0.053303 
1496.761216  	0.048354 
1498.690032  	0.043548 
1500.618848  	0.040425 
1502.547664  	0.037749 
1504.476480  	0.035110 
1506.405296  	0.030098 
1508.334112  	0.027329 
1510.262928  	0.027457 
1512.191744  	0.026136 
1514.120560  	0.025444 
1516.049376  	0.024973 
1517.978192  	0.024337 
1519.907008  	0.025767 
1521.835824  	0.026018 
1523.764640  	0.028956 
1525.693456  	0.032142 
1527.622272  	0.033819 
1529.551088  	0.034457 
1531.479904  	0.034418 
1533.408720  	0.031376 
1535.337536  	0.029024 
1537.266352  	0.028178 
1539.195168  	0.023093 
1541.123984  	0.017581 
1543.052800  	0.018807 
1544.981616  	0.018683 
1546.910432  	0.018207 
1548.839248  	0.018464 
1550.768064  	0.018372 
1552.696880  	0.018493 
1554.625696  	0.018840 
1556.554512  	0.019475 
1558.483328  	0.018326 
1560.412144  	0.020167 
1562.340960  	0.025620 
1564.269776  	0.028677 
1566.198592  	0.032499 
1568.127408  	0.035697 
1570.056224  	0.039404 
1571.985040  	0.044662 
1573.913856  	0.048507 
1575.842672  	0.049328 
1577.771488  	0.051391 
1579.700304  	0.053000 
1581.629120  	0.052878 
1583.557936  	0.052357 
1585.486752  	0.052932 
1587.415568  	0.054525 
1589.344384  	0.057654 
1591.273200  	0.061915 
1593.202016  	0.067198 
1595.130832  	0.072829 
1597.059648  	0.078884 
1598.988464  	0.084107 
1600.917280  	0.088639 
1602.846096  	0.091678 
1604.774912  	0.093773 
1606.703728  	0.094169 
1608.632544  	0.093704 
1610.561360  	0.092313 
1612.490176  	0.091408 
1614.418992  	0.089937 
1616.347808  	0.087801 
1618.276624  	0.088263 
1620.205440  	0.091542 
1622.134256  	0.093584 
1624.063072  	0.097544 
1625.991888  	0.102664 
1627.920704  	0.108749 
1629.849520  	0.116149 
1631.778336  	0.123399 
1633.707152  	0.128496 
1635.635968  	0.134606 
1637.564784  	0.143035 
1639.493600  	0.149460 
1641.422416  	0.154101 
1643.351232  	0.157796 
1645.280048  	0.158863 
1647.208864  	0.159892 
1649.137680  	0.161682 
1651.066496  	0.162261 
1652.995312  	0.157972 
1654.924128  	0.158184 
1656.852944  	0.158584 
1658.781760  	0.157298 
1660.710576  	0.154817 
1662.639392  	0.151245 
1664.568208  	0.148348 
1666.497024  	0.146578 
1668.425840  	0.142472 
1670.354656  	0.137337 
1672.283472  	0.135056 
1674.212288  	0.132674 
1676.141104  	0.128897 
1678.069920  	0.128270 
1679.998736  	0.127575 
1681.927552  	0.126586 
1683.856368  	0.122767 
1685.785184  	0.122194 
1687.714000  	0.123902 
1689.642816  	0.123706 
1691.571632  	0.122695 
1693.500448  	0.122169 
1695.429264  	0.119166 
1697.358080  	0.117141 
1699.286896  	0.115532 
1701.215712  	0.111516 
1703.144528  	0.111277 
1705.073344  	0.108183 
1707.002160  	0.103662 
1708.930976  	0.100482 
1710.859792  	0.095951 
1712.788608  	0.090709 
1714.717424  	0.084003 
1716.646240  	0.075173 
1718.575056  	0.063623 
1720.503872  	0.057081 
1722.432688  	0.051466 
1724.361504  	0.043673 
1726.290320  	0.037275 
1728.219136  	0.031898 
1730.147952  	0.027081 
1732.076768  	0.023414 
1734.005584  	0.017555 
1735.934400  	0.013191 
1737.863216  	0.013408 
1739.792032  	0.010504 
1741.720848  	0.009401 
1743.649664  	0.008832 
1745.578480  	0.008191 
1747.507296  	0.006958 
1749.436112  	0.006001 
1751.364928  	0.004721 
1753.293744  	0.004365 
1755.222560  	0.004449 
1757.151376  	0.003773 
1759.080192  	0.003418 
1761.009008  	0.003072 
1762.937824  	0.001732 
1764.866640  	0.002080 
1766.795456  	0.002447 
1768.724272  	0.002043 
1770.653088  	0.000841 
1772.581904  	-0.001201 
1774.510720  	-0.000808 
1776.439536  	0.000344 
1778.368352  	0.000604 
1780.297168  	0.000308 
1782.225984  	-0.000218 
1784.154800  	0.000054 
1786.083616  	-0.000517 
1788.012432  	-0.000196 
1789.941248  	0.000225 
1791.870064  	-0.000759 
1793.798880  	-0.001902 
1795.727696  	-0.000760 
1797.656512  	-0.000866 
1799.585328  	-0.000925 
1801.514144  	-0.001043 
1803.442960  	-0.001145 
1805.371776  	-0.001489 
1807.300592  	-0.001133 
1809.229408  	-0.001515 
1811.158224  	-0.001898 
1813.087040  	-0.002070 
1815.015856  	-0.001696 
1816.944672  	-0.001627 
1818.873488  	-0.001496 
1820.802304  	-0.001605 
1822.731120  	-0.001130 
1824.659936  	-0.001774 
1826.588752  	-0.002197 
1828.517568  	-0.002293 
1830.446384  	-0.002606 
1832.375200  	-0.002466 
1834.304016  	-0.001957 
1836.232832  	-0.001938 
1838.161648  	-0.001917 
1840.090464  	-0.002072 
1842.019280  	-0.001447 
1843.948096  	-0.002647 
1845.876912  	-0.002997 
1847.805728  	-0.002309 
1849.734544  	-0.002193 
1851.663360  	-0.002379 
1853.592176  	-0.002393 
1855.520992  	-0.002491 
1857.449808  	-0.002340 
1859.378624  	-0.002462 
1861.307440  	-0.002479 
1863.236256  	-0.002709 
1865.165072  	-0.002322 
1867.093888  	-0.002389 
1869.022704  	-0.002945 
1870.951520  	-0.003235 
1872.880336  	-0.002569 
1874.809152  	-0.002594 
1876.737968  	-0.002557 
1878.666784  	-0.002870 
1880.595600  	-0.002664 
1882.524416  	-0.002898 
1884.453232  	-0.002953 
1886.382048  	-0.003015 
1888.310864  	-0.002674 
1890.239680  	-0.003406 
1892.168496  	-0.003109 
1894.097312  	-0.002933 
1896.026128  	-0.002908 
1897.954944  	-0.003110 
1899.883760  	-0.002782 
1901.812576  	-0.002939 
1903.741392  	-0.003145 
1905.670208  	-0.003269 
1907.599024  	-0.002734 
1909.527840  	-0.002668 
1911.456656  	-0.002396 
1913.385472  	-0.002654 
1915.314288  	-0.002325 
1917.243104  	-0.002799 
1919.171920  	-0.003319 
1921.100736  	-0.003134 
1923.029552  	-0.002556 
1924.958368  	-0.002911 
1926.887184  	-0.002887 
1928.816000  	-0.003287 
1930.744816  	-0.003138 
1932.673632  	-0.003170 
1934.602448  	-0.002808 
1936.531264  	-0.002879 
1938.460080  	-0.002494 
1940.388896  	-0.002552 
1942.317712  	-0.002946 
1944.246528  	-0.003765 
1946.175344  	-0.002454 
1948.104160  	-0.002200 
1950.032976  	-0.002254 
1951.961792  	-0.002811 
1953.890608  	-0.002550 
1955.819424  	-0.003026 
1957.748240  	-0.002861 
1959.677056  	-0.003050 
1961.605872  	-0.002083 
1963.534688  	-0.002491 
1965.463504  	-0.002186 
1967.392320  	-0.003016 
1969.321136  	-0.002364 
1971.249952  	-0.002211 
1973.178768  	-0.001898 
1975.107584  	-0.002658 
1977.036400  	-0.001254 
1978.965216  	-0.000683 
1980.894032  	-0.001108 
1982.822848  	-0.001760 
1984.751664  	-0.001344 
1986.680480  	-0.002179 
1988.609296  	-0.001968 
1990.538112  	-0.002401 
1992.466928  	-0.002202 
1994.395744  	-0.002955 
1996.324560  	-0.002959 
1998.253376  	-0.003214 
2000.182192  	-0.003565 
2002.111008  	-0.003511 
2004.039824  	-0.002315 
2005.968640  	-0.002795 
2007.897456  	-0.002639 
2009.826272  	-0.002654 
2011.755088  	-0.002009 
2013.683904  	-0.002077 
2015.612720  	-0.000965 
2017.541536  	-0.001381 
2019.470352  	-0.001625 
2021.399168  	-0.003077 
2023.327984  	-0.003333 
2025.256800  	-0.002167 
2027.185616  	-0.000874 
2029.114432  	-0.001543 
2031.043248  	-0.001523 
2032.972064  	-0.002155 
2034.900880  	-0.001637 
2036.829696  	-0.002599 
2038.758512  	-0.001961 
2040.687328  	-0.001823 
2042.616144  	-0.001125 
2044.544960  	-0.001740 
2046.473776  	-0.001795 
2048.402592  	-0.001859 
2050.331408  	-0.001928 
2052.260224  	-0.002891 
2054.189040  	-0.003122 
2056.117856  	-0.003409 
2058.046672  	-0.003099 
2059.975488  	-0.003334 
2061.904304  	-0.003329 
2063.833120  	-0.003366 
2065.761936  	-0.003206 
2067.690752  	-0.003134 
2069.619568  	-0.002669 
2071.548384  	-0.002856 
2073.477200  	-0.003314 
2075.406016  	-0.002916 
2077.334832  	-0.002136 
2079.263648  	-0.002437 
2081.192464  	-0.002415 
2083.121280  	-0.002400 
2085.050096  	-0.002833 
2086.978912  	-0.003282 
2088.907728  	-0.002958 
2090.836544  	-0.002933 
2092.765360  	-0.002759 
2094.694176  	-0.002786 
2096.622992  	-0.002464 
2098.551808  	-0.002506 
2100.480624  	-0.002394 
2102.409440  	-0.002553 
2104.338256  	-0.002641 
2106.267072  	-0.002874 
2108.195888  	-0.002574 
2110.124704  	-0.002410 
2112.053520  	-0.002591 
2113.982336  	-0.002915 
2115.911152  	-0.002572 
2117.839968  	-0.002413 
2119.768784  	-0.002615 
2121.697600  	-0.002989 
2123.626416  	-0.002869 
2125.555232  	-0.003230 
2127.484048  	-0.003171 
2129.412864  	-0.003453 
2131.341680  	-0.003789 
2133.270496  	-0.003893 
2135.199312  	-0.002953 
2137.128128  	-0.002279 
2139.056944  	-0.001824 
2140.985760  	-0.002181 
2142.914576  	-0.002345 
2144.843392  	-0.002459 
2146.772208  	-0.002139 
2148.701024  	-0.002763 
2150.629840  	-0.002426 
2152.558656  	-0.002785 
2154.487472  	-0.003560 
2156.416288  	-0.003687 
2158.345104  	-0.001636 
2160.273920  	0.000001 
2162.202736  	0.000307 
2164.131552  	-0.000121 
2166.060368  	0.000431 
2167.989184  	0.000609 
2169.918000  	0.000427 
2171.846816  	-0.001324 
2173.775632  	-0.001606 
2175.704448  	-0.001585 
2177.633264  	-0.001019 
2179.562080  	-0.001426 
2181.490896  	-0.001208 
2183.419712  	-0.001774 
2185.348528  	-0.002005 
2187.277344  	-0.002075 
2189.206160  	-0.002122 
2191.134976  	-0.001994 
2193.063792  	-0.001278 
2194.992608  	-0.001656 
2196.921424  	-0.001816 
2198.850240  	-0.001718 
2200.779056  	-0.001708 
2202.707872  	-0.002675 
2204.636688  	-0.002782 
2206.565504  	-0.002306 
2208.494320  	-0.001708 
2210.423136  	-0.002303 
2212.351952  	-0.002485 
2214.280768  	-0.002659 
2216.209584  	-0.002581 
2218.138400  	-0.003283 
2220.067216  	-0.003307 
2221.996032  	-0.002853 
2223.924848  	-0.002157 
2225.853664  	-0.002065 
2227.782480  	-0.002156 
2229.711296  	-0.002694 
2231.640112  	-0.003373 
2233.568928  	-0.003705 
2235.497744  	-0.002998 
2237.426560  	-0.003033 
2239.355376  	-0.003138 
2241.284192  	-0.003278 
2243.213008  	-0.003139 
2245.141824  	-0.003004 
2247.070640  	-0.002884 
2248.999456  	-0.003199 
2250.928272  	-0.003570 
2252.857088  	-0.003691 
2254.785904  	-0.003597 
2256.714720  	-0.003893 
2258.643536  	-0.003976 
2260.572352  	-0.004000 
2262.501168  	-0.003633 
2264.429984  	-0.003580 
2266.358800  	-0.003576 
2268.287616  	-0.003696 
2270.216432  	-0.003402 
2272.145248  	-0.003358 
2274.074064  	-0.003395 
2276.002880  	-0.003403 
2277.931696  	-0.003211 
2279.860512  	-0.003203 
2281.789328  	-0.003180 
2283.718144  	-0.003162 
2285.646960  	-0.002691 
2287.575776  	-0.002483 
2289.504592  	-0.002606 
2291.433408  	-0.002719 
2293.362224  	-0.002408 
2295.291040  	-0.002226 
2297.219856  	-0.001815 
2299.148672  	-0.001709 
2301.077488  	-0.001431 
2303.006304  	-0.001219 
2304.935120  	-0.000900 
2306.863936  	-0.000647 
2308.792752  	-0.000235 
2310.721568  	-0.000094 
2312.650384  	-0.000186 
2314.579200  	-0.000708 
2316.508016  	-0.001126 
2318.436832  	-0.001140 
2320.365648  	-0.001275 
2322.294464  	-0.001666 
2324.223280  	-0.002170 
2326.152096  	-0.003253 
2328.080912  	-0.004260 
2330.009728  	-0.005114 
2331.938544  	-0.006052 
2333.867360  	-0.006938 
2335.796176  	-0.007617 
2337.724992  	-0.008120 
2339.653808  	-0.007775 
2341.582624  	-0.007701 
2343.511440  	-0.007430 
2345.440256  	-0.006924 
2347.369072  	-0.004879 
2349.297888  	-0.002874 
2351.226704  	-0.003273 
2353.155520  	-0.005620 
2355.084336  	-0.007352 
2357.013152  	-0.008746 
2358.941968  	-0.009298 
2360.870784  	-0.009509 
2362.799600  	-0.009903 
2364.728416  	-0.010218 
2366.657232  	-0.009002 
2368.586048  	-0.007489 
2370.514864  	-0.006413 
2372.443680  	-0.005729 
2374.372496  	-0.004575 
2376.301312  	-0.003314 
2378.230128  	-0.002615 
2380.158944  	-0.002625 
2382.087760  	-0.002849 
2384.016576  	-0.003413 
2385.945392  	-0.003857 
2387.874208  	-0.004096 
2389.803024  	-0.004239 
2391.731840  	-0.004373 
2393.660656  	-0.004360 
2395.589472  	-0.004309 
2397.518288  	-0.004055 
2399.447104  	-0.004183 
2401.375920  	-0.004480 
2403.304736  	-0.004774 
2405.233552  	-0.004557 
2407.162368  	-0.004391 
2409.091184  	-0.004330 
2411.020000  	-0.004318 
2412.948816  	-0.004332 
2414.877632  	-0.004228 
2416.806448  	-0.004085 
2418.735264  	-0.004254 
2420.664080  	-0.004271 
2422.592896  	-0.004271 
2424.521712  	-0.004345 
2426.450528  	-0.004556 
2428.379344  	-0.004412 
2430.308160  	-0.004291 
2432.236976  	-0.004106 
2434.165792  	-0.004137 
2436.094608  	-0.004445 
2438.023424  	-0.004363 
2439.952240  	-0.003914 
2441.881056  	-0.003850 
2443.809872  	-0.004013 
2445.738688  	-0.003917 
2447.667504  	-0.003637 
2449.596320  	-0.003569 
2451.525136  	-0.003696 
2453.453952  	-0.003941 
2455.382768  	-0.003931 
2457.311584  	-0.003954 
2459.240400  	-0.004075 
2461.169216  	-0.004041 
2463.098032  	-0.003918 
2465.026848  	-0.003906 
2466.955664  	-0.003854 
2468.884480  	-0.003924 
2470.813296  	-0.003953 
2472.742112  	-0.004141 
2474.670928  	-0.004149 
2476.599744  	-0.004056 
2478.528560  	-0.003979 
2480.457376  	-0.003983 
2482.386192  	-0.003991 
2484.315008  	-0.003811 
2486.243824  	-0.003785 
2488.172640  	-0.003906 
2490.101456  	-0.003863 
2492.030272  	-0.003682 
2493.959088  	-0.003430 
2495.887904  	-0.003388 
2497.816720  	-0.003477 
2499.745536  	-0.003473 
2501.674352  	-0.003301 
2503.603168  	-0.003203 
2505.531984  	-0.003147 
2507.460800  	-0.003212 
2509.389616  	-0.003142 
2511.318432  	-0.003223 
2513.247248  	-0.003239 
2515.176064  	-0.003213 
2517.104880  	-0.003092 
2519.033696  	-0.003280 
2520.962512  	-0.003166 
2522.891328  	-0.002834 
2524.820144  	-0.002965 
2526.748960  	-0.003029 
2528.677776  	-0.002758 
2530.606592  	-0.002714 
2532.535408  	-0.002852 
2534.464224  	-0.003004 
2536.393040  	-0.003047 
2538.321856  	-0.002779 
2540.250672  	-0.002514 
2542.179488  	-0.002696 
2544.108304  	-0.002783 
2546.037120  	-0.002694 
2547.965936  	-0.002527 
2549.894752  	-0.002491 
2551.823568  	-0.002586 
2553.752384  	-0.002501 
2555.681200  	-0.002096 
2557.610016  	-0.002015 
2559.538832  	-0.002010 
2561.467648  	-0.001912 
2563.396464  	-0.001843 
2565.325280  	-0.001785 
2567.254096  	-0.001754 
2569.182912  	-0.001778 
2571.111728  	-0.001647 
2573.040544  	-0.001611 
2574.969360  	-0.001504 
2576.898176  	-0.001224 
2578.826992  	-0.001465 
2580.755808  	-0.001659 
2582.684624  	-0.001465 
2584.613440  	-0.001274 
2586.542256  	-0.001291 
2588.471072  	-0.001288 
2590.399888  	-0.001207 
2592.328704  	-0.001105 
2594.257520  	-0.001278 
2596.186336  	-0.001305 
2598.115152  	-0.001105 
2600.043968  	-0.001027 
2601.972784  	-0.000794 
2603.901600  	-0.000745 
2605.830416  	-0.000688 
2607.759232  	-0.000567 
2609.688048  	-0.000513 
2611.616864  	-0.000496 
2613.545680  	-0.000321 
2615.474496  	-0.000182 
2617.403312  	-0.000143 
2619.332128  	-0.000049 
2621.260944  	0.000045 
2623.189760  	0.000015 
2625.118576  	0.000043 
2627.047392  	0.000101 
2628.976208  	0.000183 
2630.905024  	0.000140 
2632.833840  	0.000143 
2634.762656  	0.000286 
2636.691472  	0.000435 
2638.620288  	0.000487 
2640.549104  	0.000618 
2642.477920  	0.000693 
2644.406736  	0.000817 
2646.335552  	0.000915 
2648.264368  	0.001025 
2650.193184  	0.001186 
2652.122000  	0.001312 
2654.050816  	0.001394 
2655.979632  	0.001508 
2657.908448  	0.001542 
2659.837264  	0.001526 
2661.766080  	0.001618 
2663.694896  	0.001743 
2665.623712  	0.001781 
2667.552528  	0.001921 
2669.481344  	0.002068 
2671.410160  	0.002151 
2673.338976  	0.002160 
2675.267792  	0.002241 
2677.196608  	0.002356 
2679.125424  	0.002422 
2681.054240  	0.002525 
2682.983056  	0.002650 
2684.911872  	0.002587 
2686.840688  	0.002716 
2688.769504  	0.002873 
2690.698320  	0.002913 
2692.627136  	0.002966 
2694.555952  	0.003066 
2696.484768  	0.003172 
2698.413584  	0.003255 
2700.342400  	0.003233 
2702.271216  	0.003334 
2704.200032  	0.003533 
2706.128848  	0.003682 
2708.057664  	0.003641 
2709.986480  	0.003633 
2711.915296  	0.003794 
2713.844112  	0.003913 
2715.772928  	0.003884 
2717.701744  	0.004012 
2719.630560  	0.004223 
2721.559376  	0.004257 
2723.488192  	0.004353 
2725.417008  	0.004623 
2727.345824  	0.004723 
2729.274640  	0.004656 
2731.203456  	0.004700 
2733.132272  	0.004823 
2735.061088  	0.004899 
2736.989904  	0.005048 
2738.918720  	0.005115 
2740.847536  	0.005170 
2742.776352  	0.005116 
2744.705168  	0.005139 
2746.633984  	0.005241 
2748.562800  	0.005374 
2750.491616  	0.005458 
2752.420432  	0.005610 
2754.349248  	0.005557 
2756.278064  	0.005505 
2758.206880  	0.005462 
2760.135696  	0.005455 
2762.064512  	0.005428 
2763.993328  	0.005476 
2765.922144  	0.005425 
2767.850960  	0.005464 
2769.779776  	0.005498 
2771.708592  	0.005534 
2773.637408  	0.005511 
2775.566224  	0.005457 
2777.495040  	0.005394 
2779.423856  	0.005431 
2781.352672  	0.005476 
2783.281488  	0.005423 
2785.210304  	0.005313 
2787.139120  	0.005325 
2789.067936  	0.005345 
2790.996752  	0.005340 
2792.925568  	0.005306 
2794.854384  	0.005269 
2796.783200  	0.005249 
2798.712016  	0.005186 
2800.640832  	0.005079 
2802.569648  	0.005106 
2804.498464  	0.005219 
2806.427280  	0.005257 
2808.356096  	0.005118 
2810.284912  	0.005112 
2812.213728  	0.005167 
2814.142544  	0.005153 
2816.071360  	0.005138 
2818.000176  	0.004994 
2819.928992  	0.004899 
2821.857808  	0.004923 
2823.786624  	0.004778 
2825.715440  	0.004643 
2827.644256  	0.004452 
2829.573072  	0.004238 
2831.501888  	0.003981 
2833.430704  	0.003790 
2835.359520  	0.003523 
2837.288336  	0.003137 
2839.217152  	0.002832 
2841.145968  	0.002601 
2843.074784  	0.002259 
2845.003600  	0.001711 
2846.932416  	0.001261 
2848.861232  	0.001016 
2850.790048  	0.000566 
2852.718864  	0.000015 
2854.647680  	-0.000446 
2856.576496  	-0.001036 
2858.505312  	-0.001617 
2860.434128  	-0.002145 
2862.362944  	-0.002935 
2864.291760  	-0.003803 
2866.220576  	-0.004444 
2868.149392  	-0.004822 
2870.078208  	-0.005129 
2872.007024  	-0.005276 
2873.935840  	-0.005222 
2875.864656  	-0.005259 
2877.793472  	-0.005456 
2879.722288  	-0.005760 
2881.651104  	-0.006341 
2883.579920  	-0.006725 
2885.508736  	-0.006574 
2887.437552  	-0.006341 
2889.366368  	-0.006332 
2891.295184  	-0.006673 
2893.224000  	-0.006849 
2895.152816  	-0.006786 
2897.081632  	-0.007095 
2899.010448  	-0.008859 
2900.939264  	-0.010504 
2902.868080  	-0.009333 
2904.796896  	-0.007939 
2906.725712  	-0.007366 
2908.654528  	-0.006807 
2910.583344  	-0.006515 
2912.512160  	-0.006104 
2914.440976  	-0.004986 
2916.369792  	-0.004223 
2918.298608  	-0.003922 
2920.227424  	-0.003609 
2922.156240  	-0.003054 
2924.085056  	-0.002258 
2926.013872  	-0.001274 
2927.942688  	-0.000260 
2929.871504  	0.000544 
2931.800320  	0.001208 
2933.729136  	0.001783 
2935.657952  	0.002291 
2937.586768  	0.002923 
2939.515584  	0.003468 
2941.444400  	0.003632 
2943.373216  	0.003587 
2945.302032  	0.003915 
2947.230848  	0.004196 
2949.159664  	0.003888 
2951.088480  	0.003270 
2953.017296  	0.002757 
2954.946112  	0.002151 
2956.874928  	0.001440 
2958.803744  	0.000598 
2960.732560  	0.000007 
2962.661376  	-0.000607 
2964.590192  	-0.001447 
2966.519008  	-0.002540 
2968.447824  	-0.003676 
2970.376640  	-0.004463 
2972.305456  	-0.004934 
2974.234272  	-0.004774 
2976.163088  	-0.004475 
2978.091904  	-0.004471 
2980.020720  	-0.004481 
2981.949536  	-0.004152 
2983.878352  	-0.004383 
2985.807168  	-0.005336 
2987.735984  	-0.006235 
2989.664800  	-0.005929 
2991.593616  	-0.002843 
2993.522432  	-0.000789 
2995.451248  	-0.000230 
2997.380064  	0.000524 
2999.308880  	0.001596 
3001.237696  	0.002946 
3003.166512  	0.004478 
3005.095328  	0.005872 
3007.024144  	0.007254 
3008.952960  	0.008622 
3010.881776  	0.009961 
3012.810592  	0.011424 
3014.739408  	0.012716 
3016.668224  	0.013760 
3018.597040  	0.015038 
3020.525856  	0.016292 
3022.454672  	0.017333 
3024.383488  	0.018316 
3026.312304  	0.019240 
3028.241120  	0.020225 
3030.169936  	0.021094 
3032.098752  	0.021735 
3034.027568  	0.022459 
3035.956384  	0.023342 
3037.885200  	0.024158 
3039.814016  	0.024737 
3041.742832  	0.025312 
3043.671648  	0.025847 
3045.600464  	0.026303 
3047.529280  	0.026670 
3049.458096  	0.027214 
3051.386912  	0.027935 
3053.315728  	0.028433 
3055.244544  	0.028874 
3057.173360  	0.029447 
3059.102176  	0.029964 
3061.030992  	0.030569 
3062.959808  	0.031202 
3064.888624  	0.031755 
3066.817440  	0.032428 
3068.746256  	0.033217 
3070.675072  	0.033738 
3072.603888  	0.034171 
3074.532704  	0.034836 
3076.461520  	0.035493 
3078.390336  	0.036214 
3080.319152  	0.036782 
3082.247968  	0.037312 
3084.176784  	0.037891 
3086.105600  	0.038429 
3088.034416  	0.039173 
3089.963232  	0.040026 
3091.892048  	0.040513 
3093.820864  	0.040937 
3095.749680  	0.041572 
3097.678496  	0.042296 
3099.607312  	0.043034 
3101.536128  	0.043894 
3103.464944  	0.044711 
3105.393760  	0.045221 
3107.322576  	0.045775 
3109.251392  	0.046500 
3111.180208  	0.047080 
3113.109024  	0.047652 
3115.037840  	0.048216 
3116.966656  	0.048914 
3118.895472  	0.049485 
3120.824288  	0.050008 
3122.753104  	0.050567 
3124.681920  	0.051026 
3126.610736  	0.051530 
3128.539552  	0.052174 
3130.468368  	0.052833 
3132.397184  	0.053341 
3134.326000  	0.053978 
3136.254816  	0.054401 
3138.183632  	0.054811 
3140.112448  	0.055451 
3142.041264  	0.056027 
3143.970080  	0.056517 
3145.898896  	0.057007 
3147.827712  	0.057542 
3149.756528  	0.057978 
3151.685344  	0.058418 
3153.614160  	0.059060 
3155.542976  	0.059746 
3157.471792  	0.060396 
3159.400608  	0.061074 
3161.329424  	0.061621 
3163.258240  	0.061968 
3165.187056  	0.062319 
3167.115872  	0.062733 
3169.044688  	0.063199 
3170.973504  	0.063708 
3172.902320  	0.064183 
3174.831136  	0.064603 
3176.759952  	0.065095 
3178.688768  	0.065537 
3180.617584  	0.065826 
3182.546400  	0.066110 
3184.475216  	0.066357 
3186.404032  	0.066452 
3188.332848  	0.066601 
3190.261664  	0.066903 
3192.190480  	0.067298 
3194.119296  	0.067325 
3196.048112  	0.067495 
3197.976928  	0.067555 
3199.905744  	0.067516 
3201.834560  	0.067438 
3203.763376  	0.067371 
3205.692192  	0.067416 
3207.621008  	0.067321 
3209.549824  	0.067334 
3211.478640  	0.067311 
3213.407456  	0.067218 
3215.336272  	0.067019 
3217.265088  	0.066949 
3219.193904  	0.066808 
3221.122720  	0.066640 
3223.051536  	0.066571 
3224.980352  	0.066641 
3226.909168  	0.066633 
3228.837984  	0.066374 
3230.766800  	0.066368 
3232.695616  	0.066462 
3234.624432  	0.066413 
3236.553248  	0.066404 
3238.482064  	0.066321 
3240.410880  	0.066390 
3242.339696  	0.066513 
3244.268512  	0.066359 
3246.197328  	0.066448 
3248.126144  	0.066898 
3250.054960  	0.067047 
3251.983776  	0.067102 
3253.912592  	0.067243 
3255.841408  	0.067313 
3257.770224  	0.067527 
3259.699040  	0.067650 
3261.627856  	0.067928 
3263.556672  	0.068222 
3265.485488  	0.068467 
3267.414304  	0.068644 
3269.343120  	0.068999 
3271.271936  	0.069284 
3273.200752  	0.069347 
3275.129568  	0.069438 
3277.058384  	0.069729 
3278.987200  	0.069994 
3280.916016  	0.070122 
3282.844832  	0.070249 
3284.773648  	0.070476 
3286.702464  	0.070770 
3288.631280  	0.071128 
3290.560096  	0.071454 
3292.488912  	0.071640 
3294.417728  	0.071842 
3296.346544  	0.072246 
3298.275360  	0.072505 
3300.204176  	0.072752 
3302.132992  	0.073116 
3304.061808  	0.073433 
3305.990624  	0.073743 
3307.919440  	0.074099 
3309.848256  	0.074440 
3311.777072  	0.074752 
3313.705888  	0.075093 
3315.634704  	0.075549 
3317.563520  	0.075809 
3319.492336  	0.076035 
3321.421152  	0.076283 
3323.349968  	0.076589 
3325.278784  	0.076893 
3327.207600  	0.077053 
3329.136416  	0.077048 
3331.065232  	0.077266 
3332.994048  	0.077501 
3334.922864  	0.077590 
3336.851680  	0.077717 
3338.780496  	0.077649 
3340.709312  	0.077423 
3342.638128  	0.077430 
3344.566944  	0.077271 
3346.495760  	0.077236 
3348.424576  	0.077054 
3350.353392  	0.076777 
3352.282208  	0.076569 
3354.211024  	0.076305 
3356.139840  	0.076188 
3358.068656  	0.076137 
3359.997472  	0.075927 
3361.926288  	0.075511 
3363.855104  	0.075234 
3365.783920  	0.074848 
3367.712736  	0.074459 
3369.641552  	0.074130 
3371.570368  	0.073733 
3373.499184  	0.073605 
3375.428000  	0.073474 
3377.356816  	0.073114 
3379.285632  	0.072898 
3381.214448  	0.072710 
3383.143264  	0.072336 
3385.072080  	0.071924 
3387.000896  	0.071597 
3388.929712  	0.071323 
3390.858528  	0.070949 
3392.787344  	0.070558 
3394.716160  	0.070289 
3396.644976  	0.070142 
3398.573792  	0.069918 
3400.502608  	0.069595 
3402.431424  	0.069197 
3404.360240  	0.068735 
3406.289056  	0.068089 
3408.217872  	0.067600 
3410.146688  	0.067234 
3412.075504  	0.067039 
3414.004320  	0.066815 
3415.933136  	0.066529 
3417.861952  	0.066006 
3419.790768  	0.065449 
3421.719584  	0.064920 
3423.648400  	0.064661 
3425.577216  	0.064323 
3427.506032  	0.063780 
3429.434848  	0.063240 
3431.363664  	0.062765 
3433.292480  	0.062170 
3435.221296  	0.061705 
3437.150112  	0.061348 
3439.078928  	0.060994 
3441.007744  	0.060507 
3442.936560  	0.059997 
3444.865376  	0.059723 
3446.794192  	0.059191 
3448.723008  	0.058361 
3450.651824  	0.057818 
3452.580640  	0.057308 
3454.509456  	0.056919 
3456.438272  	0.056350 
3458.367088  	0.055743 
3460.295904  	0.055255 
3462.224720  	0.054470 
3464.153536  	0.053742 
3466.082352  	0.053270 
3468.011168  	0.052554 
3469.939984  	0.051812 
3471.868800  	0.051136 
3473.797616  	0.050477 
3475.726432  	0.049868 
3477.655248  	0.049239 
3479.584064  	0.048705 
3481.512880  	0.047913 
3483.441696  	0.046897 
3485.370512  	0.046342 
3487.299328  	0.045615 
3489.228144  	0.045038 
3491.156960  	0.044338 
3493.085776  	0.043497 
3495.014592  	0.042783 
3496.943408  	0.042318 
3498.872224  	0.041902 
3500.801040  	0.041643 
3502.729856  	0.040912 
3504.658672  	0.039921 
3506.587488  	0.039591 
3508.516304  	0.039181 
3510.445120  	0.038157 
3512.373936  	0.037418 
3514.302752  	0.036977 
3516.231568  	0.036803 
3518.160384  	0.036390 
3520.089200  	0.035744 
3522.018016  	0.035388 
3523.946832  	0.035017 
3525.875648  	0.034434 
3527.804464  	0.033461 
3529.733280  	0.032655 
3531.662096  	0.032152 
3533.590912  	0.031685 
3535.519728  	0.031333 
3537.448544  	0.030789 
3539.377360  	0.030170 
3541.306176  	0.029816 
3543.234992  	0.029725 
3545.163808  	0.029495 
3547.092624  	0.028385 
3549.021440  	0.027558 
3550.950256  	0.027340 
3552.879072  	0.026516 
3554.807888  	0.025994 
3556.736704  	0.025543 
3558.665520  	0.025140 
3560.594336  	0.024555 
3562.523152  	0.023986 
3564.451968  	0.024095 
3566.380784  	0.023626 
3568.309600  	0.021703 
3570.238416  	0.021170 
3572.167232  	0.021116 
3574.096048  	0.020522 
3576.024864  	0.019603 
3577.953680  	0.019101 
3579.882496  	0.018649 
3581.811312  	0.018112 
3583.740128  	0.017748 
3585.668944  	0.017742 
3587.597760  	0.016084 
3589.526576  	0.014677 
3591.455392  	0.014754 
3593.384208  	0.014568 
3595.313024  	0.013687 
3597.241840  	0.012562 
3599.170656  	0.011613 
3601.099472  	0.010721 
3603.028288  	0.010469 
3604.957104  	0.010668 
3606.885920  	0.010140 
3608.814736  	0.008613 
3610.743552  	0.008161 
3612.672368  	0.007202 
3614.601184  	0.005740 
3616.530000  	0.005947 
3618.458816  	0.004298 
3620.387632  	0.002390 
3622.316448  	0.002800 
3624.245264  	0.003026 
3626.174080  	0.003337 
3628.102896  	0.001391 
3630.031712  	-0.002792 
3631.960528  	-0.001254 
3633.889344  	-0.001389 
3635.818160  	-0.002330 
3637.746976  	-0.002991 
3639.675792  	-0.003534 
3641.604608  	-0.003949 
3643.533424  	-0.004232 
3645.462240  	-0.004090 
3647.391056  	-0.005974 
3649.319872  	-0.010318 
3651.248688  	-0.012769 
3653.177504  	-0.010336 
3655.106320  	-0.010076 
3657.035136  	-0.013035 
3658.963952  	-0.012936 
3660.892768  	-0.012825 
3662.821584  	-0.013275 
3664.750400  	-0.013114 
3666.679216  	-0.012434 
3668.608032  	-0.013558 
3670.536848  	-0.016725 
3672.465664  	-0.014956 
3674.394480  	-0.014907 
3676.323296  	-0.019935 
3678.252112  	-0.017008 
3680.180928  	-0.015366 
3682.109744  	-0.014751 
3684.038560  	-0.014747 
3685.967376  	-0.014153 
3687.896192  	-0.015683 
3689.825008  	-0.018895 
3691.753824  	-0.018230 
3693.682640  	-0.016129 
3695.611456  	-0.014947 
3697.540272  	-0.014205 
3699.469088  	-0.013104 
3701.397904  	-0.013717 
3703.326720  	-0.013999 
3705.255536  	-0.012565 
3707.184352  	-0.011735 
3709.113168  	-0.012346 
3711.041984  	-0.014273 
3712.970800  	-0.014842 
3714.899616  	-0.012681 
3716.828432  	-0.011157 
3718.757248  	-0.011121 
3720.686064  	-0.011505 
3722.614880  	-0.012260 
3724.543696  	-0.011923 
3726.472512  	-0.012006 
3728.401328  	-0.011774 
3730.330144  	-0.011212 
3732.258960  	-0.012364 
3734.187776  	-0.012449 
3736.116592  	-0.014134 
3738.045408  	-0.014015 
3739.974224  	-0.012121 
3741.903040  	-0.010462 
3743.831856  	-0.012178 
3745.760672  	-0.015447 
3747.689488  	-0.012423 
3749.618304  	-0.013702 
3751.547120  	-0.016584 
3753.475936  	-0.015548 
3755.404752  	-0.012615 
3757.333568  	-0.012076 
3759.262384  	-0.013214 
3761.191200  	-0.013158 
3763.120016  	-0.011047 
3765.048832  	-0.011553 
3766.977648  	-0.011833 
3768.906464  	-0.012165 
3770.835280  	-0.013440 
3772.764096  	-0.012323 
3774.692912  	-0.011527 
3776.621728  	-0.011072 
3778.550544  	-0.011874 
3780.479360  	-0.013385 
3782.408176  	-0.012167 
3784.336992  	-0.012137 
3786.265808  	-0.012240 
3788.194624  	-0.011846 
3790.123440  	-0.011869 
3792.052256  	-0.011902 
3793.981072  	-0.011280 
3795.909888  	-0.012062 
3797.838704  	-0.012317 
3799.767520  	-0.011533 
3801.696336  	-0.015260 
3803.625152  	-0.014577 
3805.553968  	-0.012731 
3807.482784  	-0.014807 
3809.411600  	-0.013347 
3811.340416  	-0.011686 
3813.269232  	-0.010749 
3815.198048  	-0.012399 
3817.126864  	-0.014436 
3819.055680  	-0.012274 
3820.984496  	-0.014956 
3822.913312  	-0.015449 
3824.842128  	-0.012618 
3826.770944  	-0.012945 
3828.699760  	-0.012384 
3830.628576  	-0.012062 
3832.557392  	-0.012722 
3834.486208  	-0.012249 
3836.415024  	-0.012824 
3838.343840  	-0.014613 
3840.272656  	-0.014605 
3842.201472  	-0.013419 
3844.130288  	-0.013340 
3846.059104  	-0.012459 
3847.987920  	-0.011114 
3849.916736  	-0.010307 
3851.845552  	-0.011280 
3853.774368  	-0.017694 
3855.703184  	-0.016605 
3857.632000  	-0.013309 
3859.560816  	-0.011626 
3861.489632  	-0.011488 
3863.418448  	-0.012436 
3865.347264  	-0.013398 
3867.276080  	-0.011585 
3869.204896  	-0.012112 
3871.133712  	-0.013777 
3873.062528  	-0.012547 
3874.991344  	-0.013473 
3876.920160  	-0.011714 
3878.848976  	-0.010605 
3880.777792  	-0.012136 
3882.706608  	-0.011643 
3884.635424  	-0.011389 
3886.564240  	-0.013425 
3888.493056  	-0.011851 
3890.421872  	-0.011702 
3892.350688  	-0.013383 
3894.279504  	-0.012474 
3896.208320  	-0.010950 
3898.137136  	-0.010432 
3900.065952  	-0.011080 
3901.994768  	-0.011291 
3903.923584  	-0.012440 
3905.852400  	-0.013191 
3907.781216  	-0.012279 
3909.710032  	-0.011631 
3911.638848  	-0.011542 
3913.567664  	-0.011198 
3915.496480  	-0.010864 
3917.425296  	-0.011578 
3919.354112  	-0.011996 
3921.282928  	-0.011794 
3923.211744  	-0.011111 
3925.140560  	-0.011502 
3927.069376  	-0.011553 
3928.998192  	-0.011153 
3930.927008  	-0.011105 
3932.855824  	-0.011617 
3934.784640  	-0.011927 
3936.713456  	-0.011671 
3938.642272  	-0.011240 
3940.571088  	-0.010690 
3942.499904  	-0.011013 
3944.428720  	-0.011483 
3946.357536  	-0.010885 
3948.286352  	-0.010852 
3950.215168  	-0.011405 
3952.143984  	-0.011631 
3954.072800  	-0.011417 
3956.001616  	-0.011218 
3957.930432  	-0.011310 
3959.859248  	-0.011346 
3961.788064  	-0.011554 
3963.716880  	-0.011758 
3965.645696  	-0.011801 
3967.574512  	-0.011729 
3969.503328  	-0.011549 
3971.432144  	-0.011532 
3973.360960  	-0.011633 
3975.289776  	-0.011806 
3977.218592  	-0.011820 
3979.147408  	-0.011688 
3981.076224  	-0.011619 
3983.005040  	-0.011672 
3984.933856  	-0.011735 
3986.862672  	-0.011753 
3988.791488  	-0.011544 
3990.720304  	-0.011573 
3992.649120  	-0.011648 
3994.577936  	-0.011777 
3996.506752  	-0.011763 
3998.435568  	-0.011787 
4000.364384  	-0.011726 