##TITLE=No Description
##DATA TYPE=INFRARED SPECTRUM
##XUNITS=1/CM
##YUNITS=Abs
399.264912  	0.402904 
401.193728  	0.390456 
403.122544  	0.372241 
405.051360  	0.360251 
406.980176  	0.366577 
408.908992  	0.360346 
410.837808  	0.363054 
412.766624  	0.363708 
414.695440  	0.357946 
416.624256  	0.354772 
418.553072  	0.366089 
420.481888  	0.362873 
422.410704  	0.360353 
424.339520  	0.349070 
426.268336  	0.339002 
428.197152  	0.333940 
430.125968  	0.331940 
432.054784  	0.330012 
433.983600  	0.332273 
435.912416  	0.331207 
437.841232  	0.327683 
439.770048  	0.321707 
441.698864  	0.323269 
443.627680  	0.323921 
445.556496  	0.323108 
447.485312  	0.317305 
449.414128  	0.316518 
451.342944  	0.318341 
453.271760  	0.315741 
455.200576  	0.309711 
457.129392  	0.309465 
459.058208  	0.308649 
460.987024  	0.308969 
462.915840  	0.305913 
464.844656  	0.302482 
466.773472  	0.301664 
468.702288  	0.301461 
470.631104  	0.301433 
472.559920  	0.308674 
474.488736  	0.305800 
476.417552  	0.304076 
478.346368  	0.300565 
480.275184  	0.297283 
482.204000  	0.296169 
484.132816  	0.299409 
486.061632  	0.298474 
487.990448  	0.297150 
489.919264  	0.297128 
491.848080  	0.294738 
493.776896  	0.291881 
495.705712  	0.290326 
497.634528  	0.289170 
499.563344  	0.288200 
501.492160  	0.288581 
503.420976  	0.290120 
505.349792  	0.287221 
507.278608  	0.288943 
509.207424  	0.286801 
511.136240  	0.285141 
513.065056  	0.284672 
514.993872  	0.287247 
516.922688  	0.289122 
518.851504  	0.290054 
520.780320  	0.289635 
522.709136  	0.287739 
524.637952  	0.285356 
526.566768  	0.283847 
528.495584  	0.281101 
530.424400  	0.281031 
532.353216  	0.279620 
534.282032  	0.276490 
536.210848  	0.274239 
538.139664  	0.271622 
540.068480  	0.269150 
541.997296  	0.266536 
543.926112  	0.264149 
545.854928  	0.264633 
547.783744  	0.263281 
549.712560  	0.261494 
551.641376  	0.258582 
553.570192  	0.256950 
555.499008  	0.253672 
557.427824  	0.252424 
559.356640  	0.251193 
561.285456  	0.250899 
563.214272  	0.248600 
565.143088  	0.247239 
567.071904  	0.245493 
569.000720  	0.243720 
570.929536  	0.242103 
572.858352  	0.240200 
574.787168  	0.239279 
576.715984  	0.238112 
578.644800  	0.235196 
580.573616  	0.232435 
582.502432  	0.228953 
584.431248  	0.226844 
586.360064  	0.225418 
588.288880  	0.224280 
590.217696  	0.223155 
592.146512  	0.223136 
594.075328  	0.221073 
596.004144  	0.218971 
597.932960  	0.216918 
599.861776  	0.216992 
601.790592  	0.215844 
603.719408  	0.214520 
605.648224  	0.213736 
607.577040  	0.213039 
609.505856  	0.211568 
611.434672  	0.210115 
613.363488  	0.208696 
615.292304  	0.208328 
617.221120  	0.207208 
619.149936  	0.206266 
621.078752  	0.205728 
623.007568  	0.204691 
624.936384  	0.203995 
626.865200  	0.203652 
628.794016  	0.202684 
630.722832  	0.201931 
632.651648  	0.201930 
634.580464  	0.201886 
636.509280  	0.201724 
638.438096  	0.201262 
640.366912  	0.200294 
642.295728  	0.198673 
644.224544  	0.197380 
646.153360  	0.195785 
648.082176  	0.192905 
650.010992  	0.191078 
651.939808  	0.189290 
653.868624  	0.187546 
655.797440  	0.185041 
657.726256  	0.183350 
659.655072  	0.181388 
661.583888  	0.179321 
663.512704  	0.177046 
665.441520  	0.173371 
667.370336  	0.171411 
669.299152  	0.174381 
671.227968  	0.170314 
673.156784  	0.166444 
675.085600  	0.164515 
677.014416  	0.162887 
678.943232  	0.161721 
680.872048  	0.160760 
682.800864  	0.159831 
684.729680  	0.159016 
686.658496  	0.157930 
688.587312  	0.157387 
690.516128  	0.156392 
692.444944  	0.155940 
694.373760  	0.155063 
696.302576  	0.154023 
698.231392  	0.152689 
700.160208  	0.151447 
702.089024  	0.149722 
704.017840  	0.148427 
705.946656  	0.146832 
707.875472  	0.144820 
709.804288  	0.143485 
711.733104  	0.142465 
713.661920  	0.141260 
715.590736  	0.139977 
717.519552  	0.139492 
719.448368  	0.139834 
721.377184  	0.140369 
723.306000  	0.140435 
725.234816  	0.140193 
727.163632  	0.139588 
729.092448  	0.138212 
731.021264  	0.136396 
732.950080  	0.134432 
734.878896  	0.132837 
736.807712  	0.131277 
738.736528  	0.129638 
740.665344  	0.128354 
742.594160  	0.127730 
744.522976  	0.126740 
746.451792  	0.126031 
748.380608  	0.124957 
750.309424  	0.123890 
752.238240  	0.123005 
754.167056  	0.122505 
756.095872  	0.121855 
758.024688  	0.120929 
759.953504  	0.120355 
761.882320  	0.120609 
763.811136  	0.121051 
765.739952  	0.119827 
767.668768  	0.117894 
769.597584  	0.116473 
771.526400  	0.115746 
773.455216  	0.116265 
775.384032  	0.117807 
777.312848  	0.120162 
779.241664  	0.121837 
781.170480  	0.121480 
783.099296  	0.118953 
785.028112  	0.115873 
786.956928  	0.112837 
788.885744  	0.110584 
790.814560  	0.108637 
792.743376  	0.107355 
794.672192  	0.106773 
796.601008  	0.106142 
798.529824  	0.104493 
800.458640  	0.102140 
802.387456  	0.100090 
804.316272  	0.098754 
806.245088  	0.098034 
808.173904  	0.097168 
810.102720  	0.096557 
812.031536  	0.096266 
813.960352  	0.095917 
815.889168  	0.095735 
817.817984  	0.095850 
819.746800  	0.095940 
821.675616  	0.095877 
823.604432  	0.096044 
825.533248  	0.096130 
827.462064  	0.096233 
829.390880  	0.095672 
831.319696  	0.095102 
833.248512  	0.094633 
835.177328  	0.093734 
837.106144  	0.092019 
839.034960  	0.090362 
840.963776  	0.088444 
842.892592  	0.086350 
844.821408  	0.084230 
846.750224  	0.082252 
848.679040  	0.080711 
850.607856  	0.079467 
852.536672  	0.078682 
854.465488  	0.077706 
856.394304  	0.076972 
858.323120  	0.076026 
860.251936  	0.074966 
862.180752  	0.074097 
864.109568  	0.072730 
866.038384  	0.071315 
867.967200  	0.069958 
869.896016  	0.068831 
871.824832  	0.067976 
873.753648  	0.067971 
875.682464  	0.068039 
877.611280  	0.068629 
879.540096  	0.069510 
881.468912  	0.070643 
883.397728  	0.071852 
885.326544  	0.072838 
887.255360  	0.073490 
889.184176  	0.073539 
891.112992  	0.073407 
893.041808  	0.072641 
894.970624  	0.071419 
896.899440  	0.069224 
898.828256  	0.066824 
900.757072  	0.064617 
902.685888  	0.062696 
904.614704  	0.061546 
906.543520  	0.061189 
908.472336  	0.061886 
910.401152  	0.063006 
912.329968  	0.064495 
914.258784  	0.065817 
916.187600  	0.067243 
918.116416  	0.068334 
920.045232  	0.069100 
921.974048  	0.069532 
923.902864  	0.069927 
925.831680  	0.070188 
927.760496  	0.070478 
929.689312  	0.070950 
931.618128  	0.071491 
933.546944  	0.071892 
935.475760  	0.071970 
937.404576  	0.071928 
939.333392  	0.071575 
941.262208  	0.071390 
943.191024  	0.071847 
945.119840  	0.073093 
947.048656  	0.075517 
948.977472  	0.079287 
950.906288  	0.083997 
952.835104  	0.089609 
954.763920  	0.096051 
956.692736  	0.102337 
958.621552  	0.108072 
960.550368  	0.112315 
962.479184  	0.115062 
964.408000  	0.115444 
966.336816  	0.113681 
968.265632  	0.109760 
970.194448  	0.104209 
972.123264  	0.097312 
974.052080  	0.089894 
975.980896  	0.082533 
977.909712  	0.075420 
979.838528  	0.069004 
981.767344  	0.063775 
983.696160  	0.060131 
985.624976  	0.057582 
987.553792  	0.056623 
989.482608  	0.057328 
991.411424  	0.059255 
993.340240  	0.062239 
995.269056  	0.065719 
997.197872  	0.069570 
999.126688  	0.073430 
1001.055504  	0.077490 
1002.984320  	0.081063 
1004.913136  	0.084716 
1006.841952  	0.088098 
1008.770768  	0.091311 
1010.699584  	0.093814 
1012.628400  	0.095803 
1014.557216  	0.097491 
1016.486032  	0.098342 
1018.414848  	0.098686 
1020.343664  	0.098861 
1022.272480  	0.099094 
1024.201296  	0.098856 
1026.130112  	0.098398 
1028.058928  	0.098552 
1029.987744  	0.099643 
1031.916560  	0.100780 
1033.845376  	0.102102 
1035.774192  	0.104181 
1037.703008  	0.106734 
1039.631824  	0.110812 
1041.560640  	0.116267 
1043.489456  	0.123218 
1045.418272  	0.130859 
1047.347088  	0.138693 
1049.275904  	0.144428 
1051.204720  	0.147922 
1053.133536  	0.149392 
1055.062352  	0.148950 
1056.991168  	0.147564 
1058.919984  	0.146409 
1060.848800  	0.145646 
1062.777616  	0.144719 
1064.706432  	0.143167 
1066.635248  	0.141533 
1068.564064  	0.139783 
1070.492880  	0.137141 
1072.421696  	0.133926 
1074.350512  	0.132037 
1076.279328  	0.131661 
1078.208144  	0.133139 
1080.136960  	0.135601 
1082.065776  	0.137855 
1083.994592  	0.137963 
1085.923408  	0.136318 
1087.852224  	0.132857 
1089.781040  	0.128500 
1091.709856  	0.123185 
1093.638672  	0.116941 
1095.567488  	0.109832 
1097.496304  	0.102682 
1099.425120  	0.095549 
1101.353936  	0.088611 
1103.282752  	0.081924 
1105.211568  	0.075605 
1107.140384  	0.070147 
1109.069200  	0.065007 
1110.998016  	0.060385 
1112.926832  	0.056184 
1114.855648  	0.052419 
1116.784464  	0.048606 
1118.713280  	0.044941 
1120.642096  	0.041600 
1122.570912  	0.038384 
1124.499728  	0.035369 
1126.428544  	0.032711 
1128.357360  	0.030468 
1130.286176  	0.028490 
1132.214992  	0.026960 
1134.143808  	0.025921 
1136.072624  	0.024950 
1138.001440  	0.023888 
1139.930256  	0.023094 
1141.859072  	0.022324 
1143.787888  	0.021393 
1145.716704  	0.020662 
1147.645520  	0.020045 
1149.574336  	0.019762 
1151.503152  	0.019297 
1153.431968  	0.019109 
1155.360784  	0.019100 
1157.289600  	0.019630 
1159.218416  	0.020271 
1161.147232  	0.021029 
1163.076048  	0.022123 
1165.004864  	0.023124 
1166.933680  	0.023993 
1168.862496  	0.024999 
1170.791312  	0.026180 
1172.720128  	0.027611 
1174.648944  	0.029263 
1176.577760  	0.030675 
1178.506576  	0.032226 
1180.435392  	0.034007 
1182.364208  	0.035710 
1184.293024  	0.037624 
1186.221840  	0.040005 
1188.150656  	0.042664 
1190.079472  	0.045492 
1192.008288  	0.048970 
1193.937104  	0.052715 
1195.865920  	0.056840 
1197.794736  	0.061338 
1199.723552  	0.066204 
1201.652368  	0.070931 
1203.581184  	0.075333 
1205.510000  	0.079755 
1207.438816  	0.083747 
1209.367632  	0.087122 
1211.296448  	0.089777 
1213.225264  	0.092159 
1215.154080  	0.093545 
1217.082896  	0.094098 
1219.011712  	0.093989 
1220.940528  	0.093664 
1222.869344  	0.093025 
1224.798160  	0.092434 
1226.726976  	0.091188 
1228.655792  	0.089224 
1230.584608  	0.087195 
1232.513424  	0.084867 
1234.442240  	0.082364 
1236.371056  	0.079677 
1238.299872  	0.076760 
1240.228688  	0.073379 
1242.157504  	0.069984 
1244.086320  	0.066644 
1246.015136  	0.063123 
1247.943952  	0.059813 
1249.872768  	0.056503 
1251.801584  	0.053301 
1253.730400  	0.050179 
1255.659216  	0.047122 
1257.588032  	0.044164 
1259.516848  	0.041789 
1261.445664  	0.039203 
1263.374480  	0.036551 
1265.303296  	0.034617 
1267.232112  	0.033235 
1269.160928  	0.032369 
1271.089744  	0.031732 
1273.018560  	0.031096 
1274.947376  	0.030860 
1276.876192  	0.031225 
1278.805008  	0.031426 
1280.733824  	0.031343 
1282.662640  	0.030490 
1284.591456  	0.029431 
1286.520272  	0.028922 
1288.449088  	0.028705 
1290.377904  	0.028229 
1292.306720  	0.028351 
1294.235536  	0.028695 
1296.164352  	0.028777 
1298.093168  	0.027904 
1300.021984  	0.026394 
1301.950800  	0.024791 
1303.879616  	0.023221 
1305.808432  	0.021701 
1307.737248  	0.020192 
1309.666064  	0.018458 
1311.594880  	0.017787 
1313.523696  	0.017581 
1315.452512  	0.016895 
1317.381328  	0.017062 
1319.310144  	0.017371 
1321.238960  	0.016633 
1323.167776  	0.016264 
1325.096592  	0.016459 
1327.025408  	0.016633 
1328.954224  	0.016613 
1330.883040  	0.016216 
1332.811856  	0.015408 
1334.740672  	0.015241 
1336.669488  	0.016867 
1338.598304  	0.019772 
1340.527120  	0.019127 
1342.455936  	0.014924 
1344.384752  	0.013559 
1346.313568  	0.013710 
1348.242384  	0.014341 
1350.171200  	0.015048 
1352.100016  	0.015822 
1354.028832  	0.017253 
1355.957648  	0.018541 
1357.886464  	0.019544 
1359.815280  	0.021546 
1361.744096  	0.025541 
1363.672912  	0.026902 
1365.601728  	0.024537 
1367.530544  	0.025177 
1369.459360  	0.026446 
1371.388176  	0.026355 
1373.316992  	0.028143 
1375.245808  	0.028143 
1377.174624  	0.024948 
1379.103440  	0.023070 
1381.032256  	0.020877 
1382.961072  	0.019140 
1384.889888  	0.018769 
1386.818704  	0.020809 
1388.747520  	0.019317 
1390.676336  	0.016214 
1392.605152  	0.015515 
1394.533968  	0.018089 
1396.462784  	0.019251 
1398.391600  	0.018633 
1400.320416  	0.016865 
1402.249232  	0.014772 
1404.178048  	0.016380 
1406.106864  	0.017063 
1408.035680  	0.016408 
1409.964496  	0.017640 
1411.893312  	0.019062 
1413.822128  	0.019794 
1415.750944  	0.022661 
1417.679760  	0.026927 
1419.608576  	0.028438 
1421.537392  	0.024984 
1423.466208  	0.024611 
1425.395024  	0.023147 
1427.323840  	0.020549 
1429.252656  	0.020747 
1431.181472  	0.020191 
1433.110288  	0.019017 
1435.039104  	0.019870 
1436.967920  	0.022812 
1438.896736  	0.020594 
1440.825552  	0.019027 
1442.754368  	0.019074 
1444.683184  	0.019238 
1446.612000  	0.020608 
1448.540816  	0.021814 
1450.469632  	0.020873 
1452.398448  	0.021253 
1454.327264  	0.022560 
1456.256080  	0.028264 
1458.184896  	0.031628 
1460.113712  	0.024617 
1462.042528  	0.020386 
1463.971344  	0.021203 
1465.900160  	0.022786 
1467.828976  	0.021300 
1469.757792  	0.021533 
1471.686608  	0.027608 
1473.615424  	0.035195 
1475.544240  	0.034987 
1477.473056  	0.034637 
1479.401872  	0.034023 
1481.330688  	0.036339 
1483.259504  	0.036968 
1485.188320  	0.037636 
1487.117136  	0.040915 
1489.045952  	0.045726 
1490.974768  	0.044059 
1492.903584  	0.036998 
1494.832400  	0.034054 
1496.761216  	0.034969 
1498.690032  	0.032368 
1500.618848  	0.028238 
1502.547664  	0.024219 
1504.476480  	0.022497 
1506.405296  	0.031786 
1508.334112  	0.036272 
1510.262928  	0.027036 
1512.191744  	0.021670 
1514.120560  	0.020341 
1516.049376  	0.024133 
1517.978192  	0.025362 
1519.907008  	0.024989 
1521.835824  	0.030914 
1523.764640  	0.029423 
1525.693456  	0.030338 
1527.622272  	0.030763 
1529.551088  	0.027780 
1531.479904  	0.026606 
1533.408720  	0.029229 
1535.337536  	0.026184 
1537.266352  	0.022658 
1539.195168  	0.026134 
1541.123984  	0.030840 
1543.052800  	0.027819 
1544.981616  	0.024481 
1546.910432  	0.018152 
1548.839248  	0.017590 
1550.768064  	0.019054 
1552.696880  	0.017254 
1554.625696  	0.019207 
1556.554512  	0.019507 
1558.483328  	0.026725 
1560.412144  	0.028288 
1562.340960  	0.021877 
1564.269776  	0.021699 
1566.198592  	0.023708 
1568.127408  	0.025407 
1570.056224  	0.031397 
1571.985040  	0.031051 
1573.913856  	0.030629 
1575.842672  	0.035559 
1577.771488  	0.038543 
1579.700304  	0.034484 
1581.629120  	0.033099 
1583.557936  	0.032663 
1585.486752  	0.033142 
1587.415568  	0.034151 
1589.344384  	0.036559 
1591.273200  	0.039276 
1593.202016  	0.042743 
1595.130832  	0.046645 
1597.059648  	0.049890 
1598.988464  	0.052173 
1600.917280  	0.055332 
1602.846096  	0.057925 
1604.774912  	0.059101 
1606.703728  	0.059433 
1608.632544  	0.060437 
1610.561360  	0.059507 
1612.490176  	0.057757 
1614.418992  	0.055709 
1616.347808  	0.059587 
1618.276624  	0.062709 
1620.205440  	0.060319 
1622.134256  	0.061763 
1624.063072  	0.068116 
1625.991888  	0.068711 
1627.920704  	0.072463 
1629.849520  	0.075925 
1631.778336  	0.076604 
1633.707152  	0.077693 
1635.635968  	0.089729 
1637.564784  	0.097409 
1639.493600  	0.093503 
1641.422416  	0.092904 
1643.351232  	0.092002 
1645.280048  	0.092747 
1647.208864  	0.104001 
1649.137680  	0.100922 
1651.066496  	0.091087 
1652.995312  	0.099225 
1654.924128  	0.107151 
1656.852944  	0.095749 
1658.781760  	0.090442 
1660.710576  	0.088358 
1662.639392  	0.089951 
1664.568208  	0.088001 
1666.497024  	0.082544 
1668.425840  	0.082474 
1670.354656  	0.085279 
1672.283472  	0.080529 
1674.212288  	0.076315 
1676.141104  	0.077812 
1678.069920  	0.074189 
1679.998736  	0.074349 
1681.927552  	0.072924 
1683.856368  	0.077037 
1685.785184  	0.079368 
1687.714000  	0.073152 
1689.642816  	0.071889 
1691.571632  	0.068895 
1693.500448  	0.065163 
1695.429264  	0.068014 
1697.358080  	0.072582 
1699.286896  	0.068752 
1701.215712  	0.072508 
1703.144528  	0.066597 
1705.073344  	0.064751 
1707.002160  	0.063056 
1708.930976  	0.058092 
1710.859792  	0.054418 
1712.788608  	0.051519 
1714.717424  	0.050820 
1716.646240  	0.049803 
1718.575056  	0.044008 
1720.503872  	0.034228 
1722.432688  	0.028168 
1724.361504  	0.023255 
1726.290320  	0.017985 
1728.219136  	0.015470 
1730.147952  	0.015233 
1732.076768  	0.013784 
1734.005584  	0.013932 
1735.934400  	0.008868 
1737.863216  	0.005463 
1739.792032  	0.004648 
1741.720848  	0.003662 
1743.649664  	0.004271 
1745.578480  	0.003392 
1747.507296  	0.003872 
1749.436112  	0.004910 
1751.364928  	0.003175 
1753.293744  	-0.001038 
1755.222560  	-0.002527 
1757.151376  	-0.001162 
1759.080192  	-0.002304 
1761.009008  	-0.002120 
1762.937824  	-0.002495 
1764.866640  	-0.004512 
1766.795456  	-0.003796 
1768.724272  	-0.002162 
1770.653088  	-0.001963 
1772.581904  	-0.000503 
1774.510720  	-0.002167 
1776.439536  	-0.003928 
1778.368352  	-0.004877 
1780.297168  	-0.003975 
1782.225984  	-0.004910 
1784.154800  	-0.005183 
1786.083616  	-0.005696 
1788.012432  	-0.006570 
1789.941248  	-0.004736 
1791.870064  	-0.001874 
1793.798880  	-0.003104 
1795.727696  	-0.004482 
1797.656512  	-0.005697 
1799.585328  	-0.005328 
1801.514144  	-0.004002 
1803.442960  	-0.005586 
1805.371776  	-0.006961 
1807.300592  	-0.006981 
1809.229408  	-0.006695 
1811.158224  	-0.006012 
1813.087040  	-0.007042 
1815.015856  	-0.008437 
1816.944672  	-0.007946 
1818.873488  	-0.007927 
1820.802304  	-0.008174 
1822.731120  	-0.007392 
1824.659936  	-0.006086 
1826.588752  	-0.006305 
1828.517568  	-0.006023 
1830.446384  	-0.005119 
1832.375200  	-0.007247 
1834.304016  	-0.008178 
1836.232832  	-0.007938 
1838.161648  	-0.007721 
1840.090464  	-0.008073 
1842.019280  	-0.007161 
1843.948096  	-0.005001 
1845.876912  	-0.005110 
1847.805728  	-0.006765 
1849.734544  	-0.008243 
1851.663360  	-0.008976 
1853.592176  	-0.008771 
1855.520992  	-0.008932 
1857.449808  	-0.008680 
1859.378624  	-0.008761 
1861.307440  	-0.008698 
1863.236256  	-0.008949 
1865.165072  	-0.008592 
1867.093888  	-0.006684 
1869.022704  	-0.004363 
1870.951520  	-0.006577 
1872.880336  	-0.008991 
1874.809152  	-0.009788 
1876.737968  	-0.009757 
1878.666784  	-0.009608 
1880.595600  	-0.009724 
1882.524416  	-0.009522 
1884.453232  	-0.009046 
1886.382048  	-0.009470 
1888.310864  	-0.008380 
1890.239680  	-0.007847 
1892.168496  	-0.009033 
1894.097312  	-0.008829 
1896.026128  	-0.008707 
1897.954944  	-0.009488 
1899.883760  	-0.009659 
1901.812576  	-0.009687 
1903.741392  	-0.009807 
1905.670208  	-0.010106 
1907.599024  	-0.009590 
1909.527840  	-0.008684 
1911.456656  	-0.008664 
1913.385472  	-0.009116 
1915.314288  	-0.009112 
1917.243104  	-0.008415 
1919.171920  	-0.007974 
1921.100736  	-0.008288 
1923.029552  	-0.007686 
1924.958368  	-0.009669 
1926.887184  	-0.010323 
1928.816000  	-0.010324 
1930.744816  	-0.009904 
1932.673632  	-0.009900 
1934.602448  	-0.009604 
1936.531264  	-0.009338 
1938.460080  	-0.009013 
1940.388896  	-0.008788 
1942.317712  	-0.007563 
1944.246528  	-0.009221 
1946.175344  	-0.009889 
1948.104160  	-0.009583 
1950.032976  	-0.009937 
1951.961792  	-0.010855 
1953.890608  	-0.011152 
1955.819424  	-0.011354 
1957.748240  	-0.010995 
1959.677056  	-0.010742 
1961.605872  	-0.010367 
1963.534688  	-0.010367 
1965.463504  	-0.009344 
1967.392320  	-0.009238 
1969.321136  	-0.010377 
1971.249952  	-0.011546 
1973.178768  	-0.010921 
1975.107584  	-0.009904 
1977.036400  	-0.009562 
1978.965216  	-0.009838 
1980.894032  	-0.010228 
1982.822848  	-0.010902 
1984.751664  	-0.010985 
1986.680480  	-0.009904 
1988.609296  	-0.008630 
1990.538112  	-0.008336 
1992.466928  	-0.007809 
1994.395744  	-0.009556 
1996.324560  	-0.010468 
1998.253376  	-0.010351 
2000.182192  	-0.010595 
2002.111008  	-0.010724 
2004.039824  	-0.009866 
2005.968640  	-0.010219 
2007.897456  	-0.010590 
2009.826272  	-0.010510 
2011.755088  	-0.009567 
2013.683904  	-0.010557 
2015.612720  	-0.010461 
2017.541536  	-0.009217 
2019.470352  	-0.008979 
2021.399168  	-0.010551 
2023.327984  	-0.011000 
2025.256800  	-0.010356 
2027.185616  	-0.008872 
2029.114432  	-0.009467 
2031.043248  	-0.009575 
2032.972064  	-0.009248 
2034.900880  	-0.008831 
2036.829696  	-0.008873 
2038.758512  	-0.008351 
2040.687328  	-0.008554 
2042.616144  	-0.008986 
2044.544960  	-0.009504 
2046.473776  	-0.009011 
2048.402592  	-0.008123 
2050.331408  	-0.008320 
2052.260224  	-0.008655 
2054.189040  	-0.008474 
2056.117856  	-0.009035 
2058.046672  	-0.009431 
2059.975488  	-0.009260 
2061.904304  	-0.008163 
2063.833120  	-0.007499 
2065.761936  	-0.007423 
2067.690752  	-0.008308 
2069.619568  	-0.008406 
2071.548384  	-0.008591 
2073.477200  	-0.008289 
2075.406016  	-0.007772 
2077.334832  	-0.007579 
2079.263648  	-0.007423 
2081.192464  	-0.007250 
2083.121280  	-0.007925 
2085.050096  	-0.008312 
2086.978912  	-0.008502 
2088.907728  	-0.008215 
2090.836544  	-0.007962 
2092.765360  	-0.008047 
2094.694176  	-0.007786 
2096.622992  	-0.007171 
2098.551808  	-0.007502 
2100.480624  	-0.007663 
2102.409440  	-0.007623 
2104.338256  	-0.007543 
2106.267072  	-0.007760 
2108.195888  	-0.007766 
2110.124704  	-0.007803 
2112.053520  	-0.007481 
2113.982336  	-0.007357 
2115.911152  	-0.007608 
2117.839968  	-0.008111 
2119.768784  	-0.008321 
2121.697600  	-0.008261 
2123.626416  	-0.008010 
2125.555232  	-0.008318 
2127.484048  	-0.008291 
2129.412864  	-0.008243 
2131.341680  	-0.007798 
2133.270496  	-0.007547 
2135.199312  	-0.007168 
2137.128128  	-0.007147 
2139.056944  	-0.006903 
2140.985760  	-0.006717 
2142.914576  	-0.006457 
2144.843392  	-0.007351 
2146.772208  	-0.007980 
2148.701024  	-0.007708 
2150.629840  	-0.007596 
2152.558656  	-0.007991 
2154.487472  	-0.007850 
2156.416288  	-0.007642 
2158.345104  	-0.005057 
2160.273920  	-0.003308 
2162.202736  	-0.004008 
2164.131552  	-0.005681 
2166.060368  	-0.005417 
2167.989184  	-0.005501 
2169.918000  	-0.006310 
2171.846816  	-0.006163 
2173.775632  	-0.005701 
2175.704448  	-0.005836 
2177.633264  	-0.005755 
2179.562080  	-0.006381 
2181.490896  	-0.005238 
2183.419712  	-0.004708 
2185.348528  	-0.005872 
2187.277344  	-0.007202 
2189.206160  	-0.006963 
2191.134976  	-0.006714 
2193.063792  	-0.007025 
2194.992608  	-0.007358 
2196.921424  	-0.007570 
2198.850240  	-0.007540 
2200.779056  	-0.007250 
2202.707872  	-0.006936 
2204.636688  	-0.006810 
2206.565504  	-0.007524 
2208.494320  	-0.008108 
2210.423136  	-0.007639 
2212.351952  	-0.007286 
2214.280768  	-0.007915 
2216.209584  	-0.008178 
2218.138400  	-0.008253 
2220.067216  	-0.008565 
2221.996032  	-0.008681 
2223.924848  	-0.008230 
2225.853664  	-0.008099 
2227.782480  	-0.007826 
2229.711296  	-0.008507 
2231.640112  	-0.008694 
2233.568928  	-0.008727 
2235.497744  	-0.008725 
2237.426560  	-0.008574 
2239.355376  	-0.008599 
2241.284192  	-0.009163 
2243.213008  	-0.009210 
2245.141824  	-0.008892 
2247.070640  	-0.008481 
2248.999456  	-0.008395 
2250.928272  	-0.008456 
2252.857088  	-0.008546 
2254.785904  	-0.008456 
2256.714720  	-0.008259 
2258.643536  	-0.007825 
2260.572352  	-0.007688 
2262.501168  	-0.007837 
2264.429984  	-0.007865 
2266.358800  	-0.007926 
2268.287616  	-0.008082 
2270.216432  	-0.008214 
2272.145248  	-0.008180 
2274.074064  	-0.007817 
2276.002880  	-0.007802 
2277.931696  	-0.007643 
2279.860512  	-0.007825 
2281.789328  	-0.007884 
2283.718144  	-0.007594 
2285.646960  	-0.007260 
2287.575776  	-0.007027 
2289.504592  	-0.006869 
2291.433408  	-0.006806 
2293.362224  	-0.006473 
2295.291040  	-0.006354 
2297.219856  	-0.006199 
2299.148672  	-0.005882 
2301.077488  	-0.005466 
2303.006304  	-0.004967 
2304.935120  	-0.004452 
2306.863936  	-0.004178 
2308.792752  	-0.003805 
2310.721568  	-0.003822 
2312.650384  	-0.004310 
2314.579200  	-0.005233 
2316.508016  	-0.005333 
2318.436832  	-0.005088 
2320.365648  	-0.004934 
2322.294464  	-0.005104 
2324.223280  	-0.006069 
2326.152096  	-0.007820 
2328.080912  	-0.009161 
2330.009728  	-0.009655 
2331.938544  	-0.010199 
2333.867360  	-0.011381 
2335.796176  	-0.012250 
2337.724992  	-0.012696 
2339.653808  	-0.012930 
2341.582624  	-0.012431 
2343.511440  	-0.010865 
2345.440256  	-0.008796 
2347.369072  	-0.007166 
2349.297888  	-0.007332 
2351.226704  	-0.009155 
2353.155520  	-0.011561 
2355.084336  	-0.013137 
2357.013152  	-0.013852 
2358.941968  	-0.014232 
2360.870784  	-0.014629 
2362.799600  	-0.014235 
2364.728416  	-0.012400 
2366.657232  	-0.011017 
2368.586048  	-0.010311 
2370.514864  	-0.008946 
2372.443680  	-0.007412 
2374.372496  	-0.006147 
2376.301312  	-0.005342 
2378.230128  	-0.004793 
2380.158944  	-0.004810 
2382.087760  	-0.005448 
2384.016576  	-0.006583 
2385.945392  	-0.007456 
2387.874208  	-0.007809 
2389.803024  	-0.008231 
2391.731840  	-0.008638 
2393.660656  	-0.008670 
2395.589472  	-0.008474 
2397.518288  	-0.008373 
2399.447104  	-0.008427 
2401.375920  	-0.008492 
2403.304736  	-0.008744 
2405.233552  	-0.008798 
2407.162368  	-0.008867 
2409.091184  	-0.008929 
2411.020000  	-0.008972 
2412.948816  	-0.008940 
2414.877632  	-0.008822 
2416.806448  	-0.008715 
2418.735264  	-0.008840 
2420.664080  	-0.008808 
2422.592896  	-0.008699 
2424.521712  	-0.008669 
2426.450528  	-0.008719 
2428.379344  	-0.008646 
2430.308160  	-0.008403 
2432.236976  	-0.008336 
2434.165792  	-0.008132 
2436.094608  	-0.007932 
2438.023424  	-0.007990 
2439.952240  	-0.007996 
2441.881056  	-0.008085 
2443.809872  	-0.008141 
2445.738688  	-0.008079 
2447.667504  	-0.007913 
2449.596320  	-0.007768 
2451.525136  	-0.007861 
2453.453952  	-0.007841 
2455.382768  	-0.007828 
2457.311584  	-0.007914 
2459.240400  	-0.008026 
2461.169216  	-0.007930 
2463.098032  	-0.007693 
2465.026848  	-0.007740 
2466.955664  	-0.007792 
2468.884480  	-0.007893 
2470.813296  	-0.007889 
2472.742112  	-0.007723 
2474.670928  	-0.007636 
2476.599744  	-0.007500 
2478.528560  	-0.007330 
2480.457376  	-0.007169 
2482.386192  	-0.006978 
2484.315008  	-0.007292 
2486.243824  	-0.007364 
2488.172640  	-0.007089 
2490.101456  	-0.006899 
2492.030272  	-0.006866 
2493.959088  	-0.006976 
2495.887904  	-0.007110 
2497.816720  	-0.006969 
2499.745536  	-0.006958 
2501.674352  	-0.007034 
2503.603168  	-0.006960 
2505.531984  	-0.006802 
2507.460800  	-0.006897 
2509.389616  	-0.006992 
2511.318432  	-0.007094 
2513.247248  	-0.006839 
2515.176064  	-0.006578 
2517.104880  	-0.006700 
2519.033696  	-0.006940 
2520.962512  	-0.006876 
2522.891328  	-0.006764 
2524.820144  	-0.006480 
2526.748960  	-0.006457 
2528.677776  	-0.006412 
2530.606592  	-0.006400 
2532.535408  	-0.006291 
2534.464224  	-0.006293 
2536.393040  	-0.006305 
2538.321856  	-0.006297 
2540.250672  	-0.006221 
2542.179488  	-0.006108 
2544.108304  	-0.006171 
2546.037120  	-0.006072 
2547.965936  	-0.005898 
2549.894752  	-0.005888 
2551.823568  	-0.005703 
2553.752384  	-0.005686 
2555.681200  	-0.005877 
2557.610016  	-0.005741 
2559.538832  	-0.005534 
2561.467648  	-0.005329 
2563.396464  	-0.005211 
2565.325280  	-0.005391 
2567.254096  	-0.005608 
2569.182912  	-0.005585 
2571.111728  	-0.005428 
2573.040544  	-0.005268 
2574.969360  	-0.005138 
2576.898176  	-0.005071 
2578.826992  	-0.005105 
2580.755808  	-0.005050 
2582.684624  	-0.004868 
2584.613440  	-0.004840 
2586.542256  	-0.004737 
2588.471072  	-0.004862 
2590.399888  	-0.004801 
2592.328704  	-0.004594 
2594.257520  	-0.004523 
2596.186336  	-0.004658 
2598.115152  	-0.004601 
2600.043968  	-0.004481 
2601.972784  	-0.004545 
2603.901600  	-0.004458 
2605.830416  	-0.004375 
2607.759232  	-0.004334 
2609.688048  	-0.004263 
2611.616864  	-0.004116 
2613.545680  	-0.004025 
2615.474496  	-0.004011 
2617.403312  	-0.003840 
2619.332128  	-0.003805 
2621.260944  	-0.003838 
2623.189760  	-0.003848 
2625.118576  	-0.003662 
2627.047392  	-0.003618 
2628.976208  	-0.003524 
2630.905024  	-0.003398 
2632.833840  	-0.003403 
2634.762656  	-0.003434 
2636.691472  	-0.003299 
2638.620288  	-0.003204 
2640.549104  	-0.003056 
2642.477920  	-0.002882 
2644.406736  	-0.002933 
2646.335552  	-0.002963 
2648.264368  	-0.002833 
2650.193184  	-0.002658 
2652.122000  	-0.002592 
2654.050816  	-0.002499 
2655.979632  	-0.002424 
2657.908448  	-0.002439 
2659.837264  	-0.002383 
2661.766080  	-0.002294 
2663.694896  	-0.002243 
2665.623712  	-0.002145 
2667.552528  	-0.002063 
2669.481344  	-0.002071 
2671.410160  	-0.002026 
2673.338976  	-0.001906 
2675.267792  	-0.001835 
2677.196608  	-0.001689 
2679.125424  	-0.001543 
2681.054240  	-0.001457 
2682.983056  	-0.001347 
2684.911872  	-0.001313 
2686.840688  	-0.001259 
2688.769504  	-0.001094 
2690.698320  	-0.001008 
2692.627136  	-0.001071 
2694.555952  	-0.001047 
2696.484768  	-0.000941 
2698.413584  	-0.000825 
2700.342400  	-0.000835 
2702.271216  	-0.000731 
2704.200032  	-0.000620 
2706.128848  	-0.000515 
2708.057664  	-0.000379 
2709.986480  	-0.000307 
2711.915296  	-0.000261 
2713.844112  	-0.000168 
2715.772928  	-0.000074 
2717.701744  	-0.000107 
2719.630560  	0.000040 
2721.559376  	0.000216 
2723.488192  	0.000204 
2725.417008  	0.000270 
2727.345824  	0.000330 
2729.274640  	0.000575 
2731.203456  	0.000700 
2733.132272  	0.000669 
2735.061088  	0.000797 
2736.989904  	0.000891 
2738.918720  	0.000996 
2740.847536  	0.001090 
2742.776352  	0.001193 
2744.705168  	0.001221 
2746.633984  	0.001263 
2748.562800  	0.001388 
2750.491616  	0.001429 
2752.420432  	0.001439 
2754.349248  	0.001374 
2756.278064  	0.001325 
2758.206880  	0.001351 
2760.135696  	0.001476 
2762.064512  	0.001513 
2763.993328  	0.001490 
2765.922144  	0.001486 
2767.850960  	0.001458 
2769.779776  	0.001414 
2771.708592  	0.001445 
2773.637408  	0.001469 
2775.566224  	0.001496 
2777.495040  	0.001480 
2779.423856  	0.001535 
2781.352672  	0.001677 
2783.281488  	0.001738 
2785.210304  	0.001700 
2787.139120  	0.001780 
2789.067936  	0.001750 
2790.996752  	0.001722 
2792.925568  	0.001780 
2794.854384  	0.001820 
2796.783200  	0.001824 
2798.712016  	0.001761 
2800.640832  	0.001775 
2802.569648  	0.001928 
2804.498464  	0.002008 
2806.427280  	0.002041 
2808.356096  	0.002127 
2810.284912  	0.002119 
2812.213728  	0.002046 
2814.142544  	0.002115 
2816.071360  	0.002089 
2818.000176  	0.002112 
2819.928992  	0.002265 
2821.857808  	0.002241 
2823.786624  	0.002125 
2825.715440  	0.002231 
2827.644256  	0.002207 
2829.573072  	0.002125 
2831.501888  	0.002134 
2833.430704  	0.002179 
2835.359520  	0.002135 
2837.288336  	0.002099 
2839.217152  	0.002092 
2841.145968  	0.001996 
2843.074784  	0.001953 
2845.003600  	0.002015 
2846.932416  	0.001976 
2848.861232  	0.002033 
2850.790048  	0.001980 
2852.718864  	0.001960 
2854.647680  	0.002053 
2856.576496  	0.002207 
2858.505312  	0.002236 
2860.434128  	0.002216 
2862.362944  	0.002179 
2864.291760  	0.002188 
2866.220576  	0.002322 
2868.149392  	0.002368 
2870.078208  	0.002364 
2872.007024  	0.002464 
2873.935840  	0.002552 
2875.864656  	0.002687 
2877.793472  	0.002923 
2879.722288  	0.003203 
2881.651104  	0.003421 
2883.579920  	0.003523 
2885.508736  	0.003810 
2887.437552  	0.004042 
2889.366368  	0.003919 
2891.295184  	0.003829 
2893.224000  	0.003868 
2895.152816  	0.003925 
2897.081632  	0.003960 
2899.010448  	0.003615 
2900.939264  	0.003339 
2902.868080  	0.003645 
2904.796896  	0.003930 
2906.725712  	0.004049 
2908.654528  	0.004232 
2910.583344  	0.004528 
2912.512160  	0.004784 
2914.440976  	0.005052 
2916.369792  	0.005480 
2918.298608  	0.005712 
2920.227424  	0.005888 
2922.156240  	0.006234 
2924.085056  	0.006582 
2926.013872  	0.006820 
2927.942688  	0.007237 
2929.871504  	0.007680 
2931.800320  	0.007956 
2933.729136  	0.008349 
2935.657952  	0.008892 
2937.586768  	0.009280 
2939.515584  	0.009421 
2941.444400  	0.009480 
2943.373216  	0.009575 
2945.302032  	0.009830 
2947.230848  	0.009977 
2949.159664  	0.009917 
2951.088480  	0.009794 
2953.017296  	0.009761 
2954.946112  	0.009644 
2956.874928  	0.009458 
2958.803744  	0.009192 
2960.732560  	0.009158 
2962.661376  	0.009133 
2964.590192  	0.008984 
2966.519008  	0.008845 
2968.447824  	0.008553 
2970.376640  	0.008299 
2972.305456  	0.008172 
2974.234272  	0.008355 
2976.163088  	0.008319 
2978.091904  	0.008115 
2980.020720  	0.007963 
2981.949536  	0.007954 
2983.878352  	0.007977 
2985.807168  	0.007791 
2987.735984  	0.007719 
2989.664800  	0.007867 
2991.593616  	0.008244 
2993.522432  	0.008556 
2995.451248  	0.008680 
2997.380064  	0.008971 
2999.308880  	0.009422 
3001.237696  	0.009704 
3003.166512  	0.010051 
3005.095328  	0.010412 
3007.024144  	0.010550 
3008.952960  	0.010900 
3010.881776  	0.011586 
3012.810592  	0.012220 
3014.739408  	0.012428 
3016.668224  	0.012644 
3018.597040  	0.012919 
3020.525856  	0.013293 
3022.454672  	0.013611 
3024.383488  	0.013966 
3026.312304  	0.014391 
3028.241120  	0.014562 
3030.169936  	0.015009 
3032.098752  	0.015632 
3034.027568  	0.015728 
3035.956384  	0.015954 
3037.885200  	0.016168 
3039.814016  	0.016429 
3041.742832  	0.016774 
3043.671648  	0.017159 
3045.600464  	0.017386 
3047.529280  	0.017692 
3049.458096  	0.018112 
3051.386912  	0.018331 
3053.315728  	0.018507 
3055.244544  	0.018860 
3057.173360  	0.019517 
3059.102176  	0.019934 
3061.030992  	0.020189 
3062.959808  	0.020464 
3064.888624  	0.021055 
3066.817440  	0.021511 
3068.746256  	0.021775 
3070.675072  	0.022162 
3072.603888  	0.022614 
3074.532704  	0.023049 
3076.461520  	0.023489 
3078.390336  	0.023978 
3080.319152  	0.024713 
3082.247968  	0.025038 
3084.176784  	0.025177 
3086.105600  	0.025575 
3088.034416  	0.026031 
3089.963232  	0.026193 
3091.892048  	0.026561 
3093.820864  	0.027096 
3095.749680  	0.027931 
3097.678496  	0.028382 
3099.607312  	0.028764 
3101.536128  	0.029423 
3103.464944  	0.029722 
3105.393760  	0.029859 
3107.322576  	0.030197 
3109.251392  	0.030687 
3111.180208  	0.031046 
3113.109024  	0.031164 
3115.037840  	0.031626 
3116.966656  	0.032313 
3118.895472  	0.032701 
3120.824288  	0.033003 
3122.753104  	0.033451 
3124.681920  	0.033509 
3126.610736  	0.033709 
3128.539552  	0.033996 
3130.468368  	0.034158 
3132.397184  	0.034662 
3134.326000  	0.034967 
3136.254816  	0.034976 
3138.183632  	0.035354 
3140.112448  	0.035625 
3142.041264  	0.035928 
3143.970080  	0.036410 
3145.898896  	0.036730 
3147.827712  	0.037039 
3149.756528  	0.037393 
3151.685344  	0.037680 
3153.614160  	0.038027 
3155.542976  	0.038317 
3157.471792  	0.038649 
3159.400608  	0.038930 
3161.329424  	0.039182 
3163.258240  	0.039555 
3165.187056  	0.039701 
3167.115872  	0.039737 
3169.044688  	0.040166 
3170.973504  	0.040603 
3172.902320  	0.040623 
3174.831136  	0.040602 
3176.759952  	0.040985 
3178.688768  	0.041618 
3180.617584  	0.041553 
3182.546400  	0.041359 
3184.475216  	0.041570 
3186.404032  	0.041767 
3188.332848  	0.041831 
3190.261664  	0.041837 
3192.190480  	0.041817 
3194.119296  	0.041951 
3196.048112  	0.041954 
3197.976928  	0.042309 
3199.905744  	0.042395 
3201.834560  	0.042197 
3203.763376  	0.042091 
3205.692192  	0.041835 
3207.621008  	0.041632 
3209.549824  	0.041870 
3211.478640  	0.041896 
3213.407456  	0.041783 
3215.336272  	0.041920 
3217.265088  	0.041721 
3219.193904  	0.041802 
3221.122720  	0.041959 
3223.051536  	0.041544 
3224.980352  	0.041291 
3226.909168  	0.041245 
3228.837984  	0.041187 
3230.766800  	0.041075 
3232.695616  	0.041201 
3234.624432  	0.041038 
3236.553248  	0.041016 
3238.482064  	0.041129 
3240.410880  	0.040983 
3242.339696  	0.040798 
3244.268512  	0.040889 
3246.197328  	0.041016 
3248.126144  	0.040900 
3250.054960  	0.040949 
3251.983776  	0.040944 
3253.912592  	0.041293 
3255.841408  	0.041429 
3257.770224  	0.041433 
3259.699040  	0.041583 
3261.627856  	0.041688 
3263.556672  	0.041607 
3265.485488  	0.041785 
3267.414304  	0.041805 
3269.343120  	0.041770 
3271.271936  	0.041875 
3273.200752  	0.042171 
3275.129568  	0.042344 
3277.058384  	0.042391 
3278.987200  	0.042307 
3280.916016  	0.042357 
3282.844832  	0.042404 
3284.773648  	0.042438 
3286.702464  	0.042403 
3288.631280  	0.042573 
3290.560096  	0.042713 
3292.488912  	0.042758 
3294.417728  	0.042672 
3296.346544  	0.042764 
3298.275360  	0.043067 
3300.204176  	0.042972 
3302.132992  	0.042801 
3304.061808  	0.043072 
3305.990624  	0.043299 
3307.919440  	0.043730 
3309.848256  	0.044033 
3311.777072  	0.043849 
3313.705888  	0.043885 
3315.634704  	0.044186 
3317.563520  	0.044403 
3319.492336  	0.044459 
3321.421152  	0.044443 
3323.349968  	0.044561 
3325.278784  	0.044722 
3327.207600  	0.044813 
3329.136416  	0.044583 
3331.065232  	0.044342 
3332.994048  	0.044461 
3334.922864  	0.044888 
3336.851680  	0.045052 
3338.780496  	0.044767 
3340.709312  	0.044438 
3342.638128  	0.044438 
3344.566944  	0.044139 
3346.495760  	0.043800 
3348.424576  	0.043808 
3350.353392  	0.043713 
3352.282208  	0.043406 
3354.211024  	0.043350 
3356.139840  	0.043396 
3358.068656  	0.043128 
3359.997472  	0.042891 
3361.926288  	0.042796 
3363.855104  	0.042487 
3365.783920  	0.042413 
3367.712736  	0.042277 
3369.641552  	0.041768 
3371.570368  	0.041395 
3373.499184  	0.041300 
3375.428000  	0.041185 
3377.356816  	0.041162 
3379.285632  	0.041013 
3381.214448  	0.040634 
3383.143264  	0.040578 
3385.072080  	0.040825 
3387.000896  	0.040209 
3388.929712  	0.039626 
3390.858528  	0.039533 
3392.787344  	0.039975 
3394.716160  	0.039796 
3396.644976  	0.039662 
3398.573792  	0.039317 
3400.502608  	0.038510 
3402.431424  	0.038050 
3404.360240  	0.037748 
3406.289056  	0.037379 
3408.217872  	0.037209 
3410.146688  	0.037045 
3412.075504  	0.036521 
3414.004320  	0.036251 
3415.933136  	0.036035 
3417.861952  	0.035704 
3419.790768  	0.036121 
3421.719584  	0.036484 
3423.648400  	0.035686 
3425.577216  	0.034687 
3427.506032  	0.034223 
3429.434848  	0.034099 
3431.363664  	0.034087 
3433.292480  	0.033756 
3435.221296  	0.033320 
3437.150112  	0.032868 
3439.078928  	0.032442 
3441.007744  	0.032243 
3442.936560  	0.032506 
3444.865376  	0.031812 
3446.794192  	0.032590 
3448.723008  	0.032638 
3450.651824  	0.030797 
3452.580640  	0.030106 
3454.509456  	0.029735 
3456.438272  	0.029345 
3458.367088  	0.029069 
3460.295904  	0.028822 
3462.224720  	0.028813 
3464.153536  	0.028367 
3466.082352  	0.027625 
3468.011168  	0.027373 
3469.939984  	0.026870 
3471.868800  	0.026215 
3473.797616  	0.025637 
3475.726432  	0.025391 
3477.655248  	0.024405 
3479.584064  	0.024043 
3481.512880  	0.024846 
3483.441696  	0.024648 
3485.370512  	0.023247 
3487.299328  	0.022915 
3489.228144  	0.022452 
3491.156960  	0.021403 
3493.085776  	0.020857 
3495.014592  	0.020926 
3496.943408  	0.020887 
3498.872224  	0.020036 
3500.801040  	0.020328 
3502.729856  	0.022015 
3504.658672  	0.021488 
3506.587488  	0.018840 
3508.516304  	0.018632 
3510.445120  	0.019424 
3512.373936  	0.018110 
3514.302752  	0.017058 
3516.231568  	0.016609 
3518.160384  	0.016468 
3520.089200  	0.015940 
3522.018016  	0.016453 
3523.946832  	0.018192 
3525.875648  	0.017503 
3527.804464  	0.017096 
3529.733280  	0.016342 
3531.662096  	0.014496 
3533.590912  	0.013000 
3535.519728  	0.013512 
3537.448544  	0.013764 
3539.377360  	0.012105 
3541.306176  	0.011239 
3543.234992  	0.012117 
3545.163808  	0.014797 
3547.092624  	0.015331 
3549.021440  	0.012201 
3550.950256  	0.010745 
3552.879072  	0.012217 
3554.807888  	0.010694 
3556.736704  	0.008575 
3558.665520  	0.008600 
3560.594336  	0.009376 
3562.523152  	0.009047 
3564.451968  	0.010061 
3566.380784  	0.015485 
3568.309600  	0.016695 
3570.238416  	0.010199 
3572.167232  	0.006437 
3574.096048  	0.005649 
3576.024864  	0.005487 
3577.953680  	0.005110 
3579.882496  	0.005077 
3581.811312  	0.004288 
3583.740128  	0.003709 
3585.668944  	0.005421 
3587.597760  	0.010621 
3589.526576  	0.007823 
3591.455392  	0.002768 
3593.384208  	0.003028 
3595.313024  	0.004610 
3597.241840  	0.003225 
3599.170656  	0.001805 
3601.099472  	0.001711 
3603.028288  	-0.000157 
3604.957104  	-0.001791 
3606.885920  	0.000257 
3608.814736  	0.002747 
3610.743552  	0.000933 
3612.672368  	0.001119 
3614.601184  	0.001546 
3616.530000  	-0.000833 
3618.458816  	0.000396 
3620.387632  	0.000757 
3622.316448  	-0.003373 
3624.245264  	-0.005957 
3626.174080  	-0.006165 
3628.102896  	-0.002141 
3630.031712  	0.001991 
3631.960528  	-0.003922 
3633.889344  	-0.006167 
3635.818160  	-0.007815 
3637.746976  	-0.009118 
3639.675792  	-0.009635 
3641.604608  	-0.009798 
3643.533424  	-0.010194 
3645.462240  	-0.009902 
3647.391056  	-0.004631 
3649.319872  	0.000121 
3651.248688  	-0.002478 
3653.177504  	-0.009748 
3655.106320  	-0.011893 
3657.035136  	-0.010511 
3658.963952  	-0.012872 
3660.892768  	-0.014446 
3662.821584  	-0.015310 
3664.750400  	-0.015598 
3666.679216  	-0.015282 
3668.608032  	-0.012530 
3670.536848  	-0.008566 
3672.465664  	-0.011852 
3674.394480  	-0.011393 
3676.323296  	-0.006475 
3678.252112  	-0.010929 
3680.180928  	-0.013630 
3682.109744  	-0.015664 
3684.038560  	-0.016387 
3685.967376  	-0.016680 
3687.896192  	-0.013814 
3689.825008  	-0.009691 
3691.753824  	-0.011620 
3693.682640  	-0.015226 
3695.611456  	-0.016654 
3697.540272  	-0.016776 
3699.469088  	-0.017180 
3701.397904  	-0.015498 
3703.326720  	-0.015063 
3705.255536  	-0.016400 
3707.184352  	-0.016398 
3709.113168  	-0.014423 
3711.041984  	-0.010285 
3712.970800  	-0.010405 
3714.899616  	-0.014057 
3716.828432  	-0.016154 
3718.757248  	-0.015495 
3720.686064  	-0.014643 
3722.614880  	-0.013074 
3724.543696  	-0.012328 
3726.472512  	-0.011841 
3728.401328  	-0.014266 
3730.330144  	-0.016392 
3732.258960  	-0.013962 
3734.187776  	-0.008693 
3736.116592  	-0.005203 
3738.045408  	-0.009593 
3739.974224  	-0.012352 
3741.903040  	-0.013494 
3743.831856  	-0.012046 
3745.760672  	-0.008895 
3747.689488  	-0.011646 
3749.618304  	-0.009763 
3751.547120  	-0.006756 
3753.475936  	-0.009937 
3755.404752  	-0.013658 
3757.333568  	-0.013835 
3759.262384  	-0.012800 
3761.191200  	-0.014087 
3763.120016  	-0.016389 
3765.048832  	-0.015199 
3766.977648  	-0.014816 
3768.906464  	-0.014907 
3770.835280  	-0.014120 
3772.764096  	-0.016127 
3774.692912  	-0.017539 
3776.621728  	-0.017712 
3778.550544  	-0.016074 
3780.479360  	-0.014882 
3782.408176  	-0.016483 
3784.336992  	-0.015881 
3786.265808  	-0.015626 
3788.194624  	-0.016962 
3790.123440  	-0.017495 
3792.052256  	-0.017732 
3793.981072  	-0.017996 
3795.909888  	-0.015733 
3797.838704  	-0.013987 
3799.767520  	-0.014746 
3801.696336  	-0.011057 
3803.625152  	-0.012823 
3805.553968  	-0.015597 
3807.482784  	-0.013963 
3809.411600  	-0.015678 
3811.340416  	-0.017403 
3813.269232  	-0.017815 
3815.198048  	-0.015423 
3817.126864  	-0.012718 
3819.055680  	-0.014141 
3820.984496  	-0.010935 
3822.913312  	-0.011676 
3824.842128  	-0.015131 
3826.770944  	-0.014750 
3828.699760  	-0.015540 
3830.628576  	-0.016128 
3832.557392  	-0.015291 
3834.486208  	-0.015244 
3836.415024  	-0.013764 
3838.343840  	-0.010716 
3840.272656  	-0.009940 
3842.201472  	-0.012270 
3844.130288  	-0.013522 
3846.059104  	-0.015576 
3847.987920  	-0.016809 
3849.916736  	-0.016163 
3851.845552  	-0.013369 
3853.774368  	-0.006455 
3855.703184  	-0.009154 
3857.632000  	-0.013070 
3859.560816  	-0.015679 
3861.489632  	-0.014926 
3863.418448  	-0.012507 
3865.347264  	-0.011478 
3867.276080  	-0.014374 
3869.204896  	-0.012480 
3871.133712  	-0.009961 
3873.062528  	-0.012789 
3874.991344  	-0.013404 
3876.920160  	-0.016532 
3878.848976  	-0.016438 
3880.777792  	-0.012324 
3882.706608  	-0.012849 
3884.635424  	-0.013603 
3886.564240  	-0.013162 
3888.493056  	-0.016527 
3890.421872  	-0.015757 
3892.350688  	-0.013201 
3894.279504  	-0.015119 
3896.208320  	-0.017010 
3898.137136  	-0.015514 
3900.065952  	-0.012059 
3901.994768  	-0.010842 
3903.923584  	-0.009994 
3905.852400  	-0.011716 
3907.781216  	-0.015946 
3909.710032  	-0.018326 
3911.638848  	-0.018641 
3913.567664  	-0.018322 
3915.496480  	-0.016623 
3917.425296  	-0.014174 
3919.354112  	-0.014532 
3921.282928  	-0.015512 
3923.211744  	-0.015147 
3925.140560  	-0.014174 
3927.069376  	-0.016252 
3928.998192  	-0.016350 
3930.927008  	-0.014268 
3932.855824  	-0.013687 
3934.784640  	-0.015966 
3936.713456  	-0.017508 
3938.642272  	-0.017742 
3940.571088  	-0.017412 
3942.499904  	-0.014976 
3944.428720  	-0.014963 
3946.357536  	-0.016346 
3948.286352  	-0.015124 
3950.215168  	-0.015475 
3952.143984  	-0.017143 
3954.072800  	-0.017938 
3956.001616  	-0.017699 
3957.930432  	-0.017304 
3959.859248  	-0.017103 
3961.788064  	-0.016682 
3963.716880  	-0.017123 
3965.645696  	-0.018159 
3967.574512  	-0.018222 
3969.503328  	-0.017954 
3971.432144  	-0.017692 
3973.360960  	-0.017217 
3975.289776  	-0.016805 
3977.218592  	-0.017312 
3979.147408  	-0.018007 
3981.076224  	-0.017983 
3983.005040  	-0.018004 
3984.933856  	-0.018167 
3986.862672  	-0.018100 
3988.791488  	-0.017927 
3990.720304  	-0.017369 
3992.649120  	-0.017545 
3994.577936  	-0.017707 
3996.506752  	-0.017984 
3998.435568  	-0.018139 
4000.364384  	-0.018046 