##TITLE=No Description
##DATA TYPE=INFRARED SPECTRUM
##XUNITS=1/CM
##YUNITS=Abs
399.264912  	0.619023 
401.193728  	0.607939 
403.122544  	0.619056 
405.051360  	0.613303 
406.980176  	0.613625 
408.908992  	0.606561 
410.837808  	0.614611 
412.766624  	0.619605 
414.695440  	0.609000 
416.624256  	0.596871 
418.553072  	0.602037 
420.481888  	0.597809 
422.410704  	0.604668 
424.339520  	0.588224 
426.268336  	0.582710 
428.197152  	0.584422 
430.125968  	0.586746 
432.054784  	0.581182 
433.983600  	0.585859 
435.912416  	0.577419 
437.841232  	0.569202 
439.770048  	0.560894 
441.698864  	0.562287 
443.627680  	0.558990 
445.556496  	0.555452 
447.485312  	0.548983 
449.414128  	0.551334 
451.342944  	0.551679 
453.271760  	0.553658 
455.200576  	0.551038 
457.129392  	0.555277 
459.058208  	0.555613 
460.987024  	0.556986 
462.915840  	0.553434 
464.844656  	0.553460 
466.773472  	0.546549 
468.702288  	0.550835 
470.631104  	0.554099 
472.559920  	0.550213 
474.488736  	0.540032 
476.417552  	0.542983 
478.346368  	0.544098 
480.275184  	0.547991 
482.204000  	0.540079 
484.132816  	0.533919 
486.061632  	0.533921 
487.990448  	0.535744 
489.919264  	0.532004 
491.848080  	0.532617 
493.776896  	0.529272 
495.705712  	0.530594 
497.634528  	0.528047 
499.563344  	0.528984 
501.492160  	0.526252 
503.420976  	0.524769 
505.349792  	0.521181 
507.278608  	0.523305 
509.207424  	0.522574 
511.136240  	0.523401 
513.065056  	0.521488 
514.993872  	0.523735 
516.922688  	0.526166 
518.851504  	0.528754 
520.780320  	0.525494 
522.709136  	0.524400 
524.637952  	0.522337 
526.566768  	0.520752 
528.495584  	0.516484 
530.424400  	0.515202 
532.353216  	0.512844 
534.282032  	0.512411 
536.210848  	0.507013 
538.139664  	0.503656 
540.068480  	0.498634 
541.997296  	0.495001 
543.926112  	0.490991 
545.854928  	0.487881 
547.783744  	0.483787 
549.712560  	0.481416 
551.641376  	0.478357 
553.570192  	0.476548 
555.499008  	0.472958 
557.427824  	0.469935 
559.356640  	0.466424 
561.285456  	0.463786 
563.214272  	0.459289 
565.143088  	0.455970 
567.071904  	0.452364 
569.000720  	0.450480 
570.929536  	0.447834 
572.858352  	0.445921 
574.787168  	0.443240 
576.715984  	0.441613 
578.644800  	0.437526 
580.573616  	0.434295 
582.502432  	0.430588 
584.431248  	0.427661 
586.360064  	0.424381 
588.288880  	0.422533 
590.217696  	0.420052 
592.146512  	0.417768 
594.075328  	0.413723 
596.004144  	0.412138 
597.932960  	0.411002 
599.861776  	0.409800 
601.790592  	0.407156 
603.719408  	0.404763 
605.648224  	0.403136 
607.577040  	0.402178 
609.505856  	0.399866 
611.434672  	0.398355 
613.363488  	0.396221 
615.292304  	0.395042 
617.221120  	0.393328 
619.149936  	0.391435 
621.078752  	0.389446 
623.007568  	0.387891 
624.936384  	0.385270 
626.865200  	0.383573 
628.794016  	0.381317 
630.722832  	0.380968 
632.651648  	0.380570 
634.580464  	0.380479 
636.509280  	0.379793 
638.438096  	0.378646 
640.366912  	0.376631 
642.295728  	0.374940 
644.224544  	0.372131 
646.153360  	0.369324 
648.082176  	0.366065 
650.010992  	0.363248 
651.939808  	0.359736 
653.868624  	0.355878 
655.797440  	0.351538 
657.726256  	0.347955 
659.655072  	0.344728 
661.583888  	0.341305 
663.512704  	0.337314 
665.441520  	0.334897 
667.370336  	0.331590 
669.299152  	0.327527 
671.227968  	0.324078 
673.156784  	0.321006 
675.085600  	0.317974 
677.014416  	0.315248 
678.943232  	0.313175 
680.872048  	0.311540 
682.800864  	0.308802 
684.729680  	0.306112 
686.658496  	0.304482 
688.587312  	0.303419 
690.516128  	0.301401 
692.444944  	0.299415 
694.373760  	0.297915 
696.302576  	0.295556 
698.231392  	0.292290 
700.160208  	0.289655 
702.089024  	0.287570 
704.017840  	0.285259 
705.946656  	0.283007 
707.875472  	0.280981 
709.804288  	0.278744 
711.733104  	0.276348 
713.661920  	0.273631 
715.590736  	0.271993 
717.519552  	0.270699 
719.448368  	0.270446 
721.377184  	0.269693 
723.306000  	0.268803 
725.234816  	0.267862 
727.163632  	0.266960 
729.092448  	0.264864 
731.021264  	0.262067 
732.950080  	0.259284 
734.878896  	0.256574 
736.807712  	0.253899 
738.736528  	0.251718 
740.665344  	0.249579 
742.594160  	0.247602 
744.522976  	0.245620 
746.451792  	0.243677 
748.380608  	0.241890 
750.309424  	0.240495 
752.238240  	0.238843 
754.167056  	0.237621 
756.095872  	0.235931 
758.024688  	0.234398 
759.953504  	0.233308 
761.882320  	0.233013 
763.811136  	0.232756 
765.739952  	0.231379 
767.668768  	0.228837 
769.597584  	0.226381 
771.526400  	0.224441 
773.455216  	0.224228 
775.384032  	0.225473 
777.312848  	0.227842 
779.241664  	0.229841 
781.170480  	0.229504 
783.099296  	0.226533 
785.028112  	0.221834 
786.956928  	0.216647 
788.885744  	0.212317 
790.814560  	0.209419 
792.743376  	0.207128 
794.672192  	0.205064 
796.601008  	0.203528 
798.529824  	0.201024 
800.458640  	0.197341 
802.387456  	0.193796 
804.316272  	0.191592 
806.245088  	0.189725 
808.173904  	0.187989 
810.102720  	0.186767 
812.031536  	0.186076 
813.960352  	0.185338 
815.889168  	0.184632 
817.817984  	0.183815 
819.746800  	0.183053 
821.675616  	0.182519 
823.604432  	0.181666 
825.533248  	0.180617 
827.462064  	0.179421 
829.390880  	0.178080 
831.319696  	0.176528 
833.248512  	0.174193 
835.177328  	0.171748 
837.106144  	0.169283 
839.034960  	0.166727 
840.963776  	0.163757 
842.892592  	0.160365 
844.821408  	0.157125 
846.750224  	0.154761 
848.679040  	0.152440 
850.607856  	0.150271 
852.536672  	0.148391 
854.465488  	0.146839 
856.394304  	0.145337 
858.323120  	0.143579 
860.251936  	0.141274 
862.180752  	0.138878 
864.109568  	0.136612 
866.038384  	0.134160 
867.967200  	0.131948 
869.896016  	0.130074 
871.824832  	0.128921 
873.753648  	0.128443 
875.682464  	0.128418 
877.611280  	0.127972 
879.540096  	0.127762 
881.468912  	0.128978 
883.397728  	0.129748 
885.326544  	0.130187 
887.255360  	0.130023 
889.184176  	0.128822 
891.112992  	0.126586 
893.041808  	0.125035 
894.970624  	0.123421 
896.899440  	0.120855 
898.828256  	0.117625 
900.757072  	0.114679 
902.685888  	0.112207 
904.614704  	0.110658 
906.543520  	0.110501 
908.472336  	0.111194 
910.401152  	0.112692 
912.329968  	0.114374 
914.258784  	0.116338 
916.187600  	0.118105 
918.116416  	0.119487 
920.045232  	0.120329 
921.974048  	0.120664 
923.902864  	0.120674 
925.831680  	0.120113 
927.760496  	0.119645 
929.689312  	0.119390 
931.618128  	0.119484 
933.546944  	0.119415 
935.475760  	0.119123 
937.404576  	0.118619 
939.333392  	0.118065 
941.262208  	0.117696 
943.191024  	0.118119 
945.119840  	0.120070 
947.048656  	0.123360 
948.977472  	0.127693 
950.906288  	0.133175 
952.835104  	0.139612 
954.763920  	0.146365 
956.692736  	0.152825 
958.621552  	0.158546 
960.550368  	0.162691 
962.479184  	0.164739 
964.408000  	0.164027 
966.336816  	0.160711 
968.265632  	0.155085 
970.194448  	0.147428 
972.123264  	0.138290 
974.052080  	0.128549 
975.980896  	0.118865 
977.909712  	0.109766 
979.838528  	0.101474 
981.767344  	0.094548 
983.696160  	0.089051 
985.624976  	0.085291 
987.553792  	0.083545 
989.482608  	0.083492 
991.411424  	0.084956 
993.340240  	0.087593 
995.269056  	0.091035 
997.197872  	0.094916 
999.126688  	0.099010 
1001.055504  	0.103033 
1002.984320  	0.107147 
1004.913136  	0.111120 
1006.841952  	0.114965 
1008.770768  	0.118148 
1010.699584  	0.120372 
1012.628400  	0.121849 
1014.557216  	0.122341 
1016.486032  	0.122379 
1018.414848  	0.122162 
1020.343664  	0.121898 
1022.272480  	0.121364 
1024.201296  	0.120193 
1026.130112  	0.116971 
1028.058928  	0.115513 
1029.987744  	0.117916 
1031.916560  	0.118993 
1033.845376  	0.118808 
1035.774192  	0.118224 
1037.703008  	0.118787 
1039.631824  	0.122144 
1041.560640  	0.127273 
1043.489456  	0.134194 
1045.418272  	0.143147 
1047.347088  	0.153769 
1049.275904  	0.164455 
1051.204720  	0.173797 
1053.133536  	0.180746 
1055.062352  	0.184922 
1056.991168  	0.186173 
1058.919984  	0.188945 
1060.848800  	0.191847 
1062.777616  	0.191144 
1064.706432  	0.186711 
1066.635248  	0.183333 
1068.564064  	0.183776 
1070.492880  	0.181476 
1072.421696  	0.176182 
1074.350512  	0.172104 
1076.279328  	0.170702 
1078.208144  	0.172338 
1080.136960  	0.176413 
1082.065776  	0.181701 
1083.994592  	0.186454 
1085.923408  	0.189307 
1087.852224  	0.189661 
1089.781040  	0.188519 
1091.709856  	0.186416 
1093.638672  	0.181962 
1095.567488  	0.174966 
1097.496304  	0.166825 
1099.425120  	0.157665 
1101.353936  	0.147938 
1103.282752  	0.138459 
1105.211568  	0.129531 
1107.140384  	0.120791 
1109.069200  	0.112369 
1110.998016  	0.104525 
1112.926832  	0.097267 
1114.855648  	0.090713 
1116.784464  	0.084566 
1118.713280  	0.078736 
1120.642096  	0.073377 
1122.570912  	0.068328 
1124.499728  	0.063453 
1126.428544  	0.059135 
1128.357360  	0.055287 
1130.286176  	0.052153 
1132.214992  	0.049360 
1134.143808  	0.047061 
1136.072624  	0.044962 
1138.001440  	0.043293 
1139.930256  	0.041444 
1141.859072  	0.039472 
1143.787888  	0.037516 
1145.716704  	0.035780 
1147.645520  	0.034111 
1149.574336  	0.032694 
1151.503152  	0.031555 
1153.431968  	0.030978 
1155.360784  	0.030823 
1157.289600  	0.031331 
1159.218416  	0.032402 
1161.147232  	0.033837 
1163.076048  	0.035244 
1165.004864  	0.036666 
1166.933680  	0.038003 
1168.862496  	0.039549 
1170.791312  	0.041004 
1172.720128  	0.042963 
1174.648944  	0.044737 
1176.577760  	0.046426 
1178.506576  	0.047979 
1180.435392  	0.049697 
1182.364208  	0.051370 
1184.293024  	0.053333 
1186.221840  	0.055414 
1188.150656  	0.057932 
1190.079472  	0.060759 
1192.008288  	0.064214 
1193.937104  	0.068509 
1195.865920  	0.073484 
1197.794736  	0.078934 
1199.723552  	0.085112 
1201.652368  	0.091443 
1203.581184  	0.097959 
1205.510000  	0.104440 
1207.438816  	0.110769 
1209.367632  	0.116822 
1211.296448  	0.122088 
1213.225264  	0.126596 
1215.154080  	0.130388 
1217.082896  	0.133149 
1219.011712  	0.135047 
1220.940528  	0.136753 
1222.869344  	0.138143 
1224.798160  	0.138762 
1226.726976  	0.138715 
1228.655792  	0.138620 
1230.584608  	0.138181 
1232.513424  	0.137307 
1234.442240  	0.135780 
1236.371056  	0.133861 
1238.299872  	0.131001 
1240.228688  	0.125850 
1242.157504  	0.120589 
1244.086320  	0.116499 
1246.015136  	0.110930 
1247.943952  	0.104341 
1249.872768  	0.097966 
1251.801584  	0.092604 
1253.730400  	0.087067 
1255.659216  	0.081609 
1257.588032  	0.076598 
1259.516848  	0.071788 
1261.445664  	0.067243 
1263.374480  	0.063068 
1265.303296  	0.059521 
1267.232112  	0.056758 
1269.160928  	0.054667 
1271.089744  	0.052957 
1273.018560  	0.051927 
1274.947376  	0.051574 
1276.876192  	0.051634 
1278.805008  	0.051545 
1280.733824  	0.050710 
1282.662640  	0.049177 
1284.591456  	0.047409 
1286.520272  	0.045776 
1288.449088  	0.044627 
1290.377904  	0.043977 
1292.306720  	0.043924 
1294.235536  	0.043846 
1296.164352  	0.043231 
1298.093168  	0.041572 
1300.021984  	0.039341 
1301.950800  	0.036890 
1303.879616  	0.034597 
1305.808432  	0.032240 
1307.737248  	0.029851 
1309.666064  	0.027537 
1311.594880  	0.025826 
1313.523696  	0.024435 
1315.452512  	0.023515 
1317.381328  	0.022916 
1319.310144  	0.022669 
1321.238960  	0.022716 
1323.167776  	0.023216 
1325.096592  	0.023816 
1327.025408  	0.024324 
1328.954224  	0.024290 
1330.883040  	0.023992 
1332.811856  	0.023427 
1334.740672  	0.022993 
1336.669488  	0.022772 
1338.598304  	0.022751 
1340.527120  	0.021657 
1342.455936  	0.020533 
1344.384752  	0.020232 
1346.313568  	0.020422 
1348.242384  	0.020851 
1350.171200  	0.021685 
1352.100016  	0.022757 
1354.028832  	0.024022 
1355.957648  	0.025253 
1357.886464  	0.026715 
1359.815280  	0.028374 
1361.744096  	0.029984 
1363.672912  	0.030596 
1365.601728  	0.031334 
1367.530544  	0.032229 
1369.459360  	0.032401 
1371.388176  	0.032172 
1373.316992  	0.031172 
1375.245808  	0.028508 
1377.174624  	0.026473 
1379.103440  	0.024194 
1381.032256  	0.021864 
1382.961072  	0.020137 
1384.889888  	0.019739 
1386.818704  	0.019358 
1388.747520  	0.017976 
1390.676336  	0.016195 
1392.605152  	0.013294 
1394.533968  	0.011520 
1396.462784  	0.014216 
1398.391600  	0.015399 
1400.320416  	0.014492 
1402.249232  	0.014506 
1404.178048  	0.014814 
1406.106864  	0.015027 
1408.035680  	0.016495 
1409.964496  	0.018516 
1411.893312  	0.020876 
1413.822128  	0.023469 
1415.750944  	0.026605 
1417.679760  	0.028750 
1419.608576  	0.028371 
1421.537392  	0.028820 
1423.466208  	0.029262 
1425.395024  	0.027956 
1427.323840  	0.027271 
1429.252656  	0.025677 
1431.181472  	0.024319 
1433.110288  	0.024250 
1435.039104  	0.024955 
1436.967920  	0.023957 
1438.896736  	0.024277 
1440.825552  	0.025255 
1442.754368  	0.025700 
1444.683184  	0.025836 
1446.612000  	0.025787 
1448.540816  	0.024699 
1450.469632  	0.024947 
1452.398448  	0.025730 
1454.327264  	0.027049 
1456.256080  	0.027075 
1458.184896  	0.024332 
1460.113712  	0.025314 
1462.042528  	0.026902 
1463.971344  	0.026753 
1465.900160  	0.026731 
1467.828976  	0.028897 
1469.757792  	0.031730 
1471.686608  	0.034134 
1473.615424  	0.037532 
1475.544240  	0.042073 
1477.473056  	0.046214 
1479.401872  	0.049489 
1481.330688  	0.052077 
1483.259504  	0.053743 
1485.188320  	0.055314 
1487.117136  	0.055612 
1489.045952  	0.054985 
1490.974768  	0.052200 
1492.903584  	0.051100 
1494.832400  	0.049426 
1496.761216  	0.044457 
1498.690032  	0.039747 
1500.618848  	0.036897 
1502.547664  	0.034707 
1504.476480  	0.032506 
1506.405296  	0.027270 
1508.334112  	0.024083 
1510.262928  	0.024465 
1512.191744  	0.023284 
1514.120560  	0.022765 
1516.049376  	0.022443 
1517.978192  	0.021652 
1519.907008  	0.022988 
1521.835824  	0.022589 
1523.764640  	0.025550 
1525.693456  	0.028825 
1527.622272  	0.030207 
1529.551088  	0.031047 
1531.479904  	0.031550 
1533.408720  	0.028572 
1535.337536  	0.026068 
1537.266352  	0.025691 
1539.195168  	0.020705 
1541.123984  	0.014666 
1543.052800  	0.016105 
1544.981616  	0.016158 
1546.910432  	0.015744 
1548.839248  	0.016197 
1550.768064  	0.016003 
1552.696880  	0.016034 
1554.625696  	0.016367 
1556.554512  	0.017112 
1558.483328  	0.015483 
1560.412144  	0.016475 
1562.340960  	0.022207 
1564.269776  	0.025230 
1566.198592  	0.028888 
1568.127408  	0.032171 
1570.056224  	0.035226 
1571.985040  	0.040274 
1573.913856  	0.044452 
1575.842672  	0.044952 
1577.771488  	0.046387 
1579.700304  	0.048399 
1581.629120  	0.048362 
1583.557936  	0.047747 
1585.486752  	0.048297 
1587.415568  	0.049842 
1589.344384  	0.052883 
1591.273200  	0.056946 
1593.202016  	0.061935 
1595.130832  	0.067323 
1597.059648  	0.073070 
1598.988464  	0.078113 
1600.917280  	0.082725 
1602.846096  	0.085693 
1604.774912  	0.087638 
1606.703728  	0.088293 
1608.632544  	0.087885 
1610.561360  	0.086393 
1612.490176  	0.085479 
1614.418992  	0.084458 
1616.347808  	0.081782 
1618.276624  	0.081520 
1620.205440  	0.085463 
1622.134256  	0.087851 
1624.063072  	0.091068 
1625.991888  	0.096356 
1627.920704  	0.102353 
1629.849520  	0.109251 
1631.778336  	0.117149 
1633.707152  	0.123354 
1635.635968  	0.128384 
1637.564784  	0.135885 
1639.493600  	0.143672 
1641.422416  	0.148946 
1643.351232  	0.153918 
1645.280048  	0.155955 
1647.208864  	0.155117 
1649.137680  	0.157323 
1651.066496  	0.160707 
1652.995312  	0.154711 
1654.924128  	0.152762 
1656.852944  	0.155431 
1658.781760  	0.155112 
1660.710576  	0.153100 
1662.639392  	0.148922 
1664.568208  	0.145793 
1666.497024  	0.145414 
1668.425840  	0.141562 
1670.354656  	0.135351 
1672.283472  	0.133314 
1674.212288  	0.131656 
1676.141104  	0.126928 
1678.069920  	0.126876 
1679.998736  	0.126711 
1681.927552  	0.126471 
1683.856368  	0.122405 
1685.785184  	0.120125 
1687.714000  	0.122769 
1689.642816  	0.122840 
1691.571632  	0.122027 
1693.500448  	0.122240 
1695.429264  	0.119103 
1697.358080  	0.116390 
1699.286896  	0.115418 
1701.215712  	0.109643 
1703.144528  	0.110221 
1705.073344  	0.107453 
1707.002160  	0.102243 
1708.930976  	0.099171 
1710.859792  	0.094810 
1712.788608  	0.089834 
1714.717424  	0.083236 
1716.646240  	0.074161 
1718.575056  	0.061972 
1720.503872  	0.055861 
1722.432688  	0.050659 
1724.361504  	0.042692 
1726.290320  	0.036328 
1728.219136  	0.031162 
1730.147952  	0.026379 
1732.076768  	0.022503 
1734.005584  	0.016522 
1735.934400  	0.012153 
1737.863216  	0.012562 
1739.792032  	0.009355 
1741.720848  	0.008188 
1743.649664  	0.007760 
1745.578480  	0.007215 
1747.507296  	0.005984 
1749.436112  	0.004999 
1751.364928  	0.003735 
1753.293744  	0.003376 
1755.222560  	0.003389 
1757.151376  	0.002652 
1759.080192  	0.002258 
1761.009008  	0.001796 
1762.937824  	0.000381 
1764.866640  	0.000796 
1766.795456  	0.001119 
1768.724272  	0.000784 
1770.653088  	-0.000280 
1772.581904  	-0.002375 
1774.510720  	-0.001948 
1776.439536  	-0.000749 
1778.368352  	-0.000517 
1780.297168  	-0.000873 
1782.225984  	-0.001434 
1784.154800  	-0.000955 
1786.083616  	-0.001393 
1788.012432  	-0.001108 
1789.941248  	-0.000867 
1791.870064  	-0.001960 
1793.798880  	-0.003114 
1795.727696  	-0.001857 
1797.656512  	-0.001930 
1799.585328  	-0.002058 
1801.514144  	-0.002081 
1803.442960  	-0.002044 
1805.371776  	-0.002497 
1807.300592  	-0.002278 
1809.229408  	-0.002581 
1811.158224  	-0.002900 
1813.087040  	-0.003134 
1815.015856  	-0.002758 
1816.944672  	-0.002730 
1818.873488  	-0.002671 
1820.802304  	-0.002764 
1822.731120  	-0.002194 
1824.659936  	-0.002782 
1826.588752  	-0.003326 
1828.517568  	-0.003588 
1830.446384  	-0.004025 
1832.375200  	-0.003781 
1834.304016  	-0.003030 
1836.232832  	-0.002929 
1838.161648  	-0.002770 
1840.090464  	-0.002936 
1842.019280  	-0.002314 
1843.948096  	-0.003429 
1845.876912  	-0.003774 
1847.805728  	-0.003358 
1849.734544  	-0.003194 
1851.663360  	-0.003331 
1853.592176  	-0.003377 
1855.520992  	-0.003583 
1857.449808  	-0.003430 
1859.378624  	-0.003388 
1861.307440  	-0.003339 
1863.236256  	-0.003698 
1865.165072  	-0.003424 
1867.093888  	-0.003540 
1869.022704  	-0.004073 
1870.951520  	-0.004239 
1872.880336  	-0.003545 
1874.809152  	-0.003616 
1876.737968  	-0.003636 
1878.666784  	-0.003852 
1880.595600  	-0.003420 
1882.524416  	-0.003859 
1884.453232  	-0.003921 
1886.382048  	-0.003826 
1888.310864  	-0.003665 
1890.239680  	-0.004047 
1892.168496  	-0.003787 
1894.097312  	-0.004037 
1896.026128  	-0.004146 
1897.954944  	-0.004217 
1899.883760  	-0.003850 
1901.812576  	-0.004076 
1903.741392  	-0.004190 
1905.670208  	-0.004277 
1907.599024  	-0.003817 
1909.527840  	-0.003922 
1911.456656  	-0.003651 
1913.385472  	-0.003865 
1915.314288  	-0.003560 
1917.243104  	-0.003593 
1919.171920  	-0.003631 
1921.100736  	-0.003803 
1923.029552  	-0.003946 
1924.958368  	-0.004459 
1926.887184  	-0.004118 
1928.816000  	-0.004487 
1930.744816  	-0.004381 
1932.673632  	-0.004512 
1934.602448  	-0.004320 
1936.531264  	-0.004215 
1938.460080  	-0.003708 
1940.388896  	-0.004309 
1942.317712  	-0.004771 
1944.246528  	-0.004960 
1946.175344  	-0.003525 
1948.104160  	-0.002979 
1950.032976  	-0.002864 
1951.961792  	-0.003681 
1953.890608  	-0.003838 
1955.819424  	-0.004381 
1957.748240  	-0.003801 
1959.677056  	-0.004164 
1961.605872  	-0.003400 
1963.534688  	-0.003163 
1965.463504  	-0.002760 
1967.392320  	-0.003914 
1969.321136  	-0.004528 
1971.249952  	-0.004653 
1973.178768  	-0.002788 
1975.107584  	-0.002412 
1977.036400  	-0.002155 
1978.965216  	-0.001845 
1980.894032  	-0.002323 
1982.822848  	-0.003147 
1984.751664  	-0.002673 
1986.680480  	-0.003824 
1988.609296  	-0.003453 
1990.538112  	-0.003450 
1992.466928  	-0.002693 
1994.395744  	-0.003720 
1996.324560  	-0.004047 
1998.253376  	-0.004875 
2000.182192  	-0.004541 
2002.111008  	-0.004302 
2004.039824  	-0.003909 
2005.968640  	-0.004485 
2007.897456  	-0.003359 
2009.826272  	-0.004048 
2011.755088  	-0.004188 
2013.683904  	-0.004919 
2015.612720  	-0.004542 
2017.541536  	-0.004696 
2019.470352  	-0.003957 
2021.399168  	-0.004701 
2023.327984  	-0.004427 
2025.256800  	-0.003657 
2027.185616  	-0.003320 
2029.114432  	-0.003526 
2031.043248  	-0.002488 
2032.972064  	-0.002993 
2034.900880  	-0.002148 
2036.829696  	-0.002567 
2038.758512  	-0.002611 
2040.687328  	-0.003457 
2042.616144  	-0.003171 
2044.544960  	-0.003278 
2046.473776  	-0.003336 
2048.402592  	-0.003488 
2050.331408  	-0.002813 
2052.260224  	-0.003733 
2054.189040  	-0.003871 
2056.117856  	-0.003826 
2058.046672  	-0.004099 
2059.975488  	-0.004525 
2061.904304  	-0.004157 
2063.833120  	-0.004030 
2065.761936  	-0.004088 
2067.690752  	-0.004363 
2069.619568  	-0.004094 
2071.548384  	-0.003931 
2073.477200  	-0.003967 
2075.406016  	-0.004098 
2077.334832  	-0.003852 
2079.263648  	-0.003744 
2081.192464  	-0.003480 
2083.121280  	-0.003654 
2085.050096  	-0.003479 
2086.978912  	-0.003681 
2088.907728  	-0.003739 
2090.836544  	-0.004138 
2092.765360  	-0.003986 
2094.694176  	-0.003840 
2096.622992  	-0.003519 
2098.551808  	-0.003345 
2100.480624  	-0.003160 
2102.409440  	-0.003646 
2104.338256  	-0.004011 
2106.267072  	-0.003412 
2108.195888  	-0.002942 
2110.124704  	-0.003836 
2112.053520  	-0.003866 
2113.982336  	-0.003990 
2115.911152  	-0.003825 
2117.839968  	-0.003667 
2119.768784  	-0.003859 
2121.697600  	-0.004325 
2123.626416  	-0.004523 
2125.555232  	-0.004987 
2127.484048  	-0.004690 
2129.412864  	-0.004745 
2131.341680  	-0.004762 
2133.270496  	-0.004995 
2135.199312  	-0.004312 
2137.128128  	-0.004146 
2139.056944  	-0.004162 
2140.985760  	-0.004045 
2142.914576  	-0.003537 
2144.843392  	-0.003863 
2146.772208  	-0.004213 
2148.701024  	-0.004062 
2150.629840  	-0.002923 
2152.558656  	-0.003258 
2154.487472  	-0.003667 
2156.416288  	-0.004842 
2158.345104  	-0.004519 
2160.273920  	-0.002390 
2162.202736  	-0.000687 
2164.131552  	-0.001236 
2166.060368  	-0.001415 
2167.989184  	-0.001282 
2169.918000  	-0.000321 
2171.846816  	-0.001607 
2173.775632  	-0.002500 
2175.704448  	-0.001954 
2177.633264  	-0.001898 
2179.562080  	-0.002957 
2181.490896  	-0.002374 
2183.419712  	-0.002669 
2185.348528  	-0.002971 
2187.277344  	-0.003059 
2189.206160  	-0.002895 
2191.134976  	-0.003100 
2193.063792  	-0.002826 
2194.992608  	-0.003018 
2196.921424  	-0.003274 
2198.850240  	-0.003419 
2200.779056  	-0.003500 
2202.707872  	-0.003600 
2204.636688  	-0.003371 
2206.565504  	-0.002814 
2208.494320  	-0.002781 
2210.423136  	-0.003595 
2212.351952  	-0.003806 
2214.280768  	-0.004532 
2216.209584  	-0.004056 
2218.138400  	-0.003823 
2220.067216  	-0.003910 
2221.996032  	-0.004183 
2223.924848  	-0.003970 
2225.853664  	-0.003255 
2227.782480  	-0.003074 
2229.711296  	-0.004094 
2231.640112  	-0.004549 
2233.568928  	-0.004484 
2235.497744  	-0.004074 
2237.426560  	-0.004331 
2239.355376  	-0.004181 
2241.284192  	-0.004271 
2243.213008  	-0.004216 
2245.141824  	-0.004535 
2247.070640  	-0.004467 
2248.999456  	-0.004541 
2250.928272  	-0.004708 
2252.857088  	-0.004791 
2254.785904  	-0.004494 
2256.714720  	-0.004931 
2258.643536  	-0.005071 
2260.572352  	-0.005065 
2262.501168  	-0.004842 
2264.429984  	-0.004736 
2266.358800  	-0.004502 
2268.287616  	-0.004531 
2270.216432  	-0.004525 
2272.145248  	-0.004361 
2274.074064  	-0.004242 
2276.002880  	-0.004262 
2277.931696  	-0.003963 
2279.860512  	-0.004010 
2281.789328  	-0.004106 
2283.718144  	-0.004164 
2285.646960  	-0.003808 
2287.575776  	-0.003454 
2289.504592  	-0.003494 
2291.433408  	-0.003753 
2293.362224  	-0.003504 
2295.291040  	-0.003217 
2297.219856  	-0.002948 
2299.148672  	-0.002692 
2301.077488  	-0.002212 
2303.006304  	-0.001930 
2304.935120  	-0.001680 
2306.863936  	-0.001340 
2308.792752  	-0.000926 
2310.721568  	-0.000788 
2312.650384  	-0.000713 
2314.579200  	-0.000806 
2316.508016  	-0.001019 
2318.436832  	-0.001264 
2320.365648  	-0.001389 
2322.294464  	-0.001795 
2324.223280  	-0.002473 
2326.152096  	-0.003439 
2328.080912  	-0.004191 
2330.009728  	-0.005183 
2331.938544  	-0.006208 
2333.867360  	-0.006835 
2335.796176  	-0.007223 
2337.724992  	-0.007647 
2339.653808  	-0.007434 
2341.582624  	-0.007501 
2343.511440  	-0.007194 
2345.440256  	-0.006672 
2347.369072  	-0.005058 
2349.297888  	-0.003197 
2351.226704  	-0.003403 
2353.155520  	-0.005270 
2355.084336  	-0.006376 
2357.013152  	-0.007424 
2358.941968  	-0.008224 
2360.870784  	-0.009256 
2362.799600  	-0.009036 
2364.728416  	-0.009258 
2366.657232  	-0.008576 
2368.586048  	-0.007090 
2370.514864  	-0.006043 
2372.443680  	-0.005496 
2374.372496  	-0.004661 
2376.301312  	-0.003894 
2378.230128  	-0.003222 
2380.158944  	-0.003199 
2382.087760  	-0.003532 
2384.016576  	-0.004080 
2385.945392  	-0.004663 
2387.874208  	-0.005068 
2389.803024  	-0.005332 
2391.731840  	-0.005470 
2393.660656  	-0.005452 
2395.589472  	-0.005580 
2397.518288  	-0.005406 
2399.447104  	-0.005478 
2401.375920  	-0.005695 
2403.304736  	-0.005754 
2405.233552  	-0.005497 
2407.162368  	-0.005534 
2409.091184  	-0.005553 
2411.020000  	-0.005454 
2412.948816  	-0.005441 
2414.877632  	-0.005499 
2416.806448  	-0.005352 
2418.735264  	-0.005523 
2420.664080  	-0.005563 
2422.592896  	-0.005508 
2424.521712  	-0.005463 
2426.450528  	-0.005693 
2428.379344  	-0.005635 
2430.308160  	-0.005512 
2432.236976  	-0.005366 
2434.165792  	-0.005393 
2436.094608  	-0.005464 
2438.023424  	-0.005316 
2439.952240  	-0.005158 
2441.881056  	-0.005203 
2443.809872  	-0.005106 
2445.738688  	-0.004822 
2447.667504  	-0.004556 
2449.596320  	-0.004743 
2451.525136  	-0.004745 
2453.453952  	-0.004777 
2455.382768  	-0.004918 
2457.311584  	-0.005116 
2459.240400  	-0.005094 
2461.169216  	-0.005048 
2463.098032  	-0.005161 
2465.026848  	-0.005102 
2466.955664  	-0.005070 
2468.884480  	-0.005261 
2470.813296  	-0.005255 
2472.742112  	-0.005126 
2474.670928  	-0.004879 
2476.599744  	-0.004851 
2478.528560  	-0.004774 
2480.457376  	-0.004892 
2482.386192  	-0.005018 
2484.315008  	-0.004958 
2486.243824  	-0.005089 
2488.172640  	-0.005002 
2490.101456  	-0.004663 
2492.030272  	-0.004724 
2493.959088  	-0.004950 
2495.887904  	-0.004900 
2497.816720  	-0.004711 
2499.745536  	-0.004504 
2501.674352  	-0.004457 
2503.603168  	-0.004356 
2505.531984  	-0.004286 
2507.460800  	-0.004501 
2509.389616  	-0.004468 
2511.318432  	-0.004327 
2513.247248  	-0.004370 
2515.176064  	-0.004489 
2517.104880  	-0.004412 
2519.033696  	-0.004503 
2520.962512  	-0.004304 
2522.891328  	-0.004058 
2524.820144  	-0.004220 
2526.748960  	-0.004428 
2528.677776  	-0.004239 
2530.606592  	-0.004299 
2532.535408  	-0.004259 
2534.464224  	-0.004036 
2536.393040  	-0.004019 
2538.321856  	-0.003993 
2540.250672  	-0.003938 
2542.179488  	-0.003983 
2544.108304  	-0.003872 
2546.037120  	-0.003789 
2547.965936  	-0.003835 
2549.894752  	-0.003832 
2551.823568  	-0.003858 
2553.752384  	-0.003677 
2555.681200  	-0.003419 
2557.610016  	-0.003473 
2559.538832  	-0.003395 
2561.467648  	-0.003119 
2563.396464  	-0.003128 
2565.325280  	-0.003179 
2567.254096  	-0.003200 
2569.182912  	-0.003216 
2571.111728  	-0.003165 
2573.040544  	-0.003212 
2574.969360  	-0.003158 
2576.898176  	-0.002870 
2578.826992  	-0.002845 
2580.755808  	-0.003020 
2582.684624  	-0.002930 
2584.613440  	-0.002809 
2586.542256  	-0.002731 
2588.471072  	-0.002508 
2590.399888  	-0.002461 
2592.328704  	-0.002673 
2594.257520  	-0.002784 
2596.186336  	-0.002730 
2598.115152  	-0.002575 
2600.043968  	-0.002542 
2601.972784  	-0.002481 
2603.901600  	-0.002410 
2605.830416  	-0.002348 
2607.759232  	-0.002283 
2609.688048  	-0.002138 
2611.616864  	-0.002071 
2613.545680  	-0.002096 
2615.474496  	-0.002018 
2617.403312  	-0.001786 
2619.332128  	-0.001677 
2621.260944  	-0.001703 
2623.189760  	-0.001728 
2625.118576  	-0.001538 
2627.047392  	-0.001389 
2628.976208  	-0.001324 
2630.905024  	-0.001172 
2632.833840  	-0.001143 
2634.762656  	-0.001181 
2636.691472  	-0.001194 
2638.620288  	-0.001139 
2640.549104  	-0.001025 
2642.477920  	-0.001013 
2644.406736  	-0.000886 
2646.335552  	-0.000730 
2648.264368  	-0.000591 
2650.193184  	-0.000544 
2652.122000  	-0.000488 
2654.050816  	-0.000344 
2655.979632  	-0.000160 
2657.908448  	-0.000066 
2659.837264  	-0.000039 
2661.766080  	-0.000078 
2663.694896  	-0.000064 
2665.623712  	0.000026 
2667.552528  	0.000195 
2669.481344  	0.000307 
2671.410160  	0.000414 
2673.338976  	0.000402 
2675.267792  	0.000433 
2677.196608  	0.000640 
2679.125424  	0.000762 
2681.054240  	0.000874 
2682.983056  	0.000990 
2684.911872  	0.000956 
2686.840688  	0.000992 
2688.769504  	0.001085 
2690.698320  	0.001162 
2692.627136  	0.001242 
2694.555952  	0.001369 
2696.484768  	0.001393 
2698.413584  	0.001302 
2700.342400  	0.001368 
2702.271216  	0.001533 
2704.200032  	0.001688 
2706.128848  	0.001717 
2708.057664  	0.001750 
2709.986480  	0.001833 
2711.915296  	0.001944 
2713.844112  	0.002070 
2715.772928  	0.002103 
2717.701744  	0.002172 
2719.630560  	0.002337 
2721.559376  	0.002405 
2723.488192  	0.002598 
2725.417008  	0.002807 
2727.345824  	0.002884 
2729.274640  	0.002884 
2731.203456  	0.002917 
2733.132272  	0.003055 
2735.061088  	0.003166 
2736.989904  	0.003282 
2738.918720  	0.003322 
2740.847536  	0.003277 
2742.776352  	0.003283 
2744.705168  	0.003401 
2746.633984  	0.003451 
2748.562800  	0.003472 
2750.491616  	0.003605 
2752.420432  	0.003726 
2754.349248  	0.003691 
2756.278064  	0.003680 
2758.206880  	0.003623 
2760.135696  	0.003606 
2762.064512  	0.003652 
2763.993328  	0.003704 
2765.922144  	0.003639 
2767.850960  	0.003642 
2769.779776  	0.003689 
2771.708592  	0.003718 
2773.637408  	0.003620 
2775.566224  	0.003581 
2777.495040  	0.003570 
2779.423856  	0.003582 
2781.352672  	0.003559 
2783.281488  	0.003528 
2785.210304  	0.003481 
2787.139120  	0.003485 
2789.067936  	0.003511 
2790.996752  	0.003582 
2792.925568  	0.003554 
2794.854384  	0.003521 
2796.783200  	0.003435 
2798.712016  	0.003315 
2800.640832  	0.003311 
2802.569648  	0.003430 
2804.498464  	0.003503 
2806.427280  	0.003446 
2808.356096  	0.003453 
2810.284912  	0.003534 
2812.213728  	0.003477 
2814.142544  	0.003398 
2816.071360  	0.003348 
2818.000176  	0.003265 
2819.928992  	0.003140 
2821.857808  	0.002970 
2823.786624  	0.002933 
2825.715440  	0.002916 
2827.644256  	0.002734 
2829.573072  	0.002623 
2831.501888  	0.002369 
2833.430704  	0.002018 
2835.359520  	0.001744 
2837.288336  	0.001469 
2839.217152  	0.001160 
2841.145968  	0.000758 
2843.074784  	0.000362 
2845.003600  	-0.000026 
2846.932416  	-0.000428 
2848.861232  	-0.000842 
2850.790048  	-0.001305 
2852.718864  	-0.001828 
2854.647680  	-0.002276 
2856.576496  	-0.002845 
2858.505312  	-0.003451 
2860.434128  	-0.004024 
2862.362944  	-0.004716 
2864.291760  	-0.005542 
2866.220576  	-0.006290 
2868.149392  	-0.006671 
2870.078208  	-0.006878 
2872.007024  	-0.006971 
2873.935840  	-0.006982 
2875.864656  	-0.007137 
2877.793472  	-0.007540 
2879.722288  	-0.007915 
2881.651104  	-0.008312 
2883.579920  	-0.008551 
2885.508736  	-0.008459 
2887.437552  	-0.008241 
2889.366368  	-0.008264 
2891.295184  	-0.008585 
2893.224000  	-0.008837 
2895.152816  	-0.008833 
2897.081632  	-0.009148 
2899.010448  	-0.010897 
2900.939264  	-0.012500 
2902.868080  	-0.011263 
2904.796896  	-0.009900 
2906.725712  	-0.009358 
2908.654528  	-0.008915 
2910.583344  	-0.008597 
2912.512160  	-0.007992 
2914.440976  	-0.006965 
2916.369792  	-0.006256 
2918.298608  	-0.005874 
2920.227424  	-0.005617 
2922.156240  	-0.005072 
2924.085056  	-0.004261 
2926.013872  	-0.003387 
2927.942688  	-0.002508 
2929.871504  	-0.001737 
2931.800320  	-0.000964 
2933.729136  	-0.000296 
2935.657952  	0.000073 
2937.586768  	0.000581 
2939.515584  	0.001222 
2941.444400  	0.001433 
2943.373216  	0.001349 
2945.302032  	0.001541 
2947.230848  	0.001779 
2949.159664  	0.001514 
2951.088480  	0.000936 
2953.017296  	0.000406 
2954.946112  	-0.000224 
2956.874928  	-0.000956 
2958.803744  	-0.001768 
2960.732560  	-0.002256 
2962.661376  	-0.002820 
2964.590192  	-0.003755 
2966.519008  	-0.004874 
2968.447824  	-0.005893 
2970.376640  	-0.006804 
2972.305456  	-0.007307 
2974.234272  	-0.006997 
2976.163088  	-0.006587 
2978.091904  	-0.006567 
2980.020720  	-0.006575 
2981.949536  	-0.006370 
2983.878352  	-0.006617 
2985.807168  	-0.007634 
2987.735984  	-0.008567 
2989.664800  	-0.008181 
2991.593616  	-0.005023 
2993.522432  	-0.002972 
2995.451248  	-0.002554 
2997.380064  	-0.001806 
2999.308880  	-0.000645 
3001.237696  	0.000672 
3003.166512  	0.002164 
3005.095328  	0.003654 
3007.024144  	0.004981 
3008.952960  	0.006279 
3010.881776  	0.007731 
3012.810592  	0.009051 
3014.739408  	0.010219 
3016.668224  	0.011375 
3018.597040  	0.012556 
3020.525856  	0.013619 
3022.454672  	0.014700 
3024.383488  	0.015799 
3026.312304  	0.016635 
3028.241120  	0.017535 
3030.169936  	0.018449 
3032.098752  	0.019208 
3034.027568  	0.020029 
3035.956384  	0.020784 
3037.885200  	0.021531 
3039.814016  	0.022100 
3041.742832  	0.022657 
3043.671648  	0.023191 
3045.600464  	0.023732 
3047.529280  	0.024019 
3049.458096  	0.024362 
3051.386912  	0.025011 
3053.315728  	0.025638 
3055.244544  	0.026049 
3057.173360  	0.026539 
3059.102176  	0.026972 
3061.030992  	0.027492 
3062.959808  	0.028147 
3064.888624  	0.028688 
3066.817440  	0.029219 
3068.746256  	0.029879 
3070.675072  	0.030515 
3072.603888  	0.031020 
3074.532704  	0.031654 
3076.461520  	0.032337 
3078.390336  	0.032958 
3080.319152  	0.033519 
3082.247968  	0.034105 
3084.176784  	0.034729 
3086.105600  	0.035423 
3088.034416  	0.035966 
3089.963232  	0.036522 
3091.892048  	0.037066 
3093.820864  	0.037717 
3095.749680  	0.038424 
3097.678496  	0.039144 
3099.607312  	0.039857 
3101.536128  	0.040517 
3103.464944  	0.041183 
3105.393760  	0.041784 
3107.322576  	0.042457 
3109.251392  	0.043197 
3111.180208  	0.043849 
3113.109024  	0.044513 
3115.037840  	0.045022 
3116.966656  	0.045488 
3118.895472  	0.045976 
3120.824288  	0.046590 
3122.753104  	0.047299 
3124.681920  	0.047804 
3126.610736  	0.048194 
3128.539552  	0.048787 
3130.468368  	0.049337 
3132.397184  	0.049855 
3134.326000  	0.050460 
3136.254816  	0.050957 
3138.183632  	0.051510 
3140.112448  	0.052144 
3142.041264  	0.052667 
3143.970080  	0.053034 
3145.898896  	0.053527 
3147.827712  	0.054092 
3149.756528  	0.054600 
3151.685344  	0.055074 
3153.614160  	0.055690 
3155.542976  	0.056244 
3157.471792  	0.056845 
3159.400608  	0.057444 
3161.329424  	0.057945 
3163.258240  	0.058368 
3165.187056  	0.058892 
3167.115872  	0.059489 
3169.044688  	0.059853 
3170.973504  	0.060201 
3172.902320  	0.060677 
3174.831136  	0.061201 
3176.759952  	0.061808 
3178.688768  	0.062229 
3180.617584  	0.062556 
3182.546400  	0.062904 
3184.475216  	0.063244 
3186.404032  	0.063462 
3188.332848  	0.063633 
3190.261664  	0.063792 
3192.190480  	0.064104 
3194.119296  	0.064195 
3196.048112  	0.064387 
3197.976928  	0.064379 
3199.905744  	0.064375 
3201.834560  	0.064447 
3203.763376  	0.064552 
3205.692192  	0.064600 
3207.621008  	0.064554 
3209.549824  	0.064510 
3211.478640  	0.064551 
3213.407456  	0.064516 
3215.336272  	0.064368 
3217.265088  	0.064306 
3219.193904  	0.064105 
3221.122720  	0.063843 
3223.051536  	0.063844 
3224.980352  	0.063783 
3226.909168  	0.063701 
3228.837984  	0.063566 
3230.766800  	0.063451 
3232.695616  	0.063509 
3234.624432  	0.063510 
3236.553248  	0.063469 
3238.482064  	0.063440 
3240.410880  	0.063513 
3242.339696  	0.063621 
3244.268512  	0.063479 
3246.197328  	0.063624 
3248.126144  	0.063943 
3250.054960  	0.064072 
3251.983776  	0.064346 
3253.912592  	0.064392 
3255.841408  	0.064339 
3257.770224  	0.064747 
3259.699040  	0.065205 
3261.627856  	0.065453 
3263.556672  	0.065648 
3265.485488  	0.065682 
3267.414304  	0.065884 
3269.343120  	0.066280 
3271.271936  	0.066417 
3273.200752  	0.066307 
3275.129568  	0.066472 
3277.058384  	0.066850 
3278.987200  	0.067021 
3280.916016  	0.067300 
3282.844832  	0.067603 
3284.773648  	0.067778 
3286.702464  	0.067989 
3288.631280  	0.068198 
3290.560096  	0.068504 
3292.488912  	0.068914 
3294.417728  	0.069210 
3296.346544  	0.069451 
3298.275360  	0.069681 
3300.204176  	0.070062 
3302.132992  	0.070511 
3304.061808  	0.070791 
3305.990624  	0.071225 
3307.919440  	0.071646 
3309.848256  	0.071901 
3311.777072  	0.072162 
3313.705888  	0.072492 
3315.634704  	0.073016 
3317.563520  	0.073465 
3319.492336  	0.073833 
3321.421152  	0.074144 
3323.349968  	0.074280 
3325.278784  	0.074460 
3327.207600  	0.074761 
3329.136416  	0.074785 
3331.065232  	0.074974 
3332.994048  	0.075365 
3334.922864  	0.075553 
3336.851680  	0.075486 
3338.780496  	0.075511 
3340.709312  	0.075566 
3342.638128  	0.075570 
3344.566944  	0.075339 
3346.495760  	0.075211 
3348.424576  	0.074987 
3350.353392  	0.074751 
3352.282208  	0.074661 
3354.211024  	0.074471 
3356.139840  	0.074302 
3358.068656  	0.074137 
3359.997472  	0.073850 
3361.926288  	0.073499 
3363.855104  	0.073273 
3365.783920  	0.073014 
3367.712736  	0.072745 
3369.641552  	0.072648 
3371.570368  	0.072226 
3373.499184  	0.071791 
3375.428000  	0.071323 
3377.356816  	0.071098 
3379.285632  	0.071141 
3381.214448  	0.070950 
3383.143264  	0.070530 
3385.072080  	0.070066 
3387.000896  	0.069771 
3388.929712  	0.069344 
3390.858528  	0.068870 
3392.787344  	0.068566 
3394.716160  	0.068273 
3396.644976  	0.068146 
3398.573792  	0.067950 
3400.502608  	0.067659 
3402.431424  	0.067271 
3404.360240  	0.066804 
3406.289056  	0.066240 
3408.217872  	0.065813 
3410.146688  	0.065602 
3412.075504  	0.065429 
3414.004320  	0.064982 
3415.933136  	0.064511 
3417.861952  	0.063899 
3419.790768  	0.063601 
3421.719584  	0.063294 
3423.648400  	0.062879 
3425.577216  	0.062258 
3427.506032  	0.061726 
3429.434848  	0.061422 
3431.363664  	0.061012 
3433.292480  	0.060512 
3435.221296  	0.060041 
3437.150112  	0.059583 
3439.078928  	0.059264 
3441.007744  	0.058747 
3442.936560  	0.058256 
3444.865376  	0.058031 
3446.794192  	0.057277 
3448.723008  	0.056166 
3450.651824  	0.055713 
3452.580640  	0.055403 
3454.509456  	0.055164 
3456.438272  	0.054762 
3458.367088  	0.054147 
3460.295904  	0.053579 
3462.224720  	0.052736 
3464.153536  	0.051924 
3466.082352  	0.051441 
3468.011168  	0.050689 
3469.939984  	0.050015 
3471.868800  	0.049538 
3473.797616  	0.048926 
3475.726432  	0.048182 
3477.655248  	0.047565 
3479.584064  	0.047133 
3481.512880  	0.046394 
3483.441696  	0.045415 
3485.370512  	0.044886 
3487.299328  	0.043970 
3489.228144  	0.043304 
3491.156960  	0.042739 
3493.085776  	0.042126 
3495.014592  	0.041362 
3496.943408  	0.040534 
3498.872224  	0.040085 
3500.801040  	0.039943 
3502.729856  	0.039190 
3504.658672  	0.038000 
3506.587488  	0.037790 
3508.516304  	0.037603 
3510.445120  	0.036698 
3512.373936  	0.036002 
3514.302752  	0.035648 
3516.231568  	0.035478 
3518.160384  	0.034817 
3520.089200  	0.033986 
3522.018016  	0.033512 
3523.946832  	0.033080 
3525.875648  	0.032656 
3527.804464  	0.031846 
3529.733280  	0.030931 
3531.662096  	0.030486 
3533.590912  	0.030156 
3535.519728  	0.029892 
3537.448544  	0.029327 
3539.377360  	0.028596 
3541.306176  	0.028179 
3543.234992  	0.028067 
3545.163808  	0.027860 
3547.092624  	0.026937 
3549.021440  	0.025835 
3550.950256  	0.025442 
3552.879072  	0.024589 
3554.807888  	0.024104 
3556.736704  	0.023862 
3558.665520  	0.023508 
3560.594336  	0.023127 
3562.523152  	0.022581 
3564.451968  	0.022529 
3566.380784  	0.022155 
3568.309600  	0.019909 
3570.238416  	0.019469 
3572.167232  	0.019624 
3574.096048  	0.018845 
3576.024864  	0.018070 
3577.953680  	0.017727 
3579.882496  	0.017075 
3581.811312  	0.016611 
3583.740128  	0.016490 
3585.668944  	0.016611 
3587.597760  	0.014802 
3589.526576  	0.013087 
3591.455392  	0.013284 
3593.384208  	0.013112 
3595.313024  	0.012030 
3597.241840  	0.011143 
3599.170656  	0.010299 
3601.099472  	0.009238 
3603.028288  	0.009097 
3604.957104  	0.009357 
3606.885920  	0.008877 
3608.814736  	0.007265 
3610.743552  	0.006819 
3612.672368  	0.005951 
3614.601184  	0.004470 
3616.530000  	0.004711 
3618.458816  	0.003161 
3620.387632  	0.001071 
3622.316448  	0.001394 
3624.245264  	0.001839 
3626.174080  	0.001854 
3628.102896  	-0.000242 
3630.031712  	-0.004409 
3631.960528  	-0.003027 
3633.889344  	-0.003122 
3635.818160  	-0.003859 
3637.746976  	-0.004711 
3639.675792  	-0.005247 
3641.604608  	-0.005328 
3643.533424  	-0.005615 
3645.462240  	-0.005600 
3647.391056  	-0.007669 
3649.319872  	-0.012062 
3651.248688  	-0.014431 
3653.177504  	-0.011995 
3655.106320  	-0.011462 
3657.035136  	-0.014107 
3658.963952  	-0.014119 
3660.892768  	-0.014021 
3662.821584  	-0.014345 
3664.750400  	-0.014341 
3666.679216  	-0.013980 
3668.608032  	-0.015193 
3670.536848  	-0.018207 
3672.465664  	-0.016678 
3674.394480  	-0.016903 
3676.323296  	-0.021457 
3678.252112  	-0.018467 
3680.180928  	-0.017000 
3682.109744  	-0.016690 
3684.038560  	-0.016398 
3685.967376  	-0.015616 
3687.896192  	-0.017391 
3689.825008  	-0.020513 
3691.753824  	-0.019693 
3693.682640  	-0.017701 
3695.611456  	-0.016492 
3697.540272  	-0.015546 
3699.469088  	-0.014540 
3701.397904  	-0.015217 
3703.326720  	-0.015272 
3705.255536  	-0.013776 
3707.184352  	-0.012980 
3709.113168  	-0.014088 
3711.041984  	-0.016353 
3712.970800  	-0.016309 
3714.899616  	-0.014114 
3716.828432  	-0.012897 
3718.757248  	-0.013004 
3720.686064  	-0.013157 
3722.614880  	-0.013341 
3724.543696  	-0.012850 
3726.472512  	-0.013230 
3728.401328  	-0.012833 
3730.330144  	-0.012387 
3732.258960  	-0.013857 
3734.187776  	-0.014026 
3736.116592  	-0.015888 
3738.045408  	-0.015718 
3739.974224  	-0.013591 
3741.903040  	-0.011840 
3743.831856  	-0.013248 
3745.760672  	-0.016405 
3747.689488  	-0.013978 
3749.618304  	-0.015447 
3751.547120  	-0.017979 
3753.475936  	-0.016822 
3755.404752  	-0.014205 
3757.333568  	-0.013500 
3759.262384  	-0.014379 
3761.191200  	-0.014695 
3763.120016  	-0.013001 
3765.048832  	-0.013282 
3766.977648  	-0.013317 
3768.906464  	-0.013769 
3770.835280  	-0.014938 
3772.764096  	-0.013811 
3774.692912  	-0.013012 
3776.621728  	-0.012669 
3778.550544  	-0.013498 
3780.479360  	-0.014654 
3782.408176  	-0.013352 
3784.336992  	-0.013547 
3786.265808  	-0.013960 
3788.194624  	-0.013592 
3790.123440  	-0.013452 
3792.052256  	-0.013232 
3793.981072  	-0.012793 
3795.909888  	-0.013737 
3797.838704  	-0.014049 
3799.767520  	-0.013640 
3801.696336  	-0.017135 
3803.625152  	-0.016052 
3805.553968  	-0.014164 
3807.482784  	-0.016055 
3809.411600  	-0.014716 
3811.340416  	-0.013059 
3813.269232  	-0.012044 
3815.198048  	-0.014071 
3817.126864  	-0.016243 
3819.055680  	-0.013806 
3820.984496  	-0.016073 
3822.913312  	-0.016568 
3824.842128  	-0.014114 
3826.770944  	-0.014397 
3828.699760  	-0.013545 
3830.628576  	-0.013281 
3832.557392  	-0.014155 
3834.486208  	-0.013962 
3836.415024  	-0.014254 
3838.343840  	-0.015575 
3840.272656  	-0.015706 
3842.201472  	-0.014590 
3844.130288  	-0.014751 
3846.059104  	-0.014008 
3847.987920  	-0.012755 
3849.916736  	-0.012293 
3851.845552  	-0.013317 
3853.774368  	-0.018757 
3855.703184  	-0.017403 
3857.632000  	-0.014470 
3859.560816  	-0.013126 
3861.489632  	-0.013071 
3863.418448  	-0.013819 
3865.347264  	-0.014629 
3867.276080  	-0.013208 
3869.204896  	-0.013844 
3871.133712  	-0.015166 
3873.062528  	-0.014092 
3874.991344  	-0.014865 
3876.920160  	-0.013302 
3878.848976  	-0.012396 
3880.777792  	-0.013731 
3882.706608  	-0.013141 
3884.635424  	-0.012820 
3886.564240  	-0.014655 
3888.493056  	-0.013439 
3890.421872  	-0.013496 
3892.350688  	-0.014927 
3894.279504  	-0.013854 
3896.208320  	-0.012523 
3898.137136  	-0.012247 
3900.065952  	-0.012812 
3901.994768  	-0.012743 
3903.923584  	-0.013694 
3905.852400  	-0.014424 
3907.781216  	-0.013677 
3909.710032  	-0.013172 
3911.638848  	-0.013215 
3913.567664  	-0.012847 
3915.496480  	-0.012373 
3917.425296  	-0.013144 
3919.354112  	-0.013655 
3921.282928  	-0.013327 
3923.211744  	-0.012736 
3925.140560  	-0.012987 
3927.069376  	-0.012913 
3928.998192  	-0.012649 
3930.927008  	-0.012579 
3932.855824  	-0.012982 
3934.784640  	-0.013357 
3936.713456  	-0.013223 
3938.642272  	-0.012914 
3940.571088  	-0.012533 
3942.499904  	-0.012727 
3944.428720  	-0.012978 
3946.357536  	-0.012516 
3948.286352  	-0.012476 
3950.215168  	-0.012948 
3952.143984  	-0.013255 
3954.072800  	-0.013092 
3956.001616  	-0.012923 
3957.930432  	-0.012984 
3959.859248  	-0.012889 
3961.788064  	-0.013025 
3963.716880  	-0.013280 
3965.645696  	-0.013400 
3967.574512  	-0.013304 
3969.503328  	-0.013193 
3971.432144  	-0.013330 
3973.360960  	-0.013391 
3975.289776  	-0.013413 
3977.218592  	-0.013358 
3979.147408  	-0.013291 
3981.076224  	-0.013237 
3983.005040  	-0.013228 
3984.933856  	-0.013259 
3986.862672  	-0.013307 
3988.791488  	-0.013212 
3990.720304  	-0.013049 
3992.649120  	-0.013155 
3994.577936  	-0.013435 
3996.506752  	-0.013403 
3998.435568  	-0.013269 
4000.364384  	-0.013215 