##TITLE=No Description
##DATA TYPE=INFRARED SPECTRUM
##XUNITS=1/CM
##YUNITS=Abs
399.264912  	0.543823 
401.193728  	0.499008 
403.122544  	0.488358 
405.051360  	0.496384 
406.980176  	0.494738 
408.908992  	0.480208 
410.837808  	0.483664 
412.766624  	0.478965 
414.695440  	0.469314 
416.624256  	0.462400 
418.553072  	0.487843 
420.481888  	0.483053 
422.410704  	0.468371 
424.339520  	0.472001 
426.268336  	0.465799 
428.197152  	0.457698 
430.125968  	0.454481 
432.054784  	0.447411 
433.983600  	0.452827 
435.912416  	0.455425 
437.841232  	0.448637 
439.770048  	0.444231 
441.698864  	0.452493 
443.627680  	0.447275 
445.556496  	0.442617 
447.485312  	0.440291 
449.414128  	0.440290 
451.342944  	0.438421 
453.271760  	0.438920 
455.200576  	0.436597 
457.129392  	0.440782 
459.058208  	0.437373 
460.987024  	0.435076 
462.915840  	0.433332 
464.844656  	0.436626 
466.773472  	0.434927 
468.702288  	0.435090 
470.631104  	0.436441 
472.559920  	0.434534 
474.488736  	0.427196 
476.417552  	0.427979 
478.346368  	0.428421 
480.275184  	0.428153 
482.204000  	0.427295 
484.132816  	0.433427 
486.061632  	0.432393 
487.990448  	0.427458 
489.919264  	0.425592 
491.848080  	0.426375 
493.776896  	0.423789 
495.705712  	0.420569 
497.634528  	0.417450 
499.563344  	0.418068 
501.492160  	0.419389 
503.420976  	0.419787 
505.349792  	0.416303 
507.278608  	0.416180 
509.207424  	0.414605 
511.136240  	0.417226 
513.065056  	0.416842 
514.993872  	0.418147 
516.922688  	0.420565 
518.851504  	0.420795 
520.780320  	0.418215 
522.709136  	0.417103 
524.637952  	0.416477 
526.566768  	0.414582 
528.495584  	0.410809 
530.424400  	0.408829 
532.353216  	0.406177 
534.282032  	0.400699 
536.210848  	0.396966 
538.139664  	0.394422 
540.068480  	0.388416 
541.997296  	0.385662 
543.926112  	0.384378 
545.854928  	0.382687 
547.783744  	0.377793 
549.712560  	0.375721 
551.641376  	0.373562 
553.570192  	0.372748 
555.499008  	0.369166 
557.427824  	0.365878 
559.356640  	0.362881 
561.285456  	0.360736 
563.214272  	0.358156 
565.143088  	0.355445 
567.071904  	0.351818 
569.000720  	0.349868 
570.929536  	0.347778 
572.858352  	0.344945 
574.787168  	0.342811 
576.715984  	0.340664 
578.644800  	0.336616 
580.573616  	0.333221 
582.502432  	0.329208 
584.431248  	0.325940 
586.360064  	0.322557 
588.288880  	0.320806 
590.217696  	0.319270 
592.146512  	0.317401 
594.075328  	0.314447 
596.004144  	0.312550 
597.932960  	0.310779 
599.861776  	0.310206 
601.790592  	0.308912 
603.719408  	0.307833 
605.648224  	0.306782 
607.577040  	0.305951 
609.505856  	0.304245 
611.434672  	0.302688 
613.363488  	0.301274 
615.292304  	0.300728 
617.221120  	0.299504 
619.149936  	0.297659 
621.078752  	0.296299 
623.007568  	0.296150 
624.936384  	0.295398 
626.865200  	0.294180 
628.794016  	0.292663 
630.722832  	0.291947 
632.651648  	0.292067 
634.580464  	0.292276 
636.509280  	0.292637 
638.438096  	0.292496 
640.366912  	0.291356 
642.295728  	0.289816 
644.224544  	0.288472 
646.153360  	0.286262 
648.082176  	0.282431 
650.010992  	0.279466 
651.939808  	0.276299 
653.868624  	0.273515 
655.797440  	0.269825 
657.726256  	0.267152 
659.655072  	0.264553 
661.583888  	0.261049 
663.512704  	0.257194 
665.441520  	0.253004 
667.370336  	0.250518 
669.299152  	0.249560 
671.227968  	0.244509 
673.156784  	0.240837 
675.085600  	0.238576 
677.014416  	0.236014 
678.943232  	0.233976 
680.872048  	0.232960 
682.800864  	0.231470 
684.729680  	0.229895 
686.658496  	0.228703 
688.587312  	0.228081 
690.516128  	0.226759 
692.444944  	0.226106 
694.373760  	0.224667 
696.302576  	0.223410 
698.231392  	0.221582 
700.160208  	0.219565 
702.089024  	0.217686 
704.017840  	0.215629 
705.946656  	0.212998 
707.875472  	0.210729 
709.804288  	0.208869 
711.733104  	0.207637 
713.661920  	0.206375 
715.590736  	0.205099 
717.519552  	0.204686 
719.448368  	0.205061 
721.377184  	0.205294 
723.306000  	0.205246 
725.234816  	0.205606 
727.163632  	0.205269 
729.092448  	0.203220 
731.021264  	0.200454 
732.950080  	0.197270 
734.878896  	0.194276 
736.807712  	0.191887 
738.736528  	0.189910 
740.665344  	0.188234 
742.594160  	0.187095 
744.522976  	0.185535 
746.451792  	0.184181 
748.380608  	0.182821 
750.309424  	0.181685 
752.238240  	0.180799 
754.167056  	0.180015 
756.095872  	0.179132 
758.024688  	0.178066 
759.953504  	0.177653 
761.882320  	0.178639 
763.811136  	0.179143 
765.739952  	0.177311 
767.668768  	0.174524 
769.597584  	0.172262 
771.526400  	0.171513 
773.455216  	0.172692 
775.384032  	0.176019 
777.312848  	0.180694 
779.241664  	0.183813 
781.170480  	0.183070 
783.099296  	0.178777 
785.028112  	0.173718 
786.956928  	0.168757 
788.885744  	0.164889 
790.814560  	0.162162 
792.743376  	0.160659 
794.672192  	0.159841 
796.601008  	0.158770 
798.529824  	0.156154 
800.458640  	0.152474 
802.387456  	0.149415 
804.316272  	0.147832 
806.245088  	0.146810 
808.173904  	0.146076 
810.102720  	0.145701 
812.031536  	0.145536 
813.960352  	0.145374 
815.889168  	0.145436 
817.817984  	0.146060 
819.746800  	0.146836 
821.675616  	0.147343 
823.604432  	0.147869 
825.533248  	0.148250 
827.462064  	0.148672 
829.390880  	0.148272 
831.319696  	0.147865 
833.248512  	0.147173 
835.177328  	0.145824 
837.106144  	0.143382 
839.034960  	0.140614 
840.963776  	0.137338 
842.892592  	0.134000 
844.821408  	0.130738 
846.750224  	0.127492 
848.679040  	0.124917 
850.607856  	0.122889 
852.536672  	0.121276 
854.465488  	0.120026 
856.394304  	0.119412 
858.323120  	0.118560 
860.251936  	0.117161 
862.180752  	0.115692 
864.109568  	0.113789 
866.038384  	0.111899 
867.967200  	0.110289 
869.896016  	0.108954 
871.824832  	0.107789 
873.753648  	0.107789 
875.682464  	0.108226 
877.611280  	0.109525 
879.540096  	0.111329 
881.468912  	0.113129 
883.397728  	0.115116 
885.326544  	0.116853 
887.255360  	0.118022 
889.184176  	0.118345 
891.112992  	0.117967 
893.041808  	0.116799 
894.970624  	0.114681 
896.899440  	0.111438 
898.828256  	0.107459 
900.757072  	0.103424 
902.685888  	0.100102 
904.614704  	0.098071 
906.543520  	0.097569 
908.472336  	0.098852 
910.401152  	0.100975 
912.329968  	0.103403 
914.258784  	0.105677 
916.187600  	0.108010 
918.116416  	0.109933 
920.045232  	0.111358 
921.974048  	0.112342 
923.902864  	0.113114 
925.831680  	0.113799 
927.760496  	0.114513 
929.689312  	0.115378 
931.618128  	0.116552 
933.546944  	0.117569 
935.475760  	0.117850 
937.404576  	0.117585 
939.333392  	0.117060 
941.262208  	0.116767 
943.191024  	0.117569 
945.119840  	0.119998 
947.048656  	0.124350 
948.977472  	0.131144 
950.906288  	0.139875 
952.835104  	0.150221 
954.763920  	0.161967 
956.692736  	0.173831 
958.621552  	0.184630 
960.550368  	0.192525 
962.479184  	0.197161 
964.408000  	0.197386 
966.336816  	0.193916 
968.265632  	0.186736 
970.194448  	0.176684 
972.123264  	0.164510 
974.052080  	0.151484 
975.980896  	0.138773 
977.909712  	0.126798 
979.838528  	0.116419 
981.767344  	0.107842 
983.696160  	0.101389 
985.624976  	0.097161 
987.553792  	0.095806 
989.482608  	0.097033 
991.411424  	0.100439 
993.340240  	0.105695 
995.269056  	0.111963 
997.197872  	0.118714 
999.126688  	0.125205 
1001.055504  	0.132039 
1002.984320  	0.138534 
1004.913136  	0.144939 
1006.841952  	0.150969 
1008.770768  	0.156751 
1010.699584  	0.161592 
1012.628400  	0.165274 
1014.557216  	0.168003 
1016.486032  	0.169463 
1018.414848  	0.170112 
1020.343664  	0.170131 
1022.272480  	0.170282 
1024.201296  	0.170228 
1026.130112  	0.170065 
1028.058928  	0.170741 
1029.987744  	0.172534 
1031.916560  	0.175057 
1033.845376  	0.178191 
1035.774192  	0.182624 
1037.703008  	0.188230 
1039.631824  	0.196371 
1041.560640  	0.207057 
1043.489456  	0.220412 
1045.418272  	0.234799 
1047.347088  	0.248772 
1049.275904  	0.258649 
1051.204720  	0.263953 
1053.133536  	0.265087 
1055.062352  	0.262992 
1056.991168  	0.259494 
1058.919984  	0.256750 
1060.848800  	0.254368 
1062.777616  	0.252567 
1064.706432  	0.250433 
1066.635248  	0.247592 
1068.564064  	0.243440 
1070.492880  	0.238194 
1072.421696  	0.232762 
1074.350512  	0.229714 
1076.279328  	0.229442 
1078.208144  	0.232176 
1080.136960  	0.236245 
1082.065776  	0.239248 
1083.994592  	0.238812 
1085.923408  	0.234687 
1087.852224  	0.227159 
1089.781040  	0.218550 
1091.709856  	0.208356 
1093.638672  	0.196925 
1095.567488  	0.184434 
1097.496304  	0.172286 
1099.425120  	0.160226 
1101.353936  	0.148438 
1103.282752  	0.137502 
1105.211568  	0.127531 
1107.140384  	0.118470 
1109.069200  	0.110122 
1110.998016  	0.102776 
1112.926832  	0.096129 
1114.855648  	0.090019 
1116.784464  	0.084147 
1118.713280  	0.078224 
1120.642096  	0.072696 
1122.570912  	0.067668 
1124.499728  	0.063134 
1126.428544  	0.059173 
1128.357360  	0.055593 
1130.286176  	0.052448 
1132.214992  	0.050123 
1134.143808  	0.048425 
1136.072624  	0.046932 
1138.001440  	0.045472 
1139.930256  	0.044176 
1141.859072  	0.043012 
1143.787888  	0.041580 
1145.716704  	0.040422 
1147.645520  	0.039430 
1149.574336  	0.038973 
1151.503152  	0.038470 
1153.431968  	0.038233 
1155.360784  	0.038377 
1157.289600  	0.039314 
1159.218416  	0.040468 
1161.147232  	0.041774 
1163.076048  	0.043280 
1165.004864  	0.044793 
1166.933680  	0.046260 
1168.862496  	0.047851 
1170.791312  	0.049856 
1172.720128  	0.052419 
1174.648944  	0.054952 
1176.577760  	0.057186 
1178.506576  	0.059624 
1180.435392  	0.062471 
1182.364208  	0.065475 
1184.293024  	0.068659 
1186.221840  	0.072381 
1188.150656  	0.076666 
1190.079472  	0.081380 
1192.008288  	0.086959 
1193.937104  	0.093470 
1195.865920  	0.100659 
1197.794736  	0.108231 
1199.723552  	0.116303 
1201.652368  	0.124480 
1203.581184  	0.131883 
1205.510000  	0.139037 
1207.438816  	0.145477 
1209.367632  	0.151006 
1211.296448  	0.155333 
1213.225264  	0.158747 
1215.154080  	0.160715 
1217.082896  	0.161284 
1219.011712  	0.160934 
1220.940528  	0.160304 
1222.869344  	0.158857 
1224.798160  	0.157066 
1226.726976  	0.154344 
1228.655792  	0.151110 
1230.584608  	0.147443 
1232.513424  	0.143221 
1234.442240  	0.138716 
1236.371056  	0.133913 
1238.299872  	0.128633 
1240.228688  	0.122822 
1242.157504  	0.117001 
1244.086320  	0.111358 
1246.015136  	0.105560 
1247.943952  	0.100095 
1249.872768  	0.094635 
1251.801584  	0.089487 
1253.730400  	0.084590 
1255.659216  	0.079742 
1257.588032  	0.075168 
1259.516848  	0.071162 
1261.445664  	0.067088 
1263.374480  	0.063200 
1265.303296  	0.060123 
1267.232112  	0.057833 
1269.160928  	0.056300 
1271.089744  	0.055209 
1273.018560  	0.054477 
1274.947376  	0.054438 
1276.876192  	0.055132 
1278.805008  	0.055647 
1280.733824  	0.055569 
1282.662640  	0.054399 
1284.591456  	0.052805 
1286.520272  	0.051753 
1288.449088  	0.051316 
1290.377904  	0.051044 
1292.306720  	0.051510 
1294.235536  	0.052126 
1296.164352  	0.052214 
1298.093168  	0.050795 
1300.021984  	0.048641 
1301.950800  	0.046276 
1303.879616  	0.043723 
1305.808432  	0.041176 
1307.737248  	0.038660 
1309.666064  	0.035851 
1311.594880  	0.034364 
1313.523696  	0.033534 
1315.452512  	0.032321 
1317.381328  	0.032251 
1319.310144  	0.032554 
1321.238960  	0.032055 
1323.167776  	0.032021 
1325.096592  	0.032431 
1327.025408  	0.032656 
1328.954224  	0.032579 
1330.883040  	0.032071 
1332.811856  	0.030877 
1334.740672  	0.030259 
1336.669488  	0.031590 
1338.598304  	0.034338 
1340.527120  	0.033558 
1342.455936  	0.029517 
1344.384752  	0.028298 
1346.313568  	0.028606 
1348.242384  	0.029371 
1350.171200  	0.030350 
1352.100016  	0.031574 
1354.028832  	0.033598 
1355.957648  	0.035426 
1357.886464  	0.036852 
1359.815280  	0.039351 
1361.744096  	0.043936 
1363.672912  	0.045949 
1365.601728  	0.044320 
1367.530544  	0.045653 
1369.459360  	0.047659 
1371.388176  	0.048146 
1373.316992  	0.050050 
1375.245808  	0.049463 
1377.174624  	0.045665 
1379.103440  	0.043163 
1381.032256  	0.040258 
1382.961072  	0.037963 
1384.889888  	0.037226 
1386.818704  	0.038719 
1388.747520  	0.036469 
1390.676336  	0.032894 
1392.605152  	0.031929 
1394.533968  	0.034163 
1396.462784  	0.035052 
1398.391600  	0.034438 
1400.320416  	0.032719 
1402.249232  	0.030918 
1404.178048  	0.032776 
1406.106864  	0.033578 
1408.035680  	0.033270 
1409.964496  	0.034829 
1411.893312  	0.036747 
1413.822128  	0.037999 
1415.750944  	0.041394 
1417.679760  	0.046173 
1419.608576  	0.047901 
1421.537392  	0.044474 
1423.466208  	0.044064 
1425.395024  	0.042166 
1427.323840  	0.039064 
1429.252656  	0.038469 
1431.181472  	0.037246 
1433.110288  	0.035907 
1435.039104  	0.036921 
1436.967920  	0.040130 
1438.896736  	0.038322 
1440.825552  	0.037259 
1442.754368  	0.037608 
1444.683184  	0.037777 
1446.612000  	0.039209 
1448.540816  	0.040464 
1450.469632  	0.039664 
1452.398448  	0.040207 
1454.327264  	0.041748 
1456.256080  	0.047196 
1458.184896  	0.049723 
1460.113712  	0.042764 
1462.042528  	0.038772 
1463.971344  	0.039495 
1465.900160  	0.040785 
1467.828976  	0.039482 
1469.757792  	0.040180 
1471.686608  	0.046723 
1473.615424  	0.055449 
1475.544240  	0.056675 
1477.473056  	0.057858 
1479.401872  	0.058593 
1481.330688  	0.061970 
1483.259504  	0.063346 
1485.188320  	0.064844 
1487.117136  	0.068633 
1489.045952  	0.073398 
1490.974768  	0.070861 
1492.903584  	0.063456 
1494.832400  	0.059877 
1496.761216  	0.058929 
1498.690032  	0.054165 
1500.618848  	0.048532 
1502.547664  	0.043434 
1504.476480  	0.040948 
1506.405296  	0.048737 
1508.334112  	0.051683 
1510.262928  	0.042499 
1512.191744  	0.037118 
1514.120560  	0.035827 
1516.049376  	0.039746 
1517.978192  	0.041283 
1519.907008  	0.041261 
1521.835824  	0.048101 
1523.764640  	0.047860 
1525.693456  	0.049547 
1527.622272  	0.050489 
1529.551088  	0.047769 
1531.479904  	0.046431 
1533.408720  	0.048048 
1535.337536  	0.043759 
1537.266352  	0.039952 
1539.195168  	0.042784 
1541.123984  	0.046074 
1543.052800  	0.042748 
1544.981616  	0.039092 
1546.910432  	0.032602 
1548.839248  	0.032062 
1550.768064  	0.033585 
1552.696880  	0.031978 
1554.625696  	0.034294 
1556.554512  	0.034847 
1558.483328  	0.042528 
1560.412144  	0.044303 
1562.340960  	0.038933 
1564.269776  	0.039686 
1566.198592  	0.042772 
1568.127408  	0.045425 
1570.056224  	0.052727 
1571.985040  	0.053722 
1573.913856  	0.054505 
1575.842672  	0.059992 
1577.771488  	0.063356 
1579.700304  	0.059606 
1581.629120  	0.058203 
1583.557936  	0.057687 
1585.486752  	0.058377 
1587.415568  	0.059955 
1589.344384  	0.063612 
1591.273200  	0.067873 
1593.202016  	0.073403 
1595.130832  	0.079513 
1597.059648  	0.085045 
1598.988464  	0.089362 
1600.917280  	0.094387 
1602.846096  	0.098342 
1604.774912  	0.100436 
1606.703728  	0.101070 
1608.632544  	0.101937 
1610.561360  	0.100520 
1612.490176  	0.098635 
1614.418992  	0.096606 
1616.347808  	0.100065 
1618.276624  	0.102633 
1620.205440  	0.101421 
1622.134256  	0.104032 
1624.063072  	0.111647 
1625.991888  	0.114005 
1627.920704  	0.119934 
1629.849520  	0.125551 
1631.778336  	0.128780 
1633.707152  	0.132242 
1635.635968  	0.145940 
1637.564784  	0.154568 
1639.493600  	0.152323 
1641.422416  	0.152745 
1643.351232  	0.153133 
1645.280048  	0.154511 
1647.208864  	0.164624 
1649.137680  	0.161130 
1651.066496  	0.152931 
1652.995312  	0.158775 
1654.924128  	0.163814 
1656.852944  	0.153497 
1658.781760  	0.148186 
1660.710576  	0.145434 
1662.639392  	0.145466 
1664.568208  	0.141708 
1666.497024  	0.135847 
1668.425840  	0.134175 
1670.354656  	0.133524 
1672.283472  	0.127512 
1674.212288  	0.122959 
1676.141104  	0.122054 
1678.069920  	0.117912 
1679.998736  	0.117513 
1681.927552  	0.115901 
1683.856368  	0.118757 
1685.785184  	0.119587 
1687.714000  	0.114313 
1689.642816  	0.112979 
1691.571632  	0.109893 
1693.500448  	0.106787 
1695.429264  	0.109465 
1697.358080  	0.113115 
1699.286896  	0.109531 
1701.215712  	0.111474 
1703.144528  	0.105814 
1705.073344  	0.103717 
1707.002160  	0.100657 
1708.930976  	0.094980 
1710.859792  	0.090230 
1712.788608  	0.086158 
1714.717424  	0.083398 
1716.646240  	0.079406 
1718.575056  	0.069274 
1720.503872  	0.056882 
1722.432688  	0.048947 
1724.361504  	0.041448 
1726.290320  	0.034090 
1728.219136  	0.029679 
1730.147952  	0.027534 
1732.076768  	0.024891 
1734.005584  	0.023962 
1735.934400  	0.017416 
1737.863216  	0.013775 
1739.792032  	0.012421 
1741.720848  	0.010948 
1743.649664  	0.011215 
1745.578480  	0.009996 
1747.507296  	0.010102 
1749.436112  	0.010913 
1751.364928  	0.008882 
1753.293744  	0.004498 
1755.222560  	0.002878 
1757.151376  	0.004337 
1759.080192  	0.002940 
1761.009008  	0.002922 
1762.937824  	0.002181 
1764.866640  	0.000119 
1766.795456  	0.000728 
1768.724272  	0.002259 
1770.653088  	0.002276 
1772.581904  	0.003822 
1774.510720  	0.002038 
1776.439536  	0.000340 
1778.368352  	-0.000807 
1780.297168  	-0.000026 
1782.225984  	-0.000957 
1784.154800  	-0.001267 
1786.083616  	-0.001893 
1788.012432  	-0.002758 
1789.941248  	-0.001013 
1791.870064  	0.001833 
1793.798880  	0.000486 
1795.727696  	-0.000694 
1797.656512  	-0.001851 
1799.585328  	-0.001691 
1801.514144  	-0.000666 
1803.442960  	-0.002278 
1805.371776  	-0.003733 
1807.300592  	-0.003580 
1809.229408  	-0.003192 
1811.158224  	-0.002511 
1813.087040  	-0.003699 
1815.015856  	-0.005130 
1816.944672  	-0.004647 
1818.873488  	-0.004421 
1820.802304  	-0.004576 
1822.731120  	-0.003822 
1824.659936  	-0.002614 
1826.588752  	-0.003047 
1828.517568  	-0.003097 
1830.446384  	-0.002016 
1832.375200  	-0.004135 
1834.304016  	-0.004943 
1836.232832  	-0.004651 
1838.161648  	-0.004226 
1840.090464  	-0.004820 
1842.019280  	-0.004079 
1843.948096  	-0.002088 
1845.876912  	-0.002187 
1847.805728  	-0.003691 
1849.734544  	-0.005009 
1851.663360  	-0.005926 
1853.592176  	-0.005607 
1855.520992  	-0.005791 
1857.449808  	-0.005583 
1859.378624  	-0.005910 
1861.307440  	-0.005951 
1863.236256  	-0.006227 
1865.165072  	-0.005683 
1867.093888  	-0.003876 
1869.022704  	-0.001726 
1870.951520  	-0.003751 
1872.880336  	-0.005821 
1874.809152  	-0.006494 
1876.737968  	-0.006571 
1878.666784  	-0.006672 
1880.595600  	-0.006857 
1882.524416  	-0.006835 
1884.453232  	-0.006153 
1886.382048  	-0.006590 
1888.310864  	-0.005780 
1890.239680  	-0.004911 
1892.168496  	-0.005588 
1894.097312  	-0.005545 
1896.026128  	-0.005560 
1897.954944  	-0.006453 
1899.883760  	-0.006594 
1901.812576  	-0.006736 
1903.741392  	-0.006735 
1905.670208  	-0.006950 
1907.599024  	-0.006523 
1909.527840  	-0.005936 
1911.456656  	-0.005636 
1913.385472  	-0.006103 
1915.314288  	-0.006111 
1917.243104  	-0.005299 
1919.171920  	-0.004985 
1921.100736  	-0.005534 
1923.029552  	-0.004652 
1924.958368  	-0.006393 
1926.887184  	-0.007340 
1928.816000  	-0.007758 
1930.744816  	-0.007438 
1932.673632  	-0.007284 
1934.602448  	-0.006652 
1936.531264  	-0.007070 
1938.460080  	-0.007406 
1940.388896  	-0.006873 
1942.317712  	-0.004750 
1944.246528  	-0.005756 
1946.175344  	-0.006429 
1948.104160  	-0.006668 
1950.032976  	-0.006888 
1951.961792  	-0.007585 
1953.890608  	-0.007821 
1955.819424  	-0.008414 
1957.748240  	-0.007989 
1959.677056  	-0.008300 
1961.605872  	-0.008312 
1963.534688  	-0.008029 
1965.463504  	-0.006023 
1967.392320  	-0.005412 
1969.321136  	-0.006867 
1971.249952  	-0.009325 
1973.178768  	-0.009068 
1975.107584  	-0.008080 
1977.036400  	-0.007016 
1978.965216  	-0.006920 
1980.894032  	-0.007215 
1982.822848  	-0.007845 
1984.751664  	-0.007363 
1986.680480  	-0.006940 
1988.609296  	-0.006118 
1990.538112  	-0.005672 
1992.466928  	-0.004631 
1994.395744  	-0.006483 
1996.324560  	-0.007202 
1998.253376  	-0.007129 
2000.182192  	-0.007489 
2002.111008  	-0.008317 
2004.039824  	-0.007551 
2005.968640  	-0.007321 
2007.897456  	-0.007074 
2009.826272  	-0.006590 
2011.755088  	-0.006199 
2013.683904  	-0.007178 
2015.612720  	-0.006124 
2017.541536  	-0.005678 
2019.470352  	-0.005406 
2021.399168  	-0.006278 
2023.327984  	-0.005989 
2025.256800  	-0.006108 
2027.185616  	-0.006056 
2029.114432  	-0.006487 
2031.043248  	-0.005803 
2032.972064  	-0.005955 
2034.900880  	-0.004874 
2036.829696  	-0.004457 
2038.758512  	-0.004944 
2040.687328  	-0.006529 
2042.616144  	-0.006285 
2044.544960  	-0.006156 
2046.473776  	-0.005765 
2048.402592  	-0.005243 
2050.331408  	-0.004858 
2052.260224  	-0.005124 
2054.189040  	-0.005128 
2056.117856  	-0.005256 
2058.046672  	-0.004981 
2059.975488  	-0.005143 
2061.904304  	-0.004824 
2063.833120  	-0.004877 
2065.761936  	-0.004478 
2067.690752  	-0.004536 
2069.619568  	-0.004398 
2071.548384  	-0.004997 
2073.477200  	-0.004858 
2075.406016  	-0.004652 
2077.334832  	-0.004316 
2079.263648  	-0.003746 
2081.192464  	-0.003714 
2083.121280  	-0.004285 
2085.050096  	-0.004445 
2086.978912  	-0.004721 
2088.907728  	-0.004513 
2090.836544  	-0.004051 
2092.765360  	-0.003756 
2094.694176  	-0.003813 
2096.622992  	-0.003453 
2098.551808  	-0.003544 
2100.480624  	-0.003318 
2102.409440  	-0.003445 
2104.338256  	-0.003378 
2106.267072  	-0.003420 
2108.195888  	-0.003333 
2110.124704  	-0.003586 
2112.053520  	-0.003362 
2113.982336  	-0.003101 
2115.911152  	-0.003014 
2117.839968  	-0.003772 
2119.768784  	-0.004141 
2121.697600  	-0.004249 
2123.626416  	-0.004167 
2125.555232  	-0.004332 
2127.484048  	-0.004673 
2129.412864  	-0.004792 
2131.341680  	-0.004143 
2133.270496  	-0.003923 
2135.199312  	-0.003920 
2137.128128  	-0.003820 
2139.056944  	-0.003054 
2140.985760  	-0.003140 
2142.914576  	-0.002656 
2144.843392  	-0.003751 
2146.772208  	-0.004013 
2148.701024  	-0.003268 
2150.629840  	-0.002657 
2152.558656  	-0.002870 
2154.487472  	-0.002956 
2156.416288  	-0.003342 
2158.345104  	-0.000951 
2160.273920  	0.001207 
2162.202736  	0.000046 
2164.131552  	-0.001536 
2166.060368  	-0.001134 
2167.989184  	-0.001933 
2169.918000  	-0.002711 
2171.846816  	-0.001941 
2173.775632  	-0.001430 
2175.704448  	-0.001608 
2177.633264  	-0.001482 
2179.562080  	-0.002025 
2181.490896  	-0.000862 
2183.419712  	-0.000185 
2185.348528  	-0.000732 
2187.277344  	-0.002150 
2189.206160  	-0.002271 
2191.134976  	-0.001981 
2193.063792  	-0.001985 
2194.992608  	-0.002355 
2196.921424  	-0.002556 
2198.850240  	-0.003148 
2200.779056  	-0.003879 
2202.707872  	-0.004383 
2204.636688  	-0.003451 
2206.565504  	-0.003585 
2208.494320  	-0.003721 
2210.423136  	-0.003784 
2212.351952  	-0.003484 
2214.280768  	-0.003673 
2216.209584  	-0.003461 
2218.138400  	-0.004037 
2220.067216  	-0.003835 
2221.996032  	-0.004141 
2223.924848  	-0.003998 
2225.853664  	-0.003559 
2227.782480  	-0.003312 
2229.711296  	-0.004678 
2231.640112  	-0.005076 
2233.568928  	-0.004783 
2235.497744  	-0.004758 
2237.426560  	-0.004735 
2239.355376  	-0.004518 
2241.284192  	-0.004875 
2243.213008  	-0.005142 
2245.141824  	-0.005097 
2247.070640  	-0.004935 
2248.999456  	-0.004642 
2250.928272  	-0.004459 
2252.857088  	-0.004954 
2254.785904  	-0.004616 
2256.714720  	-0.004042 
2258.643536  	-0.004039 
2260.572352  	-0.004176 
2262.501168  	-0.004185 
2264.429984  	-0.004181 
2266.358800  	-0.004144 
2268.287616  	-0.004511 
2270.216432  	-0.004497 
2272.145248  	-0.004353 
2274.074064  	-0.004007 
2276.002880  	-0.004003 
2277.931696  	-0.003726 
2279.860512  	-0.003667 
2281.789328  	-0.003642 
2283.718144  	-0.003655 
2285.646960  	-0.003408 
2287.575776  	-0.003166 
2289.504592  	-0.002901 
2291.433408  	-0.002929 
2293.362224  	-0.002574 
2295.291040  	-0.002464 
2297.219856  	-0.002211 
2299.148672  	-0.001988 
2301.077488  	-0.001614 
2303.006304  	-0.000955 
2304.935120  	-0.000321 
2306.863936  	-0.000123 
2308.792752  	0.000127 
2310.721568  	0.000289 
2312.650384  	0.000126 
2314.579200  	-0.000676 
2316.508016  	-0.000786 
2318.436832  	-0.000315 
2320.365648  	-0.000105 
2322.294464  	-0.000654 
2324.223280  	-0.001828 
2326.152096  	-0.003359 
2328.080912  	-0.004395 
2330.009728  	-0.004977 
2331.938544  	-0.005411 
2333.867360  	-0.006548 
2335.796176  	-0.007617 
2337.724992  	-0.008191 
2339.653808  	-0.008160 
2341.582624  	-0.007341 
2343.511440  	-0.005775 
2345.440256  	-0.003886 
2347.369072  	-0.002804 
2349.297888  	-0.003185 
2351.226704  	-0.004534 
2353.155520  	-0.006384 
2355.084336  	-0.007710 
2357.013152  	-0.008203 
2358.941968  	-0.008033 
2360.870784  	-0.008396 
2362.799600  	-0.008255 
2364.728416  	-0.007313 
2366.657232  	-0.006404 
2368.586048  	-0.005358 
2370.514864  	-0.003905 
2372.443680  	-0.002894 
2374.372496  	-0.001790 
2376.301312  	-0.000880 
2378.230128  	-0.000488 
2380.158944  	-0.000881 
2382.087760  	-0.001634 
2384.016576  	-0.002679 
2385.945392  	-0.003643 
2387.874208  	-0.004196 
2389.803024  	-0.004657 
2391.731840  	-0.005017 
2393.660656  	-0.005031 
2395.589472  	-0.004946 
2397.518288  	-0.005113 
2399.447104  	-0.005313 
2401.375920  	-0.005115 
2403.304736  	-0.005134 
2405.233552  	-0.005146 
2407.162368  	-0.005109 
2409.091184  	-0.005114 
2411.020000  	-0.005069 
2412.948816  	-0.005000 
2414.877632  	-0.004998 
2416.806448  	-0.004786 
2418.735264  	-0.004746 
2420.664080  	-0.004833 
2422.592896  	-0.004889 
2424.521712  	-0.004922 
2426.450528  	-0.005010 
2428.379344  	-0.004853 
2430.308160  	-0.004658 
2432.236976  	-0.004602 
2434.165792  	-0.004406 
2436.094608  	-0.004228 
2438.023424  	-0.004293 
2439.952240  	-0.004255 
2441.881056  	-0.004223 
2443.809872  	-0.004164 
2445.738688  	-0.004034 
2447.667504  	-0.003957 
2449.596320  	-0.003769 
2451.525136  	-0.003767 
2453.453952  	-0.003884 
2455.382768  	-0.003857 
2457.311584  	-0.003829 
2459.240400  	-0.003928 
2461.169216  	-0.003779 
2463.098032  	-0.003531 
2465.026848  	-0.003675 
2466.955664  	-0.003813 
2468.884480  	-0.003882 
2470.813296  	-0.003873 
2472.742112  	-0.003588 
2474.670928  	-0.003327 
2476.599744  	-0.003183 
2478.528560  	-0.002932 
2480.457376  	-0.002880 
2482.386192  	-0.003000 
2484.315008  	-0.003245 
2486.243824  	-0.003173 
2488.172640  	-0.002842 
2490.101456  	-0.002607 
2492.030272  	-0.002577 
2493.959088  	-0.002763 
2495.887904  	-0.002938 
2497.816720  	-0.002637 
2499.745536  	-0.002506 
2501.674352  	-0.002417 
2503.603168  	-0.002290 
2505.531984  	-0.002286 
2507.460800  	-0.002503 
2509.389616  	-0.002634 
2511.318432  	-0.002732 
2513.247248  	-0.002508 
2515.176064  	-0.002188 
2517.104880  	-0.002185 
2519.033696  	-0.002297 
2520.962512  	-0.002091 
2522.891328  	-0.001969 
2524.820144  	-0.001817 
2526.748960  	-0.001736 
2528.677776  	-0.001637 
2530.606592  	-0.001609 
2532.535408  	-0.001530 
2534.464224  	-0.001580 
2536.393040  	-0.001631 
2538.321856  	-0.001474 
2540.250672  	-0.001283 
2542.179488  	-0.001200 
2544.108304  	-0.001007 
2546.037120  	-0.000786 
2547.965936  	-0.000549 
2549.894752  	-0.000526 
2551.823568  	-0.000519 
2553.752384  	-0.000657 
2555.681200  	-0.000708 
2557.610016  	-0.000573 
2559.538832  	-0.000443 
2561.467648  	-0.000291 
2563.396464  	-0.000092 
2565.325280  	-0.000145 
2567.254096  	-0.000107 
2569.182912  	-0.000056 
2571.111728  	-0.000002 
2573.040544  	0.000101 
2574.969360  	0.000364 
2576.898176  	0.000463 
2578.826992  	0.000335 
2580.755808  	0.000193 
2582.684624  	0.000409 
2584.613440  	0.000559 
2586.542256  	0.000710 
2588.471072  	0.000687 
2590.399888  	0.000767 
2592.328704  	0.000991 
2594.257520  	0.001176 
2596.186336  	0.001037 
2598.115152  	0.000977 
2600.043968  	0.001195 
2601.972784  	0.001363 
2603.901600  	0.001547 
2605.830416  	0.001456 
2607.759232  	0.001324 
2609.688048  	0.001488 
2611.616864  	0.001717 
2613.545680  	0.001883 
2615.474496  	0.002042 
2617.403312  	0.002266 
2619.332128  	0.002363 
2621.260944  	0.002393 
2623.189760  	0.002426 
2625.118576  	0.002641 
2627.047392  	0.002673 
2628.976208  	0.002746 
2630.905024  	0.002937 
2632.833840  	0.003087 
2634.762656  	0.002973 
2636.691472  	0.003097 
2638.620288  	0.003280 
2640.549104  	0.003393 
2642.477920  	0.003502 
2644.406736  	0.003598 
2646.335552  	0.003701 
2648.264368  	0.003795 
2650.193184  	0.003890 
2652.122000  	0.004049 
2654.050816  	0.004269 
2655.979632  	0.004471 
2657.908448  	0.004573 
2659.837264  	0.004637 
2661.766080  	0.004718 
2663.694896  	0.004794 
2665.623712  	0.004824 
2667.552528  	0.004999 
2669.481344  	0.005082 
2671.410160  	0.005100 
2673.338976  	0.005340 
2675.267792  	0.005591 
2677.196608  	0.005809 
2679.125424  	0.005937 
2681.054240  	0.005935 
2682.983056  	0.006112 
2684.911872  	0.006283 
2686.840688  	0.006300 
2688.769504  	0.006349 
2690.698320  	0.006547 
2692.627136  	0.006676 
2694.555952  	0.006723 
2696.484768  	0.006798 
2698.413584  	0.006894 
2700.342400  	0.006922 
2702.271216  	0.007152 
2704.200032  	0.007308 
2706.128848  	0.007407 
2708.057664  	0.007492 
2709.986480  	0.007509 
2711.915296  	0.007654 
2713.844112  	0.007781 
2715.772928  	0.007894 
2717.701744  	0.007998 
2719.630560  	0.008199 
2721.559376  	0.008450 
2723.488192  	0.008553 
2725.417008  	0.008637 
2727.345824  	0.008734 
2729.274640  	0.008913 
2731.203456  	0.009038 
2733.132272  	0.009106 
2735.061088  	0.009282 
2736.989904  	0.009425 
2738.918720  	0.009558 
2740.847536  	0.009716 
2742.776352  	0.009823 
2744.705168  	0.009895 
2746.633984  	0.009971 
2748.562800  	0.010109 
2750.491616  	0.010189 
2752.420432  	0.010227 
2754.349248  	0.010207 
2756.278064  	0.010239 
2758.206880  	0.010295 
2760.135696  	0.010321 
2762.064512  	0.010227 
2763.993328  	0.010266 
2765.922144  	0.010322 
2767.850960  	0.010325 
2769.779776  	0.010298 
2771.708592  	0.010349 
2773.637408  	0.010355 
2775.566224  	0.010368 
2777.495040  	0.010338 
2779.423856  	0.010367 
2781.352672  	0.010468 
2783.281488  	0.010425 
2785.210304  	0.010355 
2787.139120  	0.010504 
2789.067936  	0.010484 
2790.996752  	0.010534 
2792.925568  	0.010565 
2794.854384  	0.010546 
2796.783200  	0.010549 
2798.712016  	0.010506 
2800.640832  	0.010607 
2802.569648  	0.010801 
2804.498464  	0.010785 
2806.427280  	0.010798 
2808.356096  	0.010909 
2810.284912  	0.010936 
2812.213728  	0.010835 
2814.142544  	0.010925 
2816.071360  	0.010962 
2818.000176  	0.011015 
2819.928992  	0.011133 
2821.857808  	0.011089 
2823.786624  	0.011010 
2825.715440  	0.011024 
2827.644256  	0.011088 
2829.573072  	0.011087 
2831.501888  	0.011082 
2833.430704  	0.011100 
2835.359520  	0.011028 
2837.288336  	0.010954 
2839.217152  	0.011015 
2841.145968  	0.010974 
2843.074784  	0.010898 
2845.003600  	0.010922 
2846.932416  	0.010928 
2848.861232  	0.011146 
2850.790048  	0.011246 
2852.718864  	0.011200 
2854.647680  	0.011278 
2856.576496  	0.011467 
2858.505312  	0.011574 
2860.434128  	0.011689 
2862.362944  	0.011788 
2864.291760  	0.011865 
2866.220576  	0.011985 
2868.149392  	0.012114 
2870.078208  	0.012171 
2872.007024  	0.012373 
2873.935840  	0.012712 
2875.864656  	0.012990 
2877.793472  	0.013218 
2879.722288  	0.013653 
2881.651104  	0.014116 
2883.579920  	0.014388 
2885.508736  	0.014566 
2887.437552  	0.014723 
2889.366368  	0.014860 
2891.295184  	0.015043 
2893.224000  	0.015033 
2895.152816  	0.014970 
2897.081632  	0.015022 
2899.010448  	0.014963 
2900.939264  	0.014731 
2902.868080  	0.014882 
2904.796896  	0.015253 
2906.725712  	0.015382 
2908.654528  	0.015513 
2910.583344  	0.015786 
2912.512160  	0.016071 
2914.440976  	0.016460 
2916.369792  	0.016892 
2918.298608  	0.017355 
2920.227424  	0.017866 
2922.156240  	0.018233 
2924.085056  	0.018705 
2926.013872  	0.019193 
2927.942688  	0.019752 
2929.871504  	0.020305 
2931.800320  	0.020783 
2933.729136  	0.021411 
2935.657952  	0.021937 
2937.586768  	0.022396 
2939.515584  	0.022879 
2941.444400  	0.023079 
2943.373216  	0.023337 
2945.302032  	0.023774 
2947.230848  	0.023875 
2949.159664  	0.023823 
2951.088480  	0.023743 
2953.017296  	0.023697 
2954.946112  	0.023595 
2956.874928  	0.023450 
2958.803744  	0.023192 
2960.732560  	0.023097 
2962.661376  	0.023101 
2964.590192  	0.022891 
2966.519008  	0.022752 
2968.447824  	0.022463 
2970.376640  	0.022191 
2972.305456  	0.022010 
2974.234272  	0.021991 
2976.163088  	0.021966 
2978.091904  	0.021909 
2980.020720  	0.021871 
2981.949536  	0.021794 
2983.878352  	0.021675 
2985.807168  	0.021481 
2987.735984  	0.021515 
2989.664800  	0.021737 
2991.593616  	0.022169 
2993.522432  	0.022481 
2995.451248  	0.022621 
2997.380064  	0.022888 
2999.308880  	0.023306 
3001.237696  	0.023655 
3003.166512  	0.024044 
3005.095328  	0.024403 
3007.024144  	0.024738 
3008.952960  	0.025308 
3010.881776  	0.025923 
3012.810592  	0.026557 
3014.739408  	0.027010 
3016.668224  	0.027315 
3018.597040  	0.027669 
3020.525856  	0.028107 
3022.454672  	0.028452 
3024.383488  	0.028837 
3026.312304  	0.029293 
3028.241120  	0.029703 
3030.169936  	0.030426 
3032.098752  	0.031201 
3034.027568  	0.031443 
3035.956384  	0.031777 
3037.885200  	0.032127 
3039.814016  	0.032599 
3041.742832  	0.033083 
3043.671648  	0.033622 
3045.600464  	0.034073 
3047.529280  	0.034560 
3049.458096  	0.035278 
3051.386912  	0.035681 
3053.315728  	0.036016 
3055.244544  	0.036584 
3057.173360  	0.037297 
3059.102176  	0.037953 
3061.030992  	0.038538 
3062.959808  	0.039077 
3064.888624  	0.039869 
3066.817440  	0.040575 
3068.746256  	0.041113 
3070.675072  	0.041665 
3072.603888  	0.042337 
3074.532704  	0.043008 
3076.461520  	0.043793 
3078.390336  	0.044609 
3080.319152  	0.045375 
3082.247968  	0.045951 
3084.176784  	0.046499 
3086.105600  	0.047192 
3088.034416  	0.047933 
3089.963232  	0.048498 
3091.892048  	0.049137 
3093.820864  	0.049709 
3095.749680  	0.050608 
3097.678496  	0.051379 
3099.607312  	0.052085 
3101.536128  	0.053001 
3103.464944  	0.053517 
3105.393760  	0.053807 
3107.322576  	0.054454 
3109.251392  	0.055185 
3111.180208  	0.055716 
3113.109024  	0.056215 
3115.037840  	0.056990 
3116.966656  	0.057920 
3118.895472  	0.058447 
3120.824288  	0.058706 
3122.753104  	0.059392 
3124.681920  	0.059854 
3126.610736  	0.060217 
3128.539552  	0.060546 
3130.468368  	0.060800 
3132.397184  	0.061549 
3134.326000  	0.062207 
3136.254816  	0.062459 
3138.183632  	0.062837 
3140.112448  	0.063306 
3142.041264  	0.063936 
3143.970080  	0.064455 
3145.898896  	0.064946 
3147.827712  	0.065401 
3149.756528  	0.065947 
3151.685344  	0.066466 
3153.614160  	0.066879 
3155.542976  	0.067382 
3157.471792  	0.068100 
3159.400608  	0.068584 
3161.329424  	0.068971 
3163.258240  	0.069402 
3165.187056  	0.069838 
3167.115872  	0.070252 
3169.044688  	0.070748 
3170.973504  	0.071082 
3172.902320  	0.071262 
3174.831136  	0.071419 
3176.759952  	0.071733 
3178.688768  	0.072417 
3180.617584  	0.072519 
3182.546400  	0.072478 
3184.475216  	0.072616 
3186.404032  	0.072938 
3188.332848  	0.073040 
3190.261664  	0.072864 
3192.190480  	0.072921 
3194.119296  	0.073246 
3196.048112  	0.073315 
3197.976928  	0.073581 
3199.905744  	0.073618 
3201.834560  	0.073420 
3203.763376  	0.073239 
3205.692192  	0.072877 
3207.621008  	0.072620 
3209.549824  	0.072854 
3211.478640  	0.072952 
3213.407456  	0.072859 
3215.336272  	0.072945 
3217.265088  	0.072663 
3219.193904  	0.072784 
3221.122720  	0.072869 
3223.051536  	0.072361 
3224.980352  	0.071923 
3226.909168  	0.071932 
3228.837984  	0.071816 
3230.766800  	0.071481 
3232.695616  	0.071599 
3234.624432  	0.071665 
3236.553248  	0.071664 
3238.482064  	0.071669 
3240.410880  	0.071508 
3242.339696  	0.071420 
3244.268512  	0.071599 
3246.197328  	0.071771 
3248.126144  	0.071493 
3250.054960  	0.071616 
3251.983776  	0.071933 
3253.912592  	0.072386 
3255.841408  	0.072548 
3257.770224  	0.072624 
3259.699040  	0.072714 
3261.627856  	0.072672 
3263.556672  	0.072610 
3265.485488  	0.072821 
3267.414304  	0.072987 
3269.343120  	0.073142 
3271.271936  	0.073260 
3273.200752  	0.073516 
3275.129568  	0.073886 
3277.058384  	0.073940 
3278.987200  	0.073722 
3280.916016  	0.073707 
3282.844832  	0.073801 
3284.773648  	0.073886 
3286.702464  	0.073967 
3288.631280  	0.074240 
3290.560096  	0.074354 
3292.488912  	0.074420 
3294.417728  	0.074390 
3296.346544  	0.074565 
3298.275360  	0.074846 
3300.204176  	0.074785 
3302.132992  	0.074781 
3304.061808  	0.075056 
3305.990624  	0.075204 
3307.919440  	0.075649 
3309.848256  	0.076179 
3311.777072  	0.076260 
3313.705888  	0.076393 
3315.634704  	0.076460 
3317.563520  	0.076580 
3319.492336  	0.076529 
3321.421152  	0.076550 
3323.349968  	0.076815 
3325.278784  	0.077043 
3327.207600  	0.077298 
3329.136416  	0.077122 
3331.065232  	0.076804 
3332.994048  	0.076806 
3334.922864  	0.077109 
3336.851680  	0.077317 
3338.780496  	0.077032 
3340.709312  	0.076583 
3342.638128  	0.076558 
3344.566944  	0.076320 
3346.495760  	0.076006 
3348.424576  	0.075794 
3350.353392  	0.075717 
3352.282208  	0.075411 
3354.211024  	0.075057 
3356.139840  	0.075007 
3358.068656  	0.074744 
3359.997472  	0.074251 
3361.926288  	0.073900 
3363.855104  	0.073488 
3365.783920  	0.073299 
3367.712736  	0.073077 
3369.641552  	0.072660 
3371.570368  	0.072226 
3373.499184  	0.072091 
3375.428000  	0.071952 
3377.356816  	0.071824 
3379.285632  	0.071534 
3381.214448  	0.071036 
3383.143264  	0.070852 
3385.072080  	0.070907 
3387.000896  	0.070237 
3388.929712  	0.069573 
3390.858528  	0.069265 
3392.787344  	0.069827 
3394.716160  	0.069518 
3396.644976  	0.069039 
3398.573792  	0.068625 
3400.502608  	0.067799 
3402.431424  	0.067276 
3404.360240  	0.066756 
3406.289056  	0.066014 
3408.217872  	0.065543 
3410.146688  	0.065202 
3412.075504  	0.064741 
3414.004320  	0.064485 
3415.933136  	0.064138 
3417.861952  	0.063686 
3419.790768  	0.063915 
3421.719584  	0.064183 
3423.648400  	0.063163 
3425.577216  	0.061912 
3427.506032  	0.061212 
3429.434848  	0.060695 
3431.363664  	0.060536 
3433.292480  	0.060137 
3435.221296  	0.059565 
3437.150112  	0.059027 
3439.078928  	0.058440 
3441.007744  	0.057910 
3442.936560  	0.057951 
3444.865376  	0.057309 
3446.794192  	0.057873 
3448.723008  	0.057562 
3450.651824  	0.055526 
3452.580640  	0.054611 
3454.509456  	0.054129 
3456.438272  	0.053604 
3458.367088  	0.053144 
3460.295904  	0.052824 
3462.224720  	0.052540 
3464.153536  	0.051551 
3466.082352  	0.050462 
3468.011168  	0.049895 
3469.939984  	0.049062 
3471.868800  	0.048261 
3473.797616  	0.047797 
3475.726432  	0.047410 
3477.655248  	0.046253 
3479.584064  	0.045615 
3481.512880  	0.046159 
3483.441696  	0.045659 
3485.370512  	0.044038 
3487.299328  	0.043580 
3489.228144  	0.043027 
3491.156960  	0.041737 
3493.085776  	0.040876 
3495.014592  	0.040667 
3496.943408  	0.040464 
3498.872224  	0.039399 
3500.801040  	0.039310 
3502.729856  	0.040645 
3504.658672  	0.040081 
3506.587488  	0.037489 
3508.516304  	0.037189 
3510.445120  	0.037504 
3512.373936  	0.035832 
3514.302752  	0.034582 
3516.231568  	0.033991 
3518.160384  	0.033530 
3520.089200  	0.032734 
3522.018016  	0.033187 
3523.946832  	0.034664 
3525.875648  	0.033661 
3527.804464  	0.033118 
3529.733280  	0.032099 
3531.662096  	0.030124 
3533.590912  	0.028510 
3535.519728  	0.028830 
3537.448544  	0.028768 
3539.377360  	0.026940 
3541.306176  	0.026101 
3543.234992  	0.026998 
3545.163808  	0.029231 
3547.092624  	0.029366 
3549.021440  	0.025926 
3550.950256  	0.024140 
3552.879072  	0.025396 
3554.807888  	0.023655 
3556.736704  	0.021583 
3558.665520  	0.021624 
3560.594336  	0.022290 
3562.523152  	0.021495 
3564.451968  	0.022020 
3566.380784  	0.027404 
3568.309600  	0.028198 
3570.238416  	0.021465 
3572.167232  	0.017704 
3574.096048  	0.016895 
3576.024864  	0.016491 
3577.953680  	0.016042 
3579.882496  	0.015752 
3581.811312  	0.014774 
3583.740128  	0.013936 
3585.668944  	0.015354 
3587.597760  	0.020341 
3589.526576  	0.017482 
3591.455392  	0.012162 
3593.384208  	0.012213 
3595.313024  	0.013656 
3597.241840  	0.012063 
3599.170656  	0.010398 
3601.099472  	0.010169 
3603.028288  	0.008443 
3604.957104  	0.006667 
3606.885920  	0.008315 
3608.814736  	0.010344 
3610.743552  	0.008201 
3612.672368  	0.008427 
3614.601184  	0.008757 
3616.530000  	0.005917 
3618.458816  	0.006901 
3620.387632  	0.006955 
3622.316448  	0.002581 
3624.245264  	-0.000123 
3626.174080  	-0.000445 
3628.102896  	0.003548 
3630.031712  	0.007406 
3631.960528  	0.001073 
3633.889344  	-0.001213 
3635.818160  	-0.002902 
3637.746976  	-0.004357 
3639.675792  	-0.005084 
3641.604608  	-0.005352 
3643.533424  	-0.005928 
3645.462240  	-0.006197 
3647.391056  	-0.001337 
3649.319872  	0.003007 
3651.248688  	0.000430 
3653.177504  	-0.006860 
3655.106320  	-0.009030 
3657.035136  	-0.007680 
3658.963952  	-0.010022 
3660.892768  	-0.011641 
3662.821584  	-0.012503 
3664.750400  	-0.013123 
3666.679216  	-0.013140 
3668.608032  	-0.010541 
3670.536848  	-0.006219 
3672.465664  	-0.009656 
3674.394480  	-0.009591 
3676.323296  	-0.004683 
3678.252112  	-0.009051 
3680.180928  	-0.011804 
3682.109744  	-0.014128 
3684.038560  	-0.014975 
3685.967376  	-0.015278 
3687.896192  	-0.012636 
3689.825008  	-0.008700 
3691.753824  	-0.010448 
3693.682640  	-0.013614 
3695.611456  	-0.014998 
3697.540272  	-0.015378 
3699.469088  	-0.015998 
3701.397904  	-0.014357 
3703.326720  	-0.013935 
3705.255536  	-0.015355 
3707.184352  	-0.015419 
3709.113168  	-0.013744 
3711.041984  	-0.009479 
3712.970800  	-0.008935 
3714.899616  	-0.012858 
3716.828432  	-0.015063 
3718.757248  	-0.014454 
3720.686064  	-0.013582 
3722.614880  	-0.012064 
3724.543696  	-0.011579 
3726.472512  	-0.010799 
3728.401328  	-0.013107 
3730.330144  	-0.015575 
3732.258960  	-0.013454 
3734.187776  	-0.008036 
3736.116592  	-0.003631 
3738.045408  	-0.008384 
3739.974224  	-0.011668 
3741.903040  	-0.013168 
3743.831856  	-0.011390 
3745.760672  	-0.008046 
3747.689488  	-0.011217 
3749.618304  	-0.009338 
3751.547120  	-0.005859 
3753.475936  	-0.008836 
3755.404752  	-0.012752 
3757.333568  	-0.012901 
3759.262384  	-0.011764 
3761.191200  	-0.013056 
3763.120016  	-0.015675 
3765.048832  	-0.014511 
3766.977648  	-0.014103 
3768.906464  	-0.013909 
3770.835280  	-0.012842 
3772.764096  	-0.015245 
3774.692912  	-0.016769 
3776.621728  	-0.016981 
3778.550544  	-0.015415 
3780.479360  	-0.014176 
3782.408176  	-0.015918 
3784.336992  	-0.015200 
3786.265808  	-0.014880 
3788.194624  	-0.016102 
3790.123440  	-0.016600 
3792.052256  	-0.016914 
3793.981072  	-0.017370 
3795.909888  	-0.015139 
3797.838704  	-0.013118 
3799.767520  	-0.013777 
3801.696336  	-0.009876 
3803.625152  	-0.012179 
3805.553968  	-0.015220 
3807.482784  	-0.013215 
3809.411600  	-0.014931 
3811.340416  	-0.016638 
3813.269232  	-0.017187 
3815.198048  	-0.014562 
3817.126864  	-0.011511 
3819.055680  	-0.013295 
3820.984496  	-0.009863 
3822.913312  	-0.010698 
3824.842128  	-0.014462 
3826.770944  	-0.014100 
3828.699760  	-0.014835 
3830.628576  	-0.015212 
3832.557392  	-0.014343 
3834.486208  	-0.014639 
3836.415024  	-0.013511 
3838.343840  	-0.010208 
3840.272656  	-0.009010 
3842.201472  	-0.011530 
3844.130288  	-0.012865 
3846.059104  	-0.015043 
3847.987920  	-0.016355 
3849.916736  	-0.015690 
3851.845552  	-0.012886 
3853.774368  	-0.005558 
3855.703184  	-0.008422 
3857.632000  	-0.012210 
3859.560816  	-0.014940 
3861.489632  	-0.014533 
3863.418448  	-0.012377 
3865.347264  	-0.010833 
3867.276080  	-0.013689 
3869.204896  	-0.011842 
3871.133712  	-0.009089 
3873.062528  	-0.012118 
3874.991344  	-0.012664 
3876.920160  	-0.015950 
3878.848976  	-0.015664 
3880.777792  	-0.011298 
3882.706608  	-0.012202 
3884.635424  	-0.012912 
3886.564240  	-0.012349 
3888.493056  	-0.016108 
3890.421872  	-0.015221 
3892.350688  	-0.012273 
3894.279504  	-0.014278 
3896.208320  	-0.016326 
3898.137136  	-0.014822 
3900.065952  	-0.011430 
3901.994768  	-0.010088 
3903.923584  	-0.009050 
3905.852400  	-0.010711 
3907.781216  	-0.015014 
3909.710032  	-0.017349 
3911.638848  	-0.017654 
3913.567664  	-0.017475 
3915.496480  	-0.015792 
3917.425296  	-0.013362 
3919.354112  	-0.013754 
3921.282928  	-0.014769 
3923.211744  	-0.014546 
3925.140560  	-0.013323 
3927.069376  	-0.015388 
3928.998192  	-0.015693 
3930.927008  	-0.013569 
3932.855824  	-0.012922 
3934.784640  	-0.015360 
3936.713456  	-0.016889 
3938.642272  	-0.016903 
3940.571088  	-0.016489 
3942.499904  	-0.014150 
3944.428720  	-0.014351 
3946.357536  	-0.015700 
3948.286352  	-0.014401 
3950.215168  	-0.014685 
3952.143984  	-0.016406 
3954.072800  	-0.017241 
3956.001616  	-0.016997 
3957.930432  	-0.016510 
3959.859248  	-0.016150 
3961.788064  	-0.015776 
3963.716880  	-0.016446 
3965.645696  	-0.017545 
3967.574512  	-0.017553 
3969.503328  	-0.017089 
3971.432144  	-0.016812 
3973.360960  	-0.016421 
3975.289776  	-0.015835 
3977.218592  	-0.016347 
3979.147408  	-0.017177 
3981.076224  	-0.017242 
3983.005040  	-0.017245 
3984.933856  	-0.017298 
3986.862672  	-0.017208 
3988.791488  	-0.017082 
3990.720304  	-0.016506 
3992.649120  	-0.016705 
3994.577936  	-0.016838 
3996.506752  	-0.017113 
3998.435568  	-0.017599 
4000.364384  	-0.017564 