##TITLE=No Description
##DATA TYPE=INFRARED SPECTRUM
##XUNITS=1/CM
##YUNITS=Abs
399.264912  	0.614253 
401.193728  	0.588567 
403.122544  	0.598359 
405.051360  	0.603224 
406.980176  	0.601743 
408.908992  	0.578949 
410.837808  	0.585099 
412.766624  	0.587168 
414.695440  	0.600635 
416.624256  	0.606414 
418.553072  	0.608344 
420.481888  	0.592208 
422.410704  	0.589539 
424.339520  	0.577242 
426.268336  	0.563587 
428.197152  	0.557953 
430.125968  	0.562125 
432.054784  	0.566375 
433.983600  	0.568266 
435.912416  	0.559769 
437.841232  	0.556698 
439.770048  	0.545756 
441.698864  	0.539849 
443.627680  	0.534913 
445.556496  	0.538231 
447.485312  	0.539611 
449.414128  	0.539349 
451.342944  	0.533361 
453.271760  	0.534296 
455.200576  	0.535712 
457.129392  	0.540482 
459.058208  	0.537554 
460.987024  	0.539123 
462.915840  	0.532685 
464.844656  	0.534490 
466.773472  	0.534319 
468.702288  	0.535568 
470.631104  	0.527465 
472.559920  	0.524682 
474.488736  	0.526951 
476.417552  	0.528494 
478.346368  	0.520773 
480.275184  	0.521200 
482.204000  	0.520278 
484.132816  	0.520095 
486.061632  	0.521033 
487.990448  	0.521531 
489.919264  	0.516562 
491.848080  	0.517770 
493.776896  	0.517586 
495.705712  	0.517040 
497.634528  	0.512042 
499.563344  	0.511020 
501.492160  	0.509258 
503.420976  	0.511112 
505.349792  	0.508313 
507.278608  	0.510154 
509.207424  	0.510909 
511.136240  	0.511181 
513.065056  	0.510473 
514.993872  	0.513483 
516.922688  	0.512807 
518.851504  	0.512351 
520.780320  	0.511255 
522.709136  	0.510941 
524.637952  	0.508883 
526.566768  	0.509417 
528.495584  	0.506309 
530.424400  	0.505659 
532.353216  	0.502398 
534.282032  	0.498905 
536.210848  	0.493343 
538.139664  	0.489730 
540.068480  	0.483980 
541.997296  	0.480187 
543.926112  	0.476376 
545.854928  	0.474202 
547.783744  	0.471410 
549.712560  	0.469834 
551.641376  	0.466190 
553.570192  	0.462378 
555.499008  	0.457626 
557.427824  	0.454498 
559.356640  	0.450814 
561.285456  	0.448664 
563.214272  	0.445588 
565.143088  	0.443727 
567.071904  	0.440151 
569.000720  	0.437195 
570.929536  	0.434106 
572.858352  	0.432191 
574.787168  	0.429190 
576.715984  	0.427574 
578.644800  	0.424372 
580.573616  	0.421207 
582.502432  	0.417087 
584.431248  	0.414184 
586.360064  	0.410737 
588.288880  	0.408401 
590.217696  	0.405071 
592.146512  	0.402072 
594.075328  	0.399860 
596.004144  	0.399658 
597.932960  	0.397318 
599.861776  	0.394616 
601.790592  	0.392528 
603.719408  	0.391162 
605.648224  	0.389581 
607.577040  	0.388516 
609.505856  	0.386954 
611.434672  	0.384514 
613.363488  	0.382220 
615.292304  	0.380784 
617.221120  	0.378641 
619.149936  	0.377824 
621.078752  	0.376085 
623.007568  	0.374101 
624.936384  	0.372132 
626.865200  	0.371051 
628.794016  	0.369324 
630.722832  	0.368496 
632.651648  	0.367259 
634.580464  	0.366577 
636.509280  	0.366104 
638.438096  	0.365648 
640.366912  	0.364165 
642.295728  	0.362343 
644.224544  	0.360116 
646.153360  	0.358198 
648.082176  	0.354601 
650.010992  	0.350991 
651.939808  	0.347533 
653.868624  	0.344487 
655.797440  	0.340527 
657.726256  	0.337178 
659.655072  	0.333823 
661.583888  	0.329986 
663.512704  	0.325518 
665.441520  	0.322965 
667.370336  	0.318587 
669.299152  	0.313085 
671.227968  	0.311203 
673.156784  	0.308631 
675.085600  	0.305969 
677.014416  	0.303228 
678.943232  	0.300784 
680.872048  	0.299276 
682.800864  	0.297279 
684.729680  	0.294851 
686.658496  	0.292850 
688.587312  	0.291951 
690.516128  	0.290465 
692.444944  	0.288829 
694.373760  	0.287035 
696.302576  	0.285144 
698.231392  	0.282587 
700.160208  	0.280064 
702.089024  	0.278066 
704.017840  	0.275762 
705.946656  	0.273119 
707.875472  	0.270910 
709.804288  	0.268328 
711.733104  	0.266202 
713.661920  	0.263850 
715.590736  	0.262488 
717.519552  	0.261780 
719.448368  	0.261295 
721.377184  	0.260289 
723.306000  	0.259999 
725.234816  	0.259906 
727.163632  	0.258880 
729.092448  	0.256600 
731.021264  	0.253843 
732.950080  	0.250624 
734.878896  	0.247939 
736.807712  	0.245314 
738.736528  	0.243130 
740.665344  	0.241001 
742.594160  	0.238969 
744.522976  	0.237323 
746.451792  	0.235658 
748.380608  	0.233821 
750.309424  	0.232419 
752.238240  	0.230957 
754.167056  	0.229594 
756.095872  	0.227980 
758.024688  	0.226999 
759.953504  	0.226231 
761.882320  	0.226075 
763.811136  	0.225833 
765.739952  	0.224577 
767.668768  	0.222265 
769.597584  	0.219744 
771.526400  	0.217665 
773.455216  	0.217845 
775.384032  	0.219887 
777.312848  	0.222855 
779.241664  	0.225024 
781.170480  	0.224705 
783.099296  	0.221260 
785.028112  	0.216844 
786.956928  	0.211828 
788.885744  	0.207384 
790.814560  	0.203964 
792.743376  	0.201296 
794.672192  	0.199627 
796.601008  	0.198866 
798.529824  	0.196188 
800.458640  	0.191737 
802.387456  	0.188365 
804.316272  	0.186408 
806.245088  	0.184678 
808.173904  	0.183592 
810.102720  	0.182609 
812.031536  	0.181857 
813.960352  	0.181513 
815.889168  	0.181057 
817.817984  	0.180442 
819.746800  	0.179832 
821.675616  	0.179271 
823.604432  	0.178597 
825.533248  	0.177798 
827.462064  	0.176949 
829.390880  	0.175644 
831.319696  	0.173829 
833.248512  	0.171725 
835.177328  	0.169521 
837.106144  	0.167278 
839.034960  	0.164601 
840.963776  	0.161235 
842.892592  	0.158003 
844.821408  	0.155069 
846.750224  	0.152369 
848.679040  	0.150031 
850.607856  	0.148045 
852.536672  	0.146073 
854.465488  	0.144214 
856.394304  	0.142834 
858.323120  	0.141334 
860.251936  	0.139322 
862.180752  	0.137069 
864.109568  	0.134714 
866.038384  	0.132592 
867.967200  	0.130649 
869.896016  	0.128734 
871.824832  	0.127485 
873.753648  	0.126892 
875.682464  	0.126868 
877.611280  	0.126844 
879.540096  	0.126991 
881.468912  	0.128122 
883.397728  	0.128841 
885.326544  	0.129390 
887.255360  	0.129351 
889.184176  	0.128231 
891.112992  	0.126354 
893.041808  	0.124773 
894.970624  	0.122959 
896.899440  	0.120288 
898.828256  	0.116845 
900.757072  	0.113618 
902.685888  	0.111163 
904.614704  	0.109873 
906.543520  	0.109877 
908.472336  	0.110524 
910.401152  	0.111970 
912.329968  	0.113872 
914.258784  	0.115897 
916.187600  	0.117690 
918.116416  	0.119315 
920.045232  	0.120290 
921.974048  	0.120621 
923.902864  	0.120757 
925.831680  	0.120417 
927.760496  	0.120097 
929.689312  	0.119992 
931.618128  	0.120067 
933.546944  	0.120066 
935.475760  	0.120010 
937.404576  	0.119512 
939.333392  	0.118690 
941.262208  	0.118486 
943.191024  	0.119376 
945.119840  	0.121573 
947.048656  	0.125204 
948.977472  	0.130167 
950.906288  	0.136252 
952.835104  	0.143105 
954.763920  	0.150733 
956.692736  	0.157951 
958.621552  	0.164157 
960.550368  	0.168528 
962.479184  	0.170785 
964.408000  	0.170263 
966.336816  	0.166919 
968.265632  	0.160832 
970.194448  	0.152586 
972.123264  	0.142990 
974.052080  	0.132721 
975.980896  	0.122546 
977.909712  	0.112964 
979.838528  	0.104355 
981.767344  	0.097103 
983.696160  	0.091424 
985.624976  	0.087719 
987.553792  	0.085737 
989.482608  	0.085743 
991.411424  	0.087615 
993.340240  	0.090600 
995.269056  	0.094448 
997.197872  	0.098738 
999.126688  	0.103078 
1001.055504  	0.107551 
1002.984320  	0.111959 
1004.913136  	0.116170 
1006.841952  	0.120533 
1008.770768  	0.124192 
1010.699584  	0.126692 
1012.628400  	0.128047 
1014.557216  	0.128653 
1016.486032  	0.128899 
1018.414848  	0.128761 
1020.343664  	0.128462 
1022.272480  	0.127815 
1024.201296  	0.126560 
1026.130112  	0.123353 
1028.058928  	0.122081 
1029.987744  	0.124635 
1031.916560  	0.125810 
1033.845376  	0.125955 
1035.774192  	0.125610 
1037.703008  	0.126444 
1039.631824  	0.130386 
1041.560640  	0.135884 
1043.489456  	0.143307 
1045.418272  	0.152928 
1047.347088  	0.164289 
1049.275904  	0.175296 
1051.204720  	0.184594 
1053.133536  	0.191285 
1055.062352  	0.195074 
1056.991168  	0.196036 
1058.919984  	0.198487 
1060.848800  	0.201081 
1062.777616  	0.200127 
1064.706432  	0.195307 
1066.635248  	0.191621 
1068.564064  	0.191860 
1070.492880  	0.189373 
1072.421696  	0.183840 
1074.350512  	0.179504 
1076.279328  	0.178007 
1078.208144  	0.179923 
1080.136960  	0.184299 
1082.065776  	0.189994 
1083.994592  	0.194576 
1085.923408  	0.197289 
1087.852224  	0.197258 
1089.781040  	0.195482 
1091.709856  	0.192904 
1093.638672  	0.187984 
1095.567488  	0.180266 
1097.496304  	0.171541 
1099.425120  	0.162046 
1101.353936  	0.151988 
1103.282752  	0.142146 
1105.211568  	0.132901 
1107.140384  	0.123685 
1109.069200  	0.114780 
1110.998016  	0.106724 
1112.926832  	0.099353 
1114.855648  	0.092599 
1116.784464  	0.086170 
1118.713280  	0.080254 
1120.642096  	0.074702 
1122.570912  	0.069490 
1124.499728  	0.064570 
1126.428544  	0.060080 
1128.357360  	0.056135 
1130.286176  	0.052882 
1132.214992  	0.049924 
1134.143808  	0.047592 
1136.072624  	0.045743 
1138.001440  	0.044188 
1139.930256  	0.042170 
1141.859072  	0.040220 
1143.787888  	0.038325 
1145.716704  	0.036577 
1147.645520  	0.034810 
1149.574336  	0.033343 
1151.503152  	0.032154 
1153.431968  	0.031496 
1155.360784  	0.031481 
1157.289600  	0.032052 
1159.218416  	0.033005 
1161.147232  	0.034459 
1163.076048  	0.036042 
1165.004864  	0.037580 
1166.933680  	0.039018 
1168.862496  	0.040783 
1170.791312  	0.042462 
1172.720128  	0.044460 
1174.648944  	0.046309 
1176.577760  	0.048241 
1178.506576  	0.050095 
1180.435392  	0.052051 
1182.364208  	0.053826 
1184.293024  	0.055860 
1186.221840  	0.058143 
1188.150656  	0.061020 
1190.079472  	0.064046 
1192.008288  	0.067614 
1193.937104  	0.072082 
1195.865920  	0.077533 
1197.794736  	0.083496 
1199.723552  	0.089970 
1201.652368  	0.096561 
1203.581184  	0.103396 
1205.510000  	0.110304 
1207.438816  	0.117063 
1209.367632  	0.123254 
1211.296448  	0.128725 
1213.225264  	0.133492 
1215.154080  	0.137193 
1217.082896  	0.140023 
1219.011712  	0.141938 
1220.940528  	0.143480 
1222.869344  	0.144682 
1224.798160  	0.145186 
1226.726976  	0.145084 
1228.655792  	0.144860 
1230.584608  	0.144258 
1232.513424  	0.143120 
1234.442240  	0.141527 
1236.371056  	0.139438 
1238.299872  	0.136255 
1240.228688  	0.130855 
1242.157504  	0.125415 
1244.086320  	0.121089 
1246.015136  	0.115312 
1247.943952  	0.108622 
1249.872768  	0.101936 
1251.801584  	0.096422 
1253.730400  	0.090823 
1255.659216  	0.085160 
1257.588032  	0.079828 
1259.516848  	0.074873 
1261.445664  	0.070271 
1263.374480  	0.065983 
1265.303296  	0.062370 
1267.232112  	0.059552 
1269.160928  	0.057348 
1271.089744  	0.055583 
1273.018560  	0.054684 
1274.947376  	0.054410 
1276.876192  	0.054405 
1278.805008  	0.054132 
1280.733824  	0.053174 
1282.662640  	0.051662 
1284.591456  	0.049945 
1286.520272  	0.048224 
1288.449088  	0.046978 
1290.377904  	0.046424 
1292.306720  	0.046545 
1294.235536  	0.046503 
1296.164352  	0.045768 
1298.093168  	0.044118 
1300.021984  	0.041945 
1301.950800  	0.039447 
1303.879616  	0.037072 
1305.808432  	0.034563 
1307.737248  	0.031984 
1309.666064  	0.029502 
1311.594880  	0.027694 
1313.523696  	0.026277 
1315.452512  	0.025273 
1317.381328  	0.024690 
1319.310144  	0.024557 
1321.238960  	0.024557 
1323.167776  	0.025012 
1325.096592  	0.025692 
1327.025408  	0.026198 
1328.954224  	0.026203 
1330.883040  	0.025897 
1332.811856  	0.025252 
1334.740672  	0.024817 
1336.669488  	0.024616 
1338.598304  	0.024576 
1340.527120  	0.023480 
1342.455936  	0.022349 
1344.384752  	0.022065 
1346.313568  	0.022156 
1348.242384  	0.022505 
1350.171200  	0.023406 
1352.100016  	0.024562 
1354.028832  	0.025894 
1355.957648  	0.027161 
1357.886464  	0.028768 
1359.815280  	0.030576 
1361.744096  	0.032220 
1363.672912  	0.032852 
1365.601728  	0.033704 
1367.530544  	0.034673 
1369.459360  	0.034748 
1371.388176  	0.034545 
1373.316992  	0.033581 
1375.245808  	0.030879 
1377.174624  	0.028816 
1379.103440  	0.026483 
1381.032256  	0.024057 
1382.961072  	0.022338 
1384.889888  	0.021906 
1386.818704  	0.021368 
1388.747520  	0.019918 
1390.676336  	0.018084 
1392.605152  	0.015222 
1394.533968  	0.013432 
1396.462784  	0.016071 
1398.391600  	0.017124 
1400.320416  	0.016251 
1402.249232  	0.016414 
1404.178048  	0.016720 
1406.106864  	0.016964 
1408.035680  	0.018487 
1409.964496  	0.020505 
1411.893312  	0.022856 
1413.822128  	0.025495 
1415.750944  	0.028705 
1417.679760  	0.030883 
1419.608576  	0.030609 
1421.537392  	0.031124 
1423.466208  	0.031495 
1425.395024  	0.030194 
1427.323840  	0.029404 
1429.252656  	0.027646 
1431.181472  	0.026257 
1433.110288  	0.026271 
1435.039104  	0.027098 
1436.967920  	0.026167 
1438.896736  	0.026443 
1440.825552  	0.027457 
1442.754368  	0.027959 
1444.683184  	0.028160 
1446.612000  	0.028179 
1448.540816  	0.027075 
1450.469632  	0.027329 
1452.398448  	0.028019 
1454.327264  	0.029144 
1456.256080  	0.029200 
1458.184896  	0.026699 
1460.113712  	0.027625 
1462.042528  	0.029169 
1463.971344  	0.029095 
1465.900160  	0.028977 
1467.828976  	0.031045 
1469.757792  	0.033929 
1471.686608  	0.036409 
1473.615424  	0.040052 
1475.544240  	0.044848 
1477.473056  	0.049103 
1479.401872  	0.052438 
1481.330688  	0.055046 
1483.259504  	0.056812 
1485.188320  	0.058374 
1487.117136  	0.058679 
1489.045952  	0.058313 
1490.974768  	0.055607 
1492.903584  	0.054339 
1494.832400  	0.052437 
1496.761216  	0.047254 
1498.690032  	0.042426 
1500.618848  	0.039373 
1502.547664  	0.036936 
1504.476480  	0.034620 
1506.405296  	0.029370 
1508.334112  	0.026005 
1510.262928  	0.026394 
1512.191744  	0.025220 
1514.120560  	0.024620 
1516.049376  	0.024252 
1517.978192  	0.023528 
1519.907008  	0.024946 
1521.835824  	0.024804 
1523.764640  	0.027684 
1525.693456  	0.031028 
1527.622272  	0.032658 
1529.551088  	0.033422 
1531.479904  	0.033685 
1533.408720  	0.030588 
1535.337536  	0.028049 
1537.266352  	0.027611 
1539.195168  	0.022483 
1541.123984  	0.016307 
1543.052800  	0.017650 
1544.981616  	0.017559 
1546.910432  	0.017241 
1548.839248  	0.017774 
1550.768064  	0.017604 
1552.696880  	0.017724 
1554.625696  	0.018074 
1556.554512  	0.018875 
1558.483328  	0.017506 
1560.412144  	0.018450 
1562.340960  	0.024184 
1564.269776  	0.027377 
1566.198592  	0.031184 
1568.127408  	0.034499 
1570.056224  	0.037886 
1571.985040  	0.043181 
1573.913856  	0.047427 
1575.842672  	0.048040 
1577.771488  	0.049600 
1579.700304  	0.051455 
1581.629120  	0.051504 
1583.557936  	0.050975 
1585.486752  	0.051458 
1587.415568  	0.053024 
1589.344384  	0.056205 
1591.273200  	0.060476 
1593.202016  	0.065717 
1595.130832  	0.071268 
1597.059648  	0.077185 
1598.988464  	0.082461 
1600.917280  	0.087258 
1602.846096  	0.090377 
1604.774912  	0.092419 
1606.703728  	0.092830 
1608.632544  	0.092252 
1610.561360  	0.090805 
1612.490176  	0.089907 
1614.418992  	0.088698 
1616.347808  	0.086252 
1618.276624  	0.086327 
1620.205440  	0.089991 
1622.134256  	0.092149 
1624.063072  	0.095732 
1625.991888  	0.101050 
1627.920704  	0.107029 
1629.849520  	0.114401 
1631.778336  	0.122234 
1633.707152  	0.128044 
1635.635968  	0.133717 
1637.564784  	0.141612 
1639.493600  	0.148849 
1641.422416  	0.153878 
1643.351232  	0.158267 
1645.280048  	0.159858 
1647.208864  	0.159852 
1649.137680  	0.161856 
1651.066496  	0.163962 
1652.995312  	0.158698 
1654.924128  	0.157647 
1656.852944  	0.159180 
1658.781760  	0.158400 
1660.710576  	0.156076 
1662.639392  	0.152060 
1664.568208  	0.149089 
1666.497024  	0.148000 
1668.425840  	0.143816 
1670.354656  	0.137791 
1672.283472  	0.135589 
1674.212288  	0.133688 
1676.141104  	0.129399 
1678.069920  	0.128993 
1679.998736  	0.128403 
1681.927552  	0.127676 
1683.856368  	0.123664 
1685.785184  	0.122282 
1687.714000  	0.124650 
1689.642816  	0.124518 
1691.571632  	0.123724 
1693.500448  	0.123767 
1695.429264  	0.120561 
1697.358080  	0.117866 
1699.286896  	0.116577 
1701.215712  	0.111612 
1703.144528  	0.111766 
1705.073344  	0.108865 
1707.002160  	0.104183 
1708.930976  	0.101179 
1710.859792  	0.096485 
1712.788608  	0.091192 
1714.717424  	0.084364 
1716.646240  	0.075122 
1718.575056  	0.063204 
1720.503872  	0.056973 
1722.432688  	0.051516 
1724.361504  	0.043649 
1726.290320  	0.037311 
1728.219136  	0.032037 
1730.147952  	0.027203 
1732.076768  	0.023513 
1734.005584  	0.017411 
1735.934400  	0.012829 
1737.863216  	0.013182 
1739.792032  	0.010144 
1741.720848  	0.008982 
1743.649664  	0.008424 
1745.578480  	0.007875 
1747.507296  	0.006662 
1749.436112  	0.005771 
1751.364928  	0.004425 
1753.293744  	0.004069 
1755.222560  	0.004222 
1757.151376  	0.003426 
1759.080192  	0.002909 
1761.009008  	0.002544 
1762.937824  	0.001120 
1764.866640  	0.001610 
1766.795456  	0.002107 
1768.724272  	0.001696 
1770.653088  	0.000530 
1772.581904  	-0.001719 
1774.510720  	-0.001290 
1776.439536  	0.000040 
1778.368352  	0.000369 
1780.297168  	-0.000060 
1782.225984  	-0.000612 
1784.154800  	-0.000176 
1786.083616  	-0.000903 
1788.012432  	-0.000673 
1789.941248  	-0.000236 
1791.870064  	-0.001217 
1793.798880  	-0.002389 
1795.727696  	-0.001205 
1797.656512  	-0.001315 
1799.585328  	-0.001403 
1801.514144  	-0.001536 
1803.442960  	-0.001527 
1805.371776  	-0.001880 
1807.300592  	-0.001560 
1809.229408  	-0.001803 
1811.158224  	-0.002143 
1813.087040  	-0.002431 
1815.015856  	-0.002087 
1816.944672  	-0.002128 
1818.873488  	-0.002064 
1820.802304  	-0.002102 
1822.731120  	-0.001465 
1824.659936  	-0.002119 
1826.588752  	-0.002716 
1828.517568  	-0.003044 
1830.446384  	-0.003623 
1832.375200  	-0.003175 
1834.304016  	-0.002512 
1836.232832  	-0.002581 
1838.161648  	-0.002438 
1840.090464  	-0.002462 
1842.019280  	-0.001586 
1843.948096  	-0.002610 
1845.876912  	-0.003137 
1847.805728  	-0.002598 
1849.734544  	-0.002615 
1851.663360  	-0.002877 
1853.592176  	-0.002766 
1855.520992  	-0.002865 
1857.449808  	-0.002790 
1859.378624  	-0.003003 
1861.307440  	-0.002982 
1863.236256  	-0.003119 
1865.165072  	-0.002602 
1867.093888  	-0.002511 
1869.022704  	-0.003088 
1870.951520  	-0.003426 
1872.880336  	-0.002981 
1874.809152  	-0.003234 
1876.737968  	-0.003219 
1878.666784  	-0.003344 
1880.595600  	-0.002898 
1882.524416  	-0.003180 
1884.453232  	-0.003238 
1886.382048  	-0.003256 
1888.310864  	-0.003036 
1890.239680  	-0.003749 
1892.168496  	-0.003441 
1894.097312  	-0.003235 
1896.026128  	-0.003176 
1897.954944  	-0.003435 
1899.883760  	-0.003498 
1901.812576  	-0.003605 
1903.741392  	-0.003598 
1905.670208  	-0.003680 
1907.599024  	-0.003124 
1909.527840  	-0.003126 
1911.456656  	-0.002838 
1913.385472  	-0.002931 
1915.314288  	-0.002521 
1917.243104  	-0.003044 
1919.171920  	-0.003434 
1921.100736  	-0.003370 
1923.029552  	-0.003431 
1924.958368  	-0.003623 
1926.887184  	-0.002991 
1928.816000  	-0.003289 
1930.744816  	-0.003334 
1932.673632  	-0.003536 
1934.602448  	-0.003467 
1936.531264  	-0.003575 
1938.460080  	-0.003055 
1940.388896  	-0.003364 
1942.317712  	-0.003498 
1944.246528  	-0.004022 
1946.175344  	-0.003062 
1948.104160  	-0.002676 
1950.032976  	-0.002367 
1951.961792  	-0.002438 
1953.890608  	-0.002160 
1955.819424  	-0.003338 
1957.748240  	-0.003188 
1959.677056  	-0.003403 
1961.605872  	-0.003097 
1963.534688  	-0.003160 
1965.463504  	-0.002108 
1967.392320  	-0.002888 
1969.321136  	-0.003002 
1971.249952  	-0.003316 
1973.178768  	-0.002631 
1975.107584  	-0.003791 
1977.036400  	-0.002892 
1978.965216  	-0.001403 
1980.894032  	-0.000758 
1982.822848  	-0.001718 
1984.751664  	-0.001860 
1986.680480  	-0.002639 
1988.609296  	-0.002565 
1990.538112  	-0.002893 
1992.466928  	-0.002355 
1994.395744  	-0.003141 
1996.324560  	-0.003491 
1998.253376  	-0.004407 
2000.182192  	-0.004037 
2002.111008  	-0.002797 
2004.039824  	-0.001719 
2005.968640  	-0.002857 
2007.897456  	-0.002277 
2009.826272  	-0.002309 
2011.755088  	-0.001487 
2013.683904  	-0.002592 
2015.612720  	-0.002610 
2017.541536  	-0.002753 
2019.470352  	-0.002662 
2021.399168  	-0.003705 
2023.327984  	-0.003563 
2025.256800  	-0.003180 
2027.185616  	-0.002017 
2029.114432  	-0.002192 
2031.043248  	-0.002267 
2032.972064  	-0.002475 
2034.900880  	-0.001740 
2036.829696  	-0.002345 
2038.758512  	-0.001133 
2040.687328  	-0.001742 
2042.616144  	-0.002529 
2044.544960  	-0.002908 
2046.473776  	-0.001745 
2048.402592  	-0.001996 
2050.331408  	-0.002369 
2052.260224  	-0.003400 
2054.189040  	-0.003584 
2056.117856  	-0.003746 
2058.046672  	-0.003331 
2059.975488  	-0.003598 
2061.904304  	-0.003935 
2063.833120  	-0.003969 
2065.761936  	-0.003525 
2067.690752  	-0.003771 
2069.619568  	-0.003694 
2071.548384  	-0.003345 
2073.477200  	-0.003137 
2075.406016  	-0.002984 
2077.334832  	-0.002683 
2079.263648  	-0.003035 
2081.192464  	-0.003240 
2083.121280  	-0.003326 
2085.050096  	-0.003169 
2086.978912  	-0.003431 
2088.907728  	-0.003444 
2090.836544  	-0.003641 
2092.765360  	-0.003400 
2094.694176  	-0.003114 
2096.622992  	-0.003083 
2098.551808  	-0.003446 
2100.480624  	-0.002703 
2102.409440  	-0.002535 
2104.338256  	-0.002915 
2106.267072  	-0.002930 
2108.195888  	-0.002785 
2110.124704  	-0.003008 
2112.053520  	-0.003009 
2113.982336  	-0.003134 
2115.911152  	-0.003013 
2117.839968  	-0.003116 
2119.768784  	-0.003130 
2121.697600  	-0.003475 
2123.626416  	-0.003644 
2125.555232  	-0.003689 
2127.484048  	-0.003322 
2129.412864  	-0.003803 
2131.341680  	-0.004193 
2133.270496  	-0.004269 
2135.199312  	-0.003592 
2137.128128  	-0.003020 
2139.056944  	-0.002644 
2140.985760  	-0.003362 
2142.914576  	-0.002992 
2144.843392  	-0.002313 
2146.772208  	-0.002334 
2148.701024  	-0.003497 
2150.629840  	-0.002711 
2152.558656  	-0.002833 
2154.487472  	-0.002933 
2156.416288  	-0.003161 
2158.345104  	-0.002483 
2160.273920  	-0.001235 
2162.202736  	-0.000268 
2164.131552  	-0.000237 
2166.060368  	0.000620 
2167.989184  	0.000747 
2169.918000  	0.000857 
2171.846816  	-0.000928 
2173.775632  	-0.001150 
2175.704448  	-0.000584 
2177.633264  	-0.000436 
2179.562080  	-0.001959 
2181.490896  	-0.002397 
2183.419712  	-0.002237 
2185.348528  	-0.000875 
2187.277344  	-0.000856 
2189.206160  	-0.001361 
2191.134976  	-0.001981 
2193.063792  	-0.002114 
2194.992608  	-0.001794 
2196.921424  	-0.001654 
2198.850240  	-0.001912 
2200.779056  	-0.001932 
2202.707872  	-0.002284 
2204.636688  	-0.002630 
2206.565504  	-0.002654 
2208.494320  	-0.002561 
2210.423136  	-0.002842 
2212.351952  	-0.002810 
2214.280768  	-0.003267 
2216.209584  	-0.002853 
2218.138400  	-0.002881 
2220.067216  	-0.002371 
2221.996032  	-0.002635 
2223.924848  	-0.002852 
2225.853664  	-0.002643 
2227.782480  	-0.002309 
2229.711296  	-0.003180 
2231.640112  	-0.004097 
2233.568928  	-0.004273 
2235.497744  	-0.003635 
2237.426560  	-0.003822 
2239.355376  	-0.003673 
2241.284192  	-0.003397 
2243.213008  	-0.003269 
2245.141824  	-0.003627 
2247.070640  	-0.003554 
2248.999456  	-0.003413 
2250.928272  	-0.003738 
2252.857088  	-0.004096 
2254.785904  	-0.003801 
2256.714720  	-0.003865 
2258.643536  	-0.004235 
2260.572352  	-0.004506 
2262.501168  	-0.004154 
2264.429984  	-0.003964 
2266.358800  	-0.003900 
2268.287616  	-0.003759 
2270.216432  	-0.003335 
2272.145248  	-0.003208 
2274.074064  	-0.003455 
2276.002880  	-0.003806 
2277.931696  	-0.003601 
2279.860512  	-0.003562 
2281.789328  	-0.003492 
2283.718144  	-0.003340 
2285.646960  	-0.003097 
2287.575776  	-0.003047 
2289.504592  	-0.003191 
2291.433408  	-0.003430 
2293.362224  	-0.003006 
2295.291040  	-0.002632 
2297.219856  	-0.002402 
2299.148672  	-0.002368 
2301.077488  	-0.002020 
2303.006304  	-0.001822 
2304.935120  	-0.001675 
2306.863936  	-0.001455 
2308.792752  	-0.001242 
2310.721568  	-0.001340 
2312.650384  	-0.001404 
2314.579200  	-0.001520 
2316.508016  	-0.001692 
2318.436832  	-0.001843 
2320.365648  	-0.002234 
2322.294464  	-0.002786 
2324.223280  	-0.003688 
2326.152096  	-0.004840 
2328.080912  	-0.005456 
2330.009728  	-0.006283 
2331.938544  	-0.007509 
2333.867360  	-0.008238 
2335.796176  	-0.008862 
2337.724992  	-0.009715 
2339.653808  	-0.009520 
2341.582624  	-0.009375 
2343.511440  	-0.008976 
2345.440256  	-0.008358 
2347.369072  	-0.006280 
2349.297888  	-0.004044 
2351.226704  	-0.004535 
2353.155520  	-0.006944 
2355.084336  	-0.008512 
2357.013152  	-0.010009 
2358.941968  	-0.011075 
2360.870784  	-0.011963 
2362.799600  	-0.011810 
2364.728416  	-0.011553 
2366.657232  	-0.010582 
2368.586048  	-0.009092 
2370.514864  	-0.008011 
2372.443680  	-0.006810 
2374.372496  	-0.005402 
2376.301312  	-0.004384 
2378.230128  	-0.003524 
2380.158944  	-0.003187 
2382.087760  	-0.003210 
2384.016576  	-0.003622 
2385.945392  	-0.004039 
2387.874208  	-0.004291 
2389.803024  	-0.004351 
2391.731840  	-0.004494 
2393.660656  	-0.004538 
2395.589472  	-0.004554 
2397.518288  	-0.004406 
2399.447104  	-0.004564 
2401.375920  	-0.004688 
2403.304736  	-0.004867 
2405.233552  	-0.004666 
2407.162368  	-0.004607 
2409.091184  	-0.004746 
2411.020000  	-0.004767 
2412.948816  	-0.004598 
2414.877632  	-0.004534 
2416.806448  	-0.004413 
2418.735264  	-0.004606 
2420.664080  	-0.004768 
2422.592896  	-0.004773 
2424.521712  	-0.004644 
2426.450528  	-0.004703 
2428.379344  	-0.004637 
2430.308160  	-0.004434 
2432.236976  	-0.004340 
2434.165792  	-0.004552 
2436.094608  	-0.004573 
2438.023424  	-0.004380 
2439.952240  	-0.004136 
2441.881056  	-0.004164 
2443.809872  	-0.004281 
2445.738688  	-0.004119 
2447.667504  	-0.003852 
2449.596320  	-0.003925 
2451.525136  	-0.003818 
2453.453952  	-0.003876 
2455.382768  	-0.003870 
2457.311584  	-0.003945 
2459.240400  	-0.004086 
2461.169216  	-0.004074 
2463.098032  	-0.004068 
2465.026848  	-0.004128 
2466.955664  	-0.004088 
2468.884480  	-0.004325 
2470.813296  	-0.004410 
2472.742112  	-0.004333 
2474.670928  	-0.004159 
2476.599744  	-0.004166 
2478.528560  	-0.004090 
2480.457376  	-0.004145 
2482.386192  	-0.004109 
2484.315008  	-0.003900 
2486.243824  	-0.003900 
2488.172640  	-0.004003 
2490.101456  	-0.003985 
2492.030272  	-0.003811 
2493.959088  	-0.003654 
2495.887904  	-0.003703 
2497.816720  	-0.003679 
2499.745536  	-0.003647 
2501.674352  	-0.003548 
2503.603168  	-0.003359 
2505.531984  	-0.003486 
2507.460800  	-0.003815 
2509.389616  	-0.003641 
2511.318432  	-0.003484 
2513.247248  	-0.003384 
2515.176064  	-0.003301 
2517.104880  	-0.003254 
2519.033696  	-0.003323 
2520.962512  	-0.003325 
2522.891328  	-0.003394 
2524.820144  	-0.003359 
2526.748960  	-0.003136 
2528.677776  	-0.002915 
2530.606592  	-0.002959 
2532.535408  	-0.002967 
2534.464224  	-0.002846 
2536.393040  	-0.002835 
2538.321856  	-0.002828 
2540.250672  	-0.002768 
2542.179488  	-0.002954 
2544.108304  	-0.003144 
2546.037120  	-0.003015 
2547.965936  	-0.002937 
2549.894752  	-0.002845 
2551.823568  	-0.002721 
2553.752384  	-0.002614 
2555.681200  	-0.002477 
2557.610016  	-0.002410 
2559.538832  	-0.002270 
2561.467648  	-0.002150 
2563.396464  	-0.002060 
2565.325280  	-0.002035 
2567.254096  	-0.001958 
2569.182912  	-0.002027 
2571.111728  	-0.001985 
2573.040544  	-0.002010 
2574.969360  	-0.001976 
2576.898176  	-0.001630 
2578.826992  	-0.001517 
2580.755808  	-0.001608 
2582.684624  	-0.001580 
2584.613440  	-0.001588 
2586.542256  	-0.001522 
2588.471072  	-0.001423 
2590.399888  	-0.001407 
2592.328704  	-0.001497 
2594.257520  	-0.001671 
2596.186336  	-0.001604 
2598.115152  	-0.001376 
2600.043968  	-0.001379 
2601.972784  	-0.001198 
2603.901600  	-0.001097 
2605.830416  	-0.001147 
2607.759232  	-0.001061 
2609.688048  	-0.000875 
2611.616864  	-0.000781 
2613.545680  	-0.000748 
2615.474496  	-0.000775 
2617.403312  	-0.000663 
2619.332128  	-0.000451 
2621.260944  	-0.000331 
2623.189760  	-0.000372 
2625.118576  	-0.000354 
2627.047392  	-0.000404 
2628.976208  	-0.000432 
2630.905024  	-0.000351 
2632.833840  	-0.000158 
2634.762656  	-0.000028 
2636.691472  	0.000011 
2638.620288  	0.000079 
2640.549104  	0.000253 
2642.477920  	0.000318 
2644.406736  	0.000419 
2646.335552  	0.000544 
2648.264368  	0.000636 
2650.193184  	0.000626 
2652.122000  	0.000752 
2654.050816  	0.000914 
2655.979632  	0.000971 
2657.908448  	0.001046 
2659.837264  	0.001162 
2661.766080  	0.001215 
2663.694896  	0.001238 
2665.623712  	0.001228 
2667.552528  	0.001337 
2669.481344  	0.001438 
2671.410160  	0.001523 
2673.338976  	0.001603 
2675.267792  	0.001784 
2677.196608  	0.002008 
2679.125424  	0.002113 
2681.054240  	0.002195 
2682.983056  	0.002257 
2684.911872  	0.002207 
2686.840688  	0.002344 
2688.769504  	0.002472 
2690.698320  	0.002450 
2692.627136  	0.002463 
2694.555952  	0.002580 
2696.484768  	0.002562 
2698.413584  	0.002532 
2700.342400  	0.002522 
2702.271216  	0.002778 
2704.200032  	0.003063 
2706.128848  	0.002996 
2708.057664  	0.002932 
2709.986480  	0.003057 
2711.915296  	0.003231 
2713.844112  	0.003441 
2715.772928  	0.003440 
2717.701744  	0.003558 
2719.630560  	0.003780 
2721.559376  	0.003828 
2723.488192  	0.003837 
2725.417008  	0.003941 
2727.345824  	0.004121 
2729.274640  	0.004245 
2731.203456  	0.004259 
2733.132272  	0.004396 
2735.061088  	0.004472 
2736.989904  	0.004511 
2738.918720  	0.004567 
2740.847536  	0.004703 
2742.776352  	0.004724 
2744.705168  	0.004793 
2746.633984  	0.004851 
2748.562800  	0.004834 
2750.491616  	0.004882 
2752.420432  	0.005057 
2754.349248  	0.005108 
2756.278064  	0.005067 
2758.206880  	0.004949 
2760.135696  	0.004895 
2762.064512  	0.004973 
2763.993328  	0.005086 
2765.922144  	0.005139 
2767.850960  	0.005127 
2769.779776  	0.005082 
2771.708592  	0.005125 
2773.637408  	0.005068 
2775.566224  	0.005036 
2777.495040  	0.004988 
2779.423856  	0.005031 
2781.352672  	0.005031 
2783.281488  	0.004962 
2785.210304  	0.004938 
2787.139120  	0.005008 
2789.067936  	0.005017 
2790.996752  	0.004959 
2792.925568  	0.004829 
2794.854384  	0.004840 
2796.783200  	0.004852 
2798.712016  	0.004717 
2800.640832  	0.004607 
2802.569648  	0.004650 
2804.498464  	0.004740 
2806.427280  	0.004801 
2808.356096  	0.004784 
2810.284912  	0.004840 
2812.213728  	0.004880 
2814.142544  	0.004799 
2816.071360  	0.004757 
2818.000176  	0.004569 
2819.928992  	0.004338 
2821.857808  	0.004279 
2823.786624  	0.004288 
2825.715440  	0.004276 
2827.644256  	0.004142 
2829.573072  	0.003994 
2831.501888  	0.003608 
2833.430704  	0.003219 
2835.359520  	0.002998 
2837.288336  	0.002750 
2839.217152  	0.002444 
2841.145968  	0.002105 
2843.074784  	0.001793 
2845.003600  	0.001346 
2846.932416  	0.000897 
2848.861232  	0.000563 
2850.790048  	0.000098 
2852.718864  	-0.000323 
2854.647680  	-0.000898 
2856.576496  	-0.001568 
2858.505312  	-0.002131 
2860.434128  	-0.002679 
2862.362944  	-0.003544 
2864.291760  	-0.004414 
2866.220576  	-0.005018 
2868.149392  	-0.005324 
2870.078208  	-0.005608 
2872.007024  	-0.005690 
2873.935840  	-0.005664 
2875.864656  	-0.005786 
2877.793472  	-0.006065 
2879.722288  	-0.006355 
2881.651104  	-0.006815 
2883.579920  	-0.007151 
2885.508736  	-0.007102 
2887.437552  	-0.006913 
2889.366368  	-0.006900 
2891.295184  	-0.007125 
2893.224000  	-0.007397 
2895.152816  	-0.007427 
2897.081632  	-0.007754 
2899.010448  	-0.009475 
2900.939264  	-0.011055 
2902.868080  	-0.009836 
2904.796896  	-0.008475 
2906.725712  	-0.007932 
2908.654528  	-0.007419 
2910.583344  	-0.007122 
2912.512160  	-0.006724 
2914.440976  	-0.005585 
2916.369792  	-0.004770 
2918.298608  	-0.004406 
2920.227424  	-0.004014 
2922.156240  	-0.003405 
2924.085056  	-0.002675 
2926.013872  	-0.001844 
2927.942688  	-0.001033 
2929.871504  	-0.000263 
2931.800320  	0.000474 
2933.729136  	0.001204 
2935.657952  	0.001732 
2937.586768  	0.002277 
2939.515584  	0.002769 
2941.444400  	0.002903 
2943.373216  	0.002902 
2945.302032  	0.003128 
2947.230848  	0.003363 
2949.159664  	0.003104 
2951.088480  	0.002483 
2953.017296  	0.002045 
2954.946112  	0.001391 
2956.874928  	0.000677 
2958.803744  	0.000016 
2960.732560  	-0.000591 
2962.661376  	-0.001238 
2964.590192  	-0.002064 
2966.519008  	-0.003195 
2968.447824  	-0.004226 
2970.376640  	-0.005047 
2972.305456  	-0.005599 
2974.234272  	-0.005340 
2976.163088  	-0.004989 
2978.091904  	-0.004946 
2980.020720  	-0.004906 
2981.949536  	-0.004755 
2983.878352  	-0.005005 
2985.807168  	-0.005849 
2987.735984  	-0.006749 
2989.664800  	-0.006436 
2991.593616  	-0.003445 
2993.522432  	-0.001438 
2995.451248  	-0.000902 
2997.380064  	-0.000057 
2999.308880  	0.001120 
3001.237696  	0.002397 
3003.166512  	0.003897 
3005.095328  	0.005290 
3007.024144  	0.006588 
3008.952960  	0.008016 
3010.881776  	0.009564 
3012.810592  	0.010965 
3014.739408  	0.012102 
3016.668224  	0.013158 
3018.597040  	0.014410 
3020.525856  	0.015576 
3022.454672  	0.016623 
3024.383488  	0.017738 
3026.312304  	0.018626 
3028.241120  	0.019477 
3030.169936  	0.020434 
3032.098752  	0.021225 
3034.027568  	0.021935 
3035.956384  	0.022656 
3037.885200  	0.023408 
3039.814016  	0.023979 
3041.742832  	0.024592 
3043.671648  	0.025093 
3045.600464  	0.025595 
3047.529280  	0.026051 
3049.458096  	0.026618 
3051.386912  	0.027171 
3053.315728  	0.027589 
3055.244544  	0.028207 
3057.173360  	0.028760 
3059.102176  	0.029094 
3061.030992  	0.029645 
3062.959808  	0.030259 
3064.888624  	0.030874 
3066.817440  	0.031469 
3068.746256  	0.032160 
3070.675072  	0.032837 
3072.603888  	0.033426 
3074.532704  	0.033918 
3076.461520  	0.034576 
3078.390336  	0.035370 
3080.319152  	0.035916 
3082.247968  	0.036466 
3084.176784  	0.037115 
3086.105600  	0.037801 
3088.034416  	0.038425 
3089.963232  	0.039115 
3091.892048  	0.039701 
3093.820864  	0.040354 
3095.749680  	0.040977 
3097.678496  	0.041677 
3099.607312  	0.042412 
3101.536128  	0.043150 
3103.464944  	0.043924 
3105.393760  	0.044520 
3107.322576  	0.045095 
3109.251392  	0.045658 
3111.180208  	0.046275 
3113.109024  	0.046927 
3115.037840  	0.047419 
3116.966656  	0.048072 
3118.895472  	0.048654 
3120.824288  	0.049229 
3122.753104  	0.049928 
3124.681920  	0.050454 
3126.610736  	0.050954 
3128.539552  	0.051586 
3130.468368  	0.052231 
3132.397184  	0.052741 
3134.326000  	0.053224 
3136.254816  	0.053727 
3138.183632  	0.054251 
3140.112448  	0.054726 
3142.041264  	0.055303 
3143.970080  	0.055851 
3145.898896  	0.056292 
3147.827712  	0.056757 
3149.756528  	0.057141 
3151.685344  	0.057672 
3153.614160  	0.058541 
3155.542976  	0.059259 
3157.471792  	0.059743 
3159.400608  	0.060292 
3161.329424  	0.060788 
3163.258240  	0.061141 
3165.187056  	0.061650 
3167.115872  	0.062149 
3169.044688  	0.062688 
3170.973504  	0.063112 
3172.902320  	0.063450 
3174.831136  	0.063934 
3176.759952  	0.064457 
3178.688768  	0.064821 
3180.617584  	0.065162 
3182.546400  	0.065496 
3184.475216  	0.065820 
3186.404032  	0.066001 
3188.332848  	0.066115 
3190.261664  	0.066333 
3192.190480  	0.066612 
3194.119296  	0.066718 
3196.048112  	0.066875 
3197.976928  	0.066841 
3199.905744  	0.066951 
3201.834560  	0.066985 
3203.763376  	0.066856 
3205.692192  	0.066960 
3207.621008  	0.066687 
3209.549824  	0.066532 
3211.478640  	0.066832 
3213.407456  	0.066855 
3215.336272  	0.066657 
3217.265088  	0.066664 
3219.193904  	0.066552 
3221.122720  	0.066367 
3223.051536  	0.066335 
3224.980352  	0.066231 
3226.909168  	0.066015 
3228.837984  	0.065869 
3230.766800  	0.065799 
3232.695616  	0.065751 
3234.624432  	0.065648 
3236.553248  	0.065642 
3238.482064  	0.065823 
3240.410880  	0.065745 
3242.339696  	0.065807 
3244.268512  	0.065822 
3246.197328  	0.065840 
3248.126144  	0.066031 
3250.054960  	0.066166 
3251.983776  	0.066280 
3253.912592  	0.066517 
3255.841408  	0.066874 
3257.770224  	0.067078 
3259.699040  	0.067170 
3261.627856  	0.067452 
3263.556672  	0.067704 
3265.485488  	0.067792 
3267.414304  	0.068051 
3269.343120  	0.068488 
3271.271936  	0.068674 
3273.200752  	0.068753 
3275.129568  	0.068762 
3277.058384  	0.069064 
3278.987200  	0.069512 
3280.916016  	0.069739 
3282.844832  	0.069859 
3284.773648  	0.070113 
3286.702464  	0.070400 
3288.631280  	0.070642 
3290.560096  	0.070825 
3292.488912  	0.071224 
3294.417728  	0.071413 
3296.346544  	0.071517 
3298.275360  	0.071758 
3300.204176  	0.072312 
3302.132992  	0.072602 
3304.061808  	0.072795 
3305.990624  	0.073410 
3307.919440  	0.073867 
3309.848256  	0.074056 
3311.777072  	0.074339 
3313.705888  	0.074607 
3315.634704  	0.075081 
3317.563520  	0.075625 
3319.492336  	0.075836 
3321.421152  	0.075756 
3323.349968  	0.076064 
3325.278784  	0.076460 
3327.207600  	0.076624 
3329.136416  	0.076685 
3331.065232  	0.076856 
3332.994048  	0.077210 
3334.922864  	0.077323 
3336.851680  	0.077307 
3338.780496  	0.077297 
3340.709312  	0.077234 
3342.638128  	0.077218 
3344.566944  	0.076886 
3346.495760  	0.076681 
3348.424576  	0.076591 
3350.353392  	0.076464 
3352.282208  	0.076396 
3354.211024  	0.076368 
3356.139840  	0.076070 
3358.068656  	0.075692 
3359.997472  	0.075496 
3361.926288  	0.075216 
3363.855104  	0.074910 
3365.783920  	0.074520 
3367.712736  	0.074136 
3369.641552  	0.073952 
3371.570368  	0.073670 
3373.499184  	0.073355 
3375.428000  	0.072957 
3377.356816  	0.072606 
3379.285632  	0.072452 
3381.214448  	0.072244 
3383.143264  	0.072082 
3385.072080  	0.071690 
3387.000896  	0.071149 
3388.929712  	0.070773 
3390.858528  	0.070516 
3392.787344  	0.070325 
3394.716160  	0.070024 
3396.644976  	0.069788 
3398.573792  	0.069587 
3400.502608  	0.069134 
3402.431424  	0.068571 
3404.360240  	0.068025 
3406.289056  	0.067531 
3408.217872  	0.067324 
3410.146688  	0.066937 
3412.075504  	0.066679 
3414.004320  	0.066334 
3415.933136  	0.065927 
3417.861952  	0.065499 
3419.790768  	0.065057 
3421.719584  	0.064551 
3423.648400  	0.064104 
3425.577216  	0.063674 
3427.506032  	0.063221 
3429.434848  	0.062863 
3431.363664  	0.062332 
3433.292480  	0.061784 
3435.221296  	0.061298 
3437.150112  	0.060844 
3439.078928  	0.060511 
3441.007744  	0.059957 
3442.936560  	0.059467 
3444.865376  	0.059356 
3446.794192  	0.058728 
3448.723008  	0.057724 
3450.651824  	0.057214 
3452.580640  	0.056712 
3454.509456  	0.056189 
3456.438272  	0.055698 
3458.367088  	0.055212 
3460.295904  	0.054687 
3462.224720  	0.053870 
3464.153536  	0.052986 
3466.082352  	0.052535 
3468.011168  	0.051830 
3469.939984  	0.051123 
3471.868800  	0.050639 
3473.797616  	0.049958 
3475.726432  	0.049223 
3477.655248  	0.048622 
3479.584064  	0.048152 
3481.512880  	0.047470 
3483.441696  	0.046549 
3485.370512  	0.046065 
3487.299328  	0.045080 
3489.228144  	0.044153 
3491.156960  	0.043505 
3493.085776  	0.042949 
3495.014592  	0.042327 
3496.943408  	0.041804 
3498.872224  	0.041245 
3500.801040  	0.041187 
3502.729856  	0.040492 
3504.658672  	0.039237 
3506.587488  	0.038895 
3508.516304  	0.038604 
3510.445120  	0.037694 
3512.373936  	0.037021 
3514.302752  	0.036507 
3516.231568  	0.036139 
3518.160384  	0.035596 
3520.089200  	0.035040 
3522.018016  	0.034860 
3523.946832  	0.034370 
3525.875648  	0.033636 
3527.804464  	0.032737 
3529.733280  	0.031998 
3531.662096  	0.031519 
3533.590912  	0.031131 
3535.519728  	0.030846 
3537.448544  	0.030240 
3539.377360  	0.029701 
3541.306176  	0.029364 
3543.234992  	0.029120 
3545.163808  	0.028892 
3547.092624  	0.027837 
3549.021440  	0.026930 
3550.950256  	0.026607 
3552.879072  	0.025596 
3554.807888  	0.025201 
3556.736704  	0.025109 
3558.665520  	0.024865 
3560.594336  	0.024260 
3562.523152  	0.023538 
3564.451968  	0.023436 
3566.380784  	0.022689 
3568.309600  	0.020451 
3570.238416  	0.020236 
3572.167232  	0.020463 
3574.096048  	0.019814 
3576.024864  	0.019074 
3577.953680  	0.018761 
3579.882496  	0.018177 
3581.811312  	0.017525 
3583.740128  	0.017440 
3585.668944  	0.017668 
3587.597760  	0.015524 
3589.526576  	0.013871 
3591.455392  	0.014313 
3593.384208  	0.014249 
3595.313024  	0.013363 
3597.241840  	0.012108 
3599.170656  	0.010954 
3601.099472  	0.010096 
3603.028288  	0.010036 
3604.957104  	0.010237 
3606.885920  	0.009580 
3608.814736  	0.007984 
3610.743552  	0.007717 
3612.672368  	0.006653 
3614.601184  	0.004962 
3616.530000  	0.005496 
3618.458816  	0.004014 
3620.387632  	0.001925 
3622.316448  	0.002255 
3624.245264  	0.002605 
3626.174080  	0.003058 
3628.102896  	0.000974 
3630.031712  	-0.003891 
3631.960528  	-0.002122 
3633.889344  	-0.002160 
3635.818160  	-0.003171 
3637.746976  	-0.003740 
3639.675792  	-0.004033 
3641.604608  	-0.004143 
3643.533424  	-0.004427 
3645.462240  	-0.004478 
3647.391056  	-0.006731 
3649.319872  	-0.011332 
3651.248688  	-0.013534 
3653.177504  	-0.010654 
3655.106320  	-0.010141 
3657.035136  	-0.013475 
3658.963952  	-0.013530 
3660.892768  	-0.013267 
3662.821584  	-0.013442 
3664.750400  	-0.013295 
3666.679216  	-0.012619 
3668.608032  	-0.013593 
3670.536848  	-0.017414 
3672.465664  	-0.015792 
3674.394480  	-0.015538 
3676.323296  	-0.020919 
3678.252112  	-0.017789 
3680.180928  	-0.016075 
3682.109744  	-0.015574 
3684.038560  	-0.015319 
3685.967376  	-0.014676 
3687.896192  	-0.016238 
3689.825008  	-0.019304 
3691.753824  	-0.018870 
3693.682640  	-0.016717 
3695.611456  	-0.015362 
3697.540272  	-0.014570 
3699.469088  	-0.013563 
3701.397904  	-0.014325 
3703.326720  	-0.014550 
3705.255536  	-0.012848 
3707.184352  	-0.011851 
3709.113168  	-0.012509 
3711.041984  	-0.014834 
3712.970800  	-0.015366 
3714.899616  	-0.013063 
3716.828432  	-0.011760 
3718.757248  	-0.011850 
3720.686064  	-0.012036 
3722.614880  	-0.012563 
3724.543696  	-0.012274 
3726.472512  	-0.012540 
3728.401328  	-0.012327 
3730.330144  	-0.011527 
3732.258960  	-0.012689 
3734.187776  	-0.013014 
3736.116592  	-0.014996 
3738.045408  	-0.014976 
3739.974224  	-0.012701 
3741.903040  	-0.010606 
3743.831856  	-0.012315 
3745.760672  	-0.015957 
3747.689488  	-0.012856 
3749.618304  	-0.014445 
3751.547120  	-0.017311 
3753.475936  	-0.016149 
3755.404752  	-0.013219 
3757.333568  	-0.012545 
3759.262384  	-0.013520 
3761.191200  	-0.013900 
3763.120016  	-0.011812 
3765.048832  	-0.012076 
3766.977648  	-0.012278 
3768.906464  	-0.012519 
3770.835280  	-0.013981 
3772.764096  	-0.012792 
3774.692912  	-0.011897 
3776.621728  	-0.011486 
3778.550544  	-0.012325 
3780.479360  	-0.013952 
3782.408176  	-0.012700 
3784.336992  	-0.012625 
3786.265808  	-0.012764 
3788.194624  	-0.012291 
3790.123440  	-0.012057 
3792.052256  	-0.011951 
3793.981072  	-0.011605 
3795.909888  	-0.012662 
3797.838704  	-0.012925 
3799.767520  	-0.012037 
3801.696336  	-0.016051 
3803.625152  	-0.015383 
3805.553968  	-0.013092 
3807.482784  	-0.015072 
3809.411600  	-0.013592 
3811.340416  	-0.011983 
3813.269232  	-0.011161 
3815.198048  	-0.012985 
3817.126864  	-0.015198 
3819.055680  	-0.012788 
3820.984496  	-0.015666 
3822.913312  	-0.016199 
3824.842128  	-0.012835 
3826.770944  	-0.013185 
3828.699760  	-0.013106 
3830.628576  	-0.012301 
3832.557392  	-0.013013 
3834.486208  	-0.012883 
3836.415024  	-0.013054 
3838.343840  	-0.014571 
3840.272656  	-0.015155 
3842.201472  	-0.013827 
3844.130288  	-0.013657 
3846.059104  	-0.012892 
3847.987920  	-0.011611 
3849.916736  	-0.010884 
3851.845552  	-0.011722 
3853.774368  	-0.018127 
3855.703184  	-0.017226 
3857.632000  	-0.013951 
3859.560816  	-0.012032 
3861.489632  	-0.011745 
3863.418448  	-0.012623 
3865.347264  	-0.013697 
3867.276080  	-0.012182 
3869.204896  	-0.012775 
3871.133712  	-0.014490 
3873.062528  	-0.013149 
3874.991344  	-0.014175 
3876.920160  	-0.012181 
3878.848976  	-0.010904 
3880.777792  	-0.012646 
3882.706608  	-0.012057 
3884.635424  	-0.011623 
3886.564240  	-0.013851 
3888.493056  	-0.012280 
3890.421872  	-0.012015 
3892.350688  	-0.013739 
3894.279504  	-0.012808 
3896.208320  	-0.011325 
3898.137136  	-0.010843 
3900.065952  	-0.011526 
3901.994768  	-0.011716 
3903.923584  	-0.012971 
3905.852400  	-0.013888 
3907.781216  	-0.012955 
3909.710032  	-0.012282 
3911.638848  	-0.012086 
3913.567664  	-0.011569 
3915.496480  	-0.011119 
3917.425296  	-0.011816 
3919.354112  	-0.012356 
3921.282928  	-0.012260 
3923.211744  	-0.011509 
3925.140560  	-0.011941 
3927.069376  	-0.011936 
3928.998192  	-0.011432 
3930.927008  	-0.011381 
3932.855824  	-0.011885 
3934.784640  	-0.012065 
3936.713456  	-0.011933 
3938.642272  	-0.011895 
3940.571088  	-0.011405 
3942.499904  	-0.011682 
3944.428720  	-0.012100 
3946.357536  	-0.011448 
3948.286352  	-0.011373 
3950.215168  	-0.011966 
3952.143984  	-0.012272 
3954.072800  	-0.012119 
3956.001616  	-0.011905 
3957.930432  	-0.011975 
3959.859248  	-0.011901 
3961.788064  	-0.011911 
3963.716880  	-0.012169 
3965.645696  	-0.012223 
3967.574512  	-0.012069 
3969.503328  	-0.011982 
3971.432144  	-0.012028 
3973.360960  	-0.012056 
3975.289776  	-0.012206 
3977.218592  	-0.012253 
3979.147408  	-0.012293 
3981.076224  	-0.012255 
3983.005040  	-0.012141 
3984.933856  	-0.012162 
3986.862672  	-0.012265 
3988.791488  	-0.012021 
3990.720304  	-0.011856 
3992.649120  	-0.012049 
3994.577936  	-0.012300 
3996.506752  	-0.012266 
3998.435568  	-0.012161 
4000.364384  	-0.012132 