##TITLE=No Description
##DATA TYPE=INFRARED SPECTRUM
##XUNITS=1/CM
##YUNITS=Abs
399.264912  	0.675833 
401.193728  	0.654675 
403.122544  	0.641729 
405.051360  	0.624188 
406.980176  	0.616412 
408.908992  	0.608775 
410.837808  	0.633863 
412.766624  	0.635829 
414.695440  	0.624341 
416.624256  	0.603635 
418.553072  	0.600147 
420.481888  	0.593495 
422.410704  	0.596580 
424.339520  	0.586426 
426.268336  	0.584045 
428.197152  	0.581819 
430.125968  	0.579874 
432.054784  	0.576733 
433.983600  	0.582931 
435.912416  	0.574054 
437.841232  	0.571145 
439.770048  	0.564813 
441.698864  	0.566029 
443.627680  	0.561336 
445.556496  	0.560295 
447.485312  	0.553424 
449.414128  	0.549480 
451.342944  	0.547316 
453.271760  	0.546504 
455.200576  	0.545454 
457.129392  	0.554642 
459.058208  	0.556290 
460.987024  	0.557588 
462.915840  	0.546782 
464.844656  	0.540926 
466.773472  	0.539230 
468.702288  	0.542468 
470.631104  	0.543092 
472.559920  	0.540810 
474.488736  	0.533564 
476.417552  	0.536989 
478.346368  	0.532096 
480.275184  	0.532182 
482.204000  	0.531736 
484.132816  	0.532856 
486.061632  	0.527556 
487.990448  	0.530782 
489.919264  	0.529670 
491.848080  	0.529856 
493.776896  	0.528078 
495.705712  	0.523703 
497.634528  	0.517988 
499.563344  	0.520671 
501.492160  	0.519732 
503.420976  	0.519389 
505.349792  	0.517859 
507.278608  	0.521495 
509.207424  	0.520597 
511.136240  	0.521081 
513.065056  	0.518827 
514.993872  	0.518280 
516.922688  	0.516456 
518.851504  	0.519503 
520.780320  	0.518386 
522.709136  	0.516951 
524.637952  	0.512711 
526.566768  	0.512297 
528.495584  	0.511946 
530.424400  	0.513031 
532.353216  	0.509308 
534.282032  	0.505584 
536.210848  	0.499580 
538.139664  	0.494705 
540.068480  	0.490375 
541.997296  	0.487858 
543.926112  	0.483140 
545.854928  	0.481483 
547.783744  	0.479302 
549.712560  	0.478605 
551.641376  	0.475310 
553.570192  	0.471845 
555.499008  	0.467528 
557.427824  	0.465267 
559.356640  	0.461549 
561.285456  	0.459487 
563.214272  	0.456120 
565.143088  	0.453495 
567.071904  	0.450529 
569.000720  	0.448539 
570.929536  	0.445361 
572.858352  	0.444384 
574.787168  	0.442800 
576.715984  	0.440152 
578.644800  	0.435739 
580.573616  	0.432944 
582.502432  	0.430042 
584.431248  	0.428030 
586.360064  	0.424851 
588.288880  	0.423403 
590.217696  	0.420986 
592.146512  	0.418306 
594.075328  	0.415527 
596.004144  	0.413900 
597.932960  	0.411372 
599.861776  	0.408780 
601.790592  	0.405785 
603.719408  	0.404583 
605.648224  	0.403300 
607.577040  	0.401731 
609.505856  	0.399094 
611.434672  	0.397229 
613.363488  	0.395200 
615.292304  	0.394583 
617.221120  	0.393058 
619.149936  	0.391372 
621.078752  	0.388855 
623.007568  	0.386859 
624.936384  	0.384379 
626.865200  	0.383066 
628.794016  	0.381228 
630.722832  	0.380507 
632.651648  	0.379104 
634.580464  	0.377722 
636.509280  	0.376062 
638.438096  	0.375778 
640.366912  	0.374855 
642.295728  	0.373371 
644.224544  	0.370696 
646.153360  	0.367658 
648.082176  	0.364051 
650.010992  	0.361088 
651.939808  	0.357679 
653.868624  	0.354730 
655.797440  	0.351912 
657.726256  	0.349016 
659.655072  	0.345491 
661.583888  	0.341882 
663.512704  	0.337773 
665.441520  	0.335747 
667.370336  	0.332983 
669.299152  	0.327153 
671.227968  	0.324062 
673.156784  	0.321677 
675.085600  	0.318557 
677.014416  	0.315603 
678.943232  	0.313197 
680.872048  	0.311499 
682.800864  	0.308639 
684.729680  	0.306243 
686.658496  	0.305159 
688.587312  	0.304153 
690.516128  	0.301780 
692.444944  	0.299578 
694.373760  	0.297855 
696.302576  	0.295948 
698.231392  	0.293310 
700.160208  	0.290267 
702.089024  	0.287492 
704.017840  	0.285157 
705.946656  	0.282755 
707.875472  	0.280631 
709.804288  	0.278237 
711.733104  	0.275968 
713.661920  	0.273625 
715.590736  	0.272158 
717.519552  	0.270843 
719.448368  	0.269948 
721.377184  	0.268514 
723.306000  	0.267715 
725.234816  	0.266588 
727.163632  	0.265464 
729.092448  	0.263603 
731.021264  	0.260915 
732.950080  	0.257796 
734.878896  	0.254824 
736.807712  	0.252246 
738.736528  	0.250377 
740.665344  	0.248342 
742.594160  	0.246204 
744.522976  	0.244307 
746.451792  	0.242485 
748.380608  	0.240573 
750.309424  	0.238797 
752.238240  	0.237167 
754.167056  	0.236046 
756.095872  	0.234363 
758.024688  	0.232762 
759.953504  	0.231299 
761.882320  	0.230732 
763.811136  	0.229721 
765.739952  	0.228116 
767.668768  	0.225842 
769.597584  	0.223337 
771.526400  	0.221268 
773.455216  	0.220661 
775.384032  	0.221331 
777.312848  	0.222645 
779.241664  	0.223800 
781.170480  	0.223125 
783.099296  	0.219858 
785.028112  	0.215380 
786.956928  	0.211068 
788.885744  	0.207198 
790.814560  	0.204014 
792.743376  	0.201656 
794.672192  	0.199744 
796.601008  	0.198211 
798.529824  	0.195710 
800.458640  	0.191837 
802.387456  	0.188178 
804.316272  	0.185999 
806.245088  	0.184296 
808.173904  	0.182771 
810.102720  	0.181379 
812.031536  	0.180238 
813.960352  	0.179165 
815.889168  	0.178231 
817.817984  	0.177263 
819.746800  	0.176097 
821.675616  	0.174917 
823.604432  	0.173693 
825.533248  	0.172295 
827.462064  	0.171008 
829.390880  	0.169419 
831.319696  	0.167460 
833.248512  	0.165267 
835.177328  	0.163204 
837.106144  	0.161182 
839.034960  	0.158584 
840.963776  	0.155594 
842.892592  	0.152927 
844.821408  	0.150146 
846.750224  	0.147507 
848.679040  	0.144827 
850.607856  	0.142661 
852.536672  	0.141029 
854.465488  	0.139395 
856.394304  	0.137687 
858.323120  	0.136106 
860.251936  	0.134151 
862.180752  	0.131851 
864.109568  	0.129340 
866.038384  	0.127079 
867.967200  	0.125057 
869.896016  	0.123306 
871.824832  	0.122072 
873.753648  	0.121125 
875.682464  	0.120848 
877.611280  	0.120282 
879.540096  	0.119857 
881.468912  	0.120677 
883.397728  	0.121102 
885.326544  	0.121274 
887.255360  	0.120815 
889.184176  	0.119332 
891.112992  	0.117538 
893.041808  	0.116526 
894.970624  	0.114898 
896.899440  	0.112448 
898.828256  	0.109630 
900.757072  	0.107069 
902.685888  	0.104952 
904.614704  	0.103775 
906.543520  	0.103706 
908.472336  	0.104051 
910.401152  	0.105189 
912.329968  	0.106322 
914.258784  	0.107500 
916.187600  	0.108714 
918.116416  	0.109707 
920.045232  	0.110362 
921.974048  	0.110626 
923.902864  	0.110366 
925.831680  	0.109706 
927.760496  	0.109269 
929.689312  	0.108992 
931.618128  	0.108932 
933.546944  	0.108605 
935.475760  	0.108150 
937.404576  	0.107551 
939.333392  	0.106900 
941.262208  	0.106468 
943.191024  	0.106542 
945.119840  	0.107695 
947.048656  	0.110090 
948.977472  	0.113435 
950.906288  	0.117574 
952.835104  	0.122343 
954.763920  	0.127694 
956.692736  	0.132541 
958.621552  	0.136755 
960.550368  	0.139776 
962.479184  	0.141063 
964.408000  	0.140466 
966.336816  	0.137898 
968.265632  	0.133147 
970.194448  	0.126595 
972.123264  	0.118901 
974.052080  	0.110779 
975.980896  	0.102801 
977.909712  	0.095218 
979.838528  	0.088163 
981.767344  	0.082090 
983.696160  	0.077242 
985.624976  	0.073902 
987.553792  	0.072025 
989.482608  	0.071487 
991.411424  	0.072338 
993.340240  	0.074269 
995.269056  	0.076877 
997.197872  	0.079436 
999.126688  	0.082166 
1001.055504  	0.085023 
1002.984320  	0.087789 
1004.913136  	0.090437 
1006.841952  	0.093470 
1008.770768  	0.095893 
1010.699584  	0.097359 
1012.628400  	0.098018 
1014.557216  	0.098252 
1016.486032  	0.098227 
1018.414848  	0.097933 
1020.343664  	0.097621 
1022.272480  	0.097098 
1024.201296  	0.095993 
1026.130112  	0.092807 
1028.058928  	0.091319 
1029.987744  	0.093629 
1031.916560  	0.094291 
1033.845376  	0.093652 
1035.774192  	0.092529 
1037.703008  	0.092463 
1039.631824  	0.094948 
1041.560640  	0.098690 
1043.489456  	0.103775 
1045.418272  	0.110447 
1047.347088  	0.118446 
1049.275904  	0.126703 
1051.204720  	0.133885 
1053.133536  	0.139183 
1055.062352  	0.142198 
1056.991168  	0.143221 
1058.919984  	0.145974 
1060.848800  	0.148854 
1062.777616  	0.148324 
1064.706432  	0.144240 
1066.635248  	0.141450 
1068.564064  	0.142834 
1070.492880  	0.141702 
1072.421696  	0.137569 
1074.350512  	0.134253 
1076.279328  	0.133217 
1078.208144  	0.134830 
1080.136960  	0.138771 
1082.065776  	0.143945 
1083.994592  	0.148455 
1085.923408  	0.151453 
1087.852224  	0.152517 
1089.781040  	0.152166 
1091.709856  	0.151063 
1093.638672  	0.148325 
1095.567488  	0.143078 
1097.496304  	0.136426 
1099.425120  	0.129096 
1101.353936  	0.121334 
1103.282752  	0.113698 
1105.211568  	0.106351 
1107.140384  	0.099219 
1109.069200  	0.092264 
1110.998016  	0.086045 
1112.926832  	0.080562 
1114.855648  	0.075349 
1116.784464  	0.070349 
1118.713280  	0.065530 
1120.642096  	0.061070 
1122.570912  	0.056942 
1124.499728  	0.052872 
1126.428544  	0.049256 
1128.357360  	0.046141 
1130.286176  	0.043712 
1132.214992  	0.041534 
1134.143808  	0.039724 
1136.072624  	0.038141 
1138.001440  	0.036887 
1139.930256  	0.035218 
1141.859072  	0.033587 
1143.787888  	0.032033 
1145.716704  	0.030799 
1147.645520  	0.029509 
1149.574336  	0.028265 
1151.503152  	0.027210 
1153.431968  	0.026796 
1155.360784  	0.026738 
1157.289600  	0.027020 
1159.218416  	0.027751 
1161.147232  	0.028640 
1163.076048  	0.029593 
1165.004864  	0.030809 
1166.933680  	0.031838 
1168.862496  	0.033030 
1170.791312  	0.034111 
1172.720128  	0.035591 
1174.648944  	0.036901 
1176.577760  	0.038275 
1178.506576  	0.039478 
1180.435392  	0.040773 
1182.364208  	0.042011 
1184.293024  	0.043513 
1186.221840  	0.045092 
1188.150656  	0.046978 
1190.079472  	0.049106 
1192.008288  	0.051806 
1193.937104  	0.055151 
1195.865920  	0.059098 
1197.794736  	0.063284 
1199.723552  	0.067943 
1201.652368  	0.072814 
1203.581184  	0.077961 
1205.510000  	0.082914 
1207.438816  	0.087802 
1209.367632  	0.092375 
1211.296448  	0.096380 
1213.225264  	0.099795 
1215.154080  	0.102724 
1217.082896  	0.104832 
1219.011712  	0.106255 
1220.940528  	0.107479 
1222.869344  	0.108331 
1224.798160  	0.108625 
1226.726976  	0.108507 
1228.655792  	0.108298 
1230.584608  	0.108043 
1232.513424  	0.107416 
1234.442240  	0.106357 
1236.371056  	0.105061 
1238.299872  	0.102945 
1240.228688  	0.098540 
1242.157504  	0.094215 
1244.086320  	0.091138 
1246.015136  	0.086726 
1247.943952  	0.081485 
1249.872768  	0.076270 
1251.801584  	0.071894 
1253.730400  	0.067528 
1255.659216  	0.063171 
1257.588032  	0.059072 
1259.516848  	0.055146 
1261.445664  	0.051483 
1263.374480  	0.048110 
1265.303296  	0.045344 
1267.232112  	0.043164 
1269.160928  	0.041551 
1271.089744  	0.040212 
1273.018560  	0.039414 
1274.947376  	0.039264 
1276.876192  	0.039386 
1278.805008  	0.039248 
1280.733824  	0.038538 
1282.662640  	0.037385 
1284.591456  	0.035992 
1286.520272  	0.034654 
1288.449088  	0.033745 
1290.377904  	0.033270 
1292.306720  	0.033318 
1294.235536  	0.033361 
1296.164352  	0.032854 
1298.093168  	0.031473 
1300.021984  	0.029697 
1301.950800  	0.027787 
1303.879616  	0.026022 
1305.808432  	0.023999 
1307.737248  	0.022038 
1309.666064  	0.020176 
1311.594880  	0.018757 
1313.523696  	0.017548 
1315.452512  	0.016824 
1317.381328  	0.016369 
1319.310144  	0.016096 
1321.238960  	0.016057 
1323.167776  	0.016428 
1325.096592  	0.016971 
1327.025408  	0.017433 
1328.954224  	0.017376 
1330.883040  	0.017063 
1332.811856  	0.016543 
1334.740672  	0.016256 
1336.669488  	0.016180 
1338.598304  	0.016175 
1340.527120  	0.015091 
1342.455936  	0.014124 
1344.384752  	0.013811 
1346.313568  	0.013895 
1348.242384  	0.014163 
1350.171200  	0.014848 
1352.100016  	0.015741 
1354.028832  	0.016835 
1355.957648  	0.017650 
1357.886464  	0.018800 
1359.815280  	0.020265 
1361.744096  	0.021459 
1363.672912  	0.021523 
1365.601728  	0.022072 
1367.530544  	0.022878 
1369.459360  	0.022829 
1371.388176  	0.022673 
1373.316992  	0.021771 
1375.245808  	0.019149 
1377.174624  	0.017475 
1379.103440  	0.015510 
1381.032256  	0.013511 
1382.961072  	0.012088 
1384.889888  	0.012014 
1386.818704  	0.011761 
1388.747520  	0.010478 
1390.676336  	0.009029 
1392.605152  	0.006617 
1394.533968  	0.004855 
1396.462784  	0.007349 
1398.391600  	0.008528 
1400.320416  	0.007431 
1402.249232  	0.007554 
1404.178048  	0.007607 
1406.106864  	0.007497 
1408.035680  	0.008841 
1409.964496  	0.010709 
1411.893312  	0.012650 
1413.822128  	0.014900 
1415.750944  	0.017861 
1417.679760  	0.019923 
1419.608576  	0.019172 
1421.537392  	0.019768 
1423.466208  	0.020521 
1425.395024  	0.019400 
1427.323840  	0.019153 
1429.252656  	0.017808 
1431.181472  	0.016633 
1433.110288  	0.016795 
1435.039104  	0.017668 
1436.967920  	0.016035 
1438.896736  	0.016152 
1440.825552  	0.017371 
1442.754368  	0.017868 
1444.683184  	0.018112 
1446.612000  	0.018065 
1448.540816  	0.016620 
1450.469632  	0.016856 
1452.398448  	0.017780 
1454.327264  	0.019270 
1456.256080  	0.019207 
1458.184896  	0.015732 
1460.113712  	0.016929 
1462.042528  	0.018874 
1463.971344  	0.018784 
1465.900160  	0.018124 
1467.828976  	0.020132 
1469.757792  	0.022920 
1471.686608  	0.024676 
1473.615424  	0.026623 
1475.544240  	0.030511 
1477.473056  	0.033647 
1479.401872  	0.036361 
1481.330688  	0.038457 
1483.259504  	0.039930 
1485.188320  	0.041479 
1487.117136  	0.041851 
1489.045952  	0.041420 
1490.974768  	0.038848 
1492.903584  	0.038253 
1494.832400  	0.037373 
1496.761216  	0.033078 
1498.690032  	0.028942 
1500.618848  	0.026742 
1502.547664  	0.025438 
1504.476480  	0.024349 
1506.405296  	0.019587 
1508.334112  	0.015707 
1510.262928  	0.016777 
1512.191744  	0.016209 
1514.120560  	0.016161 
1516.049376  	0.015901 
1517.978192  	0.014667 
1519.907008  	0.016310 
1521.835824  	0.015292 
1523.764640  	0.017784 
1525.693456  	0.020622 
1527.622272  	0.021465 
1529.551088  	0.022356 
1531.479904  	0.023229 
1533.408720  	0.020272 
1535.337536  	0.018169 
1537.266352  	0.018982 
1539.195168  	0.014723 
1541.123984  	0.008337 
1543.052800  	0.009838 
1544.981616  	0.010012 
1546.910432  	0.010115 
1548.839248  	0.011041 
1550.768064  	0.010593 
1552.696880  	0.010901 
1554.625696  	0.011040 
1556.554512  	0.012206 
1558.483328  	0.010188 
1560.412144  	0.008440 
1562.340960  	0.014392 
1564.269776  	0.017395 
1566.198592  	0.020431 
1568.127408  	0.023228 
1570.056224  	0.024736 
1571.985040  	0.028937 
1573.913856  	0.032910 
1575.842672  	0.032705 
1577.771488  	0.033190 
1579.700304  	0.035300 
1581.629120  	0.035531 
1583.557936  	0.035188 
1585.486752  	0.035562 
1587.415568  	0.036708 
1589.344384  	0.038972 
1591.273200  	0.042139 
1593.202016  	0.046060 
1595.130832  	0.050196 
1597.059648  	0.054679 
1598.988464  	0.058710 
1600.917280  	0.062347 
1602.846096  	0.064842 
1604.774912  	0.066477 
1606.703728  	0.066881 
1608.632544  	0.066451 
1610.561360  	0.065488 
1612.490176  	0.065056 
1614.418992  	0.064472 
1616.347808  	0.061922 
1618.276624  	0.061385 
1620.205440  	0.064922 
1622.134256  	0.066753 
1624.063072  	0.068807 
1625.991888  	0.073003 
1627.920704  	0.077592 
1629.849520  	0.083141 
1631.778336  	0.089457 
1633.707152  	0.094128 
1635.635968  	0.097989 
1637.564784  	0.103895 
1639.493600  	0.110146 
1641.422416  	0.114562 
1643.351232  	0.118554 
1645.280048  	0.120158 
1647.208864  	0.119994 
1649.137680  	0.122245 
1651.066496  	0.124903 
1652.995312  	0.120134 
1654.924128  	0.119351 
1656.852944  	0.121802 
1658.781760  	0.121854 
1660.710576  	0.120501 
1662.639392  	0.117394 
1664.568208  	0.115119 
1666.497024  	0.114948 
1668.425840  	0.111878 
1670.354656  	0.106716 
1672.283472  	0.105309 
1674.212288  	0.104202 
1676.141104  	0.100317 
1678.069920  	0.100478 
1679.998736  	0.100454 
1681.927552  	0.100273 
1683.856368  	0.096371 
1685.785184  	0.094590 
1687.714000  	0.097414 
1689.642816  	0.097637 
1691.571632  	0.097109 
1693.500448  	0.097740 
1695.429264  	0.095227 
1697.358080  	0.092884 
1699.286896  	0.092042 
1701.215712  	0.087093 
1703.144528  	0.088375 
1705.073344  	0.086466 
1707.002160  	0.082438 
1708.930976  	0.080637 
1710.859792  	0.077223 
1712.788608  	0.073281 
1714.717424  	0.067832 
1716.646240  	0.060093 
1718.575056  	0.049237 
1720.503872  	0.044319 
1722.432688  	0.040288 
1724.361504  	0.033697 
1726.290320  	0.028399 
1728.219136  	0.024185 
1730.147952  	0.020177 
1732.076768  	0.017495 
1734.005584  	0.011578 
1735.934400  	0.006990 
1737.863216  	0.008316 
1739.792032  	0.005470 
1741.720848  	0.004566 
1743.649664  	0.004411 
1745.578480  	0.004101 
1747.507296  	0.003150 
1749.436112  	0.002090 
1751.364928  	0.000581 
1753.293744  	0.000385 
1755.222560  	0.001042 
1757.151376  	0.000082 
1759.080192  	-0.000103 
1761.009008  	-0.000359 
1762.937824  	-0.002140 
1764.866640  	-0.001301 
1766.795456  	-0.000445 
1768.724272  	-0.000985 
1770.653088  	-0.001805 
1772.581904  	-0.004703 
1774.510720  	-0.004508 
1776.439536  	-0.003027 
1778.368352  	-0.002500 
1780.297168  	-0.002847 
1782.225984  	-0.003367 
1784.154800  	-0.002861 
1786.083616  	-0.003495 
1788.012432  	-0.002811 
1789.941248  	-0.002048 
1791.870064  	-0.003513 
1793.798880  	-0.005274 
1795.727696  	-0.003795 
1797.656512  	-0.003635 
1799.585328  	-0.003740 
1801.514144  	-0.004093 
1803.442960  	-0.004042 
1805.371776  	-0.004097 
1807.300592  	-0.003647 
1809.229408  	-0.003972 
1811.158224  	-0.004548 
1813.087040  	-0.004812 
1815.015856  	-0.004210 
1816.944672  	-0.004201 
1818.873488  	-0.004225 
1820.802304  	-0.004210 
1822.731120  	-0.003442 
1824.659936  	-0.004154 
1826.588752  	-0.004671 
1828.517568  	-0.004770 
1830.446384  	-0.005953 
1832.375200  	-0.005623 
1834.304016  	-0.004776 
1836.232832  	-0.004869 
1838.161648  	-0.004811 
1840.090464  	-0.004884 
1842.019280  	-0.003802 
1843.948096  	-0.004979 
1845.876912  	-0.005787 
1847.805728  	-0.005233 
1849.734544  	-0.005350 
1851.663360  	-0.005302 
1853.592176  	-0.005113 
1855.520992  	-0.005078 
1857.449808  	-0.005025 
1859.378624  	-0.005193 
1861.307440  	-0.005326 
1863.236256  	-0.005589 
1865.165072  	-0.004920 
1867.093888  	-0.004633 
1869.022704  	-0.005562 
1870.951520  	-0.006088 
1872.880336  	-0.005220 
1874.809152  	-0.005218 
1876.737968  	-0.005358 
1878.666784  	-0.005797 
1880.595600  	-0.005460 
1882.524416  	-0.005542 
1884.453232  	-0.005385 
1886.382048  	-0.005550 
1888.310864  	-0.005380 
1890.239680  	-0.005947 
1892.168496  	-0.005597 
1894.097312  	-0.005539 
1896.026128  	-0.005814 
1897.954944  	-0.005943 
1899.883760  	-0.005517 
1901.812576  	-0.005576 
1903.741392  	-0.005986 
1905.670208  	-0.005980 
1907.599024  	-0.005439 
1909.527840  	-0.005655 
1911.456656  	-0.005381 
1913.385472  	-0.005292 
1915.314288  	-0.004506 
1917.243104  	-0.004988 
1919.171920  	-0.005908 
1921.100736  	-0.005543 
1923.029552  	-0.005417 
1924.958368  	-0.006030 
1926.887184  	-0.005594 
1928.816000  	-0.005661 
1930.744816  	-0.005685 
1932.673632  	-0.005972 
1934.602448  	-0.005650 
1936.531264  	-0.005493 
1938.460080  	-0.004991 
1940.388896  	-0.004966 
1942.317712  	-0.005378 
1944.246528  	-0.005942 
1946.175344  	-0.005143 
1948.104160  	-0.005563 
1950.032976  	-0.005691 
1951.961792  	-0.005277 
1953.890608  	-0.004443 
1955.819424  	-0.004881 
1957.748240  	-0.004645 
1959.677056  	-0.004617 
1961.605872  	-0.003679 
1963.534688  	-0.004214 
1965.463504  	-0.004212 
1967.392320  	-0.004379 
1969.321136  	-0.004037 
1971.249952  	-0.004720 
1973.178768  	-0.003869 
1975.107584  	-0.004586 
1977.036400  	-0.004515 
1978.965216  	-0.003029 
1980.894032  	-0.003533 
1982.822848  	-0.005112 
1984.751664  	-0.005189 
1986.680480  	-0.005651 
1988.609296  	-0.005190 
1990.538112  	-0.004870 
1992.466928  	-0.004134 
1994.395744  	-0.004677 
1996.324560  	-0.005139 
1998.253376  	-0.006273 
2000.182192  	-0.006253 
2002.111008  	-0.005423 
2004.039824  	-0.004239 
2005.968640  	-0.005057 
2007.897456  	-0.005152 
2009.826272  	-0.005652 
2011.755088  	-0.004783 
2013.683904  	-0.005577 
2015.612720  	-0.005620 
2017.541536  	-0.005419 
2019.470352  	-0.004953 
2021.399168  	-0.006177 
2023.327984  	-0.006417 
2025.256800  	-0.005375 
2027.185616  	-0.003907 
2029.114432  	-0.003968 
2031.043248  	-0.003941 
2032.972064  	-0.004233 
2034.900880  	-0.003693 
2036.829696  	-0.004343 
2038.758512  	-0.003510 
2040.687328  	-0.004605 
2042.616144  	-0.005168 
2044.544960  	-0.005390 
2046.473776  	-0.004845 
2048.402592  	-0.004811 
2050.331408  	-0.004616 
2052.260224  	-0.006075 
2054.189040  	-0.006244 
2056.117856  	-0.005807 
2058.046672  	-0.005896 
2059.975488  	-0.006395 
2061.904304  	-0.006279 
2063.833120  	-0.006066 
2065.761936  	-0.005734 
2067.690752  	-0.006151 
2069.619568  	-0.005884 
2071.548384  	-0.005660 
2073.477200  	-0.005668 
2075.406016  	-0.005789 
2077.334832  	-0.005522 
2079.263648  	-0.005574 
2081.192464  	-0.005428 
2083.121280  	-0.005624 
2085.050096  	-0.005702 
2086.978912  	-0.005644 
2088.907728  	-0.005384 
2090.836544  	-0.005761 
2092.765360  	-0.005580 
2094.694176  	-0.005512 
2096.622992  	-0.005580 
2098.551808  	-0.005568 
2100.480624  	-0.005196 
2102.409440  	-0.005325 
2104.338256  	-0.005460 
2106.267072  	-0.005369 
2108.195888  	-0.004978 
2110.124704  	-0.005109 
2112.053520  	-0.004819 
2113.982336  	-0.004948 
2115.911152  	-0.005225 
2117.839968  	-0.005376 
2119.768784  	-0.005405 
2121.697600  	-0.005689 
2123.626416  	-0.006001 
2125.555232  	-0.006455 
2127.484048  	-0.006063 
2129.412864  	-0.005831 
2131.341680  	-0.006300 
2133.270496  	-0.006596 
2135.199312  	-0.005986 
2137.128128  	-0.005988 
2139.056944  	-0.005324 
2140.985760  	-0.005350 
2142.914576  	-0.005740 
2144.843392  	-0.005277 
2146.772208  	-0.004936 
2148.701024  	-0.006086 
2150.629840  	-0.005812 
2152.558656  	-0.006087 
2154.487472  	-0.006754 
2156.416288  	-0.007934 
2158.345104  	-0.006694 
2160.273920  	-0.003521 
2162.202736  	-0.002403 
2164.131552  	-0.003526 
2166.060368  	-0.003562 
2167.989184  	-0.002945 
2169.918000  	-0.001551 
2171.846816  	-0.002970 
2173.775632  	-0.003509 
2175.704448  	-0.003646 
2177.633264  	-0.003324 
2179.562080  	-0.003820 
2181.490896  	-0.004193 
2183.419712  	-0.005094 
2185.348528  	-0.004783 
2187.277344  	-0.004671 
2189.206160  	-0.004299 
2191.134976  	-0.004501 
2193.063792  	-0.004748 
2194.992608  	-0.004688 
2196.921424  	-0.004282 
2198.850240  	-0.004356 
2200.779056  	-0.004331 
2202.707872  	-0.004872 
2204.636688  	-0.004860 
2206.565504  	-0.004857 
2208.494320  	-0.005352 
2210.423136  	-0.006138 
2212.351952  	-0.006368 
2214.280768  	-0.006341 
2216.209584  	-0.005908 
2218.138400  	-0.006447 
2220.067216  	-0.006358 
2221.996032  	-0.005778 
2223.924848  	-0.005008 
2225.853664  	-0.004400 
2227.782480  	-0.005021 
2229.711296  	-0.006239 
2231.640112  	-0.006444 
2233.568928  	-0.006332 
2235.497744  	-0.005773 
2237.426560  	-0.006219 
2239.355376  	-0.006165 
2241.284192  	-0.006146 
2243.213008  	-0.006186 
2245.141824  	-0.006497 
2247.070640  	-0.006323 
2248.999456  	-0.006154 
2250.928272  	-0.006484 
2252.857088  	-0.006745 
2254.785904  	-0.006482 
2256.714720  	-0.006767 
2258.643536  	-0.006705 
2260.572352  	-0.006668 
2262.501168  	-0.006472 
2264.429984  	-0.006285 
2266.358800  	-0.006393 
2268.287616  	-0.006549 
2270.216432  	-0.006040 
2272.145248  	-0.006028 
2274.074064  	-0.006259 
2276.002880  	-0.006080 
2277.931696  	-0.005837 
2279.860512  	-0.005936 
2281.789328  	-0.006077 
2283.718144  	-0.006163 
2285.646960  	-0.005808 
2287.575776  	-0.005548 
2289.504592  	-0.005515 
2291.433408  	-0.005763 
2293.362224  	-0.005515 
2295.291040  	-0.005143 
2297.219856  	-0.004724 
2299.148672  	-0.004558 
2301.077488  	-0.004278 
2303.006304  	-0.003996 
2304.935120  	-0.003546 
2306.863936  	-0.003023 
2308.792752  	-0.002635 
2310.721568  	-0.002410 
2312.650384  	-0.002335 
2314.579200  	-0.002738 
2316.508016  	-0.002939 
2318.436832  	-0.002586 
2320.365648  	-0.002575 
2322.294464  	-0.003153 
2324.223280  	-0.003799 
2326.152096  	-0.004585 
2328.080912  	-0.005038 
2330.009728  	-0.005742 
2331.938544  	-0.006641 
2333.867360  	-0.007336 
2335.796176  	-0.007862 
2337.724992  	-0.008459 
2339.653808  	-0.008368 
2341.582624  	-0.008563 
2343.511440  	-0.008600 
2345.440256  	-0.008560 
2347.369072  	-0.006944 
2349.297888  	-0.004139 
2351.226704  	-0.003543 
2353.155520  	-0.005361 
2355.084336  	-0.006573 
2357.013152  	-0.007591 
2358.941968  	-0.008607 
2360.870784  	-0.009767 
2362.799600  	-0.009646 
2364.728416  	-0.010007 
2366.657232  	-0.009433 
2368.586048  	-0.008231 
2370.514864  	-0.007589 
2372.443680  	-0.007314 
2374.372496  	-0.006395 
2376.301312  	-0.005490 
2378.230128  	-0.005089 
2380.158944  	-0.005367 
2382.087760  	-0.005761 
2384.016576  	-0.006167 
2385.945392  	-0.006604 
2387.874208  	-0.006898 
2389.803024  	-0.006912 
2391.731840  	-0.007135 
2393.660656  	-0.007205 
2395.589472  	-0.007132 
2397.518288  	-0.007102 
2399.447104  	-0.007338 
2401.375920  	-0.007442 
2403.304736  	-0.007597 
2405.233552  	-0.007477 
2407.162368  	-0.007424 
2409.091184  	-0.007341 
2411.020000  	-0.007314 
2412.948816  	-0.007400 
2414.877632  	-0.007381 
2416.806448  	-0.007220 
2418.735264  	-0.007166 
2420.664080  	-0.007177 
2422.592896  	-0.007163 
2424.521712  	-0.007107 
2426.450528  	-0.007384 
2428.379344  	-0.007333 
2430.308160  	-0.007141 
2432.236976  	-0.007067 
2434.165792  	-0.007215 
2436.094608  	-0.007286 
2438.023424  	-0.007053 
2439.952240  	-0.006718 
2441.881056  	-0.006799 
2443.809872  	-0.007068 
2445.738688  	-0.007023 
2447.667504  	-0.006724 
2449.596320  	-0.006661 
2451.525136  	-0.006519 
2453.453952  	-0.006526 
2455.382768  	-0.006589 
2457.311584  	-0.006627 
2459.240400  	-0.006751 
2461.169216  	-0.006875 
2463.098032  	-0.006891 
2465.026848  	-0.006804 
2466.955664  	-0.006766 
2468.884480  	-0.006969 
2470.813296  	-0.007251 
2472.742112  	-0.007228 
2474.670928  	-0.007136 
2476.599744  	-0.007075 
2478.528560  	-0.006784 
2480.457376  	-0.006891 
2482.386192  	-0.007185 
2484.315008  	-0.006989 
2486.243824  	-0.006817 
2488.172640  	-0.006803 
2490.101456  	-0.006584 
2492.030272  	-0.006591 
2493.959088  	-0.006673 
2495.887904  	-0.006673 
2497.816720  	-0.006587 
2499.745536  	-0.006592 
2501.674352  	-0.006510 
2503.603168  	-0.006297 
2505.531984  	-0.006243 
2507.460800  	-0.006504 
2509.389616  	-0.006548 
2511.318432  	-0.006431 
2513.247248  	-0.006353 
2515.176064  	-0.006343 
2517.104880  	-0.006240 
2519.033696  	-0.006440 
2520.962512  	-0.006405 
2522.891328  	-0.006263 
2524.820144  	-0.006229 
2526.748960  	-0.006110 
2528.677776  	-0.005955 
2530.606592  	-0.006187 
2532.535408  	-0.006201 
2534.464224  	-0.006256 
2536.393040  	-0.006280 
2538.321856  	-0.006139 
2540.250672  	-0.005966 
2542.179488  	-0.005883 
2544.108304  	-0.005838 
2546.037120  	-0.005856 
2547.965936  	-0.006058 
2549.894752  	-0.006026 
2551.823568  	-0.005821 
2553.752384  	-0.005747 
2555.681200  	-0.005561 
2557.610016  	-0.005652 
2559.538832  	-0.005634 
2561.467648  	-0.005379 
2563.396464  	-0.005212 
2565.325280  	-0.005167 
2567.254096  	-0.005246 
2569.182912  	-0.005444 
2571.111728  	-0.005442 
2573.040544  	-0.005457 
2574.969360  	-0.005338 
2576.898176  	-0.005009 
2578.826992  	-0.004961 
2580.755808  	-0.005064 
2582.684624  	-0.005056 
2584.613440  	-0.005030 
2586.542256  	-0.004872 
2588.471072  	-0.004731 
2590.399888  	-0.004700 
2592.328704  	-0.004890 
2594.257520  	-0.005065 
2596.186336  	-0.004890 
2598.115152  	-0.004607 
2600.043968  	-0.004618 
2601.972784  	-0.004526 
2603.901600  	-0.004549 
2605.830416  	-0.004572 
2607.759232  	-0.004388 
2609.688048  	-0.004335 
2611.616864  	-0.004361 
2613.545680  	-0.004279 
2615.474496  	-0.004195 
2617.403312  	-0.003982 
2619.332128  	-0.003871 
2621.260944  	-0.003832 
2623.189760  	-0.003823 
2625.118576  	-0.003827 
2627.047392  	-0.003873 
2628.976208  	-0.003802 
2630.905024  	-0.003727 
2632.833840  	-0.003613 
2634.762656  	-0.003544 
2636.691472  	-0.003648 
2638.620288  	-0.003578 
2640.549104  	-0.003412 
2642.477920  	-0.003435 
2644.406736  	-0.003336 
2646.335552  	-0.003175 
2648.264368  	-0.003106 
2650.193184  	-0.003093 
2652.122000  	-0.003021 
2654.050816  	-0.002930 
2655.979632  	-0.002821 
2657.908448  	-0.002792 
2659.837264  	-0.002751 
2661.766080  	-0.002695 
2663.694896  	-0.002638 
2665.623712  	-0.002629 
2667.552528  	-0.002517 
2669.481344  	-0.002342 
2671.410160  	-0.002258 
2673.338976  	-0.002243 
2675.267792  	-0.002167 
2677.196608  	-0.002079 
2679.125424  	-0.002091 
2681.054240  	-0.002108 
2682.983056  	-0.001964 
2684.911872  	-0.001919 
2686.840688  	-0.001863 
2688.769504  	-0.001760 
2690.698320  	-0.001737 
2692.627136  	-0.001756 
2694.555952  	-0.001698 
2696.484768  	-0.001644 
2698.413584  	-0.001652 
2700.342400  	-0.001629 
2702.271216  	-0.001550 
2704.200032  	-0.001401 
2706.128848  	-0.001289 
2708.057664  	-0.001297 
2709.986480  	-0.001238 
2711.915296  	-0.001142 
2713.844112  	-0.001074 
2715.772928  	-0.001070 
2717.701744  	-0.000971 
2719.630560  	-0.000840 
2721.559376  	-0.000792 
2723.488192  	-0.000667 
2725.417008  	-0.000533 
2727.345824  	-0.000517 
2729.274640  	-0.000530 
2731.203456  	-0.000493 
2733.132272  	-0.000353 
2735.061088  	-0.000296 
2736.989904  	-0.000277 
2738.918720  	-0.000204 
2740.847536  	-0.000113 
2742.776352  	-0.000186 
2744.705168  	-0.000186 
2746.633984  	-0.000102 
2748.562800  	-0.000007 
2750.491616  	0.000080 
2752.420432  	0.000170 
2754.349248  	0.000116 
2756.278064  	0.000002 
2758.206880  	-0.000107 
2760.135696  	-0.000045 
2762.064512  	0.000049 
2763.993328  	0.000035 
2765.922144  	-0.000009 
2767.850960  	0.000087 
2769.779776  	0.000174 
2771.708592  	0.000107 
2773.637408  	-0.000038 
2775.566224  	-0.000021 
2777.495040  	-0.000110 
2779.423856  	-0.000086 
2781.352672  	-0.000032 
2783.281488  	-0.000137 
2785.210304  	-0.000151 
2787.139120  	-0.000090 
2789.067936  	-0.000082 
2790.996752  	-0.000149 
2792.925568  	-0.000189 
2794.854384  	-0.000250 
2796.783200  	-0.000294 
2798.712016  	-0.000288 
2800.640832  	-0.000300 
2802.569648  	-0.000253 
2804.498464  	-0.000193 
2806.427280  	-0.000287 
2808.356096  	-0.000296 
2810.284912  	-0.000250 
2812.213728  	-0.000258 
2814.142544  	-0.000330 
2816.071360  	-0.000385 
2818.000176  	-0.000562 
2819.928992  	-0.000723 
2821.857808  	-0.000794 
2823.786624  	-0.000864 
2825.715440  	-0.000905 
2827.644256  	-0.001041 
2829.573072  	-0.001149 
2831.501888  	-0.001339 
2833.430704  	-0.001644 
2835.359520  	-0.001981 
2837.288336  	-0.002280 
2839.217152  	-0.002552 
2841.145968  	-0.002850 
2843.074784  	-0.003230 
2845.003600  	-0.003654 
2846.932416  	-0.004057 
2848.861232  	-0.004434 
2850.790048  	-0.004878 
2852.718864  	-0.005301 
2854.647680  	-0.005734 
2856.576496  	-0.006351 
2858.505312  	-0.007050 
2860.434128  	-0.007670 
2862.362944  	-0.008405 
2864.291760  	-0.009310 
2866.220576  	-0.009950 
2868.149392  	-0.010346 
2870.078208  	-0.010702 
2872.007024  	-0.010858 
2873.935840  	-0.010914 
2875.864656  	-0.011092 
2877.793472  	-0.011436 
2879.722288  	-0.011846 
2881.651104  	-0.012395 
2883.579920  	-0.012799 
2885.508736  	-0.012830 
2887.437552  	-0.012657 
2889.366368  	-0.012673 
2891.295184  	-0.012986 
2893.224000  	-0.013206 
2895.152816  	-0.013246 
2897.081632  	-0.013640 
2899.010448  	-0.015341 
2900.939264  	-0.016823 
2902.868080  	-0.015586 
2904.796896  	-0.014357 
2906.725712  	-0.013956 
2908.654528  	-0.013474 
2910.583344  	-0.013256 
2912.512160  	-0.012770 
2914.440976  	-0.011759 
2916.369792  	-0.011102 
2918.298608  	-0.010703 
2920.227424  	-0.010395 
2922.156240  	-0.009903 
2924.085056  	-0.009263 
2926.013872  	-0.008551 
2927.942688  	-0.007829 
2929.871504  	-0.007211 
2931.800320  	-0.006629 
2933.729136  	-0.006102 
2935.657952  	-0.005692 
2937.586768  	-0.005186 
2939.515584  	-0.004799 
2941.444400  	-0.004769 
2943.373216  	-0.004958 
2945.302032  	-0.004721 
2947.230848  	-0.004441 
2949.159664  	-0.004718 
2951.088480  	-0.005239 
2953.017296  	-0.005796 
2954.946112  	-0.006495 
2956.874928  	-0.007248 
2958.803744  	-0.008003 
2960.732560  	-0.008513 
2962.661376  	-0.009035 
2964.590192  	-0.009891 
2966.519008  	-0.011058 
2968.447824  	-0.012131 
2970.376640  	-0.012927 
2972.305456  	-0.013361 
2974.234272  	-0.013136 
2976.163088  	-0.012727 
2978.091904  	-0.012619 
2980.020720  	-0.012623 
2981.949536  	-0.012363 
2983.878352  	-0.012561 
2985.807168  	-0.013538 
2987.735984  	-0.014484 
2989.664800  	-0.014154 
2991.593616  	-0.011225 
2993.522432  	-0.009234 
2995.451248  	-0.008664 
2997.380064  	-0.007867 
2999.308880  	-0.006632 
3001.237696  	-0.005339 
3003.166512  	-0.004058 
3005.095328  	-0.002746 
3007.024144  	-0.001465 
3008.952960  	-0.000124 
3010.881776  	0.001286 
3012.810592  	0.002599 
3014.739408  	0.003735 
3016.668224  	0.004839 
3018.597040  	0.006015 
3020.525856  	0.007108 
3022.454672  	0.008117 
3024.383488  	0.009063 
3026.312304  	0.009848 
3028.241120  	0.010644 
3030.169936  	0.011522 
3032.098752  	0.012257 
3034.027568  	0.012920 
3035.956384  	0.013645 
3037.885200  	0.014362 
3039.814016  	0.014841 
3041.742832  	0.015339 
3043.671648  	0.015695 
3045.600464  	0.016072 
3047.529280  	0.016487 
3049.458096  	0.016992 
3051.386912  	0.017539 
3053.315728  	0.017886 
3055.244544  	0.018252 
3057.173360  	0.018551 
3059.102176  	0.018830 
3061.030992  	0.019315 
3062.959808  	0.019890 
3064.888624  	0.020418 
3066.817440  	0.020908 
3068.746256  	0.021500 
3070.675072  	0.022005 
3072.603888  	0.022344 
3074.532704  	0.022906 
3076.461520  	0.023497 
3078.390336  	0.023857 
3080.319152  	0.024066 
3082.247968  	0.024556 
3084.176784  	0.025144 
3086.105600  	0.025725 
3088.034416  	0.026280 
3089.963232  	0.026708 
3091.892048  	0.026972 
3093.820864  	0.027412 
3095.749680  	0.027885 
3097.678496  	0.028634 
3099.607312  	0.029324 
3101.536128  	0.029891 
3103.464944  	0.030550 
3105.393760  	0.030862 
3107.322576  	0.031259 
3109.251392  	0.031901 
3111.180208  	0.032429 
3113.109024  	0.032963 
3115.037840  	0.033484 
3116.966656  	0.034006 
3118.895472  	0.034376 
3120.824288  	0.034767 
3122.753104  	0.035303 
3124.681920  	0.035703 
3126.610736  	0.035979 
3128.539552  	0.036473 
3130.468368  	0.037125 
3132.397184  	0.037581 
3134.326000  	0.038025 
3136.254816  	0.038382 
3138.183632  	0.038798 
3140.112448  	0.039193 
3142.041264  	0.039562 
3143.970080  	0.039962 
3145.898896  	0.040544 
3147.827712  	0.041147 
3149.756528  	0.041569 
3151.685344  	0.041829 
3153.614160  	0.042398 
3155.542976  	0.042958 
3157.471792  	0.043449 
3159.400608  	0.043935 
3161.329424  	0.044390 
3163.258240  	0.044783 
3165.187056  	0.045123 
3167.115872  	0.045478 
3169.044688  	0.045790 
3170.973504  	0.046168 
3172.902320  	0.046546 
3174.831136  	0.046892 
3176.759952  	0.047396 
3178.688768  	0.047728 
3180.617584  	0.047997 
3182.546400  	0.048304 
3184.475216  	0.048621 
3186.404032  	0.048737 
3188.332848  	0.048942 
3190.261664  	0.049264 
3192.190480  	0.049457 
3194.119296  	0.049460 
3196.048112  	0.049549 
3197.976928  	0.049543 
3199.905744  	0.049671 
3201.834560  	0.049795 
3203.763376  	0.049942 
3205.692192  	0.050047 
3207.621008  	0.049915 
3209.549824  	0.049849 
3211.478640  	0.049941 
3213.407456  	0.049987 
3215.336272  	0.049930 
3217.265088  	0.049937 
3219.193904  	0.049924 
3221.122720  	0.049799 
3223.051536  	0.049649 
3224.980352  	0.049542 
3226.909168  	0.049510 
3228.837984  	0.049413 
3230.766800  	0.049357 
3232.695616  	0.049382 
3234.624432  	0.049285 
3236.553248  	0.049215 
3238.482064  	0.049335 
3240.410880  	0.049457 
3242.339696  	0.049664 
3244.268512  	0.049514 
3246.197328  	0.049424 
3248.126144  	0.049604 
3250.054960  	0.049838 
3251.983776  	0.050069 
3253.912592  	0.050105 
3255.841408  	0.050193 
3257.770224  	0.050510 
3259.699040  	0.050716 
3261.627856  	0.050938 
3263.556672  	0.051244 
3265.485488  	0.051281 
3267.414304  	0.051380 
3269.343120  	0.051841 
3271.271936  	0.052174 
3273.200752  	0.052062 
3275.129568  	0.052073 
3277.058384  	0.052329 
3278.987200  	0.052499 
3280.916016  	0.052732 
3282.844832  	0.052897 
3284.773648  	0.053057 
3286.702464  	0.053379 
3288.631280  	0.053630 
3290.560096  	0.053918 
3292.488912  	0.054255 
3294.417728  	0.054506 
3296.346544  	0.054784 
3298.275360  	0.054916 
3300.204176  	0.055176 
3302.132992  	0.055560 
3304.061808  	0.055765 
3305.990624  	0.056011 
3307.919440  	0.056347 
3309.848256  	0.056719 
3311.777072  	0.057112 
3313.705888  	0.057321 
3315.634704  	0.057703 
3317.563520  	0.058105 
3319.492336  	0.058234 
3321.421152  	0.058353 
3323.349968  	0.058593 
3325.278784  	0.058876 
3327.207600  	0.059135 
3329.136416  	0.059197 
3331.065232  	0.059503 
3332.994048  	0.059681 
3334.922864  	0.059711 
3336.851680  	0.059728 
3338.780496  	0.059722 
3340.709312  	0.059790 
3342.638128  	0.059915 
3344.566944  	0.059819 
3346.495760  	0.059862 
3348.424576  	0.059835 
3350.353392  	0.059624 
3352.282208  	0.059427 
3354.211024  	0.059303 
3356.139840  	0.059246 
3358.068656  	0.059170 
3359.997472  	0.058950 
3361.926288  	0.058646 
3363.855104  	0.058399 
3365.783920  	0.058162 
3367.712736  	0.057948 
3369.641552  	0.057799 
3371.570368  	0.057579 
3373.499184  	0.057411 
3375.428000  	0.057193 
3377.356816  	0.057048 
3379.285632  	0.056896 
3381.214448  	0.056603 
3383.143264  	0.056340 
3385.072080  	0.055976 
3387.000896  	0.055628 
3388.929712  	0.055533 
3390.858528  	0.055354 
3392.787344  	0.054887 
3394.716160  	0.054709 
3396.644976  	0.054622 
3398.573792  	0.054356 
3400.502608  	0.054230 
3402.431424  	0.053957 
3404.360240  	0.053394 
3406.289056  	0.052906 
3408.217872  	0.052718 
3410.146688  	0.052545 
3412.075504  	0.052402 
3414.004320  	0.052128 
3415.933136  	0.051755 
3417.861952  	0.051268 
3419.790768  	0.050890 
3421.719584  	0.050726 
3423.648400  	0.050596 
3425.577216  	0.050180 
3427.506032  	0.049817 
3429.434848  	0.049356 
3431.363664  	0.048934 
3433.292480  	0.048530 
3435.221296  	0.048117 
3437.150112  	0.047726 
3439.078928  	0.047364 
3441.007744  	0.046962 
3442.936560  	0.046555 
3444.865376  	0.046453 
3446.794192  	0.045772 
3448.723008  	0.044825 
3450.651824  	0.044688 
3452.580640  	0.044411 
3454.509456  	0.044028 
3456.438272  	0.043572 
3458.367088  	0.043271 
3460.295904  	0.042863 
3462.224720  	0.042191 
3464.153536  	0.041617 
3466.082352  	0.041082 
3468.011168  	0.040429 
3469.939984  	0.039936 
3471.868800  	0.039499 
3473.797616  	0.038916 
3475.726432  	0.038177 
3477.655248  	0.037799 
3479.584064  	0.037722 
3481.512880  	0.037069 
3483.441696  	0.036140 
3485.370512  	0.035736 
3487.299328  	0.034933 
3489.228144  	0.034148 
3491.156960  	0.033515 
3493.085776  	0.033002 
3495.014592  	0.032502 
3496.943408  	0.031950 
3498.872224  	0.031612 
3500.801040  	0.031507 
3502.729856  	0.030804 
3504.658672  	0.029739 
3506.587488  	0.029718 
3508.516304  	0.029588 
3510.445120  	0.028573 
3512.373936  	0.027890 
3514.302752  	0.027447 
3516.231568  	0.027434 
3518.160384  	0.027203 
3520.089200  	0.026626 
3522.018016  	0.026377 
3523.946832  	0.025910 
3525.875648  	0.025395 
3527.804464  	0.024444 
3529.733280  	0.023557 
3531.662096  	0.023203 
3533.590912  	0.023064 
3535.519728  	0.022971 
3537.448544  	0.022294 
3539.377360  	0.021816 
3541.306176  	0.021756 
3543.234992  	0.021889 
3545.163808  	0.021453 
3547.092624  	0.020277 
3549.021440  	0.019536 
3550.950256  	0.019347 
3552.879072  	0.018235 
3554.807888  	0.017739 
3556.736704  	0.017746 
3558.665520  	0.017629 
3560.594336  	0.017321 
3562.523152  	0.017027 
3564.451968  	0.017422 
3566.380784  	0.016451 
3568.309600  	0.013302 
3570.238416  	0.013356 
3572.167232  	0.014095 
3574.096048  	0.013571 
3576.024864  	0.012784 
3577.953680  	0.012499 
3579.882496  	0.011943 
3581.811312  	0.011612 
3583.740128  	0.011912 
3585.668944  	0.012385 
3587.597760  	0.009742 
3589.526576  	0.007958 
3591.455392  	0.009192 
3593.384208  	0.009172 
3595.313024  	0.007764 
3597.241840  	0.006859 
3599.170656  	0.006224 
3601.099472  	0.005097 
3603.028288  	0.004880 
3604.957104  	0.005586 
3606.885920  	0.005216 
3608.814736  	0.003058 
3610.743552  	0.003090 
3612.672368  	0.002571 
3614.601184  	0.000934 
3616.530000  	0.001924 
3618.458816  	0.000163 
3620.387632  	-0.002769 
3622.316448  	-0.002031 
3624.245264  	-0.000764 
3626.174080  	0.000434 
3628.102896  	-0.001913 
3630.031712  	-0.008500 
3631.960528  	-0.005944 
3633.889344  	-0.005671 
3635.818160  	-0.006517 
3637.746976  	-0.006893 
3639.675792  	-0.007108 
3641.604608  	-0.007027 
3643.533424  	-0.006818 
3645.462240  	-0.005912 
3647.391056  	-0.008408 
3649.319872  	-0.014674 
3651.248688  	-0.017983 
3653.177504  	-0.013693 
3655.106320  	-0.012328 
3657.035136  	-0.016280 
3658.963952  	-0.015976 
3660.892768  	-0.015230 
3662.821584  	-0.015310 
3664.750400  	-0.015051 
3666.679216  	-0.013985 
3668.608032  	-0.015120 
3670.536848  	-0.019841 
3672.465664  	-0.016997 
3674.394480  	-0.016159 
3676.323296  	-0.024144 
3678.252112  	-0.020410 
3680.180928  	-0.018228 
3682.109744  	-0.017325 
3684.038560  	-0.016677 
3685.967376  	-0.015112 
3687.896192  	-0.016687 
3689.825008  	-0.021327 
3691.753824  	-0.021161 
3693.682640  	-0.018434 
3695.611456  	-0.016598 
3697.540272  	-0.015717 
3699.469088  	-0.014402 
3701.397904  	-0.015628 
3703.326720  	-0.016295 
3705.255536  	-0.014001 
3707.184352  	-0.012445 
3709.113168  	-0.013018 
3711.041984  	-0.016180 
3712.970800  	-0.017951 
3714.899616  	-0.015176 
3716.828432  	-0.013044 
3718.757248  	-0.012938 
3720.686064  	-0.013009 
3722.614880  	-0.013745 
3724.543696  	-0.013329 
3726.472512  	-0.013894 
3728.401328  	-0.013458 
3730.330144  	-0.011774 
3732.258960  	-0.013105 
3734.187776  	-0.013958 
3736.116592  	-0.017162 
3738.045408  	-0.016879 
3739.974224  	-0.013778 
3741.903040  	-0.010752 
3743.831856  	-0.012807 
3745.760672  	-0.018096 
3747.689488  	-0.013405 
3749.618304  	-0.015024 
3751.547120  	-0.019562 
3753.475936  	-0.018804 
3755.404752  	-0.014646 
3757.333568  	-0.013493 
3759.262384  	-0.014827 
3761.191200  	-0.015504 
3763.120016  	-0.012742 
3765.048832  	-0.013141 
3766.977648  	-0.013573 
3768.906464  	-0.013589 
3770.835280  	-0.015841 
3772.764096  	-0.014548 
3774.692912  	-0.013245 
3776.621728  	-0.012396 
3778.550544  	-0.013247 
3780.479360  	-0.015620 
3782.408176  	-0.013861 
3784.336992  	-0.013723 
3786.265808  	-0.014300 
3788.194624  	-0.013807 
3790.123440  	-0.013571 
3792.052256  	-0.013404 
3793.981072  	-0.012354 
3795.909888  	-0.013329 
3797.838704  	-0.013885 
3799.767520  	-0.012354 
3801.696336  	-0.017689 
3803.625152  	-0.017091 
3805.553968  	-0.013838 
3807.482784  	-0.017201 
3809.411600  	-0.015664 
3811.340416  	-0.013326 
3813.269232  	-0.011556 
3815.198048  	-0.013225 
3817.126864  	-0.016623 
3819.055680  	-0.013268 
3820.984496  	-0.016860 
3822.913312  	-0.018407 
3824.842128  	-0.014188 
3826.770944  	-0.014564 
3828.699760  	-0.014019 
3830.628576  	-0.013288 
3832.557392  	-0.014121 
3834.486208  	-0.013494 
3836.415024  	-0.014040 
3838.343840  	-0.016485 
3840.272656  	-0.016910 
3842.201472  	-0.015444 
3844.130288  	-0.015599 
3846.059104  	-0.014430 
3847.987920  	-0.012380 
3849.916736  	-0.010858 
3851.845552  	-0.011323 
3853.774368  	-0.020533 
3855.703184  	-0.020028 
3857.632000  	-0.015763 
3859.560816  	-0.013110 
3861.489632  	-0.012423 
3863.418448  	-0.013456 
3865.347264  	-0.015282 
3867.276080  	-0.012936 
3869.204896  	-0.013363 
3871.133712  	-0.016262 
3873.062528  	-0.014418 
3874.991344  	-0.015996 
3876.920160  	-0.013495 
3878.848976  	-0.011572 
3880.777792  	-0.014164 
3882.706608  	-0.013552 
3884.635424  	-0.012610 
3886.564240  	-0.015800 
3888.493056  	-0.013479 
3890.421872  	-0.012990 
3892.350688  	-0.015767 
3894.279504  	-0.014630 
3896.208320  	-0.012222 
3898.137136  	-0.011409 
3900.065952  	-0.012729 
3901.994768  	-0.013242 
3903.923584  	-0.014932 
3905.852400  	-0.016057 
3907.781216  	-0.014638 
3909.710032  	-0.013546 
3911.638848  	-0.013293 
3913.567664  	-0.012734 
3915.496480  	-0.012175 
3917.425296  	-0.013517 
3919.354112  	-0.014266 
3921.282928  	-0.013887 
3923.211744  	-0.012836 
3925.140560  	-0.013541 
3927.069376  	-0.013333 
3928.998192  	-0.012582 
3930.927008  	-0.012682 
3932.855824  	-0.013644 
3934.784640  	-0.013990 
3936.713456  	-0.013451 
3938.642272  	-0.013048 
3940.571088  	-0.012282 
3942.499904  	-0.012958 
3944.428720  	-0.013784 
3946.357536  	-0.012855 
3948.286352  	-0.012846 
3950.215168  	-0.013513 
3952.143984  	-0.013661 
3954.072800  	-0.013506 
3956.001616  	-0.013366 
3957.930432  	-0.013476 
3959.859248  	-0.013326 
3961.788064  	-0.013458 
3963.716880  	-0.013807 
3965.645696  	-0.013738 
3967.574512  	-0.013553 
3969.503328  	-0.013476 
3971.432144  	-0.013532 
3973.360960  	-0.013493 
3975.289776  	-0.013575 
3977.218592  	-0.013649 
3979.147408  	-0.013703 
3981.076224  	-0.013666 
3983.005040  	-0.013598 
3984.933856  	-0.013558 
3986.862672  	-0.013587 
3988.791488  	-0.013401 
3990.720304  	-0.013388 
3992.649120  	-0.013544 
3994.577936  	-0.013794 
3996.506752  	-0.013827 
3998.435568  	-0.013649 
4000.364384  	-0.013475 