##TITLE=No Description
##DATA TYPE=INFRARED SPECTRUM
##XUNITS=1/CM
##YUNITS=Abs
399.264912  	0.479006 
401.193728  	0.461516 
403.122544  	0.464303 
405.051360  	0.464723 
406.980176  	0.472535 
408.908992  	0.476348 
410.837808  	0.477911 
412.766624  	0.479166 
414.695440  	0.465004 
416.624256  	0.446185 
418.553072  	0.453555 
420.481888  	0.455304 
422.410704  	0.452970 
424.339520  	0.450577 
426.268336  	0.450338 
428.197152  	0.443110 
430.125968  	0.442843 
432.054784  	0.438301 
433.983600  	0.438100 
435.912416  	0.435592 
437.841232  	0.432417 
439.770048  	0.429158 
441.698864  	0.429517 
443.627680  	0.426606 
445.556496  	0.427107 
447.485312  	0.424417 
449.414128  	0.424398 
451.342944  	0.424866 
453.271760  	0.422995 
455.200576  	0.418178 
457.129392  	0.423085 
459.058208  	0.419002 
460.987024  	0.415652 
462.915840  	0.413292 
464.844656  	0.415222 
466.773472  	0.411032 
468.702288  	0.406082 
470.631104  	0.405565 
472.559920  	0.410721 
474.488736  	0.407059 
476.417552  	0.407443 
478.346368  	0.405125 
480.275184  	0.402957 
482.204000  	0.402614 
484.132816  	0.407043 
486.061632  	0.406431 
487.990448  	0.403367 
489.919264  	0.400978 
491.848080  	0.403221 
493.776896  	0.403598 
495.705712  	0.399254 
497.634528  	0.395137 
499.563344  	0.394988 
501.492160  	0.395621 
503.420976  	0.394220 
505.349792  	0.390726 
507.278608  	0.393944 
509.207424  	0.392413 
511.136240  	0.393570 
513.065056  	0.393007 
514.993872  	0.396200 
516.922688  	0.398021 
518.851504  	0.397143 
520.780320  	0.394177 
522.709136  	0.393847 
524.637952  	0.391785 
526.566768  	0.389712 
528.495584  	0.387145 
530.424400  	0.386244 
532.353216  	0.384900 
534.282032  	0.381530 
536.210848  	0.376150 
538.139664  	0.372260 
540.068480  	0.368178 
541.997296  	0.365993 
543.926112  	0.363684 
545.854928  	0.362649 
547.783744  	0.360556 
549.712560  	0.359269 
551.641376  	0.354965 
553.570192  	0.352603 
555.499008  	0.350496 
557.427824  	0.348914 
559.356640  	0.345785 
561.285456  	0.343189 
563.214272  	0.340413 
565.143088  	0.337606 
567.071904  	0.334715 
569.000720  	0.333093 
570.929536  	0.330589 
572.858352  	0.328798 
574.787168  	0.327782 
576.715984  	0.326262 
578.644800  	0.322130 
580.573616  	0.318540 
582.502432  	0.314694 
584.431248  	0.312207 
586.360064  	0.309164 
588.288880  	0.306480 
590.217696  	0.304972 
592.146512  	0.304644 
594.075328  	0.302428 
596.004144  	0.300602 
597.932960  	0.298564 
599.861776  	0.297667 
601.790592  	0.295773 
603.719408  	0.293976 
605.648224  	0.292415 
607.577040  	0.291885 
609.505856  	0.290580 
611.434672  	0.289227 
613.363488  	0.287732 
615.292304  	0.286781 
617.221120  	0.285611 
619.149936  	0.284644 
621.078752  	0.283616 
623.007568  	0.282838 
624.936384  	0.281609 
626.865200  	0.280695 
628.794016  	0.279856 
630.722832  	0.278793 
632.651648  	0.277681 
634.580464  	0.277262 
636.509280  	0.277207 
638.438096  	0.276689 
640.366912  	0.275947 
642.295728  	0.274739 
644.224544  	0.272866 
646.153360  	0.270948 
648.082176  	0.267632 
650.010992  	0.264752 
651.939808  	0.262165 
653.868624  	0.259733 
655.797440  	0.256657 
657.726256  	0.254194 
659.655072  	0.251416 
661.583888  	0.247952 
663.512704  	0.244859 
665.441520  	0.241480 
667.370336  	0.239193 
669.299152  	0.238895 
671.227968  	0.233891 
673.156784  	0.229972 
675.085600  	0.227784 
677.014416  	0.225118 
678.943232  	0.222958 
680.872048  	0.222094 
682.800864  	0.221106 
684.729680  	0.220026 
686.658496  	0.219077 
688.587312  	0.218740 
690.516128  	0.217062 
692.444944  	0.215581 
694.373760  	0.213938 
696.302576  	0.212770 
698.231392  	0.211202 
700.160208  	0.209252 
702.089024  	0.207084 
704.017840  	0.204943 
705.946656  	0.202553 
707.875472  	0.200726 
709.804288  	0.199257 
711.733104  	0.198031 
713.661920  	0.196762 
715.590736  	0.195111 
717.519552  	0.193943 
719.448368  	0.193895 
721.377184  	0.194450 
723.306000  	0.194739 
725.234816  	0.194769 
727.163632  	0.194014 
729.092448  	0.192007 
731.021264  	0.189682 
732.950080  	0.187139 
734.878896  	0.184322 
736.807712  	0.181805 
738.736528  	0.179979 
740.665344  	0.178445 
742.594160  	0.177459 
744.522976  	0.176062 
746.451792  	0.174914 
748.380608  	0.173485 
750.309424  	0.172139 
752.238240  	0.170896 
754.167056  	0.170468 
756.095872  	0.169829 
758.024688  	0.168563 
759.953504  	0.167752 
761.882320  	0.168199 
763.811136  	0.168807 
765.739952  	0.167471 
767.668768  	0.164797 
769.597584  	0.162668 
771.526400  	0.161679 
773.455216  	0.162220 
775.384032  	0.164633 
777.312848  	0.168220 
779.241664  	0.170986 
781.170480  	0.170732 
783.099296  	0.166934 
785.028112  	0.162445 
786.956928  	0.158237 
788.885744  	0.154584 
790.814560  	0.151755 
792.743376  	0.150420 
794.672192  	0.149694 
796.601008  	0.148770 
798.529824  	0.146499 
800.458640  	0.143123 
802.387456  	0.140279 
804.316272  	0.138735 
806.245088  	0.137863 
808.173904  	0.136747 
810.102720  	0.135926 
812.031536  	0.135520 
813.960352  	0.135398 
815.889168  	0.135361 
817.817984  	0.135475 
819.746800  	0.135852 
821.675616  	0.136099 
823.604432  	0.136258 
825.533248  	0.136203 
827.462064  	0.136100 
829.390880  	0.135635 
831.319696  	0.135116 
833.248512  	0.134438 
835.177328  	0.133400 
837.106144  	0.131090 
839.034960  	0.128332 
840.963776  	0.125222 
842.892592  	0.122392 
844.821408  	0.119829 
846.750224  	0.117070 
848.679040  	0.114752 
850.607856  	0.113041 
852.536672  	0.111667 
854.465488  	0.110633 
856.394304  	0.109766 
858.323120  	0.108388 
860.251936  	0.107016 
862.180752  	0.105792 
864.109568  	0.103957 
866.038384  	0.102191 
867.967200  	0.100419 
869.896016  	0.099144 
871.824832  	0.098161 
873.753648  	0.097917 
875.682464  	0.098130 
877.611280  	0.099166 
879.540096  	0.100412 
881.468912  	0.101907 
883.397728  	0.103624 
885.326544  	0.104808 
887.255360  	0.105649 
889.184176  	0.105768 
891.112992  	0.105158 
893.041808  	0.103915 
894.970624  	0.102025 
896.899440  	0.099124 
898.828256  	0.095988 
900.757072  	0.092953 
902.685888  	0.090115 
904.614704  	0.088159 
906.543520  	0.087523 
908.472336  	0.088387 
910.401152  	0.090190 
912.329968  	0.092393 
914.258784  	0.094221 
916.187600  	0.096095 
918.116416  	0.097623 
920.045232  	0.098699 
921.974048  	0.099350 
923.902864  	0.099865 
925.831680  	0.100411 
927.760496  	0.100946 
929.689312  	0.101539 
931.618128  	0.102232 
933.546944  	0.102739 
935.475760  	0.102966 
937.404576  	0.102854 
939.333392  	0.102327 
941.262208  	0.102085 
943.191024  	0.102820 
945.119840  	0.104750 
947.048656  	0.108293 
948.977472  	0.113684 
950.906288  	0.120574 
952.835104  	0.128772 
954.763920  	0.137895 
956.692736  	0.146969 
958.621552  	0.155537 
960.550368  	0.162210 
962.479184  	0.166231 
964.408000  	0.167016 
966.336816  	0.164663 
968.265632  	0.158880 
970.194448  	0.150759 
972.123264  	0.140891 
974.052080  	0.130069 
975.980896  	0.119249 
977.909712  	0.109003 
979.838528  	0.100132 
981.767344  	0.092672 
983.696160  	0.087195 
985.624976  	0.083695 
987.553792  	0.082438 
989.482608  	0.083459 
991.411424  	0.086417 
993.340240  	0.090839 
995.269056  	0.095965 
997.197872  	0.101513 
999.126688  	0.107012 
1001.055504  	0.112776 
1002.984320  	0.118069 
1004.913136  	0.123512 
1006.841952  	0.128617 
1008.770768  	0.133375 
1010.699584  	0.137352 
1012.628400  	0.140511 
1014.557216  	0.142753 
1016.486032  	0.144102 
1018.414848  	0.144705 
1020.343664  	0.144778 
1022.272480  	0.144931 
1024.201296  	0.144880 
1026.130112  	0.144589 
1028.058928  	0.145025 
1029.987744  	0.146381 
1031.916560  	0.148145 
1033.845376  	0.150422 
1035.774192  	0.153820 
1037.703008  	0.158244 
1039.631824  	0.164682 
1041.560640  	0.172968 
1043.489456  	0.183581 
1045.418272  	0.195553 
1047.347088  	0.207856 
1049.275904  	0.217570 
1051.204720  	0.223675 
1053.133536  	0.226193 
1055.062352  	0.225923 
1056.991168  	0.224057 
1058.919984  	0.222542 
1060.848800  	0.221159 
1062.777616  	0.219723 
1064.706432  	0.217821 
1066.635248  	0.215429 
1068.564064  	0.211942 
1070.492880  	0.207665 
1072.421696  	0.203128 
1074.350512  	0.199983 
1076.279328  	0.199247 
1078.208144  	0.201663 
1080.136960  	0.205275 
1082.065776  	0.208021 
1083.994592  	0.208047 
1085.923408  	0.205402 
1087.852224  	0.199873 
1089.781040  	0.192979 
1091.709856  	0.184487 
1093.638672  	0.174805 
1095.567488  	0.164088 
1097.496304  	0.153362 
1099.425120  	0.142718 
1101.353936  	0.132365 
1103.282752  	0.122640 
1105.211568  	0.113524 
1107.140384  	0.105273 
1109.069200  	0.097622 
1110.998016  	0.090753 
1112.926832  	0.084715 
1114.855648  	0.079267 
1116.784464  	0.074102 
1118.713280  	0.068997 
1120.642096  	0.064029 
1122.570912  	0.059414 
1124.499728  	0.055116 
1126.428544  	0.051364 
1128.357360  	0.048150 
1130.286176  	0.045486 
1132.214992  	0.043318 
1134.143808  	0.041772 
1136.072624  	0.040350 
1138.001440  	0.038895 
1139.930256  	0.037603 
1141.859072  	0.036362 
1143.787888  	0.035127 
1145.716704  	0.034143 
1147.645520  	0.033244 
1149.574336  	0.032794 
1151.503152  	0.032281 
1153.431968  	0.032086 
1155.360784  	0.032183 
1157.289600  	0.032836 
1159.218416  	0.033551 
1161.147232  	0.034695 
1163.076048  	0.036227 
1165.004864  	0.037532 
1166.933680  	0.038660 
1168.862496  	0.040057 
1170.791312  	0.041772 
1172.720128  	0.043847 
1174.648944  	0.046053 
1176.577760  	0.047940 
1178.506576  	0.050227 
1180.435392  	0.052733 
1182.364208  	0.055072 
1184.293024  	0.057784 
1186.221840  	0.060988 
1188.150656  	0.064655 
1190.079472  	0.068792 
1192.008288  	0.073654 
1193.937104  	0.079015 
1195.865920  	0.085025 
1197.794736  	0.091608 
1199.723552  	0.098768 
1201.652368  	0.105712 
1203.581184  	0.112200 
1205.510000  	0.118635 
1207.438816  	0.124347 
1209.367632  	0.129478 
1211.296448  	0.133620 
1213.225264  	0.136603 
1215.154080  	0.138521 
1217.082896  	0.139697 
1219.011712  	0.139817 
1220.940528  	0.139420 
1222.869344  	0.138363 
1224.798160  	0.137042 
1226.726976  	0.134934 
1228.655792  	0.132251 
1230.584608  	0.129244 
1232.513424  	0.125692 
1234.442240  	0.121739 
1236.371056  	0.117650 
1238.299872  	0.113194 
1240.228688  	0.108035 
1242.157504  	0.102957 
1244.086320  	0.098092 
1246.015136  	0.092863 
1247.943952  	0.087837 
1249.872768  	0.083028 
1251.801584  	0.078516 
1253.730400  	0.074076 
1255.659216  	0.069656 
1257.588032  	0.065512 
1259.516848  	0.061936 
1261.445664  	0.058250 
1263.374480  	0.054685 
1265.303296  	0.051836 
1267.232112  	0.049714 
1269.160928  	0.048287 
1271.089744  	0.047374 
1273.018560  	0.046693 
1274.947376  	0.046576 
1276.876192  	0.047159 
1278.805008  	0.047606 
1280.733824  	0.047437 
1282.662640  	0.046236 
1284.591456  	0.044856 
1286.520272  	0.044018 
1288.449088  	0.043474 
1290.377904  	0.042909 
1292.306720  	0.043295 
1294.235536  	0.043813 
1296.164352  	0.043813 
1298.093168  	0.042519 
1300.021984  	0.040609 
1301.950800  	0.038565 
1303.879616  	0.036334 
1305.808432  	0.034031 
1307.737248  	0.031797 
1309.666064  	0.029348 
1311.594880  	0.028227 
1313.523696  	0.027672 
1315.452512  	0.026613 
1317.381328  	0.026651 
1319.310144  	0.026970 
1321.238960  	0.026391 
1323.167776  	0.026273 
1325.096592  	0.026614 
1327.025408  	0.026827 
1328.954224  	0.026774 
1330.883040  	0.026241 
1332.811856  	0.025224 
1334.740672  	0.024895 
1336.669488  	0.026208 
1338.598304  	0.028837 
1340.527120  	0.028069 
1342.455936  	0.024016 
1344.384752  	0.022793 
1346.313568  	0.023118 
1348.242384  	0.023897 
1350.171200  	0.024765 
1352.100016  	0.025857 
1354.028832  	0.027713 
1355.957648  	0.029452 
1357.886464  	0.030785 
1359.815280  	0.033133 
1361.744096  	0.037469 
1363.672912  	0.039202 
1365.601728  	0.037453 
1367.530544  	0.038566 
1369.459360  	0.040146 
1371.388176  	0.040354 
1373.316992  	0.042174 
1375.245808  	0.041832 
1377.174624  	0.038347 
1379.103440  	0.036074 
1381.032256  	0.033457 
1382.961072  	0.031259 
1384.889888  	0.030557 
1386.818704  	0.032190 
1388.747520  	0.030297 
1390.676336  	0.026917 
1392.605152  	0.025998 
1394.533968  	0.028279 
1396.462784  	0.029255 
1398.391600  	0.028622 
1400.320416  	0.026874 
1402.249232  	0.025070 
1404.178048  	0.026908 
1406.106864  	0.027748 
1408.035680  	0.027356 
1409.964496  	0.028788 
1411.893312  	0.030597 
1413.822128  	0.031776 
1415.750944  	0.034982 
1417.679760  	0.039471 
1419.608576  	0.040953 
1421.537392  	0.037519 
1423.466208  	0.037081 
1425.395024  	0.035322 
1427.323840  	0.032400 
1429.252656  	0.032074 
1431.181472  	0.031001 
1433.110288  	0.029642 
1435.039104  	0.030564 
1436.967920  	0.033458 
1438.896736  	0.031587 
1440.825552  	0.030389 
1442.754368  	0.030565 
1444.683184  	0.030671 
1446.612000  	0.032009 
1448.540816  	0.033231 
1450.469632  	0.032449 
1452.398448  	0.032976 
1454.327264  	0.034411 
1456.256080  	0.039841 
1458.184896  	0.042647 
1460.113712  	0.035857 
1462.042528  	0.031960 
1463.971344  	0.032707 
1465.900160  	0.034148 
1467.828976  	0.032971 
1469.757792  	0.033705 
1471.686608  	0.040249 
1473.615424  	0.048497 
1475.544240  	0.049181 
1477.473056  	0.050098 
1479.401872  	0.050526 
1481.330688  	0.053512 
1483.259504  	0.054630 
1485.188320  	0.055793 
1487.117136  	0.059115 
1489.045952  	0.063498 
1490.974768  	0.061270 
1492.903584  	0.054248 
1494.832400  	0.050975 
1496.761216  	0.050476 
1498.690032  	0.046431 
1500.618848  	0.041409 
1502.547664  	0.036768 
1504.476480  	0.034686 
1506.405296  	0.042738 
1508.334112  	0.045818 
1510.262928  	0.036764 
1512.191744  	0.031412 
1514.120560  	0.030096 
1516.049376  	0.033833 
1517.978192  	0.035314 
1519.907008  	0.035402 
1521.835824  	0.041516 
1523.764640  	0.040837 
1525.693456  	0.042398 
1527.622272  	0.043248 
1529.551088  	0.040696 
1531.479904  	0.039563 
1533.408720  	0.041404 
1535.337536  	0.037693 
1537.266352  	0.034226 
1539.195168  	0.037231 
1541.123984  	0.040520 
1543.052800  	0.037120 
1544.981616  	0.033483 
1546.910432  	0.027239 
1548.839248  	0.026744 
1550.768064  	0.028208 
1552.696880  	0.026553 
1554.625696  	0.028663 
1556.554512  	0.029065 
1558.483328  	0.036374 
1560.412144  	0.038178 
1562.340960  	0.032670 
1564.269776  	0.033057 
1566.198592  	0.035779 
1568.127408  	0.038214 
1570.056224  	0.045125 
1571.985040  	0.045861 
1573.913856  	0.046313 
1575.842672  	0.051512 
1577.771488  	0.054784 
1579.700304  	0.051043 
1581.629120  	0.049630 
1583.557936  	0.049163 
1585.486752  	0.049773 
1587.415568  	0.051142 
1589.344384  	0.054392 
1591.273200  	0.058162 
1593.202016  	0.063061 
1595.130832  	0.068395 
1597.059648  	0.073247 
1598.988464  	0.076992 
1600.917280  	0.081434 
1602.846096  	0.084895 
1604.774912  	0.086747 
1606.703728  	0.087451 
1608.632544  	0.088302 
1610.561360  	0.086877 
1612.490176  	0.085092 
1614.418992  	0.083248 
1616.347808  	0.086753 
1618.276624  	0.089599 
1620.205440  	0.088257 
1622.134256  	0.090674 
1624.063072  	0.097971 
1625.991888  	0.099872 
1627.920704  	0.105179 
1629.849520  	0.110311 
1631.778336  	0.113211 
1633.707152  	0.116343 
1635.635968  	0.129577 
1637.564784  	0.138085 
1639.493600  	0.135832 
1641.422416  	0.136388 
1643.351232  	0.136678 
1645.280048  	0.137964 
1647.208864  	0.148551 
1649.137680  	0.145515 
1651.066496  	0.136931 
1652.995312  	0.143130 
1654.924128  	0.148999 
1656.852944  	0.138593 
1658.781760  	0.133255 
1660.710576  	0.130545 
1662.639392  	0.130944 
1664.568208  	0.127784 
1666.497024  	0.122169 
1668.425840  	0.120976 
1670.354656  	0.121344 
1672.283472  	0.115627 
1674.212288  	0.111081 
1676.141104  	0.110802 
1678.069920  	0.107016 
1679.998736  	0.106853 
1681.927552  	0.105349 
1683.856368  	0.108424 
1685.785184  	0.109626 
1687.714000  	0.104113 
1689.642816  	0.102715 
1691.571632  	0.099541 
1693.500448  	0.096266 
1695.429264  	0.098851 
1697.358080  	0.102491 
1699.286896  	0.098853 
1701.215712  	0.100929 
1703.144528  	0.095144 
1705.073344  	0.092806 
1707.002160  	0.089780 
1708.930976  	0.084084 
1710.859792  	0.079431 
1712.788608  	0.075675 
1714.717424  	0.073486 
1716.646240  	0.070230 
1718.575056  	0.061460 
1720.503872  	0.049984 
1722.432688  	0.042506 
1724.361504  	0.035580 
1726.290320  	0.028888 
1728.219136  	0.025063 
1730.147952  	0.023464 
1732.076768  	0.021136 
1734.005584  	0.020286 
1735.934400  	0.014350 
1737.863216  	0.010843 
1739.792032  	0.009535 
1741.720848  	0.008181 
1743.649664  	0.008363 
1745.578480  	0.007325 
1747.507296  	0.007606 
1749.436112  	0.008477 
1751.364928  	0.006441 
1753.293744  	0.002131 
1755.222560  	0.000551 
1757.151376  	0.001965 
1759.080192  	0.000651 
1761.009008  	0.000789 
1762.937824  	0.000170 
1764.866640  	-0.001966 
1766.795456  	-0.001330 
1768.724272  	0.000221 
1770.653088  	0.000351 
1772.581904  	0.001943 
1774.510720  	0.000087 
1776.439536  	-0.001637 
1778.368352  	-0.002516 
1780.297168  	-0.001737 
1782.225984  	-0.002851 
1784.154800  	-0.003213 
1786.083616  	-0.003788 
1788.012432  	-0.004468 
1789.941248  	-0.002657 
1791.870064  	-0.000118 
1793.798880  	-0.001575 
1795.727696  	-0.002688 
1797.656512  	-0.003838 
1799.585328  	-0.003477 
1801.514144  	-0.002301 
1803.442960  	-0.003923 
1805.371776  	-0.005456 
1807.300592  	-0.005388 
1809.229408  	-0.005016 
1811.158224  	-0.004328 
1813.087040  	-0.005527 
1815.015856  	-0.006782 
1816.944672  	-0.006146 
1818.873488  	-0.006007 
1820.802304  	-0.006189 
1822.731120  	-0.005534 
1824.659936  	-0.004514 
1826.588752  	-0.004793 
1828.517568  	-0.004541 
1830.446384  	-0.003509 
1832.375200  	-0.005683 
1834.304016  	-0.006470 
1836.232832  	-0.006249 
1838.161648  	-0.005987 
1840.090464  	-0.006338 
1842.019280  	-0.005377 
1843.948096  	-0.003433 
1845.876912  	-0.003653 
1847.805728  	-0.005171 
1849.734544  	-0.006628 
1851.663360  	-0.007519 
1853.592176  	-0.007182 
1855.520992  	-0.007385 
1857.449808  	-0.007178 
1859.378624  	-0.007356 
1861.307440  	-0.007367 
1863.236256  	-0.007772 
1865.165072  	-0.007271 
1867.093888  	-0.005183 
1869.022704  	-0.002873 
1870.951520  	-0.005262 
1872.880336  	-0.007337 
1874.809152  	-0.007976 
1876.737968  	-0.008076 
1878.666784  	-0.008139 
1880.595600  	-0.008239 
1882.524416  	-0.008166 
1884.453232  	-0.007648 
1886.382048  	-0.007974 
1888.310864  	-0.007180 
1890.239680  	-0.006607 
1892.168496  	-0.007399 
1894.097312  	-0.007114 
1896.026128  	-0.006910 
1897.954944  	-0.007786 
1899.883760  	-0.008005 
1901.812576  	-0.008386 
1903.741392  	-0.008203 
1905.670208  	-0.008190 
1907.599024  	-0.007759 
1909.527840  	-0.007069 
1911.456656  	-0.007176 
1913.385472  	-0.007544 
1915.314288  	-0.007319 
1917.243104  	-0.006678 
1919.171920  	-0.006430 
1921.100736  	-0.006775 
1923.029552  	-0.005927 
1924.958368  	-0.007685 
1926.887184  	-0.008359 
1928.816000  	-0.008798 
1930.744816  	-0.008811 
1932.673632  	-0.008772 
1934.602448  	-0.008185 
1936.531264  	-0.008370 
1938.460080  	-0.008227 
1940.388896  	-0.007595 
1942.317712  	-0.006240 
1944.246528  	-0.007344 
1946.175344  	-0.007651 
1948.104160  	-0.008121 
1950.032976  	-0.008261 
1951.961792  	-0.008718 
1953.890608  	-0.008906 
1955.819424  	-0.009551 
1957.748240  	-0.009663 
1959.677056  	-0.009387 
1961.605872  	-0.009212 
1963.534688  	-0.009414 
1965.463504  	-0.007852 
1967.392320  	-0.007610 
1969.321136  	-0.008350 
1971.249952  	-0.009728 
1973.178768  	-0.009380 
1975.107584  	-0.008705 
1977.036400  	-0.007530 
1978.965216  	-0.007621 
1980.894032  	-0.007912 
1982.822848  	-0.008216 
1984.751664  	-0.007828 
1986.680480  	-0.007325 
1988.609296  	-0.006959 
1990.538112  	-0.006841 
1992.466928  	-0.005768 
1994.395744  	-0.007806 
1996.324560  	-0.008746 
1998.253376  	-0.008765 
2000.182192  	-0.009247 
2002.111008  	-0.009663 
2004.039824  	-0.008590 
2005.968640  	-0.008512 
2007.897456  	-0.007807 
2009.826272  	-0.007652 
2011.755088  	-0.007655 
2013.683904  	-0.008380 
2015.612720  	-0.008058 
2017.541536  	-0.007555 
2019.470352  	-0.007275 
2021.399168  	-0.008254 
2023.327984  	-0.008686 
2025.256800  	-0.008824 
2027.185616  	-0.007884 
2029.114432  	-0.007503 
2031.043248  	-0.007129 
2032.972064  	-0.007163 
2034.900880  	-0.006699 
2036.829696  	-0.007232 
2038.758512  	-0.007058 
2040.687328  	-0.006689 
2042.616144  	-0.006464 
2044.544960  	-0.007417 
2046.473776  	-0.007149 
2048.402592  	-0.005945 
2050.331408  	-0.005754 
2052.260224  	-0.006341 
2054.189040  	-0.006757 
2056.117856  	-0.007330 
2058.046672  	-0.007097 
2059.975488  	-0.007029 
2061.904304  	-0.006656 
2063.833120  	-0.006415 
2065.761936  	-0.006011 
2067.690752  	-0.006375 
2069.619568  	-0.006310 
2071.548384  	-0.006855 
2073.477200  	-0.006802 
2075.406016  	-0.006764 
2077.334832  	-0.006248 
2079.263648  	-0.005868 
2081.192464  	-0.005884 
2083.121280  	-0.006262 
2085.050096  	-0.006377 
2086.978912  	-0.006343 
2088.907728  	-0.005842 
2090.836544  	-0.005530 
2092.765360  	-0.005996 
2094.694176  	-0.006444 
2096.622992  	-0.005830 
2098.551808  	-0.005260 
2100.480624  	-0.005458 
2102.409440  	-0.005656 
2104.338256  	-0.005331 
2106.267072  	-0.005712 
2108.195888  	-0.005795 
2110.124704  	-0.005421 
2112.053520  	-0.005206 
2113.982336  	-0.005414 
2115.911152  	-0.005576 
2117.839968  	-0.006020 
2119.768784  	-0.006153 
2121.697600  	-0.005983 
2123.626416  	-0.005885 
2125.555232  	-0.006087 
2127.484048  	-0.006468 
2129.412864  	-0.006671 
2131.341680  	-0.006426 
2133.270496  	-0.006013 
2135.199312  	-0.005325 
2137.128128  	-0.005338 
2139.056944  	-0.005060 
2140.985760  	-0.004824 
2142.914576  	-0.004717 
2144.843392  	-0.005901 
2146.772208  	-0.006595 
2148.701024  	-0.006746 
2150.629840  	-0.006357 
2152.558656  	-0.005723 
2154.487472  	-0.004933 
2156.416288  	-0.004827 
2158.345104  	-0.002910 
2160.273920  	-0.000699 
2162.202736  	-0.001352 
2164.131552  	-0.003226 
2166.060368  	-0.003411 
2167.989184  	-0.003866 
2169.918000  	-0.004698 
2171.846816  	-0.005287 
2173.775632  	-0.004568 
2175.704448  	-0.004475 
2177.633264  	-0.004304 
2179.562080  	-0.004285 
2181.490896  	-0.003285 
2183.419712  	-0.003572 
2185.348528  	-0.004668 
2187.277344  	-0.005960 
2189.206160  	-0.006152 
2191.134976  	-0.005653 
2193.063792  	-0.005287 
2194.992608  	-0.005158 
2196.921424  	-0.005212 
2198.850240  	-0.006232 
2200.779056  	-0.006378 
2202.707872  	-0.005927 
2204.636688  	-0.005015 
2206.565504  	-0.005457 
2208.494320  	-0.005982 
2210.423136  	-0.006186 
2212.351952  	-0.005904 
2214.280768  	-0.006398 
2216.209584  	-0.006474 
2218.138400  	-0.006620 
2220.067216  	-0.006752 
2221.996032  	-0.007095 
2223.924848  	-0.006487 
2225.853664  	-0.005613 
2227.782480  	-0.005707 
2229.711296  	-0.006608 
2231.640112  	-0.006732 
2233.568928  	-0.006858 
2235.497744  	-0.006839 
2237.426560  	-0.006918 
2239.355376  	-0.006697 
2241.284192  	-0.007245 
2243.213008  	-0.007322 
2245.141824  	-0.006809 
2247.070640  	-0.006748 
2248.999456  	-0.006845 
2250.928272  	-0.006533 
2252.857088  	-0.006842 
2254.785904  	-0.006800 
2256.714720  	-0.006476 
2258.643536  	-0.006221 
2260.572352  	-0.006097 
2262.501168  	-0.006122 
2264.429984  	-0.006213 
2266.358800  	-0.006441 
2268.287616  	-0.006991 
2270.216432  	-0.006912 
2272.145248  	-0.006544 
2274.074064  	-0.006322 
2276.002880  	-0.006426 
2277.931696  	-0.006051 
2279.860512  	-0.006002 
2281.789328  	-0.005981 
2283.718144  	-0.005855 
2285.646960  	-0.005451 
2287.575776  	-0.005527 
2289.504592  	-0.005524 
2291.433408  	-0.005345 
2293.362224  	-0.004883 
2295.291040  	-0.004741 
2297.219856  	-0.004335 
2299.148672  	-0.003950 
2301.077488  	-0.003573 
2303.006304  	-0.002894 
2304.935120  	-0.002287 
2306.863936  	-0.002160 
2308.792752  	-0.001904 
2310.721568  	-0.001710 
2312.650384  	-0.001907 
2314.579200  	-0.002389 
2316.508016  	-0.002409 
2318.436832  	-0.002201 
2320.365648  	-0.002008 
2322.294464  	-0.002166 
2324.223280  	-0.003196 
2326.152096  	-0.004872 
2328.080912  	-0.005970 
2330.009728  	-0.006578 
2331.938544  	-0.007270 
2333.867360  	-0.008315 
2335.796176  	-0.008980 
2337.724992  	-0.009469 
2339.653808  	-0.009561 
2341.582624  	-0.009130 
2343.511440  	-0.007680 
2345.440256  	-0.005672 
2347.369072  	-0.004498 
2349.297888  	-0.004745 
2351.226704  	-0.006256 
2353.155520  	-0.008324 
2355.084336  	-0.009429 
2357.013152  	-0.009464 
2358.941968  	-0.009546 
2360.870784  	-0.010270 
2362.799600  	-0.010241 
2364.728416  	-0.009494 
2366.657232  	-0.008519 
2368.586048  	-0.007363 
2370.514864  	-0.006190 
2372.443680  	-0.005025 
2374.372496  	-0.003696 
2376.301312  	-0.003085 
2378.230128  	-0.002678 
2380.158944  	-0.002757 
2382.087760  	-0.003732 
2384.016576  	-0.005049 
2385.945392  	-0.006016 
2387.874208  	-0.006390 
2389.803024  	-0.006809 
2391.731840  	-0.007144 
2393.660656  	-0.007078 
2395.589472  	-0.007083 
2397.518288  	-0.007052 
2399.447104  	-0.007036 
2401.375920  	-0.007050 
2403.304736  	-0.007243 
2405.233552  	-0.007173 
2407.162368  	-0.007268 
2409.091184  	-0.007434 
2411.020000  	-0.007503 
2412.948816  	-0.007523 
2414.877632  	-0.007437 
2416.806448  	-0.007230 
2418.735264  	-0.007229 
2420.664080  	-0.007303 
2422.592896  	-0.007284 
2424.521712  	-0.007207 
2426.450528  	-0.007307 
2428.379344  	-0.007144 
2430.308160  	-0.006900 
2432.236976  	-0.006795 
2434.165792  	-0.006648 
2436.094608  	-0.006609 
2438.023424  	-0.006763 
2439.952240  	-0.006706 
2441.881056  	-0.006579 
2443.809872  	-0.006565 
2445.738688  	-0.006488 
2447.667504  	-0.006374 
2449.596320  	-0.006231 
2451.525136  	-0.006116 
2453.453952  	-0.006121 
2455.382768  	-0.006116 
2457.311584  	-0.006194 
2459.240400  	-0.006277 
2461.169216  	-0.006142 
2463.098032  	-0.005954 
2465.026848  	-0.006011 
2466.955664  	-0.006091 
2468.884480  	-0.006316 
2470.813296  	-0.006428 
2472.742112  	-0.006195 
2474.670928  	-0.005999 
2476.599744  	-0.005749 
2478.528560  	-0.005498 
2480.457376  	-0.005547 
2482.386192  	-0.005483 
2484.315008  	-0.005486 
2486.243824  	-0.005395 
2488.172640  	-0.005136 
2490.101456  	-0.004897 
2492.030272  	-0.004914 
2493.959088  	-0.005048 
2495.887904  	-0.005115 
2497.816720  	-0.004902 
2499.745536  	-0.004755 
2501.674352  	-0.004885 
2503.603168  	-0.004964 
2505.531984  	-0.004900 
2507.460800  	-0.004899 
2509.389616  	-0.004931 
2511.318432  	-0.005007 
2513.247248  	-0.004701 
2515.176064  	-0.004591 
2517.104880  	-0.004700 
2519.033696  	-0.004889 
2520.962512  	-0.004809 
2522.891328  	-0.004715 
2524.820144  	-0.004490 
2526.748960  	-0.004424 
2528.677776  	-0.004226 
2530.606592  	-0.004206 
2532.535408  	-0.004185 
2534.464224  	-0.004097 
2536.393040  	-0.004099 
2538.321856  	-0.004083 
2540.250672  	-0.004042 
2542.179488  	-0.004007 
2544.108304  	-0.003903 
2546.037120  	-0.003621 
2547.965936  	-0.003384 
2549.894752  	-0.003359 
2551.823568  	-0.003285 
2553.752384  	-0.003165 
2555.681200  	-0.003235 
2557.610016  	-0.003298 
2559.538832  	-0.003328 
2561.467648  	-0.003126 
2563.396464  	-0.002801 
2565.325280  	-0.002862 
2567.254096  	-0.003175 
2569.182912  	-0.003155 
2571.111728  	-0.003097 
2573.040544  	-0.003017 
2574.969360  	-0.002671 
2576.898176  	-0.002429 
2578.826992  	-0.002305 
2580.755808  	-0.002317 
2582.684624  	-0.002278 
2584.613440  	-0.002202 
2586.542256  	-0.002037 
2588.471072  	-0.002113 
2590.399888  	-0.002234 
2592.328704  	-0.001989 
2594.257520  	-0.001721 
2596.186336  	-0.001955 
2598.115152  	-0.001925 
2600.043968  	-0.001639 
2601.972784  	-0.001517 
2603.901600  	-0.001472 
2605.830416  	-0.001715 
2607.759232  	-0.001669 
2609.688048  	-0.001371 
2611.616864  	-0.001298 
2613.545680  	-0.001355 
2615.474496  	-0.001080 
2617.403312  	-0.000790 
2619.332128  	-0.000879 
2621.260944  	-0.000889 
2623.189760  	-0.000745 
2625.118576  	-0.000695 
2627.047392  	-0.000666 
2628.976208  	-0.000480 
2630.905024  	-0.000326 
2632.833840  	-0.000253 
2634.762656  	-0.000271 
2636.691472  	-0.000120 
2638.620288  	0.000040 
2640.549104  	0.000196 
2642.477920  	0.000376 
2644.406736  	0.000323 
2646.335552  	0.000300 
2648.264368  	0.000555 
2650.193184  	0.000750 
2652.122000  	0.000774 
2654.050816  	0.000895 
2655.979632  	0.000983 
2657.908448  	0.001017 
2659.837264  	0.001149 
2661.766080  	0.001304 
2663.694896  	0.001406 
2665.623712  	0.001536 
2667.552528  	0.001670 
2669.481344  	0.001679 
2671.410160  	0.001703 
2673.338976  	0.001835 
2675.267792  	0.002013 
2677.196608  	0.002256 
2679.125424  	0.002435 
2681.054240  	0.002516 
2682.983056  	0.002557 
2684.911872  	0.002627 
2686.840688  	0.002726 
2688.769504  	0.002808 
2690.698320  	0.002868 
2692.627136  	0.002989 
2694.555952  	0.003072 
2696.484768  	0.003154 
2698.413584  	0.003216 
2700.342400  	0.003276 
2702.271216  	0.003414 
2704.200032  	0.003576 
2706.128848  	0.003737 
2708.057664  	0.003823 
2709.986480  	0.003814 
2711.915296  	0.003874 
2713.844112  	0.004037 
2715.772928  	0.004164 
2717.701744  	0.004228 
2719.630560  	0.004420 
2721.559376  	0.004630 
2723.488192  	0.004749 
2725.417008  	0.004920 
2727.345824  	0.005031 
2729.274640  	0.005107 
2731.203456  	0.005190 
2733.132272  	0.005264 
2735.061088  	0.005403 
2736.989904  	0.005505 
2738.918720  	0.005582 
2740.847536  	0.005674 
2742.776352  	0.005818 
2744.705168  	0.005946 
2746.633984  	0.006011 
2748.562800  	0.006121 
2750.491616  	0.006161 
2752.420432  	0.006199 
2754.349248  	0.006217 
2756.278064  	0.006198 
2758.206880  	0.006147 
2760.135696  	0.006224 
2762.064512  	0.006349 
2763.993328  	0.006384 
2765.922144  	0.006356 
2767.850960  	0.006360 
2769.779776  	0.006369 
2771.708592  	0.006430 
2773.637408  	0.006396 
2775.566224  	0.006407 
2777.495040  	0.006372 
2779.423856  	0.006447 
2781.352672  	0.006560 
2783.281488  	0.006558 
2785.210304  	0.006554 
2787.139120  	0.006643 
2789.067936  	0.006700 
2790.996752  	0.006807 
2792.925568  	0.006837 
2794.854384  	0.006761 
2796.783200  	0.006759 
2798.712016  	0.006731 
2800.640832  	0.006815 
2802.569648  	0.007023 
2804.498464  	0.007023 
2806.427280  	0.007086 
2808.356096  	0.007255 
2810.284912  	0.007218 
2812.213728  	0.007099 
2814.142544  	0.007102 
2816.071360  	0.007187 
2818.000176  	0.007306 
2819.928992  	0.007344 
2821.857808  	0.007280 
2823.786624  	0.007259 
2825.715440  	0.007404 
2827.644256  	0.007412 
2829.573072  	0.007284 
2831.501888  	0.007347 
2833.430704  	0.007345 
2835.359520  	0.007351 
2837.288336  	0.007410 
2839.217152  	0.007383 
2841.145968  	0.007223 
2843.074784  	0.007178 
2845.003600  	0.007259 
2846.932416  	0.007200 
2848.861232  	0.007392 
2850.790048  	0.007593 
2852.718864  	0.007703 
2854.647680  	0.007695 
2856.576496  	0.007720 
2858.505312  	0.007768 
2860.434128  	0.007912 
2862.362944  	0.008008 
2864.291760  	0.008048 
2866.220576  	0.008166 
2868.149392  	0.008220 
2870.078208  	0.008311 
2872.007024  	0.008684 
2873.935840  	0.008953 
2875.864656  	0.009041 
2877.793472  	0.009207 
2879.722288  	0.009614 
2881.651104  	0.010017 
2883.579920  	0.010366 
2885.508736  	0.010606 
2887.437552  	0.010696 
2889.366368  	0.010736 
2891.295184  	0.010902 
2893.224000  	0.011039 
2895.152816  	0.011120 
2897.081632  	0.011111 
2899.010448  	0.010885 
2900.939264  	0.010685 
2902.868080  	0.010865 
2904.796896  	0.011125 
2906.725712  	0.011265 
2908.654528  	0.011437 
2910.583344  	0.011753 
2912.512160  	0.011967 
2914.440976  	0.012272 
2916.369792  	0.012777 
2918.298608  	0.013129 
2920.227424  	0.013413 
2922.156240  	0.013808 
2924.085056  	0.014231 
2926.013872  	0.014673 
2927.942688  	0.015299 
2929.871504  	0.015862 
2931.800320  	0.016175 
2933.729136  	0.016650 
2935.657952  	0.017295 
2937.586768  	0.017773 
2939.515584  	0.018079 
2941.444400  	0.018271 
2943.373216  	0.018501 
2945.302032  	0.018883 
2947.230848  	0.019073 
2949.159664  	0.018967 
2951.088480  	0.018818 
2953.017296  	0.018799 
2954.946112  	0.018687 
2956.874928  	0.018605 
2958.803744  	0.018470 
2960.732560  	0.018327 
2962.661376  	0.018166 
2964.590192  	0.018061 
2966.519008  	0.017861 
2968.447824  	0.017523 
2970.376640  	0.017348 
2972.305456  	0.017233 
2974.234272  	0.017345 
2976.163088  	0.017277 
2978.091904  	0.017100 
2980.020720  	0.016998 
2981.949536  	0.017061 
2983.878352  	0.017052 
2985.807168  	0.016914 
2987.735984  	0.016917 
2989.664800  	0.016974 
2991.593616  	0.017271 
2993.522432  	0.017553 
2995.451248  	0.017713 
2997.380064  	0.017967 
2999.308880  	0.018352 
3001.237696  	0.018658 
3003.166512  	0.019063 
3005.095328  	0.019392 
3007.024144  	0.019599 
3008.952960  	0.020188 
3010.881776  	0.020806 
3012.810592  	0.021310 
3014.739408  	0.021640 
3016.668224  	0.021918 
3018.597040  	0.022240 
3020.525856  	0.022590 
3022.454672  	0.022892 
3024.383488  	0.023306 
3026.312304  	0.023758 
3028.241120  	0.024053 
3030.169936  	0.024630 
3032.098752  	0.025324 
3034.027568  	0.025480 
3035.956384  	0.025827 
3037.885200  	0.026125 
3039.814016  	0.026508 
3041.742832  	0.026946 
3043.671648  	0.027452 
3045.600464  	0.027854 
3047.529280  	0.028217 
3049.458096  	0.028651 
3051.386912  	0.028908 
3053.315728  	0.029236 
3055.244544  	0.029871 
3057.173360  	0.030636 
3059.102176  	0.031040 
3061.030992  	0.031502 
3062.959808  	0.032023 
3064.888624  	0.032713 
3066.817440  	0.033352 
3068.746256  	0.033820 
3070.675072  	0.034257 
3072.603888  	0.034821 
3074.532704  	0.035519 
3076.461520  	0.036147 
3078.390336  	0.036847 
3080.319152  	0.037571 
3082.247968  	0.037947 
3084.176784  	0.038347 
3086.105600  	0.038977 
3088.034416  	0.039781 
3089.963232  	0.040173 
3091.892048  	0.040411 
3093.820864  	0.040981 
3095.749680  	0.042027 
3097.678496  	0.042714 
3099.607312  	0.043199 
3101.536128  	0.044155 
3103.464944  	0.044657 
3105.393760  	0.044916 
3107.322576  	0.045516 
3109.251392  	0.046277 
3111.180208  	0.046718 
3113.109024  	0.047049 
3115.037840  	0.047672 
3116.966656  	0.048515 
3118.895472  	0.049140 
3120.824288  	0.049550 
3122.753104  	0.050158 
3124.681920  	0.050398 
3126.610736  	0.050577 
3128.539552  	0.050895 
3130.468368  	0.051162 
3132.397184  	0.051786 
3134.326000  	0.052270 
3136.254816  	0.052560 
3138.183632  	0.053082 
3140.112448  	0.053491 
3142.041264  	0.053832 
3143.970080  	0.054434 
3145.898896  	0.054920 
3147.827712  	0.055194 
3149.756528  	0.055680 
3151.685344  	0.056057 
3153.614160  	0.056458 
3155.542976  	0.056905 
3157.471792  	0.057384 
3159.400608  	0.057934 
3161.329424  	0.058449 
3163.258240  	0.058848 
3165.187056  	0.059108 
3167.115872  	0.059409 
3169.044688  	0.060047 
3170.973504  	0.060518 
3172.902320  	0.060573 
3174.831136  	0.060550 
3176.759952  	0.060945 
3178.688768  	0.061541 
3180.617584  	0.061633 
3182.546400  	0.061715 
3184.475216  	0.061967 
3186.404032  	0.062181 
3188.332848  	0.062417 
3190.261664  	0.062438 
3192.190480  	0.062340 
3194.119296  	0.062447 
3196.048112  	0.062542 
3197.976928  	0.063032 
3199.905744  	0.062990 
3201.834560  	0.062665 
3203.763376  	0.062452 
3205.692192  	0.062227 
3207.621008  	0.062234 
3209.549824  	0.062442 
3211.478640  	0.062403 
3213.407456  	0.062296 
3215.336272  	0.062368 
3217.265088  	0.062223 
3219.193904  	0.062385 
3221.122720  	0.062455 
3223.051536  	0.062076 
3224.980352  	0.061734 
3226.909168  	0.061564 
3228.837984  	0.061407 
3230.766800  	0.061189 
3232.695616  	0.061301 
3234.624432  	0.061389 
3236.553248  	0.061400 
3238.482064  	0.061435 
3240.410880  	0.061277 
3242.339696  	0.061136 
3244.268512  	0.061313 
3246.197328  	0.061272 
3248.126144  	0.060976 
3250.054960  	0.061217 
3251.983776  	0.061437 
3253.912592  	0.061795 
3255.841408  	0.062078 
3257.770224  	0.062052 
3259.699040  	0.062035 
3261.627856  	0.062084 
3263.556672  	0.062029 
3265.485488  	0.062204 
3267.414304  	0.062312 
3269.343120  	0.062458 
3271.271936  	0.062547 
3273.200752  	0.062874 
3275.129568  	0.063136 
3277.058384  	0.063157 
3278.987200  	0.063060 
3280.916016  	0.062994 
3282.844832  	0.063155 
3284.773648  	0.063269 
3286.702464  	0.063173 
3288.631280  	0.063383 
3290.560096  	0.063681 
3292.488912  	0.063898 
3294.417728  	0.063855 
3296.346544  	0.063884 
3298.275360  	0.064043 
3300.204176  	0.064033 
3302.132992  	0.064038 
3304.061808  	0.064514 
3305.990624  	0.064733 
3307.919440  	0.065006 
3309.848256  	0.065336 
3311.777072  	0.065448 
3313.705888  	0.065674 
3315.634704  	0.065760 
3317.563520  	0.065664 
3319.492336  	0.065867 
3321.421152  	0.066079 
3323.349968  	0.066086 
3325.278784  	0.066162 
3327.207600  	0.066296 
3329.136416  	0.066095 
3331.065232  	0.065864 
3332.994048  	0.066009 
3334.922864  	0.066352 
3336.851680  	0.066593 
3338.780496  	0.066425 
3340.709312  	0.065989 
3342.638128  	0.065894 
3344.566944  	0.065706 
3346.495760  	0.065533 
3348.424576  	0.065354 
3350.353392  	0.065161 
3352.282208  	0.064880 
3354.211024  	0.064670 
3356.139840  	0.064582 
3358.068656  	0.064246 
3359.997472  	0.063940 
3361.926288  	0.063762 
3363.855104  	0.063455 
3365.783920  	0.063388 
3367.712736  	0.063154 
3369.641552  	0.062832 
3371.570368  	0.062218 
3373.499184  	0.061834 
3375.428000  	0.061827 
3377.356816  	0.061705 
3379.285632  	0.061468 
3381.214448  	0.061060 
3383.143264  	0.060774 
3385.072080  	0.060848 
3387.000896  	0.060364 
3388.929712  	0.059637 
3390.858528  	0.059300 
3392.787344  	0.059785 
3394.716160  	0.059387 
3396.644976  	0.059080 
3398.573792  	0.058735 
3400.502608  	0.057917 
3402.431424  	0.057495 
3404.360240  	0.057044 
3406.289056  	0.056357 
3408.217872  	0.055912 
3410.146688  	0.055665 
3412.075504  	0.055466 
3414.004320  	0.055176 
3415.933136  	0.054779 
3417.861952  	0.054346 
3419.790768  	0.054702 
3421.719584  	0.054942 
3423.648400  	0.053792 
3425.577216  	0.052696 
3427.506032  	0.052251 
3429.434848  	0.051838 
3431.363664  	0.051705 
3433.292480  	0.051344 
3435.221296  	0.050795 
3437.150112  	0.050215 
3439.078928  	0.049626 
3441.007744  	0.049211 
3442.936560  	0.049233 
3444.865376  	0.048571 
3446.794192  	0.049247 
3448.723008  	0.049075 
3450.651824  	0.047235 
3452.580640  	0.046454 
3454.509456  	0.045811 
3456.438272  	0.045191 
3458.367088  	0.044709 
3460.295904  	0.044526 
3462.224720  	0.044426 
3464.153536  	0.043509 
3466.082352  	0.042526 
3468.011168  	0.042136 
3469.939984  	0.041526 
3471.868800  	0.040762 
3473.797616  	0.040116 
3475.726432  	0.039675 
3477.655248  	0.038644 
3479.584064  	0.038244 
3481.512880  	0.038908 
3483.441696  	0.038487 
3485.370512  	0.036860 
3487.299328  	0.036463 
3489.228144  	0.035828 
3491.156960  	0.034612 
3493.085776  	0.033957 
3495.014592  	0.033853 
3496.943408  	0.033613 
3498.872224  	0.032547 
3500.801040  	0.032601 
3502.729856  	0.033895 
3504.658672  	0.033338 
3506.587488  	0.030936 
3508.516304  	0.030653 
3510.445120  	0.031084 
3512.373936  	0.029561 
3514.302752  	0.028212 
3516.231568  	0.027597 
3518.160384  	0.027276 
3520.089200  	0.026579 
3522.018016  	0.026955 
3523.946832  	0.028461 
3525.875648  	0.027742 
3527.804464  	0.027129 
3529.733280  	0.026428 
3531.662096  	0.024721 
3533.590912  	0.022920 
3535.519728  	0.022875 
3537.448544  	0.022830 
3539.377360  	0.021313 
3541.306176  	0.020559 
3543.234992  	0.021425 
3545.163808  	0.023737 
3547.092624  	0.023920 
3549.021440  	0.020815 
3550.950256  	0.019416 
3552.879072  	0.020579 
3554.807888  	0.018728 
3556.736704  	0.016607 
3558.665520  	0.016811 
3560.594336  	0.017566 
3562.523152  	0.016833 
3564.451968  	0.017609 
3566.380784  	0.022554 
3568.309600  	0.023486 
3570.238416  	0.017235 
3572.167232  	0.013582 
3574.096048  	0.012744 
3576.024864  	0.012326 
3577.953680  	0.011635 
3579.882496  	0.011371 
3581.811312  	0.010541 
3583.740128  	0.009959 
3585.668944  	0.011476 
3587.597760  	0.016047 
3589.526576  	0.013267 
3591.455392  	0.008355 
3593.384208  	0.008622 
3595.313024  	0.010010 
3597.241840  	0.008486 
3599.170656  	0.006805 
3601.099472  	0.006462 
3603.028288  	0.004654 
3604.957104  	0.002951 
3606.885920  	0.004759 
3608.814736  	0.006985 
3610.743552  	0.004872 
3612.672368  	0.005186 
3614.601184  	0.005670 
3616.530000  	0.003165 
3618.458816  	0.004048 
3620.387632  	0.004057 
3622.316448  	0.000008 
3624.245264  	-0.002669 
3626.174080  	-0.002861 
3628.102896  	0.000873 
3630.031712  	0.004318 
3631.960528  	-0.001364 
3633.889344  	-0.003578 
3635.818160  	-0.005311 
3637.746976  	-0.006738 
3639.675792  	-0.007289 
3641.604608  	-0.007573 
3643.533424  	-0.007957 
3645.462240  	-0.007863 
3647.391056  	-0.002803 
3649.319872  	0.001441 
3651.248688  	-0.001486 
3653.177504  	-0.008407 
3655.106320  	-0.010788 
3657.035136  	-0.009815 
3658.963952  	-0.011650 
3660.892768  	-0.012985 
3662.821584  	-0.014103 
3664.750400  	-0.014846 
3666.679216  	-0.014691 
3668.608032  	-0.012197 
3670.536848  	-0.008490 
3672.465664  	-0.011367 
3674.394480  	-0.010859 
3676.323296  	-0.006084 
3678.252112  	-0.010506 
3680.180928  	-0.013195 
3682.109744  	-0.015374 
3684.038560  	-0.016087 
3685.967376  	-0.016200 
3687.896192  	-0.013821 
3689.825008  	-0.010211 
3691.753824  	-0.011717 
3693.682640  	-0.014638 
3695.611456  	-0.015985 
3697.540272  	-0.016272 
3699.469088  	-0.016970 
3701.397904  	-0.015405 
3703.326720  	-0.014893 
3705.255536  	-0.016175 
3707.184352  	-0.016214 
3709.113168  	-0.014466 
3711.041984  	-0.010540 
3712.970800  	-0.010556 
3714.899616  	-0.014152 
3716.828432  	-0.016264 
3718.757248  	-0.015595 
3720.686064  	-0.014803 
3722.614880  	-0.013290 
3724.543696  	-0.012527 
3726.472512  	-0.012032 
3728.401328  	-0.014583 
3730.330144  	-0.016701 
3732.258960  	-0.014200 
3734.187776  	-0.008971 
3736.116592  	-0.005682 
3738.045408  	-0.010189 
3739.974224  	-0.012977 
3741.903040  	-0.014170 
3743.831856  	-0.012878 
3745.760672  	-0.009964 
3747.689488  	-0.012366 
3749.618304  	-0.010350 
3751.547120  	-0.007358 
3753.475936  	-0.010468 
3755.404752  	-0.014069 
3757.333568  	-0.014299 
3759.262384  	-0.013437 
3761.191200  	-0.014707 
3763.120016  	-0.016821 
3765.048832  	-0.015631 
3766.977648  	-0.015244 
3768.906464  	-0.015304 
3770.835280  	-0.014500 
3772.764096  	-0.016512 
3774.692912  	-0.017916 
3776.621728  	-0.018182 
3778.550544  	-0.016733 
3780.479360  	-0.015554 
3782.408176  	-0.016893 
3784.336992  	-0.016137 
3786.265808  	-0.015977 
3788.194624  	-0.017404 
3790.123440  	-0.017910 
3792.052256  	-0.018112 
3793.981072  	-0.018348 
3795.909888  	-0.016016 
3797.838704  	-0.014207 
3799.767520  	-0.015054 
3801.696336  	-0.011508 
3803.625152  	-0.013318 
3805.553968  	-0.016190 
3807.482784  	-0.014628 
3809.411600  	-0.016040 
3811.340416  	-0.017782 
3813.269232  	-0.018246 
3815.198048  	-0.015957 
3817.126864  	-0.013262 
3819.055680  	-0.014544 
3820.984496  	-0.011564 
3822.913312  	-0.012298 
3824.842128  	-0.015613 
3826.770944  	-0.015329 
3828.699760  	-0.016088 
3830.628576  	-0.016768 
3832.557392  	-0.015879 
3834.486208  	-0.015478 
3836.415024  	-0.014077 
3838.343840  	-0.011283 
3840.272656  	-0.010568 
3842.201472  	-0.012986 
3844.130288  	-0.014113 
3846.059104  	-0.016029 
3847.987920  	-0.017147 
3849.916736  	-0.016541 
3851.845552  	-0.014004 
3853.774368  	-0.007526 
3855.703184  	-0.009997 
3857.632000  	-0.013616 
3859.560816  	-0.016216 
3861.489632  	-0.015532 
3863.418448  	-0.013189 
3865.347264  	-0.011976 
3867.276080  	-0.014778 
3869.204896  	-0.013046 
3871.133712  	-0.010545 
3873.062528  	-0.013361 
3874.991344  	-0.013882 
3876.920160  	-0.016883 
3878.848976  	-0.016596 
3880.777792  	-0.012734 
3882.706608  	-0.013543 
3884.635424  	-0.014223 
3886.564240  	-0.013707 
3888.493056  	-0.016992 
3890.421872  	-0.016295 
3892.350688  	-0.013807 
3894.279504  	-0.015596 
3896.208320  	-0.017261 
3898.137136  	-0.015690 
3900.065952  	-0.012625 
3901.994768  	-0.011722 
3903.923584  	-0.010858 
3905.852400  	-0.012456 
3907.781216  	-0.016485 
3909.710032  	-0.018584 
3911.638848  	-0.018821 
3913.567664  	-0.018603 
3915.496480  	-0.016922 
3917.425296  	-0.014501 
3919.354112  	-0.014904 
3921.282928  	-0.015873 
3923.211744  	-0.015633 
3925.140560  	-0.014640 
3927.069376  	-0.016546 
3928.998192  	-0.016728 
3930.927008  	-0.014848 
3932.855824  	-0.014262 
3934.784640  	-0.016481 
3936.713456  	-0.017857 
3938.642272  	-0.017922 
3940.571088  	-0.017723 
3942.499904  	-0.015578 
3944.428720  	-0.015687 
3946.357536  	-0.016942 
3948.286352  	-0.015614 
3950.215168  	-0.015827 
3952.143984  	-0.017407 
3954.072800  	-0.018216 
3956.001616  	-0.018049 
3957.930432  	-0.017652 
3959.859248  	-0.017481 
3961.788064  	-0.017137 
3963.716880  	-0.017592 
3965.645696  	-0.018541 
3967.574512  	-0.018638 
3969.503328  	-0.018293 
3971.432144  	-0.018059 
3973.360960  	-0.017683 
3975.289776  	-0.017183 
3977.218592  	-0.017699 
3979.147408  	-0.018293 
3981.076224  	-0.018307 
3983.005040  	-0.018337 
3984.933856  	-0.018329 
3986.862672  	-0.018248 
3988.791488  	-0.018172 
3990.720304  	-0.017667 
3992.649120  	-0.017865 
3994.577936  	-0.018087 
3996.506752  	-0.018401 
3998.435568  	-0.018810 
4000.364384  	-0.018758 