##TITLE=No Description
##DATA TYPE=INFRARED SPECTRUM
##XUNITS=1/CM
##YUNITS=Abs
399.264912  	0.639315 
401.193728  	0.626106 
403.122544  	0.626640 
405.051360  	0.619691 
406.980176  	0.633642 
408.908992  	0.616455 
410.837808  	0.606321 
412.766624  	0.594491 
414.695440  	0.595986 
416.624256  	0.588731 
418.553072  	0.590875 
420.481888  	0.588695 
422.410704  	0.590704 
424.339520  	0.583428 
426.268336  	0.579649 
428.197152  	0.573962 
430.125968  	0.572877 
432.054784  	0.567830 
433.983600  	0.567840 
435.912416  	0.556261 
437.841232  	0.548603 
439.770048  	0.541174 
441.698864  	0.550456 
443.627680  	0.550277 
445.556496  	0.547109 
447.485312  	0.545836 
449.414128  	0.547443 
451.342944  	0.547873 
453.271760  	0.547990 
455.200576  	0.545803 
457.129392  	0.550287 
459.058208  	0.545655 
460.987024  	0.543042 
462.915840  	0.536109 
464.844656  	0.536516 
466.773472  	0.532861 
468.702288  	0.531939 
470.631104  	0.529752 
472.559920  	0.529882 
474.488736  	0.522988 
476.417552  	0.528359 
478.346368  	0.528350 
480.275184  	0.530013 
482.204000  	0.530776 
484.132816  	0.529187 
486.061632  	0.524780 
487.990448  	0.526576 
489.919264  	0.522265 
491.848080  	0.521287 
493.776896  	0.519997 
495.705712  	0.519395 
497.634528  	0.513751 
499.563344  	0.510730 
501.492160  	0.510297 
503.420976  	0.512973 
505.349792  	0.510778 
507.278608  	0.513954 
509.207424  	0.512438 
511.136240  	0.510856 
513.065056  	0.510011 
514.993872  	0.513119 
516.922688  	0.513725 
518.851504  	0.514472 
520.780320  	0.512679 
522.709136  	0.511884 
524.637952  	0.508468 
526.566768  	0.508799 
528.495584  	0.507843 
530.424400  	0.506765 
532.353216  	0.501897 
534.282032  	0.499192 
536.210848  	0.495886 
538.139664  	0.492691 
540.068480  	0.486676 
541.997296  	0.483434 
543.926112  	0.479340 
545.854928  	0.476662 
547.783744  	0.473101 
549.712560  	0.471739 
551.641376  	0.467709 
553.570192  	0.463652 
555.499008  	0.460397 
557.427824  	0.458664 
559.356640  	0.455176 
561.285456  	0.453179 
563.214272  	0.449815 
565.143088  	0.447064 
567.071904  	0.444143 
569.000720  	0.441937 
570.929536  	0.439091 
572.858352  	0.436359 
574.787168  	0.433750 
576.715984  	0.432567 
578.644800  	0.428127 
580.573616  	0.424016 
582.502432  	0.420185 
584.431248  	0.418056 
586.360064  	0.415906 
588.288880  	0.414533 
590.217696  	0.411169 
592.146512  	0.408874 
594.075328  	0.405867 
596.004144  	0.404137 
597.932960  	0.402722 
599.861776  	0.400452 
601.790592  	0.397488 
603.719408  	0.395785 
605.648224  	0.394203 
607.577040  	0.392839 
609.505856  	0.390794 
611.434672  	0.389267 
613.363488  	0.386672 
615.292304  	0.384864 
617.221120  	0.383076 
619.149936  	0.382052 
621.078752  	0.380286 
623.007568  	0.378868 
624.936384  	0.376806 
626.865200  	0.375380 
628.794016  	0.373860 
630.722832  	0.372923 
632.651648  	0.371544 
634.580464  	0.371102 
636.509280  	0.370568 
638.438096  	0.369497 
640.366912  	0.367833 
642.295728  	0.366712 
644.224544  	0.364414 
646.153360  	0.361740 
648.082176  	0.357658 
650.010992  	0.353729 
651.939808  	0.350651 
653.868624  	0.347770 
655.797440  	0.343980 
657.726256  	0.340598 
659.655072  	0.336849 
661.583888  	0.333767 
663.512704  	0.330103 
665.441520  	0.327764 
667.370336  	0.324220 
669.299152  	0.318385 
671.227968  	0.315242 
673.156784  	0.312712 
675.085600  	0.310219 
677.014416  	0.307890 
678.943232  	0.305691 
680.872048  	0.303767 
682.800864  	0.301095 
684.729680  	0.298790 
686.658496  	0.297337 
688.587312  	0.295901 
690.516128  	0.293326 
692.444944  	0.291332 
694.373760  	0.289885 
696.302576  	0.288095 
698.231392  	0.285612 
700.160208  	0.283182 
702.089024  	0.280862 
704.017840  	0.278671 
705.946656  	0.276077 
707.875472  	0.273724 
709.804288  	0.271533 
711.733104  	0.269776 
713.661920  	0.267375 
715.590736  	0.265534 
717.519552  	0.264139 
719.448368  	0.263497 
721.377184  	0.262355 
723.306000  	0.261703 
725.234816  	0.261053 
727.163632  	0.260368 
729.092448  	0.258591 
731.021264  	0.255714 
732.950080  	0.252431 
734.878896  	0.249631 
736.807712  	0.246899 
738.736528  	0.244616 
740.665344  	0.242890 
742.594160  	0.241247 
744.522976  	0.239243 
746.451792  	0.237289 
748.380608  	0.235375 
750.309424  	0.233816 
752.238240  	0.232421 
754.167056  	0.231069 
756.095872  	0.229390 
758.024688  	0.228198 
759.953504  	0.226855 
761.882320  	0.226576 
763.811136  	0.226247 
765.739952  	0.224825 
767.668768  	0.221957 
769.597584  	0.218986 
771.526400  	0.217078 
773.455216  	0.216909 
775.384032  	0.218218 
777.312848  	0.220552 
779.241664  	0.222239 
781.170480  	0.221551 
783.099296  	0.218508 
785.028112  	0.213956 
786.956928  	0.209184 
788.885744  	0.205196 
790.814560  	0.201906 
792.743376  	0.199272 
794.672192  	0.197642 
796.601008  	0.196288 
798.529824  	0.193514 
800.458640  	0.189678 
802.387456  	0.186174 
804.316272  	0.183971 
806.245088  	0.182386 
808.173904  	0.181223 
810.102720  	0.179953 
812.031536  	0.178918 
813.960352  	0.178207 
815.889168  	0.177202 
817.817984  	0.176445 
819.746800  	0.176037 
821.675616  	0.175085 
823.604432  	0.174097 
825.533248  	0.172989 
827.462064  	0.171775 
829.390880  	0.170456 
831.319696  	0.168818 
833.248512  	0.166772 
835.177328  	0.164581 
837.106144  	0.162211 
839.034960  	0.159621 
840.963776  	0.156687 
842.892592  	0.153762 
844.821408  	0.150738 
846.750224  	0.147942 
848.679040  	0.145582 
850.607856  	0.143472 
852.536672  	0.141562 
854.465488  	0.139882 
856.394304  	0.138272 
858.323120  	0.136797 
860.251936  	0.135077 
862.180752  	0.133010 
864.109568  	0.130482 
866.038384  	0.128139 
867.967200  	0.126260 
869.896016  	0.124527 
871.824832  	0.123447 
873.753648  	0.122576 
875.682464  	0.122358 
877.611280  	0.121959 
879.540096  	0.121753 
881.468912  	0.123021 
883.397728  	0.123709 
885.326544  	0.124144 
887.255360  	0.124006 
889.184176  	0.122588 
891.112992  	0.120664 
893.041808  	0.119259 
894.970624  	0.117372 
896.899440  	0.114913 
898.828256  	0.111805 
900.757072  	0.108876 
902.685888  	0.106608 
904.614704  	0.105346 
906.543520  	0.105158 
908.472336  	0.105567 
910.401152  	0.106740 
912.329968  	0.108278 
914.258784  	0.109915 
916.187600  	0.111402 
918.116416  	0.112689 
920.045232  	0.113539 
921.974048  	0.113787 
923.902864  	0.113563 
925.831680  	0.113163 
927.760496  	0.112793 
929.689312  	0.112323 
931.618128  	0.112360 
933.546944  	0.112346 
935.475760  	0.112154 
937.404576  	0.111630 
939.333392  	0.110886 
941.262208  	0.110209 
943.191024  	0.110353 
945.119840  	0.111928 
947.048656  	0.115011 
948.977472  	0.118931 
950.906288  	0.123880 
952.835104  	0.129741 
954.763920  	0.136045 
956.692736  	0.142077 
958.621552  	0.147327 
960.550368  	0.151024 
962.479184  	0.152772 
964.408000  	0.152263 
966.336816  	0.149301 
968.265632  	0.143982 
970.194448  	0.136776 
972.123264  	0.128189 
974.052080  	0.119074 
975.980896  	0.110117 
977.909712  	0.101700 
979.838528  	0.094165 
981.767344  	0.087615 
983.696160  	0.082404 
985.624976  	0.078771 
987.553792  	0.076677 
989.482608  	0.076442 
991.411424  	0.077665 
993.340240  	0.079756 
995.269056  	0.082557 
997.197872  	0.085841 
999.126688  	0.089357 
1001.055504  	0.092708 
1002.984320  	0.096119 
1004.913136  	0.099552 
1006.841952  	0.102930 
1008.770768  	0.105731 
1010.699584  	0.107578 
1012.628400  	0.108598 
1014.557216  	0.108896 
1016.486032  	0.108926 
1018.414848  	0.108708 
1020.343664  	0.108439 
1022.272480  	0.107823 
1024.201296  	0.106723 
1026.130112  	0.103654 
1028.058928  	0.102225 
1029.987744  	0.104567 
1031.916560  	0.105528 
1033.845376  	0.105336 
1035.774192  	0.104677 
1037.703008  	0.104993 
1039.631824  	0.108055 
1041.560640  	0.112670 
1043.489456  	0.118927 
1045.418272  	0.126778 
1047.347088  	0.136050 
1049.275904  	0.145370 
1051.204720  	0.153142 
1053.133536  	0.158414 
1055.062352  	0.161271 
1056.991168  	0.162072 
1058.919984  	0.164354 
1060.848800  	0.166912 
1062.777616  	0.166290 
1064.706432  	0.161927 
1066.635248  	0.158696 
1068.564064  	0.159641 
1070.492880  	0.158001 
1072.421696  	0.153254 
1074.350512  	0.149789 
1076.279328  	0.148878 
1078.208144  	0.150499 
1080.136960  	0.154623 
1082.065776  	0.160157 
1083.994592  	0.165036 
1085.923408  	0.168116 
1087.852224  	0.168798 
1089.781040  	0.167730 
1091.709856  	0.166030 
1093.638672  	0.162468 
1095.567488  	0.156216 
1097.496304  	0.148574 
1099.425120  	0.140322 
1101.353936  	0.131818 
1103.282752  	0.123423 
1105.211568  	0.115552 
1107.140384  	0.107843 
1109.069200  	0.100279 
1110.998016  	0.093067 
1112.926832  	0.086678 
1114.855648  	0.080969 
1116.784464  	0.075532 
1118.713280  	0.070511 
1120.642096  	0.065701 
1122.570912  	0.061006 
1124.499728  	0.056395 
1126.428544  	0.052559 
1128.357360  	0.049353 
1130.286176  	0.046731 
1132.214992  	0.044195 
1134.143808  	0.042088 
1136.072624  	0.040470 
1138.001440  	0.039246 
1139.930256  	0.037533 
1141.859072  	0.035841 
1143.787888  	0.034128 
1145.716704  	0.032541 
1147.645520  	0.031137 
1149.574336  	0.029866 
1151.503152  	0.028752 
1153.431968  	0.028389 
1155.360784  	0.028429 
1157.289600  	0.028826 
1159.218416  	0.029522 
1161.147232  	0.030505 
1163.076048  	0.031643 
1165.004864  	0.033026 
1166.933680  	0.034193 
1168.862496  	0.035561 
1170.791312  	0.036886 
1172.720128  	0.038622 
1174.648944  	0.040107 
1176.577760  	0.041621 
1178.506576  	0.043148 
1180.435392  	0.044846 
1182.364208  	0.046282 
1184.293024  	0.048001 
1186.221840  	0.049906 
1188.150656  	0.052034 
1190.079472  	0.054424 
1192.008288  	0.057524 
1193.937104  	0.061239 
1195.865920  	0.065767 
1197.794736  	0.070756 
1199.723552  	0.076120 
1201.652368  	0.081747 
1203.581184  	0.087501 
1205.510000  	0.092914 
1207.438816  	0.098291 
1209.367632  	0.103491 
1211.296448  	0.108079 
1213.225264  	0.111692 
1215.154080  	0.114564 
1217.082896  	0.116782 
1219.011712  	0.118330 
1220.940528  	0.119587 
1222.869344  	0.120580 
1224.798160  	0.120977 
1226.726976  	0.120765 
1228.655792  	0.120353 
1230.584608  	0.119789 
1232.513424  	0.118928 
1234.442240  	0.117802 
1236.371056  	0.116116 
1238.299872  	0.113402 
1240.228688  	0.108581 
1242.157504  	0.103919 
1244.086320  	0.100437 
1246.015136  	0.095612 
1247.943952  	0.089866 
1249.872768  	0.084164 
1251.801584  	0.079521 
1253.730400  	0.074877 
1255.659216  	0.070034 
1257.588032  	0.065415 
1259.516848  	0.061076 
1261.445664  	0.057155 
1263.374480  	0.053614 
1265.303296  	0.050672 
1267.232112  	0.048334 
1269.160928  	0.046529 
1271.089744  	0.044998 
1273.018560  	0.044204 
1274.947376  	0.044085 
1276.876192  	0.044198 
1278.805008  	0.044004 
1280.733824  	0.043267 
1282.662640  	0.042032 
1284.591456  	0.040603 
1286.520272  	0.039206 
1288.449088  	0.038144 
1290.377904  	0.037574 
1292.306720  	0.037627 
1294.235536  	0.037663 
1296.164352  	0.037092 
1298.093168  	0.035654 
1300.021984  	0.033918 
1301.950800  	0.031859 
1303.879616  	0.029863 
1305.808432  	0.027681 
1307.737248  	0.025550 
1309.666064  	0.023463 
1311.594880  	0.021864 
1313.523696  	0.020558 
1315.452512  	0.019727 
1317.381328  	0.019196 
1319.310144  	0.018959 
1321.238960  	0.018982 
1323.167776  	0.019421 
1325.096592  	0.019958 
1327.025408  	0.020357 
1328.954224  	0.020284 
1330.883040  	0.019965 
1332.811856  	0.019460 
1334.740672  	0.019146 
1336.669488  	0.019082 
1338.598304  	0.019056 
1340.527120  	0.017985 
1342.455936  	0.017066 
1344.384752  	0.016805 
1346.313568  	0.016838 
1348.242384  	0.017079 
1350.171200  	0.017777 
1352.100016  	0.018696 
1354.028832  	0.019776 
1355.957648  	0.020641 
1357.886464  	0.021879 
1359.815280  	0.023439 
1361.744096  	0.024853 
1363.672912  	0.025125 
1365.601728  	0.025721 
1367.530544  	0.026615 
1369.459360  	0.026587 
1371.388176  	0.026365 
1373.316992  	0.025539 
1375.245808  	0.023000 
1377.174624  	0.021183 
1379.103440  	0.019133 
1381.032256  	0.016992 
1382.961072  	0.015536 
1384.889888  	0.015381 
1386.818704  	0.015066 
1388.747520  	0.013835 
1390.676336  	0.012265 
1392.605152  	0.009615 
1394.533968  	0.007818 
1396.462784  	0.010339 
1398.391600  	0.011521 
1400.320416  	0.010485 
1402.249232  	0.010551 
1404.178048  	0.010690 
1406.106864  	0.010673 
1408.035680  	0.011987 
1409.964496  	0.013873 
1411.893312  	0.015914 
1413.822128  	0.018252 
1415.750944  	0.021286 
1417.679760  	0.023364 
1419.608576  	0.022895 
1421.537392  	0.023473 
1423.466208  	0.024051 
1425.395024  	0.022948 
1427.323840  	0.022553 
1429.252656  	0.021043 
1431.181472  	0.019796 
1433.110288  	0.019962 
1435.039104  	0.020868 
1436.967920  	0.019642 
1438.896736  	0.019832 
1440.825552  	0.020867 
1442.754368  	0.021385 
1444.683184  	0.021660 
1446.612000  	0.021656 
1448.540816  	0.020411 
1450.469632  	0.020631 
1452.398448  	0.021504 
1454.327264  	0.022785 
1456.256080  	0.022562 
1458.184896  	0.019510 
1460.113712  	0.020644 
1462.042528  	0.022421 
1463.971344  	0.022394 
1465.900160  	0.021782 
1467.828976  	0.023573 
1469.757792  	0.026234 
1471.686608  	0.028047 
1473.615424  	0.030348 
1475.544240  	0.034421 
1477.473056  	0.038002 
1479.401872  	0.040991 
1481.330688  	0.043277 
1483.259504  	0.044855 
1485.188320  	0.046505 
1487.117136  	0.046870 
1489.045952  	0.046419 
1490.974768  	0.043916 
1492.903584  	0.043169 
1494.832400  	0.042053 
1496.761216  	0.037527 
1498.690032  	0.033228 
1500.618848  	0.030797 
1502.547664  	0.029094 
1504.476480  	0.027500 
1506.405296  	0.022515 
1508.334112  	0.018982 
1510.262928  	0.019804 
1512.191744  	0.019098 
1514.120560  	0.018968 
1516.049376  	0.018736 
1517.978192  	0.017741 
1519.907008  	0.019161 
1521.835824  	0.018334 
1523.764640  	0.021009 
1525.693456  	0.024019 
1527.622272  	0.025138 
1529.551088  	0.025939 
1531.479904  	0.026462 
1533.408720  	0.023571 
1535.337536  	0.021335 
1537.266352  	0.021570 
1539.195168  	0.017078 
1541.123984  	0.010969 
1543.052800  	0.012431 
1544.981616  	0.012645 
1546.910432  	0.012643 
1548.839248  	0.013387 
1550.768064  	0.013053 
1552.696880  	0.013340 
1554.625696  	0.013607 
1556.554512  	0.014463 
1558.483328  	0.012589 
1560.412144  	0.011934 
1562.340960  	0.017690 
1564.269776  	0.020622 
1566.198592  	0.023804 
1568.127408  	0.026696 
1570.056224  	0.028616 
1571.985040  	0.033002 
1573.913856  	0.037071 
1575.842672  	0.037218 
1577.771488  	0.037956 
1579.700304  	0.039981 
1581.629120  	0.040151 
1583.557936  	0.039735 
1585.486752  	0.040086 
1587.415568  	0.041357 
1589.344384  	0.043770 
1591.273200  	0.047142 
1593.202016  	0.051497 
1595.130832  	0.055996 
1597.059648  	0.060895 
1598.988464  	0.065350 
1600.917280  	0.069250 
1602.846096  	0.071782 
1604.774912  	0.073565 
1606.703728  	0.074212 
1608.632544  	0.073937 
1610.561360  	0.072808 
1612.490176  	0.072115 
1614.418992  	0.071384 
1616.347808  	0.068831 
1618.276624  	0.068185 
1620.205440  	0.071727 
1622.134256  	0.073702 
1624.063072  	0.075962 
1625.991888  	0.080328 
1627.920704  	0.085212 
1629.849520  	0.091149 
1631.778336  	0.097974 
1633.707152  	0.103112 
1635.635968  	0.107041 
1637.564784  	0.113050 
1639.493600  	0.119887 
1641.422416  	0.124604 
1643.351232  	0.128895 
1645.280048  	0.130770 
1647.208864  	0.130190 
1649.137680  	0.132084 
1651.066496  	0.135279 
1652.995312  	0.130387 
1654.924128  	0.128456 
1656.852944  	0.131089 
1658.781760  	0.131200 
1660.710576  	0.129702 
1662.639392  	0.126242 
1664.568208  	0.123798 
1666.497024  	0.123616 
1668.425840  	0.120197 
1670.354656  	0.114411 
1672.283472  	0.112774 
1674.212288  	0.111773 
1676.141104  	0.107465 
1678.069920  	0.107444 
1679.998736  	0.107354 
1681.927552  	0.107211 
1683.856368  	0.103305 
1685.785184  	0.101054 
1687.714000  	0.103866 
1689.642816  	0.104059 
1691.571632  	0.103409 
1693.500448  	0.104054 
1695.429264  	0.101712 
1697.358080  	0.099320 
1699.286896  	0.098836 
1701.215712  	0.093553 
1703.144528  	0.094469 
1705.073344  	0.092497 
1707.002160  	0.088317 
1708.930976  	0.086212 
1710.859792  	0.082684 
1712.788608  	0.078549 
1714.717424  	0.072860 
1716.646240  	0.064772 
1718.575056  	0.053578 
1720.503872  	0.048244 
1722.432688  	0.043828 
1724.361504  	0.036900 
1726.290320  	0.031332 
1728.219136  	0.026791 
1730.147952  	0.022464 
1732.076768  	0.019353 
1734.005584  	0.013605 
1735.934400  	0.009122 
1737.863216  	0.010079 
1739.792032  	0.007438 
1741.720848  	0.006431 
1743.649664  	0.006000 
1745.578480  	0.005562 
1747.507296  	0.004551 
1749.436112  	0.003610 
1751.364928  	0.002237 
1753.293744  	0.002016 
1755.222560  	0.002421 
1757.151376  	0.001643 
1759.080192  	0.001508 
1761.009008  	0.001278 
1762.937824  	-0.000412 
1764.866640  	0.000157 
1766.795456  	0.000766 
1768.724272  	0.000252 
1770.653088  	-0.000706 
1772.581904  	-0.002984 
1774.510720  	-0.002773 
1776.439536  	-0.001526 
1778.368352  	-0.001040 
1780.297168  	-0.001272 
1782.225984  	-0.001806 
1784.154800  	-0.001400 
1786.083616  	-0.002099 
1788.012432  	-0.001701 
1789.941248  	-0.001165 
1791.870064  	-0.002351 
1793.798880  	-0.003752 
1795.727696  	-0.002574 
1797.656512  	-0.002493 
1799.585328  	-0.002374 
1801.514144  	-0.002669 
1803.442960  	-0.002667 
1805.371776  	-0.002841 
1807.300592  	-0.002551 
1809.229408  	-0.002928 
1811.158224  	-0.003332 
1813.087040  	-0.003512 
1815.015856  	-0.003007 
1816.944672  	-0.002985 
1818.873488  	-0.002974 
1820.802304  	-0.003128 
1822.731120  	-0.002397 
1824.659936  	-0.002990 
1826.588752  	-0.003734 
1828.517568  	-0.003674 
1830.446384  	-0.004217 
1832.375200  	-0.003924 
1834.304016  	-0.003230 
1836.232832  	-0.003335 
1838.161648  	-0.003265 
1840.090464  	-0.003464 
1842.019280  	-0.002801 
1843.948096  	-0.003963 
1845.876912  	-0.004392 
1847.805728  	-0.003757 
1849.734544  	-0.003678 
1851.663360  	-0.003769 
1853.592176  	-0.003809 
1855.520992  	-0.003855 
1857.449808  	-0.003654 
1859.378624  	-0.003797 
1861.307440  	-0.003853 
1863.236256  	-0.004028 
1865.165072  	-0.003600 
1867.093888  	-0.003522 
1869.022704  	-0.004260 
1870.951520  	-0.004613 
1872.880336  	-0.003914 
1874.809152  	-0.003905 
1876.737968  	-0.003842 
1878.666784  	-0.004156 
1880.595600  	-0.003748 
1882.524416  	-0.003975 
1884.453232  	-0.004116 
1886.382048  	-0.004176 
1888.310864  	-0.003817 
1890.239680  	-0.004515 
1892.168496  	-0.004012 
1894.097312  	-0.003758 
1896.026128  	-0.003862 
1897.954944  	-0.003969 
1899.883760  	-0.003921 
1901.812576  	-0.004278 
1903.741392  	-0.004474 
1905.670208  	-0.004625 
1907.599024  	-0.004142 
1909.527840  	-0.004386 
1911.456656  	-0.004109 
1913.385472  	-0.003870 
1915.314288  	-0.003531 
1917.243104  	-0.003953 
1919.171920  	-0.004424 
1921.100736  	-0.004206 
1923.029552  	-0.003849 
1924.958368  	-0.004370 
1926.887184  	-0.004295 
1928.816000  	-0.004515 
1930.744816  	-0.004598 
1932.673632  	-0.004758 
1934.602448  	-0.004316 
1936.531264  	-0.003927 
1938.460080  	-0.003203 
1940.388896  	-0.003417 
1942.317712  	-0.004092 
1944.246528  	-0.004679 
1946.175344  	-0.003708 
1948.104160  	-0.003935 
1950.032976  	-0.003640 
1951.961792  	-0.003296 
1953.890608  	-0.003073 
1955.819424  	-0.004412 
1957.748240  	-0.004237 
1959.677056  	-0.004507 
1961.605872  	-0.003763 
1963.534688  	-0.003786 
1965.463504  	-0.003546 
1967.392320  	-0.004363 
1969.321136  	-0.003628 
1971.249952  	-0.003197 
1973.178768  	-0.002693 
1975.107584  	-0.003873 
1977.036400  	-0.002736 
1978.965216  	-0.002138 
1980.894032  	-0.002183 
1982.822848  	-0.002928 
1984.751664  	-0.002560 
1986.680480  	-0.003495 
1988.609296  	-0.003663 
1990.538112  	-0.003836 
1992.466928  	-0.003559 
1994.395744  	-0.004464 
1996.324560  	-0.003734 
1998.253376  	-0.003318 
2000.182192  	-0.003383 
2002.111008  	-0.003816 
2004.039824  	-0.003275 
2005.968640  	-0.003644 
2007.897456  	-0.003240 
2009.826272  	-0.003856 
2011.755088  	-0.003285 
2013.683904  	-0.004360 
2015.612720  	-0.003977 
2017.541536  	-0.003402 
2019.470352  	-0.002438 
2021.399168  	-0.003603 
2023.327984  	-0.004243 
2025.256800  	-0.004087 
2027.185616  	-0.002700 
2029.114432  	-0.003100 
2031.043248  	-0.002688 
2032.972064  	-0.002634 
2034.900880  	-0.001507 
2036.829696  	-0.001479 
2038.758512  	-0.001723 
2040.687328  	-0.002481 
2042.616144  	-0.002122 
2044.544960  	-0.002549 
2046.473776  	-0.002568 
2048.402592  	-0.002791 
2050.331408  	-0.002729 
2052.260224  	-0.003262 
2054.189040  	-0.003281 
2056.117856  	-0.004046 
2058.046672  	-0.003747 
2059.975488  	-0.003914 
2061.904304  	-0.004028 
2063.833120  	-0.003939 
2065.761936  	-0.003855 
2067.690752  	-0.004585 
2069.619568  	-0.004234 
2071.548384  	-0.004069 
2073.477200  	-0.004297 
2075.406016  	-0.004383 
2077.334832  	-0.003980 
2079.263648  	-0.003715 
2081.192464  	-0.003522 
2083.121280  	-0.003877 
2085.050096  	-0.004097 
2086.978912  	-0.004184 
2088.907728  	-0.003787 
2090.836544  	-0.004229 
2092.765360  	-0.004379 
2094.694176  	-0.004127 
2096.622992  	-0.003867 
2098.551808  	-0.003814 
2100.480624  	-0.003640 
2102.409440  	-0.003713 
2104.338256  	-0.003609 
2106.267072  	-0.003468 
2108.195888  	-0.003145 
2110.124704  	-0.003579 
2112.053520  	-0.003553 
2113.982336  	-0.003867 
2115.911152  	-0.004060 
2117.839968  	-0.004199 
2119.768784  	-0.004160 
2121.697600  	-0.004150 
2123.626416  	-0.004073 
2125.555232  	-0.004499 
2127.484048  	-0.004311 
2129.412864  	-0.004881 
2131.341680  	-0.005054 
2133.270496  	-0.004751 
2135.199312  	-0.003606 
2137.128128  	-0.003510 
2139.056944  	-0.004044 
2140.985760  	-0.004262 
2142.914576  	-0.004000 
2144.843392  	-0.003758 
2146.772208  	-0.003393 
2148.701024  	-0.003821 
2150.629840  	-0.003349 
2152.558656  	-0.003819 
2154.487472  	-0.004044 
2156.416288  	-0.003425 
2158.345104  	-0.002203 
2160.273920  	-0.001762 
2162.202736  	-0.001653 
2164.131552  	-0.002029 
2166.060368  	-0.001536 
2167.989184  	-0.001514 
2169.918000  	-0.000471 
2171.846816  	-0.001858 
2173.775632  	-0.002980 
2175.704448  	-0.002297 
2177.633264  	-0.001938 
2179.562080  	-0.003028 
2181.490896  	-0.002722 
2183.419712  	-0.003758 
2185.348528  	-0.003800 
2187.277344  	-0.003517 
2189.206160  	-0.003506 
2191.134976  	-0.003687 
2193.063792  	-0.003398 
2194.992608  	-0.003093 
2196.921424  	-0.002781 
2198.850240  	-0.003410 
2200.779056  	-0.003357 
2202.707872  	-0.003301 
2204.636688  	-0.003630 
2206.565504  	-0.003452 
2208.494320  	-0.002722 
2210.423136  	-0.003298 
2212.351952  	-0.003554 
2214.280768  	-0.003936 
2216.209584  	-0.003750 
2218.138400  	-0.003831 
2220.067216  	-0.003746 
2221.996032  	-0.004141 
2223.924848  	-0.004201 
2225.853664  	-0.003705 
2227.782480  	-0.003837 
2229.711296  	-0.004983 
2231.640112  	-0.005084 
2233.568928  	-0.004765 
2235.497744  	-0.004157 
2237.426560  	-0.004507 
2239.355376  	-0.004399 
2241.284192  	-0.004122 
2243.213008  	-0.003969 
2245.141824  	-0.004511 
2247.070640  	-0.004354 
2248.999456  	-0.004712 
2250.928272  	-0.004979 
2252.857088  	-0.004963 
2254.785904  	-0.004698 
2256.714720  	-0.005004 
2258.643536  	-0.005247 
2260.572352  	-0.005449 
2262.501168  	-0.005253 
2264.429984  	-0.005087 
2266.358800  	-0.004955 
2268.287616  	-0.004938 
2270.216432  	-0.004677 
2272.145248  	-0.004408 
2274.074064  	-0.004673 
2276.002880  	-0.004900 
2277.931696  	-0.004481 
2279.860512  	-0.004301 
2281.789328  	-0.004571 
2283.718144  	-0.004852 
2285.646960  	-0.004538 
2287.575776  	-0.004360 
2289.504592  	-0.004474 
2291.433408  	-0.004672 
2293.362224  	-0.004371 
2295.291040  	-0.004029 
2297.219856  	-0.003692 
2299.148672  	-0.003537 
2301.077488  	-0.003010 
2303.006304  	-0.002720 
2304.935120  	-0.002367 
2306.863936  	-0.002142 
2308.792752  	-0.002063 
2310.721568  	-0.002149 
2312.650384  	-0.002186 
2314.579200  	-0.002359 
2316.508016  	-0.002511 
2318.436832  	-0.002547 
2320.365648  	-0.002902 
2322.294464  	-0.003726 
2324.223280  	-0.004543 
2326.152096  	-0.005543 
2328.080912  	-0.006056 
2330.009728  	-0.006695 
2331.938544  	-0.007704 
2333.867360  	-0.008413 
2335.796176  	-0.008770 
2337.724992  	-0.009247 
2339.653808  	-0.009190 
2341.582624  	-0.009344 
2343.511440  	-0.009494 
2345.440256  	-0.008921 
2347.369072  	-0.006968 
2349.297888  	-0.004591 
2351.226704  	-0.004568 
2353.155520  	-0.006754 
2355.084336  	-0.008518 
2357.013152  	-0.010136 
2358.941968  	-0.010918 
2360.870784  	-0.011889 
2362.799600  	-0.011740 
2364.728416  	-0.011656 
2366.657232  	-0.010978 
2368.586048  	-0.009663 
2370.514864  	-0.008382 
2372.443680  	-0.007285 
2374.372496  	-0.006102 
2376.301312  	-0.005226 
2378.230128  	-0.004535 
2380.158944  	-0.004388 
2382.087760  	-0.004681 
2384.016576  	-0.005011 
2385.945392  	-0.005099 
2387.874208  	-0.005249 
2389.803024  	-0.005411 
2391.731840  	-0.005787 
2393.660656  	-0.005853 
2395.589472  	-0.005776 
2397.518288  	-0.005697 
2399.447104  	-0.005747 
2401.375920  	-0.005806 
2403.304736  	-0.005957 
2405.233552  	-0.005741 
2407.162368  	-0.005666 
2409.091184  	-0.005666 
2411.020000  	-0.005695 
2412.948816  	-0.005576 
2414.877632  	-0.005482 
2416.806448  	-0.005536 
2418.735264  	-0.005689 
2420.664080  	-0.005830 
2422.592896  	-0.005961 
2424.521712  	-0.005685 
2426.450528  	-0.005766 
2428.379344  	-0.005797 
2430.308160  	-0.005481 
2432.236976  	-0.005198 
2434.165792  	-0.005290 
2436.094608  	-0.005387 
2438.023424  	-0.005351 
2439.952240  	-0.005348 
2441.881056  	-0.005427 
2443.809872  	-0.005424 
2445.738688  	-0.005329 
2447.667504  	-0.005134 
2449.596320  	-0.005078 
2451.525136  	-0.005040 
2453.453952  	-0.005164 
2455.382768  	-0.005301 
2457.311584  	-0.005333 
2459.240400  	-0.005414 
2461.169216  	-0.005567 
2463.098032  	-0.005550 
2465.026848  	-0.005372 
2466.955664  	-0.005269 
2468.884480  	-0.005493 
2470.813296  	-0.005590 
2472.742112  	-0.005577 
2474.670928  	-0.005466 
2476.599744  	-0.005469 
2478.528560  	-0.005350 
2480.457376  	-0.005363 
2482.386192  	-0.005466 
2484.315008  	-0.005442 
2486.243824  	-0.005503 
2488.172640  	-0.005484 
2490.101456  	-0.005181 
2492.030272  	-0.005100 
2493.959088  	-0.005068 
2495.887904  	-0.004993 
2497.816720  	-0.004895 
2499.745536  	-0.004831 
2501.674352  	-0.004634 
2503.603168  	-0.004366 
2505.531984  	-0.004439 
2507.460800  	-0.004767 
2509.389616  	-0.004640 
2511.318432  	-0.004574 
2513.247248  	-0.004790 
2515.176064  	-0.005004 
2517.104880  	-0.004840 
2519.033696  	-0.004730 
2520.962512  	-0.004529 
2522.891328  	-0.004336 
2524.820144  	-0.004521 
2526.748960  	-0.004686 
2528.677776  	-0.004549 
2530.606592  	-0.004626 
2532.535408  	-0.004590 
2534.464224  	-0.004352 
2536.393040  	-0.004284 
2538.321856  	-0.004252 
2540.250672  	-0.004103 
2542.179488  	-0.004106 
2544.108304  	-0.004118 
2546.037120  	-0.004071 
2547.965936  	-0.004147 
2549.894752  	-0.004086 
2551.823568  	-0.004102 
2553.752384  	-0.004253 
2555.681200  	-0.004077 
2557.610016  	-0.003886 
2559.538832  	-0.003695 
2561.467648  	-0.003638 
2563.396464  	-0.003686 
2565.325280  	-0.003674 
2567.254096  	-0.003707 
2569.182912  	-0.003741 
2571.111728  	-0.003674 
2573.040544  	-0.003643 
2574.969360  	-0.003486 
2576.898176  	-0.003249 
2578.826992  	-0.003269 
2580.755808  	-0.003281 
2582.684624  	-0.003067 
2584.613440  	-0.003086 
2586.542256  	-0.003203 
2588.471072  	-0.003097 
2590.399888  	-0.002966 
2592.328704  	-0.002964 
2594.257520  	-0.003066 
2596.186336  	-0.003092 
2598.115152  	-0.002921 
2600.043968  	-0.002926 
2601.972784  	-0.002798 
2603.901600  	-0.002667 
2605.830416  	-0.002523 
2607.759232  	-0.002398 
2609.688048  	-0.002352 
2611.616864  	-0.002214 
2613.545680  	-0.002180 
2615.474496  	-0.002188 
2617.403312  	-0.002202 
2619.332128  	-0.002080 
2621.260944  	-0.001975 
2623.189760  	-0.002108 
2625.118576  	-0.002061 
2627.047392  	-0.001918 
2628.976208  	-0.001850 
2630.905024  	-0.001817 
2632.833840  	-0.001723 
2634.762656  	-0.001723 
2636.691472  	-0.001757 
2638.620288  	-0.001678 
2640.549104  	-0.001537 
2642.477920  	-0.001441 
2644.406736  	-0.001300 
2646.335552  	-0.001235 
2648.264368  	-0.001253 
2650.193184  	-0.001206 
2652.122000  	-0.001072 
2654.050816  	-0.001009 
2655.979632  	-0.001020 
2657.908448  	-0.001012 
2659.837264  	-0.000847 
2661.766080  	-0.000805 
2663.694896  	-0.000776 
2665.623712  	-0.000747 
2667.552528  	-0.000629 
2669.481344  	-0.000470 
2671.410160  	-0.000417 
2673.338976  	-0.000382 
2675.267792  	-0.000276 
2677.196608  	-0.000126 
2679.125424  	-0.000008 
2681.054240  	0.000037 
2682.983056  	0.000011 
2684.911872  	-0.000021 
2686.840688  	0.000115 
2688.769504  	0.000216 
2690.698320  	0.000215 
2692.627136  	0.000217 
2694.555952  	0.000248 
2696.484768  	0.000314 
2698.413584  	0.000405 
2700.342400  	0.000432 
2702.271216  	0.000475 
2704.200032  	0.000614 
2706.128848  	0.000732 
2708.057664  	0.000718 
2709.986480  	0.000747 
2711.915296  	0.000775 
2713.844112  	0.000890 
2715.772928  	0.000873 
2717.701744  	0.000929 
2719.630560  	0.001176 
2721.559376  	0.001245 
2723.488192  	0.001257 
2725.417008  	0.001407 
2727.345824  	0.001564 
2729.274640  	0.001636 
2731.203456  	0.001609 
2733.132272  	0.001664 
2735.061088  	0.001821 
2736.989904  	0.001871 
2738.918720  	0.001868 
2740.847536  	0.001966 
2742.776352  	0.001925 
2744.705168  	0.001936 
2746.633984  	0.002016 
2748.562800  	0.001999 
2750.491616  	0.001984 
2752.420432  	0.002095 
2754.349248  	0.002156 
2756.278064  	0.002197 
2758.206880  	0.002119 
2760.135696  	0.002056 
2762.064512  	0.002068 
2763.993328  	0.002149 
2765.922144  	0.002167 
2767.850960  	0.002120 
2769.779776  	0.002064 
2771.708592  	0.002142 
2773.637408  	0.002144 
2775.566224  	0.002080 
2777.495040  	0.002000 
2779.423856  	0.002063 
2781.352672  	0.002124 
2783.281488  	0.002054 
2785.210304  	0.001964 
2787.139120  	0.001986 
2789.067936  	0.001970 
2790.996752  	0.001966 
2792.925568  	0.001920 
2794.854384  	0.001907 
2796.783200  	0.001803 
2798.712016  	0.001669 
2800.640832  	0.001690 
2802.569648  	0.001770 
2804.498464  	0.001731 
2806.427280  	0.001688 
2808.356096  	0.001638 
2810.284912  	0.001640 
2812.213728  	0.001649 
2814.142544  	0.001599 
2816.071360  	0.001591 
2818.000176  	0.001408 
2819.928992  	0.001291 
2821.857808  	0.001310 
2823.786624  	0.001159 
2825.715440  	0.001026 
2827.644256  	0.000919 
2829.573072  	0.000768 
2831.501888  	0.000486 
2833.430704  	0.000183 
2835.359520  	-0.000064 
2837.288336  	-0.000297 
2839.217152  	-0.000548 
2841.145968  	-0.000803 
2843.074784  	-0.001225 
2845.003600  	-0.001779 
2846.932416  	-0.002154 
2848.861232  	-0.002473 
2850.790048  	-0.002962 
2852.718864  	-0.003446 
2854.647680  	-0.003852 
2856.576496  	-0.004415 
2858.505312  	-0.005066 
2860.434128  	-0.005702 
2862.362944  	-0.006441 
2864.291760  	-0.007327 
2866.220576  	-0.008033 
2868.149392  	-0.008449 
2870.078208  	-0.008816 
2872.007024  	-0.008927 
2873.935840  	-0.008964 
2875.864656  	-0.009209 
2877.793472  	-0.009471 
2879.722288  	-0.009850 
2881.651104  	-0.010437 
2883.579920  	-0.010784 
2885.508736  	-0.010848 
2887.437552  	-0.010760 
2889.366368  	-0.010642 
2891.295184  	-0.010883 
2893.224000  	-0.011171 
2895.152816  	-0.011144 
2897.081632  	-0.011487 
2899.010448  	-0.013302 
2900.939264  	-0.014891 
2902.868080  	-0.013653 
2904.796896  	-0.012361 
2906.725712  	-0.011897 
2908.654528  	-0.011417 
2910.583344  	-0.011131 
2912.512160  	-0.010649 
2914.440976  	-0.009666 
2916.369792  	-0.008995 
2918.298608  	-0.008660 
2920.227424  	-0.008368 
2922.156240  	-0.007882 
2924.085056  	-0.007159 
2926.013872  	-0.006326 
2927.942688  	-0.005570 
2929.871504  	-0.004951 
2931.800320  	-0.004308 
2933.729136  	-0.003778 
2935.657952  	-0.003510 
2937.586768  	-0.003011 
2939.515584  	-0.002487 
2941.444400  	-0.002362 
2943.373216  	-0.002430 
2945.302032  	-0.002249 
2947.230848  	-0.002071 
2949.159664  	-0.002411 
2951.088480  	-0.003002 
2953.017296  	-0.003445 
2954.946112  	-0.004118 
2956.874928  	-0.004912 
2958.803744  	-0.005652 
2960.732560  	-0.006104 
2962.661376  	-0.006658 
2964.590192  	-0.007505 
2966.519008  	-0.008729 
2968.447824  	-0.009784 
2970.376640  	-0.010576 
2972.305456  	-0.010979 
2974.234272  	-0.010614 
2976.163088  	-0.010257 
2978.091904  	-0.010264 
2980.020720  	-0.010331 
2981.949536  	-0.010054 
2983.878352  	-0.010151 
2985.807168  	-0.011132 
2987.735984  	-0.012173 
2989.664800  	-0.011827 
2991.593616  	-0.008756 
2993.522432  	-0.006764 
2995.451248  	-0.006140 
2997.380064  	-0.005320 
2999.308880  	-0.004186 
3001.237696  	-0.002855 
3003.166512  	-0.001480 
3005.095328  	-0.000301 
3007.024144  	0.000895 
3008.952960  	0.002292 
3010.881776  	0.003776 
3012.810592  	0.005055 
3014.739408  	0.006209 
3016.668224  	0.007295 
3018.597040  	0.008458 
3020.525856  	0.009611 
3022.454672  	0.010564 
3024.383488  	0.011503 
3026.312304  	0.012399 
3028.241120  	0.013441 
3030.169936  	0.014308 
3032.098752  	0.014869 
3034.027568  	0.015529 
3035.956384  	0.016232 
3037.885200  	0.016921 
3039.814016  	0.017409 
3041.742832  	0.017877 
3043.671648  	0.018419 
3045.600464  	0.018937 
3047.529280  	0.019362 
3049.458096  	0.019804 
3051.386912  	0.020292 
3053.315728  	0.020643 
3055.244544  	0.021052 
3057.173360  	0.021459 
3059.102176  	0.021816 
3061.030992  	0.022347 
3062.959808  	0.022868 
3064.888624  	0.023313 
3066.817440  	0.023757 
3068.746256  	0.024315 
3070.675072  	0.024825 
3072.603888  	0.025156 
3074.532704  	0.025634 
3076.461520  	0.026327 
3078.390336  	0.026947 
3080.319152  	0.027364 
3082.247968  	0.027852 
3084.176784  	0.028300 
3086.105600  	0.028865 
3088.034416  	0.029381 
3089.963232  	0.029978 
3091.892048  	0.030455 
3093.820864  	0.030965 
3095.749680  	0.031455 
3097.678496  	0.031979 
3099.607312  	0.032578 
3101.536128  	0.033247 
3103.464944  	0.033906 
3105.393760  	0.034352 
3107.322576  	0.034844 
3109.251392  	0.035457 
3111.180208  	0.035917 
3113.109024  	0.036505 
3115.037840  	0.037032 
3116.966656  	0.037513 
3118.895472  	0.038025 
3120.824288  	0.038522 
3122.753104  	0.039004 
3124.681920  	0.039356 
3126.610736  	0.039643 
3128.539552  	0.040163 
3130.468368  	0.040794 
3132.397184  	0.041192 
3134.326000  	0.041601 
3136.254816  	0.042002 
3138.183632  	0.042558 
3140.112448  	0.043032 
3142.041264  	0.043503 
3143.970080  	0.043885 
3145.898896  	0.044262 
3147.827712  	0.044727 
3149.756528  	0.045163 
3151.685344  	0.045551 
3153.614160  	0.046154 
3155.542976  	0.046725 
3157.471792  	0.047158 
3159.400608  	0.047716 
3161.329424  	0.048336 
3163.258240  	0.048681 
3165.187056  	0.049129 
3167.115872  	0.049598 
3169.044688  	0.049859 
3170.973504  	0.050128 
3172.902320  	0.050430 
3174.831136  	0.050857 
3176.759952  	0.051407 
3178.688768  	0.051711 
3180.617584  	0.052000 
3182.546400  	0.052416 
3184.475216  	0.052770 
3186.404032  	0.052723 
3188.332848  	0.052809 
3190.261664  	0.053032 
3192.190480  	0.053289 
3194.119296  	0.053279 
3196.048112  	0.053455 
3197.976928  	0.053553 
3199.905744  	0.053555 
3201.834560  	0.053565 
3203.763376  	0.053678 
3205.692192  	0.053726 
3207.621008  	0.053540 
3209.549824  	0.053493 
3211.478640  	0.053700 
3213.407456  	0.053707 
3215.336272  	0.053452 
3217.265088  	0.053361 
3219.193904  	0.053269 
3221.122720  	0.053170 
3223.051536  	0.053126 
3224.980352  	0.053179 
3226.909168  	0.053207 
3228.837984  	0.052982 
3230.766800  	0.052988 
3232.695616  	0.053221 
3234.624432  	0.053155 
3236.553248  	0.053002 
3238.482064  	0.053049 
3240.410880  	0.053149 
3242.339696  	0.053340 
3244.268512  	0.053303 
3246.197328  	0.053287 
3248.126144  	0.053396 
3250.054960  	0.053561 
3251.983776  	0.053764 
3253.912592  	0.053884 
3255.841408  	0.053929 
3257.770224  	0.054043 
3259.699040  	0.054250 
3261.627856  	0.054550 
3263.556672  	0.054882 
3265.485488  	0.055083 
3267.414304  	0.055277 
3269.343120  	0.055636 
3271.271936  	0.055812 
3273.200752  	0.055747 
3275.129568  	0.055699 
3277.058384  	0.056145 
3278.987200  	0.056492 
3280.916016  	0.056526 
3282.844832  	0.056623 
3284.773648  	0.056691 
3286.702464  	0.056887 
3288.631280  	0.057203 
3290.560096  	0.057561 
3292.488912  	0.057863 
3294.417728  	0.058033 
3296.346544  	0.058485 
3298.275360  	0.058721 
3300.204176  	0.058774 
3302.132992  	0.058995 
3304.061808  	0.059311 
3305.990624  	0.059726 
3307.919440  	0.060064 
3309.848256  	0.060240 
3311.777072  	0.060428 
3313.705888  	0.060595 
3315.634704  	0.061100 
3317.563520  	0.061450 
3319.492336  	0.061658 
3321.421152  	0.061989 
3323.349968  	0.062340 
3325.278784  	0.062576 
3327.207600  	0.062729 
3329.136416  	0.062715 
3331.065232  	0.062895 
3332.994048  	0.063290 
3334.922864  	0.063378 
3336.851680  	0.063368 
3338.780496  	0.063382 
3340.709312  	0.063370 
3342.638128  	0.063416 
3344.566944  	0.063335 
3346.495760  	0.063270 
3348.424576  	0.063112 
3350.353392  	0.063000 
3352.282208  	0.062843 
3354.211024  	0.062815 
3356.139840  	0.062707 
3358.068656  	0.062510 
3359.997472  	0.062296 
3361.926288  	0.061978 
3363.855104  	0.061709 
3365.783920  	0.061377 
3367.712736  	0.061066 
3369.641552  	0.061024 
3371.570368  	0.060813 
3373.499184  	0.060537 
3375.428000  	0.060236 
3377.356816  	0.060037 
3379.285632  	0.060085 
3381.214448  	0.059827 
3383.143264  	0.059497 
3385.072080  	0.059117 
3387.000896  	0.058718 
3388.929712  	0.058491 
3390.858528  	0.058509 
3392.787344  	0.058174 
3394.716160  	0.057845 
3396.644976  	0.057797 
3398.573792  	0.057545 
3400.502608  	0.057181 
3402.431424  	0.056928 
3404.360240  	0.056612 
3406.289056  	0.056181 
3408.217872  	0.055853 
3410.146688  	0.055636 
3412.075504  	0.055326 
3414.004320  	0.054954 
3415.933136  	0.054806 
3417.861952  	0.054477 
3419.790768  	0.053902 
3421.719584  	0.053455 
3423.648400  	0.053354 
3425.577216  	0.053153 
3427.506032  	0.052762 
3429.434848  	0.052416 
3431.363664  	0.051885 
3433.292480  	0.051297 
3435.221296  	0.050805 
3437.150112  	0.050556 
3439.078928  	0.050412 
3441.007744  	0.049847 
3442.936560  	0.049385 
3444.865376  	0.049280 
3446.794192  	0.048614 
3448.723008  	0.047830 
3450.651824  	0.047598 
3452.580640  	0.047085 
3454.509456  	0.046763 
3456.438272  	0.046286 
3458.367088  	0.045871 
3460.295904  	0.045611 
3462.224720  	0.044735 
3464.153536  	0.044007 
3466.082352  	0.043726 
3468.011168  	0.043032 
3469.939984  	0.042334 
3471.868800  	0.041876 
3473.797616  	0.041358 
3475.726432  	0.040800 
3477.655248  	0.040178 
3479.584064  	0.039815 
3481.512880  	0.039227 
3483.441696  	0.038343 
3485.370512  	0.038159 
3487.299328  	0.037528 
3489.228144  	0.036637 
3491.156960  	0.035959 
3493.085776  	0.035412 
3495.014592  	0.034904 
3496.943408  	0.034376 
3498.872224  	0.034093 
3500.801040  	0.033993 
3502.729856  	0.033096 
3504.658672  	0.032031 
3506.587488  	0.032032 
3508.516304  	0.031736 
3510.445120  	0.030703 
3512.373936  	0.030123 
3514.302752  	0.029851 
3516.231568  	0.029840 
3518.160384  	0.029428 
3520.089200  	0.028882 
3522.018016  	0.028677 
3523.946832  	0.028130 
3525.875648  	0.027567 
3527.804464  	0.026783 
3529.733280  	0.025988 
3531.662096  	0.025429 
3533.590912  	0.025221 
3535.519728  	0.025022 
3537.448544  	0.024451 
3539.377360  	0.024006 
3541.306176  	0.023755 
3543.234992  	0.023802 
3545.163808  	0.023602 
3547.092624  	0.022464 
3549.021440  	0.021502 
3550.950256  	0.021398 
3552.879072  	0.020397 
3554.807888  	0.019852 
3556.736704  	0.019699 
3558.665520  	0.019573 
3560.594336  	0.019175 
3562.523152  	0.018592 
3564.451968  	0.018943 
3566.380784  	0.018392 
3568.309600  	0.015774 
3570.238416  	0.015636 
3572.167232  	0.015995 
3574.096048  	0.015557 
3576.024864  	0.015017 
3577.953680  	0.014629 
3579.882496  	0.013890 
3581.811312  	0.013489 
3583.740128  	0.013702 
3585.668944  	0.014119 
3587.597760  	0.011778 
3589.526576  	0.009827 
3591.455392  	0.010679 
3593.384208  	0.010819 
3595.313024  	0.009692 
3597.241840  	0.008660 
3599.170656  	0.007811 
3601.099472  	0.006714 
3603.028288  	0.006747 
3604.957104  	0.007500 
3606.885920  	0.007228 
3608.814736  	0.005246 
3610.743552  	0.004769 
3612.672368  	0.004253 
3614.601184  	0.002993 
3616.530000  	0.003574 
3618.458816  	0.001773 
3620.387632  	-0.000789 
3622.316448  	-0.000061 
3624.245264  	0.000903 
3626.174080  	0.001572 
3628.102896  	-0.000547 
3630.031712  	-0.006047 
3631.960528  	-0.004040 
3633.889344  	-0.003825 
3635.818160  	-0.004710 
3637.746976  	-0.004984 
3639.675792  	-0.005246 
3641.604608  	-0.005513 
3643.533424  	-0.005642 
3645.462240  	-0.005058 
3647.391056  	-0.007222 
3649.319872  	-0.012184 
3651.248688  	-0.015033 
3653.177504  	-0.011796 
3655.106320  	-0.010798 
3657.035136  	-0.014380 
3658.963952  	-0.014174 
3660.892768  	-0.013641 
3662.821584  	-0.013859 
3664.750400  	-0.013576 
3666.679216  	-0.012641 
3668.608032  	-0.013500 
3670.536848  	-0.017761 
3672.465664  	-0.015591 
3674.394480  	-0.014653 
3676.323296  	-0.021106 
3678.252112  	-0.017939 
3680.180928  	-0.015934 
3682.109744  	-0.015456 
3684.038560  	-0.015202 
3685.967376  	-0.013968 
3687.896192  	-0.015208 
3689.825008  	-0.019199 
3691.753824  	-0.019166 
3693.682640  	-0.016799 
3695.611456  	-0.015220 
3697.540272  	-0.014529 
3699.469088  	-0.013260 
3701.397904  	-0.014013 
3703.326720  	-0.014498 
3705.255536  	-0.012740 
3707.184352  	-0.011422 
3709.113168  	-0.011962 
3711.041984  	-0.014706 
3712.970800  	-0.015992 
3714.899616  	-0.013357 
3716.828432  	-0.011398 
3718.757248  	-0.011303 
3720.686064  	-0.011532 
3722.614880  	-0.012119 
3724.543696  	-0.011858 
3726.472512  	-0.012312 
3728.401328  	-0.012141 
3730.330144  	-0.010902 
3732.258960  	-0.011999 
3734.187776  	-0.012529 
3736.116592  	-0.014952 
3738.045408  	-0.014858 
3739.974224  	-0.012282 
3741.903040  	-0.009710 
3743.831856  	-0.011106 
3745.760672  	-0.015688 
3747.689488  	-0.011990 
3749.618304  	-0.013298 
3751.547120  	-0.016912 
3753.475936  	-0.016252 
3755.404752  	-0.012886 
3757.333568  	-0.012054 
3759.262384  	-0.013148 
3761.191200  	-0.013616 
3763.120016  	-0.011231 
3765.048832  	-0.011552 
3766.977648  	-0.012148 
3768.906464  	-0.012261 
3770.835280  	-0.013982 
3772.764096  	-0.012793 
3774.692912  	-0.011759 
3776.621728  	-0.011012 
3778.550544  	-0.011696 
3780.479360  	-0.013664 
3782.408176  	-0.012216 
3784.336992  	-0.012141 
3786.265808  	-0.012552 
3788.194624  	-0.012034 
3790.123440  	-0.011902 
3792.052256  	-0.011744 
3793.981072  	-0.010973 
3795.909888  	-0.011994 
3797.838704  	-0.012453 
3799.767520  	-0.011036 
3801.696336  	-0.015420 
3803.625152  	-0.015083 
3805.553968  	-0.012332 
3807.482784  	-0.014861 
3809.411600  	-0.013529 
3811.340416  	-0.011531 
3813.269232  	-0.010250 
3815.198048  	-0.011860 
3817.126864  	-0.014692 
3819.055680  	-0.011923 
3820.984496  	-0.014947 
3822.913312  	-0.016139 
3824.842128  	-0.012543 
3826.770944  	-0.012805 
3828.699760  	-0.012201 
3830.628576  	-0.011595 
3832.557392  	-0.012530 
3834.486208  	-0.012043 
3836.415024  	-0.012413 
3838.343840  	-0.014470 
3840.272656  	-0.014713 
3842.201472  	-0.013409 
3844.130288  	-0.013589 
3846.059104  	-0.012780 
3847.987920  	-0.011072 
3849.916736  	-0.009815 
3851.845552  	-0.010193 
3853.774368  	-0.017879 
3855.703184  	-0.017491 
3857.632000  	-0.013792 
3859.560816  	-0.011794 
3861.489632  	-0.011398 
3863.418448  	-0.012115 
3865.347264  	-0.013465 
3867.276080  	-0.011765 
3869.204896  	-0.012056 
3871.133712  	-0.014225 
3873.062528  	-0.012366 
3874.991344  	-0.013530 
3876.920160  	-0.011726 
3878.848976  	-0.010343 
3880.777792  	-0.012504 
3882.706608  	-0.011833 
3884.635424  	-0.011054 
3886.564240  	-0.013832 
3888.493056  	-0.011887 
3890.421872  	-0.011259 
3892.350688  	-0.013434 
3894.279504  	-0.012615 
3896.208320  	-0.010703 
3898.137136  	-0.010047 
3900.065952  	-0.011127 
3901.994768  	-0.011484 
3903.923584  	-0.012777 
3905.852400  	-0.013786 
3907.781216  	-0.012587 
3909.710032  	-0.011754 
3911.638848  	-0.011650 
3913.567664  	-0.011168 
3915.496480  	-0.010704 
3917.425296  	-0.011751 
3919.354112  	-0.012280 
3921.282928  	-0.011917 
3923.211744  	-0.011081 
3925.140560  	-0.011609 
3927.069376  	-0.011711 
3928.998192  	-0.011281 
3930.927008  	-0.011250 
3932.855824  	-0.011812 
3934.784640  	-0.012048 
3936.713456  	-0.011611 
3938.642272  	-0.011298 
3940.571088  	-0.010665 
3942.499904  	-0.011184 
3944.428720  	-0.011791 
3946.357536  	-0.011006 
3948.286352  	-0.011158 
3950.215168  	-0.011750 
3952.143984  	-0.011813 
3954.072800  	-0.011672 
3956.001616  	-0.011545 
3957.930432  	-0.011621 
3959.859248  	-0.011540 
3961.788064  	-0.011650 
3963.716880  	-0.011981 
3965.645696  	-0.012025 
3967.574512  	-0.011790 
3969.503328  	-0.011598 
3971.432144  	-0.011612 
3973.360960  	-0.011651 
3975.289776  	-0.011701 
3977.218592  	-0.011665 
3979.147408  	-0.011655 
3981.076224  	-0.011730 
3983.005040  	-0.011808 
3984.933856  	-0.011804 
3986.862672  	-0.011780 
3988.791488  	-0.011661 
3990.720304  	-0.011653 
3992.649120  	-0.011637 
3994.577936  	-0.011641 
3996.506752  	-0.011671 
3998.435568  	-0.011837 
4000.364384  	-0.011825 