##TITLE=No Description
##DATA TYPE=INFRARED SPECTRUM
##XUNITS=1/CM
##YUNITS=Abs
399.264912  	0.599151 
401.193728  	0.590180 
403.122544  	0.613642 
405.051360  	0.625369 
406.980176  	0.626425 
408.908992  	0.607452 
410.837808  	0.600932 
412.766624  	0.580671 
414.695440  	0.581134 
416.624256  	0.596231 
418.553072  	0.598821 
420.481888  	0.574727 
422.410704  	0.585113 
424.339520  	0.583206 
426.268336  	0.575042 
428.197152  	0.564675 
430.125968  	0.572567 
432.054784  	0.569908 
433.983600  	0.567780 
435.912416  	0.563214 
437.841232  	0.559155 
439.770048  	0.555473 
441.698864  	0.553586 
443.627680  	0.546132 
445.556496  	0.544475 
447.485312  	0.539279 
449.414128  	0.541930 
451.342944  	0.537764 
453.271760  	0.530609 
455.200576  	0.531658 
457.129392  	0.540306 
459.058208  	0.541617 
460.987024  	0.543623 
462.915840  	0.539863 
464.844656  	0.537171 
466.773472  	0.530653 
468.702288  	0.534324 
470.631104  	0.528320 
472.559920  	0.527346 
474.488736  	0.525865 
476.417552  	0.525481 
478.346368  	0.526526 
480.275184  	0.529756 
482.204000  	0.520360 
484.132816  	0.516064 
486.061632  	0.513691 
487.990448  	0.519792 
489.919264  	0.523850 
491.848080  	0.523857 
493.776896  	0.516399 
495.705712  	0.516060 
497.634528  	0.511757 
499.563344  	0.511371 
501.492160  	0.509213 
503.420976  	0.512004 
505.349792  	0.511742 
507.278608  	0.509174 
509.207424  	0.505313 
511.136240  	0.507504 
513.065056  	0.508849 
514.993872  	0.513784 
516.922688  	0.513452 
518.851504  	0.513822 
520.780320  	0.509935 
522.709136  	0.507864 
524.637952  	0.506884 
526.566768  	0.507769 
528.495584  	0.505198 
530.424400  	0.503840 
532.353216  	0.498783 
534.282032  	0.493756 
536.210848  	0.489078 
538.139664  	0.488041 
540.068480  	0.484629 
541.997296  	0.481500 
543.926112  	0.478065 
545.854928  	0.474570 
547.783744  	0.470008 
549.712560  	0.468644 
551.641376  	0.466140 
553.570192  	0.462714 
555.499008  	0.457828 
557.427824  	0.456251 
559.356640  	0.454406 
561.285456  	0.451128 
563.214272  	0.446485 
565.143088  	0.445104 
567.071904  	0.442663 
569.000720  	0.439980 
570.929536  	0.436890 
572.858352  	0.434911 
574.787168  	0.432944 
576.715984  	0.431371 
578.644800  	0.427790 
580.573616  	0.424521 
582.502432  	0.420320 
584.431248  	0.418022 
586.360064  	0.415261 
588.288880  	0.413440 
590.217696  	0.410641 
592.146512  	0.408080 
594.075328  	0.405100 
596.004144  	0.403504 
597.932960  	0.401006 
599.861776  	0.399383 
601.790592  	0.397665 
603.719408  	0.396157 
605.648224  	0.394217 
607.577040  	0.392960 
609.505856  	0.390524 
611.434672  	0.388198 
613.363488  	0.385998 
615.292304  	0.385520 
617.221120  	0.383767 
619.149936  	0.381855 
621.078752  	0.379532 
623.007568  	0.378419 
624.936384  	0.376528 
626.865200  	0.374938 
628.794016  	0.373015 
630.722832  	0.371803 
632.651648  	0.370620 
634.580464  	0.369896 
636.509280  	0.368903 
638.438096  	0.368202 
640.366912  	0.366603 
642.295728  	0.365234 
644.224544  	0.362984 
646.153360  	0.360118 
648.082176  	0.355575 
650.010992  	0.351998 
651.939808  	0.348594 
653.868624  	0.345678 
655.797440  	0.341956 
657.726256  	0.338800 
659.655072  	0.335448 
661.583888  	0.331961 
663.512704  	0.328937 
665.441520  	0.327185 
667.370336  	0.322556 
669.299152  	0.316859 
671.227968  	0.314768 
673.156784  	0.312299 
675.085600  	0.309682 
677.014416  	0.307291 
678.943232  	0.304681 
680.872048  	0.302526 
682.800864  	0.300509 
684.729680  	0.298913 
686.658496  	0.296707 
688.587312  	0.295346 
690.516128  	0.293865 
692.444944  	0.292475 
694.373760  	0.290665 
696.302576  	0.288298 
698.231392  	0.285687 
700.160208  	0.282945 
702.089024  	0.280266 
704.017840  	0.278314 
705.946656  	0.276031 
707.875472  	0.274055 
709.804288  	0.271456 
711.733104  	0.268888 
713.661920  	0.266376 
715.590736  	0.264802 
717.519552  	0.263637 
719.448368  	0.263286 
721.377184  	0.262494 
723.306000  	0.261637 
725.234816  	0.260869 
727.163632  	0.259917 
729.092448  	0.257997 
731.021264  	0.255183 
732.950080  	0.252307 
734.878896  	0.249767 
736.807712  	0.247058 
738.736528  	0.244619 
740.665344  	0.242435 
742.594160  	0.240657 
744.522976  	0.238942 
746.451792  	0.237010 
748.380608  	0.234978 
750.309424  	0.233297 
752.238240  	0.231918 
754.167056  	0.230386 
756.095872  	0.228665 
758.024688  	0.227617 
759.953504  	0.226528 
761.882320  	0.226179 
763.811136  	0.225633 
765.739952  	0.224469 
767.668768  	0.221877 
769.597584  	0.219046 
771.526400  	0.217238 
773.455216  	0.216920 
775.384032  	0.217867 
777.312848  	0.219920 
779.241664  	0.221624 
781.170480  	0.221002 
783.099296  	0.217953 
785.028112  	0.213509 
786.956928  	0.208588 
788.885744  	0.204610 
790.814560  	0.201654 
792.743376  	0.199109 
794.672192  	0.197265 
796.601008  	0.196151 
798.529824  	0.193327 
800.458640  	0.189507 
802.387456  	0.186483 
804.316272  	0.184266 
806.245088  	0.182227 
808.173904  	0.180796 
810.102720  	0.179530 
812.031536  	0.178307 
813.960352  	0.177637 
815.889168  	0.177028 
817.817984  	0.176083 
819.746800  	0.175192 
821.675616  	0.174256 
823.604432  	0.173391 
825.533248  	0.172498 
827.462064  	0.171262 
829.390880  	0.169825 
831.319696  	0.168325 
833.248512  	0.166210 
835.177328  	0.163925 
837.106144  	0.161718 
839.034960  	0.159115 
840.963776  	0.155953 
842.892592  	0.152809 
844.821408  	0.149857 
846.750224  	0.147407 
848.679040  	0.145115 
850.607856  	0.143080 
852.536672  	0.141231 
854.465488  	0.139446 
856.394304  	0.137804 
858.323120  	0.136169 
860.251936  	0.134283 
862.180752  	0.132190 
864.109568  	0.129794 
866.038384  	0.127492 
867.967200  	0.125549 
869.896016  	0.123750 
871.824832  	0.122513 
873.753648  	0.121918 
875.682464  	0.121786 
877.611280  	0.121340 
879.540096  	0.121425 
881.468912  	0.122467 
883.397728  	0.122682 
885.326544  	0.123111 
887.255360  	0.123045 
889.184176  	0.121971 
891.112992  	0.120091 
893.041808  	0.118863 
894.970624  	0.117057 
896.899440  	0.114469 
898.828256  	0.111542 
900.757072  	0.108728 
902.685888  	0.106591 
904.614704  	0.105275 
906.543520  	0.105024 
908.472336  	0.105571 
910.401152  	0.106848 
912.329968  	0.108287 
914.258784  	0.109882 
916.187600  	0.111355 
918.116416  	0.112602 
920.045232  	0.113485 
921.974048  	0.113844 
923.902864  	0.113745 
925.831680  	0.113223 
927.760496  	0.112742 
929.689312  	0.112585 
931.618128  	0.112785 
933.546944  	0.112597 
935.475760  	0.112215 
937.404576  	0.111778 
939.333392  	0.111028 
941.262208  	0.110572 
943.191024  	0.110858 
945.119840  	0.112354 
947.048656  	0.115280 
948.977472  	0.119166 
950.906288  	0.124094 
952.835104  	0.129895 
954.763920  	0.136100 
956.692736  	0.141740 
958.621552  	0.146641 
960.550368  	0.150058 
962.479184  	0.151657 
964.408000  	0.150987 
966.336816  	0.147875 
968.265632  	0.142492 
970.194448  	0.135436 
972.123264  	0.127083 
974.052080  	0.118281 
975.980896  	0.109516 
977.909712  	0.101182 
979.838528  	0.093486 
981.767344  	0.087000 
983.696160  	0.081864 
985.624976  	0.078424 
987.553792  	0.076520 
989.482608  	0.076408 
991.411424  	0.077730 
993.340240  	0.079872 
995.269056  	0.082878 
997.197872  	0.086195 
999.126688  	0.089705 
1001.055504  	0.093081 
1002.984320  	0.096324 
1004.913136  	0.099618 
1006.841952  	0.103042 
1008.770768  	0.106034 
1010.699584  	0.108085 
1012.628400  	0.109058 
1014.557216  	0.109147 
1016.486032  	0.109151 
1018.414848  	0.108987 
1020.343664  	0.108557 
1022.272480  	0.107943 
1024.201296  	0.106923 
1026.130112  	0.103861 
1028.058928  	0.102323 
1029.987744  	0.104548 
1031.916560  	0.105389 
1033.845376  	0.105226 
1035.774192  	0.104517 
1037.703008  	0.104789 
1039.631824  	0.107693 
1041.560640  	0.112293 
1043.489456  	0.118445 
1045.418272  	0.126228 
1047.347088  	0.135674 
1049.275904  	0.145132 
1051.204720  	0.152971 
1053.133536  	0.158584 
1055.062352  	0.161865 
1056.991168  	0.162696 
1058.919984  	0.165225 
1060.848800  	0.167911 
1062.777616  	0.167239 
1064.706432  	0.162892 
1066.635248  	0.159715 
1068.564064  	0.160746 
1070.492880  	0.158937 
1072.421696  	0.153948 
1074.350512  	0.150160 
1076.279328  	0.149001 
1078.208144  	0.150794 
1080.136960  	0.155008 
1082.065776  	0.160398 
1083.994592  	0.165023 
1085.923408  	0.167988 
1087.852224  	0.168711 
1089.781040  	0.168100 
1091.709856  	0.166656 
1093.638672  	0.162961 
1095.567488  	0.156753 
1097.496304  	0.149395 
1099.425120  	0.141221 
1101.353936  	0.132816 
1103.282752  	0.124396 
1105.211568  	0.116272 
1107.140384  	0.108216 
1109.069200  	0.100604 
1110.998016  	0.093596 
1112.926832  	0.087065 
1114.855648  	0.081332 
1116.784464  	0.075866 
1118.713280  	0.070466 
1120.642096  	0.065472 
1122.570912  	0.060749 
1124.499728  	0.056225 
1126.428544  	0.052483 
1128.357360  	0.048966 
1130.286176  	0.046151 
1132.214992  	0.043678 
1134.143808  	0.041629 
1136.072624  	0.040037 
1138.001440  	0.038586 
1139.930256  	0.036815 
1141.859072  	0.035034 
1143.787888  	0.033442 
1145.716704  	0.032044 
1147.645520  	0.030552 
1149.574336  	0.029310 
1151.503152  	0.028208 
1153.431968  	0.027709 
1155.360784  	0.027656 
1157.289600  	0.028045 
1159.218416  	0.028900 
1161.147232  	0.030126 
1163.076048  	0.031237 
1165.004864  	0.032576 
1166.933680  	0.033814 
1168.862496  	0.035166 
1170.791312  	0.036476 
1172.720128  	0.038277 
1174.648944  	0.039866 
1176.577760  	0.041478 
1178.506576  	0.042861 
1180.435392  	0.044381 
1182.364208  	0.045818 
1184.293024  	0.047611 
1186.221840  	0.049594 
1188.150656  	0.051771 
1190.079472  	0.054160 
1192.008288  	0.057306 
1193.937104  	0.060996 
1195.865920  	0.065322 
1197.794736  	0.070124 
1199.723552  	0.075589 
1201.652368  	0.081232 
1203.581184  	0.086953 
1205.510000  	0.092674 
1207.438816  	0.098188 
1209.367632  	0.103435 
1211.296448  	0.108248 
1213.225264  	0.112205 
1215.154080  	0.115330 
1217.082896  	0.117735 
1219.011712  	0.119469 
1220.940528  	0.120794 
1222.869344  	0.121900 
1224.798160  	0.122527 
1226.726976  	0.122573 
1228.655792  	0.122450 
1230.584608  	0.121942 
1232.513424  	0.121188 
1234.442240  	0.119992 
1236.371056  	0.118303 
1238.299872  	0.115953 
1240.228688  	0.111281 
1242.157504  	0.106508 
1244.086320  	0.103090 
1246.015136  	0.098172 
1247.943952  	0.092166 
1249.872768  	0.086333 
1251.801584  	0.081510 
1253.730400  	0.076773 
1255.659216  	0.072013 
1257.588032  	0.067497 
1259.516848  	0.063115 
1261.445664  	0.059002 
1263.374480  	0.055243 
1265.303296  	0.052048 
1267.232112  	0.049669 
1269.160928  	0.047835 
1271.089744  	0.046298 
1273.018560  	0.045439 
1274.947376  	0.045207 
1276.876192  	0.045281 
1278.805008  	0.045149 
1280.733824  	0.044410 
1282.662640  	0.043077 
1284.591456  	0.041490 
1286.520272  	0.040065 
1288.449088  	0.039032 
1290.377904  	0.038400 
1292.306720  	0.038520 
1294.235536  	0.038559 
1296.164352  	0.037984 
1298.093168  	0.036556 
1300.021984  	0.034659 
1301.950800  	0.032501 
1303.879616  	0.030393 
1305.808432  	0.028148 
1307.737248  	0.025991 
1309.666064  	0.023812 
1311.594880  	0.022221 
1313.523696  	0.020975 
1315.452512  	0.020162 
1317.381328  	0.019607 
1319.310144  	0.019404 
1321.238960  	0.019391 
1323.167776  	0.019821 
1325.096592  	0.020371 
1327.025408  	0.020754 
1328.954224  	0.020751 
1330.883040  	0.020460 
1332.811856  	0.019871 
1334.740672  	0.019517 
1336.669488  	0.019510 
1338.598304  	0.019646 
1340.527120  	0.018631 
1342.455936  	0.017459 
1344.384752  	0.017104 
1346.313568  	0.017221 
1348.242384  	0.017485 
1350.171200  	0.018141 
1352.100016  	0.019070 
1354.028832  	0.020260 
1355.957648  	0.021378 
1357.886464  	0.022674 
1359.815280  	0.024235 
1361.744096  	0.025677 
1363.672912  	0.026070 
1365.601728  	0.026574 
1367.530544  	0.027325 
1369.459360  	0.027310 
1371.388176  	0.027090 
1373.316992  	0.026320 
1375.245808  	0.023830 
1377.174624  	0.021935 
1379.103440  	0.019883 
1381.032256  	0.017708 
1382.961072  	0.016131 
1384.889888  	0.015896 
1386.818704  	0.015777 
1388.747520  	0.014489 
1390.676336  	0.012663 
1392.605152  	0.009887 
1394.533968  	0.008313 
1396.462784  	0.011074 
1398.391600  	0.012201 
1400.320416  	0.011102 
1402.249232  	0.011082 
1404.178048  	0.011342 
1406.106864  	0.011433 
1408.035680  	0.012737 
1409.964496  	0.014619 
1411.893312  	0.016720 
1413.822128  	0.019070 
1415.750944  	0.022117 
1417.679760  	0.024360 
1419.608576  	0.024092 
1421.537392  	0.024429 
1423.466208  	0.024857 
1425.395024  	0.023758 
1427.323840  	0.023250 
1429.252656  	0.021812 
1431.181472  	0.020558 
1433.110288  	0.020543 
1435.039104  	0.021220 
1436.967920  	0.020230 
1438.896736  	0.020517 
1440.825552  	0.021489 
1442.754368  	0.021938 
1444.683184  	0.022172 
1446.612000  	0.022270 
1448.540816  	0.021131 
1450.469632  	0.021336 
1452.398448  	0.022148 
1454.327264  	0.023320 
1456.256080  	0.023195 
1458.184896  	0.020525 
1460.113712  	0.021565 
1462.042528  	0.023064 
1463.971344  	0.022864 
1465.900160  	0.022580 
1467.828976  	0.024461 
1469.757792  	0.027021 
1471.686608  	0.029116 
1473.615424  	0.032029 
1475.544240  	0.036283 
1477.473056  	0.039878 
1479.401872  	0.042630 
1481.330688  	0.044942 
1483.259504  	0.046584 
1485.188320  	0.048077 
1487.117136  	0.048430 
1489.045952  	0.048198 
1490.974768  	0.045787 
1492.903584  	0.044742 
1494.832400  	0.043297 
1496.761216  	0.038711 
1498.690032  	0.034406 
1500.618848  	0.031919 
1502.547664  	0.029897 
1504.476480  	0.027954 
1506.405296  	0.023441 
1508.334112  	0.020748 
1510.262928  	0.021231 
1512.191744  	0.020098 
1514.120560  	0.019708 
1516.049376  	0.019402 
1517.978192  	0.018319 
1519.907008  	0.019636 
1521.835824  	0.019223 
1523.764640  	0.021968 
1525.693456  	0.025052 
1527.622272  	0.026336 
1529.551088  	0.026975 
1531.479904  	0.027342 
1533.408720  	0.024470 
1535.337536  	0.022181 
1537.266352  	0.021896 
1539.195168  	0.016979 
1541.123984  	0.011360 
1543.052800  	0.013222 
1544.981616  	0.013509 
1546.910432  	0.013230 
1548.839248  	0.013760 
1550.768064  	0.013545 
1552.696880  	0.013619 
1554.625696  	0.013789 
1556.554512  	0.014256 
1558.483328  	0.012370 
1560.412144  	0.012971 
1562.340960  	0.018531 
1564.269776  	0.021377 
1566.198592  	0.024601 
1568.127408  	0.027444 
1570.056224  	0.029987 
1571.985040  	0.034607 
1573.913856  	0.038306 
1575.842672  	0.038568 
1577.771488  	0.039933 
1579.700304  	0.041858 
1581.629120  	0.041980 
1583.557936  	0.041523 
1585.486752  	0.041860 
1587.415568  	0.043153 
1589.344384  	0.045740 
1591.273200  	0.049333 
1593.202016  	0.053783 
1595.130832  	0.058391 
1597.059648  	0.063411 
1598.988464  	0.067895 
1600.917280  	0.071961 
1602.846096  	0.074692 
1604.774912  	0.076485 
1606.703728  	0.077028 
1608.632544  	0.076639 
1610.561360  	0.075495 
1612.490176  	0.074840 
1614.418992  	0.073777 
1616.347808  	0.071139 
1618.276624  	0.070922 
1620.205440  	0.074456 
1622.134256  	0.076439 
1624.063072  	0.079134 
1625.991888  	0.083546 
1627.920704  	0.088594 
1629.849520  	0.094893 
1631.778336  	0.101713 
1633.707152  	0.106626 
1635.635968  	0.111011 
1637.564784  	0.117718 
1639.493600  	0.124447 
1641.422416  	0.129136 
1643.351232  	0.133222 
1645.280048  	0.134704 
1647.208864  	0.134431 
1649.137680  	0.136671 
1651.066496  	0.139252 
1652.995312  	0.134344 
1654.924128  	0.133462 
1656.852944  	0.135708 
1658.781760  	0.135492 
1660.710576  	0.133772 
1662.639392  	0.130381 
1664.568208  	0.127857 
1666.497024  	0.127292 
1668.425840  	0.123740 
1670.354656  	0.118243 
1672.283472  	0.116638 
1674.212288  	0.115295 
1676.141104  	0.111164 
1678.069920  	0.110946 
1679.998736  	0.110803 
1681.927552  	0.110561 
1683.856368  	0.106719 
1685.785184  	0.105098 
1687.714000  	0.107633 
1689.642816  	0.107625 
1691.571632  	0.106883 
1693.500448  	0.107090 
1695.429264  	0.104297 
1697.358080  	0.102157 
1699.286896  	0.101556 
1701.215712  	0.097032 
1703.144528  	0.097587 
1705.073344  	0.095268 
1707.002160  	0.091061 
1708.930976  	0.088636 
1710.859792  	0.084856 
1712.788608  	0.080524 
1714.717424  	0.074648 
1716.646240  	0.066343 
1718.575056  	0.055258 
1720.503872  	0.049649 
1722.432688  	0.044956 
1724.361504  	0.037829 
1726.290320  	0.031939 
1728.219136  	0.027216 
1730.147952  	0.022904 
1732.076768  	0.019515 
1734.005584  	0.013806 
1735.934400  	0.009513 
1737.863216  	0.010089 
1739.792032  	0.007270 
1741.720848  	0.006413 
1743.649664  	0.006224 
1745.578480  	0.005601 
1747.507296  	0.004373 
1749.436112  	0.003596 
1751.364928  	0.002437 
1753.293744  	0.002043 
1755.222560  	0.002187 
1757.151376  	0.001402 
1759.080192  	0.001142 
1761.009008  	0.000970 
1762.937824  	-0.000388 
1764.866640  	0.000023 
1766.795456  	0.000440 
1768.724272  	-0.000028 
1770.653088  	-0.001180 
1772.581904  	-0.003316 
1774.510720  	-0.002774 
1776.439536  	-0.001430 
1778.368352  	-0.001160 
1780.297168  	-0.001456 
1782.225984  	-0.001890 
1784.154800  	-0.001640 
1786.083616  	-0.002178 
1788.012432  	-0.001837 
1789.941248  	-0.001492 
1791.870064  	-0.002534 
1793.798880  	-0.003669 
1795.727696  	-0.002481 
1797.656512  	-0.002602 
1799.585328  	-0.002668 
1801.514144  	-0.002669 
1803.442960  	-0.002640 
1805.371776  	-0.002941 
1807.300592  	-0.002702 
1809.229408  	-0.003073 
1811.158224  	-0.003359 
1813.087040  	-0.003487 
1815.015856  	-0.003117 
1816.944672  	-0.003027 
1818.873488  	-0.003019 
1820.802304  	-0.003224 
1822.731120  	-0.002689 
1824.659936  	-0.003156 
1826.588752  	-0.003628 
1828.517568  	-0.003952 
1830.446384  	-0.004494 
1832.375200  	-0.003996 
1834.304016  	-0.003276 
1836.232832  	-0.003416 
1838.161648  	-0.003559 
1840.090464  	-0.003698 
1842.019280  	-0.003022 
1843.948096  	-0.004089 
1845.876912  	-0.004465 
1847.805728  	-0.003986 
1849.734544  	-0.003744 
1851.663360  	-0.003655 
1853.592176  	-0.003676 
1855.520992  	-0.003768 
1857.449808  	-0.003644 
1859.378624  	-0.003939 
1861.307440  	-0.004082 
1863.236256  	-0.004095 
1865.165072  	-0.003772 
1867.093888  	-0.003870 
1869.022704  	-0.004275 
1870.951520  	-0.004502 
1872.880336  	-0.004013 
1874.809152  	-0.004216 
1876.737968  	-0.004216 
1878.666784  	-0.004325 
1880.595600  	-0.003776 
1882.524416  	-0.003919 
1884.453232  	-0.003933 
1886.382048  	-0.004049 
1888.310864  	-0.003716 
1890.239680  	-0.004455 
1892.168496  	-0.004573 
1894.097312  	-0.004261 
1896.026128  	-0.003833 
1897.954944  	-0.004021 
1899.883760  	-0.003999 
1901.812576  	-0.004220 
1903.741392  	-0.004473 
1905.670208  	-0.004464 
1907.599024  	-0.004022 
1909.527840  	-0.004356 
1911.456656  	-0.004361 
1913.385472  	-0.004499 
1915.314288  	-0.003969 
1917.243104  	-0.004090 
1919.171920  	-0.004206 
1921.100736  	-0.004010 
1923.029552  	-0.003784 
1924.958368  	-0.004057 
1926.887184  	-0.003862 
1928.816000  	-0.004254 
1930.744816  	-0.004119 
1932.673632  	-0.004425 
1934.602448  	-0.004103 
1936.531264  	-0.003962 
1938.460080  	-0.003663 
1940.388896  	-0.003990 
1942.317712  	-0.004316 
1944.246528  	-0.004659 
1946.175344  	-0.003754 
1948.104160  	-0.003872 
1950.032976  	-0.003480 
1951.961792  	-0.003335 
1953.890608  	-0.003236 
1955.819424  	-0.003713 
1957.748240  	-0.003044 
1959.677056  	-0.003510 
1961.605872  	-0.003070 
1963.534688  	-0.003152 
1965.463504  	-0.003088 
1967.392320  	-0.004226 
1969.321136  	-0.004085 
1971.249952  	-0.003508 
1973.178768  	-0.002489 
1975.107584  	-0.003657 
1977.036400  	-0.002849 
1978.965216  	-0.002023 
1980.894032  	-0.002717 
1982.822848  	-0.002968 
1984.751664  	-0.002248 
1986.680480  	-0.003334 
1988.609296  	-0.002852 
1990.538112  	-0.002850 
1992.466928  	-0.003142 
1994.395744  	-0.004355 
1996.324560  	-0.004510 
1998.253376  	-0.004656 
2000.182192  	-0.004375 
2002.111008  	-0.003843 
2004.039824  	-0.003186 
2005.968640  	-0.004268 
2007.897456  	-0.003677 
2009.826272  	-0.003787 
2011.755088  	-0.003228 
2013.683904  	-0.003821 
2015.612720  	-0.003403 
2017.541536  	-0.002959 
2019.470352  	-0.002454 
2021.399168  	-0.003881 
2023.327984  	-0.004006 
2025.256800  	-0.003539 
2027.185616  	-0.003427 
2029.114432  	-0.003544 
2031.043248  	-0.002998 
2032.972064  	-0.003258 
2034.900880  	-0.002794 
2036.829696  	-0.003296 
2038.758512  	-0.002697 
2040.687328  	-0.002637 
2042.616144  	-0.002619 
2044.544960  	-0.003871 
2046.473776  	-0.003500 
2048.402592  	-0.003468 
2050.331408  	-0.003207 
2052.260224  	-0.003788 
2054.189040  	-0.004513 
2056.117856  	-0.005239 
2058.046672  	-0.004852 
2059.975488  	-0.005111 
2061.904304  	-0.004825 
2063.833120  	-0.004344 
2065.761936  	-0.004470 
2067.690752  	-0.004628 
2069.619568  	-0.004213 
2071.548384  	-0.004395 
2073.477200  	-0.004473 
2075.406016  	-0.004360 
2077.334832  	-0.004213 
2079.263648  	-0.004218 
2081.192464  	-0.004331 
2083.121280  	-0.004773 
2085.050096  	-0.004645 
2086.978912  	-0.004608 
2088.907728  	-0.004482 
2090.836544  	-0.004577 
2092.765360  	-0.004291 
2094.694176  	-0.004242 
2096.622992  	-0.004128 
2098.551808  	-0.003806 
2100.480624  	-0.003646 
2102.409440  	-0.004201 
2104.338256  	-0.004516 
2106.267072  	-0.004252 
2108.195888  	-0.003627 
2110.124704  	-0.004007 
2112.053520  	-0.004188 
2113.982336  	-0.004384 
2115.911152  	-0.004370 
2117.839968  	-0.004406 
2119.768784  	-0.004545 
2121.697600  	-0.004867 
2123.626416  	-0.004889 
2125.555232  	-0.005079 
2127.484048  	-0.005109 
2129.412864  	-0.005529 
2131.341680  	-0.005329 
2133.270496  	-0.005374 
2135.199312  	-0.004384 
2137.128128  	-0.004098 
2139.056944  	-0.004150 
2140.985760  	-0.004583 
2142.914576  	-0.004726 
2144.843392  	-0.004336 
2146.772208  	-0.004187 
2148.701024  	-0.004629 
2150.629840  	-0.003199 
2152.558656  	-0.003421 
2154.487472  	-0.004422 
2156.416288  	-0.005020 
2158.345104  	-0.004645 
2160.273920  	-0.002896 
2162.202736  	-0.001793 
2164.131552  	-0.002337 
2166.060368  	-0.002442 
2167.989184  	-0.002778 
2169.918000  	-0.002089 
2171.846816  	-0.002662 
2173.775632  	-0.002187 
2175.704448  	-0.002190 
2177.633264  	-0.002965 
2179.562080  	-0.003831 
2181.490896  	-0.003723 
2183.419712  	-0.004034 
2185.348528  	-0.004471 
2187.277344  	-0.004374 
2189.206160  	-0.004216 
2191.134976  	-0.004581 
2193.063792  	-0.004587 
2194.992608  	-0.004560 
2196.921424  	-0.003935 
2198.850240  	-0.003687 
2200.779056  	-0.003741 
2202.707872  	-0.004618 
2204.636688  	-0.004946 
2206.565504  	-0.004522 
2208.494320  	-0.004534 
2210.423136  	-0.005096 
2212.351952  	-0.004988 
2214.280768  	-0.004840 
2216.209584  	-0.004542 
2218.138400  	-0.005076 
2220.067216  	-0.004920 
2221.996032  	-0.004737 
2223.924848  	-0.004378 
2225.853664  	-0.004409 
2227.782480  	-0.004849 
2229.711296  	-0.005379 
2231.640112  	-0.005356 
2233.568928  	-0.005414 
2235.497744  	-0.005323 
2237.426560  	-0.005490 
2239.355376  	-0.005615 
2241.284192  	-0.005775 
2243.213008  	-0.005602 
2245.141824  	-0.005704 
2247.070640  	-0.005397 
2248.999456  	-0.005430 
2250.928272  	-0.005680 
2252.857088  	-0.005884 
2254.785904  	-0.005996 
2256.714720  	-0.006531 
2258.643536  	-0.006375 
2260.572352  	-0.006157 
2262.501168  	-0.006028 
2264.429984  	-0.005851 
2266.358800  	-0.005843 
2268.287616  	-0.005879 
2270.216432  	-0.005538 
2272.145248  	-0.005513 
2274.074064  	-0.005575 
2276.002880  	-0.005517 
2277.931696  	-0.005272 
2279.860512  	-0.005319 
2281.789328  	-0.005090 
2283.718144  	-0.005111 
2285.646960  	-0.004928 
2287.575776  	-0.004819 
2289.504592  	-0.005066 
2291.433408  	-0.005318 
2293.362224  	-0.004917 
2295.291040  	-0.004474 
2297.219856  	-0.004183 
2299.148672  	-0.004184 
2301.077488  	-0.004157 
2303.006304  	-0.004115 
2304.935120  	-0.003928 
2306.863936  	-0.003622 
2308.792752  	-0.003466 
2310.721568  	-0.003542 
2312.650384  	-0.003603 
2314.579200  	-0.004232 
2316.508016  	-0.004924 
2318.436832  	-0.005301 
2320.365648  	-0.005787 
2322.294464  	-0.006335 
2324.223280  	-0.007276 
2326.152096  	-0.008641 
2328.080912  	-0.009642 
2330.009728  	-0.010602 
2331.938544  	-0.011833 
2333.867360  	-0.012595 
2335.796176  	-0.013077 
2337.724992  	-0.014101 
2339.653808  	-0.014545 
2341.582624  	-0.014642 
2343.511440  	-0.014109 
2345.440256  	-0.013006 
2347.369072  	-0.010065 
2349.297888  	-0.007689 
2351.226704  	-0.008602 
2353.155520  	-0.011571 
2355.084336  	-0.013839 
2357.013152  	-0.015911 
2358.941968  	-0.017309 
2360.870784  	-0.018155 
2362.799600  	-0.017865 
2364.728416  	-0.017463 
2366.657232  	-0.015906 
2368.586048  	-0.013854 
2370.514864  	-0.012141 
2372.443680  	-0.010576 
2374.372496  	-0.008850 
2376.301312  	-0.007154 
2378.230128  	-0.005830 
2380.158944  	-0.005277 
2382.087760  	-0.005251 
2384.016576  	-0.005530 
2385.945392  	-0.005709 
2387.874208  	-0.005974 
2389.803024  	-0.006215 
2391.731840  	-0.006453 
2393.660656  	-0.006463 
2395.589472  	-0.006391 
2397.518288  	-0.006030 
2399.447104  	-0.006086 
2401.375920  	-0.006442 
2403.304736  	-0.006625 
2405.233552  	-0.006395 
2407.162368  	-0.006322 
2409.091184  	-0.006218 
2411.020000  	-0.006228 
2412.948816  	-0.006374 
2414.877632  	-0.006284 
2416.806448  	-0.006184 
2418.735264  	-0.006330 
2420.664080  	-0.006385 
2422.592896  	-0.006335 
2424.521712  	-0.006236 
2426.450528  	-0.006361 
2428.379344  	-0.006390 
2430.308160  	-0.006206 
2432.236976  	-0.006067 
2434.165792  	-0.006139 
2436.094608  	-0.006224 
2438.023424  	-0.006075 
2439.952240  	-0.005809 
2441.881056  	-0.005878 
2443.809872  	-0.006011 
2445.738688  	-0.005883 
2447.667504  	-0.005698 
2449.596320  	-0.005662 
2451.525136  	-0.005571 
2453.453952  	-0.005628 
2455.382768  	-0.005762 
2457.311584  	-0.005932 
2459.240400  	-0.005993 
2461.169216  	-0.005997 
2463.098032  	-0.005922 
2465.026848  	-0.005833 
2466.955664  	-0.005883 
2468.884480  	-0.006185 
2470.813296  	-0.006266 
2472.742112  	-0.006196 
2474.670928  	-0.006003 
2476.599744  	-0.006037 
2478.528560  	-0.006021 
2480.457376  	-0.005894 
2482.386192  	-0.005828 
2484.315008  	-0.005789 
2486.243824  	-0.005887 
2488.172640  	-0.005949 
2490.101456  	-0.005813 
2492.030272  	-0.005745 
2493.959088  	-0.005852 
2495.887904  	-0.005775 
2497.816720  	-0.005499 
2499.745536  	-0.005340 
2501.674352  	-0.005253 
2503.603168  	-0.005088 
2505.531984  	-0.005232 
2507.460800  	-0.005529 
2509.389616  	-0.005518 
2511.318432  	-0.005434 
2513.247248  	-0.005379 
2515.176064  	-0.005326 
2517.104880  	-0.005384 
2519.033696  	-0.005566 
2520.962512  	-0.005346 
2522.891328  	-0.005006 
2524.820144  	-0.005135 
2526.748960  	-0.005308 
2528.677776  	-0.005131 
2530.606592  	-0.005073 
2532.535408  	-0.005157 
2534.464224  	-0.005202 
2536.393040  	-0.005310 
2538.321856  	-0.005067 
2540.250672  	-0.004778 
2542.179488  	-0.004813 
2544.108304  	-0.004794 
2546.037120  	-0.004697 
2547.965936  	-0.004682 
2549.894752  	-0.004806 
2551.823568  	-0.004854 
2553.752384  	-0.004689 
2555.681200  	-0.004372 
2557.610016  	-0.004263 
2559.538832  	-0.004174 
2561.467648  	-0.004079 
2563.396464  	-0.004139 
2565.325280  	-0.004150 
2567.254096  	-0.004131 
2569.182912  	-0.004070 
2571.111728  	-0.004203 
2573.040544  	-0.004363 
2574.969360  	-0.004347 
2576.898176  	-0.004156 
2578.826992  	-0.004170 
2580.755808  	-0.004047 
2582.684624  	-0.003842 
2584.613440  	-0.003880 
2586.542256  	-0.003864 
2588.471072  	-0.003651 
2590.399888  	-0.003538 
2592.328704  	-0.003590 
2594.257520  	-0.003763 
2596.186336  	-0.003768 
2598.115152  	-0.003685 
2600.043968  	-0.003581 
2601.972784  	-0.003431 
2603.901600  	-0.003443 
2605.830416  	-0.003418 
2607.759232  	-0.003444 
2609.688048  	-0.003333 
2611.616864  	-0.003174 
2613.545680  	-0.003042 
2615.474496  	-0.002919 
2617.403312  	-0.002747 
2619.332128  	-0.002619 
2621.260944  	-0.002609 
2623.189760  	-0.002674 
2625.118576  	-0.002724 
2627.047392  	-0.002737 
2628.976208  	-0.002657 
2630.905024  	-0.002576 
2632.833840  	-0.002454 
2634.762656  	-0.002255 
2636.691472  	-0.002087 
2638.620288  	-0.002070 
2640.549104  	-0.002107 
2642.477920  	-0.002158 
2644.406736  	-0.002084 
2646.335552  	-0.001985 
2648.264368  	-0.001863 
2650.193184  	-0.001787 
2652.122000  	-0.001672 
2654.050816  	-0.001515 
2655.979632  	-0.001398 
2657.908448  	-0.001317 
2659.837264  	-0.001292 
2661.766080  	-0.001287 
2663.694896  	-0.001205 
2665.623712  	-0.001217 
2667.552528  	-0.001052 
2669.481344  	-0.000967 
2671.410160  	-0.000932 
2673.338976  	-0.000868 
2675.267792  	-0.000788 
2677.196608  	-0.000649 
2679.125424  	-0.000544 
2681.054240  	-0.000438 
2682.983056  	-0.000325 
2684.911872  	-0.000346 
2686.840688  	-0.000257 
2688.769504  	-0.000182 
2690.698320  	-0.000172 
2692.627136  	-0.000148 
2694.555952  	-0.000063 
2696.484768  	0.000006 
2698.413584  	0.000039 
2700.342400  	0.000092 
2702.271216  	0.000232 
2704.200032  	0.000363 
2706.128848  	0.000377 
2708.057664  	0.000323 
2709.986480  	0.000384 
2711.915296  	0.000461 
2713.844112  	0.000616 
2715.772928  	0.000720 
2717.701744  	0.000810 
2719.630560  	0.000930 
2721.559376  	0.001004 
2723.488192  	0.001022 
2725.417008  	0.001169 
2727.345824  	0.001283 
2729.274640  	0.001303 
2731.203456  	0.001351 
2733.132272  	0.001537 
2735.061088  	0.001673 
2736.989904  	0.001666 
2738.918720  	0.001618 
2740.847536  	0.001652 
2742.776352  	0.001667 
2744.705168  	0.001762 
2746.633984  	0.001843 
2748.562800  	0.001872 
2750.491616  	0.001947 
2752.420432  	0.002142 
2754.349248  	0.002056 
2756.278064  	0.001893 
2758.206880  	0.001783 
2760.135696  	0.001858 
2762.064512  	0.001903 
2763.993328  	0.001860 
2765.922144  	0.001857 
2767.850960  	0.001913 
2769.779776  	0.001963 
2771.708592  	0.002056 
2773.637408  	0.001925 
2775.566224  	0.001721 
2777.495040  	0.001660 
2779.423856  	0.001727 
2781.352672  	0.001761 
2783.281488  	0.001838 
2785.210304  	0.001796 
2787.139120  	0.001807 
2789.067936  	0.001856 
2790.996752  	0.001837 
2792.925568  	0.001731 
2794.854384  	0.001596 
2796.783200  	0.001480 
2798.712016  	0.001484 
2800.640832  	0.001503 
2802.569648  	0.001573 
2804.498464  	0.001561 
2806.427280  	0.001471 
2808.356096  	0.001438 
2810.284912  	0.001466 
2812.213728  	0.001506 
2814.142544  	0.001492 
2816.071360  	0.001529 
2818.000176  	0.001321 
2819.928992  	0.001145 
2821.857808  	0.001089 
2823.786624  	0.000944 
2825.715440  	0.000868 
2827.644256  	0.000757 
2829.573072  	0.000685 
2831.501888  	0.000408 
2833.430704  	0.000087 
2835.359520  	-0.000181 
2837.288336  	-0.000415 
2839.217152  	-0.000682 
2841.145968  	-0.001064 
2843.074784  	-0.001472 
2845.003600  	-0.001969 
2846.932416  	-0.002364 
2848.861232  	-0.002657 
2850.790048  	-0.003150 
2852.718864  	-0.003687 
2854.647680  	-0.004158 
2856.576496  	-0.004829 
2858.505312  	-0.005450 
2860.434128  	-0.006023 
2862.362944  	-0.006815 
2864.291760  	-0.007537 
2866.220576  	-0.008142 
2868.149392  	-0.008578 
2870.078208  	-0.008885 
2872.007024  	-0.008981 
2873.935840  	-0.009035 
2875.864656  	-0.009231 
2877.793472  	-0.009586 
2879.722288  	-0.010025 
2881.651104  	-0.010618 
2883.579920  	-0.011019 
2885.508736  	-0.010972 
2887.437552  	-0.010831 
2889.366368  	-0.010831 
2891.295184  	-0.011127 
2893.224000  	-0.011420 
2895.152816  	-0.011434 
2897.081632  	-0.011695 
2899.010448  	-0.013388 
2900.939264  	-0.014933 
2902.868080  	-0.013716 
2904.796896  	-0.012473 
2906.725712  	-0.012036 
2908.654528  	-0.011492 
2910.583344  	-0.011188 
2912.512160  	-0.010785 
2914.440976  	-0.009798 
2916.369792  	-0.009093 
2918.298608  	-0.008786 
2920.227424  	-0.008517 
2922.156240  	-0.007933 
2924.085056  	-0.007220 
2926.013872  	-0.006538 
2927.942688  	-0.005802 
2929.871504  	-0.005022 
2931.800320  	-0.004242 
2933.729136  	-0.003693 
2935.657952  	-0.003345 
2937.586768  	-0.002850 
2939.515584  	-0.002326 
2941.444400  	-0.002148 
2943.373216  	-0.002149 
2945.302032  	-0.001976 
2947.230848  	-0.001868 
2949.159664  	-0.002195 
2951.088480  	-0.002742 
2953.017296  	-0.003253 
2954.946112  	-0.003877 
2956.874928  	-0.004540 
2958.803744  	-0.005312 
2960.732560  	-0.005841 
2962.661376  	-0.006452 
2964.590192  	-0.007345 
2966.519008  	-0.008498 
2968.447824  	-0.009582 
2970.376640  	-0.010405 
2972.305456  	-0.010815 
2974.234272  	-0.010555 
2976.163088  	-0.010174 
2978.091904  	-0.010089 
2980.020720  	-0.010055 
2981.949536  	-0.009809 
2983.878352  	-0.009916 
2985.807168  	-0.010873 
2987.735984  	-0.011883 
2989.664800  	-0.011567 
2991.593616  	-0.008488 
2993.522432  	-0.006445 
2995.451248  	-0.005882 
2997.380064  	-0.005155 
2999.308880  	-0.004123 
3001.237696  	-0.002839 
3003.166512  	-0.001352 
3005.095328  	-0.000026 
3007.024144  	0.001289 
3008.952960  	0.002713 
3010.881776  	0.004259 
3012.810592  	0.005643 
3014.739408  	0.006743 
3016.668224  	0.007725 
3018.597040  	0.008868 
3020.525856  	0.010018 
3022.454672  	0.011056 
3024.383488  	0.012106 
3026.312304  	0.012987 
3028.241120  	0.013889 
3030.169936  	0.014764 
3032.098752  	0.015403 
3034.027568  	0.016051 
3035.956384  	0.016877 
3037.885200  	0.017654 
3039.814016  	0.018099 
3041.742832  	0.018481 
3043.671648  	0.018900 
3045.600464  	0.019491 
3047.529280  	0.020003 
3049.458096  	0.020403 
3051.386912  	0.020955 
3053.315728  	0.021400 
3055.244544  	0.021879 
3057.173360  	0.022384 
3059.102176  	0.022648 
3061.030992  	0.023029 
3062.959808  	0.023660 
3064.888624  	0.024146 
3066.817440  	0.024523 
3068.746256  	0.025119 
3070.675072  	0.025778 
3072.603888  	0.026225 
3074.532704  	0.026622 
3076.461520  	0.027262 
3078.390336  	0.027835 
3080.319152  	0.028329 
3082.247968  	0.028939 
3084.176784  	0.029459 
3086.105600  	0.029996 
3088.034416  	0.030574 
3089.963232  	0.031259 
3091.892048  	0.031691 
3093.820864  	0.032104 
3095.749680  	0.032497 
3097.678496  	0.033057 
3099.607312  	0.033649 
3101.536128  	0.034343 
3103.464944  	0.035112 
3105.393760  	0.035661 
3107.322576  	0.036170 
3109.251392  	0.036843 
3111.180208  	0.037401 
3113.109024  	0.037930 
3115.037840  	0.038394 
3116.966656  	0.038967 
3118.895472  	0.039496 
3120.824288  	0.039916 
3122.753104  	0.040348 
3124.681920  	0.040770 
3126.610736  	0.041219 
3128.539552  	0.041658 
3130.468368  	0.042121 
3132.397184  	0.042501 
3134.326000  	0.043032 
3136.254816  	0.043590 
3138.183632  	0.043945 
3140.112448  	0.044441 
3142.041264  	0.045021 
3143.970080  	0.045419 
3145.898896  	0.045840 
3147.827712  	0.046339 
3149.756528  	0.046591 
3151.685344  	0.046929 
3153.614160  	0.047589 
3155.542976  	0.048224 
3157.471792  	0.048820 
3159.400608  	0.049401 
3161.329424  	0.049875 
3163.258240  	0.050124 
3165.187056  	0.050451 
3167.115872  	0.050998 
3169.044688  	0.051402 
3170.973504  	0.051780 
3172.902320  	0.052331 
3174.831136  	0.052723 
3176.759952  	0.052995 
3178.688768  	0.053153 
3180.617584  	0.053434 
3182.546400  	0.053841 
3184.475216  	0.054164 
3186.404032  	0.054213 
3188.332848  	0.054486 
3190.261664  	0.054803 
3192.190480  	0.054962 
3194.119296  	0.054894 
3196.048112  	0.055085 
3197.976928  	0.055218 
3199.905744  	0.055297 
3201.834560  	0.055221 
3203.763376  	0.055050 
3205.692192  	0.054970 
3207.621008  	0.054897 
3209.549824  	0.054829 
3211.478640  	0.054875 
3213.407456  	0.054866 
3215.336272  	0.054676 
3217.265088  	0.054744 
3219.193904  	0.054756 
3221.122720  	0.054633 
3223.051536  	0.054616 
3224.980352  	0.054540 
3226.909168  	0.054474 
3228.837984  	0.054275 
3230.766800  	0.054126 
3232.695616  	0.054178 
3234.624432  	0.054109 
3236.553248  	0.054130 
3238.482064  	0.054240 
3240.410880  	0.054219 
3242.339696  	0.054325 
3244.268512  	0.054238 
3246.197328  	0.054220 
3248.126144  	0.054493 
3250.054960  	0.054680 
3251.983776  	0.054860 
3253.912592  	0.055060 
3255.841408  	0.055155 
3257.770224  	0.055370 
3259.699040  	0.055552 
3261.627856  	0.055778 
3263.556672  	0.055990 
3265.485488  	0.056108 
3267.414304  	0.056270 
3269.343120  	0.056711 
3271.271936  	0.056875 
3273.200752  	0.056847 
3275.129568  	0.056808 
3277.058384  	0.057077 
3278.987200  	0.057387 
3280.916016  	0.057647 
3282.844832  	0.057787 
3284.773648  	0.057902 
3286.702464  	0.058184 
3288.631280  	0.058354 
3290.560096  	0.058544 
3292.488912  	0.058989 
3294.417728  	0.059238 
3296.346544  	0.059383 
3298.275360  	0.059594 
3300.204176  	0.059944 
3302.132992  	0.060341 
3304.061808  	0.060652 
3305.990624  	0.060964 
3307.919440  	0.061169 
3309.848256  	0.061336 
3311.777072  	0.061675 
3313.705888  	0.061912 
3315.634704  	0.062352 
3317.563520  	0.062809 
3319.492336  	0.063102 
3321.421152  	0.063363 
3323.349968  	0.063579 
3325.278784  	0.063661 
3327.207600  	0.063796 
3329.136416  	0.063868 
3331.065232  	0.064032 
3332.994048  	0.064314 
3334.922864  	0.064454 
3336.851680  	0.064463 
3338.780496  	0.064444 
3340.709312  	0.064639 
3342.638128  	0.064641 
3344.566944  	0.064345 
3346.495760  	0.064276 
3348.424576  	0.064102 
3350.353392  	0.063860 
3352.282208  	0.063661 
3354.211024  	0.063474 
3356.139840  	0.063364 
3358.068656  	0.063250 
3359.997472  	0.063161 
3361.926288  	0.062928 
3363.855104  	0.062569 
3365.783920  	0.062312 
3367.712736  	0.062045 
3369.641552  	0.061902 
3371.570368  	0.061566 
3373.499184  	0.061232 
3375.428000  	0.061003 
3377.356816  	0.060770 
3379.285632  	0.060619 
3381.214448  	0.060447 
3383.143264  	0.060209 
3385.072080  	0.059748 
3387.000896  	0.059438 
3388.929712  	0.059321 
3390.858528  	0.058874 
3392.787344  	0.058535 
3394.716160  	0.058282 
3396.644976  	0.058184 
3398.573792  	0.057926 
3400.502608  	0.057746 
3402.431424  	0.057380 
3404.360240  	0.056958 
3406.289056  	0.056717 
3408.217872  	0.056419 
3410.146688  	0.055935 
3412.075504  	0.055484 
3414.004320  	0.055254 
3415.933136  	0.055190 
3417.861952  	0.054717 
3419.790768  	0.054379 
3421.719584  	0.054000 
3423.648400  	0.053584 
3425.577216  	0.053087 
3427.506032  	0.052691 
3429.434848  	0.052579 
3431.363664  	0.052231 
3433.292480  	0.051628 
3435.221296  	0.051041 
3437.150112  	0.050690 
3439.078928  	0.050442 
3441.007744  	0.049953 
3442.936560  	0.049592 
3444.865376  	0.049370 
3446.794192  	0.048802 
3448.723008  	0.048078 
3450.651824  	0.047748 
3452.580640  	0.047182 
3454.509456  	0.046692 
3456.438272  	0.046322 
3458.367088  	0.045920 
3460.295904  	0.045426 
3462.224720  	0.044646 
3464.153536  	0.043902 
3466.082352  	0.043380 
3468.011168  	0.042713 
3469.939984  	0.042289 
3471.868800  	0.041740 
3473.797616  	0.041019 
3475.726432  	0.040465 
3477.655248  	0.040100 
3479.584064  	0.039688 
3481.512880  	0.038985 
3483.441696  	0.038237 
3485.370512  	0.037774 
3487.299328  	0.036926 
3489.228144  	0.036335 
3491.156960  	0.035922 
3493.085776  	0.035260 
3495.014592  	0.034549 
3496.943408  	0.034066 
3498.872224  	0.033556 
3500.801040  	0.033374 
3502.729856  	0.032792 
3504.658672  	0.031853 
3506.587488  	0.031660 
3508.516304  	0.031405 
3510.445120  	0.030421 
3512.373936  	0.029751 
3514.302752  	0.029381 
3516.231568  	0.029139 
3518.160384  	0.028781 
3520.089200  	0.028386 
3522.018016  	0.028119 
3523.946832  	0.027681 
3525.875648  	0.027071 
3527.804464  	0.026152 
3529.733280  	0.025406 
3531.662096  	0.024982 
3533.590912  	0.024833 
3535.519728  	0.024656 
3537.448544  	0.023932 
3539.377360  	0.023273 
3541.306176  	0.023044 
3543.234992  	0.023098 
3545.163808  	0.022895 
3547.092624  	0.021879 
3549.021440  	0.020824 
3550.950256  	0.020610 
3552.879072  	0.019887 
3554.807888  	0.019323 
3556.736704  	0.019085 
3558.665520  	0.018919 
3560.594336  	0.018596 
3562.523152  	0.018009 
3564.451968  	0.018104 
3566.380784  	0.017845 
3568.309600  	0.015720 
3570.238416  	0.015098 
3572.167232  	0.015111 
3574.096048  	0.014596 
3576.024864  	0.013917 
3577.953680  	0.013648 
3579.882496  	0.013286 
3581.811312  	0.012868 
3583.740128  	0.012543 
3585.668944  	0.012511 
3587.597760  	0.010838 
3589.526576  	0.009376 
3591.455392  	0.009686 
3593.384208  	0.009588 
3595.313024  	0.008702 
3597.241840  	0.007745 
3599.170656  	0.006700 
3601.099472  	0.005676 
3603.028288  	0.005652 
3604.957104  	0.005996 
3606.885920  	0.005520 
3608.814736  	0.004213 
3610.743552  	0.003987 
3612.672368  	0.002951 
3614.601184  	0.001628 
3616.530000  	0.001981 
3618.458816  	0.000423 
3620.387632  	-0.001674 
3622.316448  	-0.001258 
3624.245264  	-0.000852 
3626.174080  	-0.000560 
3628.102896  	-0.002537 
3630.031712  	-0.006671 
3631.960528  	-0.005140 
3633.889344  	-0.005239 
3635.818160  	-0.006015 
3637.746976  	-0.006527 
3639.675792  	-0.006828 
3641.604608  	-0.006873 
3643.533424  	-0.007189 
3645.462240  	-0.007483 
3647.391056  	-0.009502 
3649.319872  	-0.013563 
3651.248688  	-0.015627 
3653.177504  	-0.013082 
3655.106320  	-0.012825 
3657.035136  	-0.015504 
3658.963952  	-0.015448 
3660.892768  	-0.015179 
3662.821584  	-0.015279 
3664.750400  	-0.015270 
3666.679216  	-0.014760 
3668.608032  	-0.015859 
3670.536848  	-0.019231 
3672.465664  	-0.017476 
3674.394480  	-0.017548 
3676.323296  	-0.022433 
3678.252112  	-0.019367 
3680.180928  	-0.017577 
3682.109744  	-0.017199 
3684.038560  	-0.017266 
3685.967376  	-0.016678 
3687.896192  	-0.018305 
3689.825008  	-0.021227 
3691.753824  	-0.020377 
3693.682640  	-0.018373 
3695.611456  	-0.017388 
3697.540272  	-0.016494 
3699.469088  	-0.015455 
3701.397904  	-0.016076 
3703.326720  	-0.016128 
3705.255536  	-0.014827 
3707.184352  	-0.014121 
3709.113168  	-0.014921 
3711.041984  	-0.016999 
3712.970800  	-0.016874 
3714.899616  	-0.014419 
3716.828432  	-0.013536 
3718.757248  	-0.013837 
3720.686064  	-0.013948 
3722.614880  	-0.014385 
3724.543696  	-0.014044 
3726.472512  	-0.014423 
3728.401328  	-0.014222 
3730.330144  	-0.013656 
3732.258960  	-0.014867 
3734.187776  	-0.015090 
3736.116592  	-0.016621 
3738.045408  	-0.016210 
3739.974224  	-0.014114 
3741.903040  	-0.012430 
3743.831856  	-0.014454 
3745.760672  	-0.017364 
3747.689488  	-0.014379 
3749.618304  	-0.015863 
3751.547120  	-0.018428 
3753.475936  	-0.017397 
3755.404752  	-0.014790 
3757.333568  	-0.014288 
3759.262384  	-0.015188 
3761.191200  	-0.015131 
3763.120016  	-0.013317 
3765.048832  	-0.013740 
3766.977648  	-0.013877 
3768.906464  	-0.014308 
3770.835280  	-0.015475 
3772.764096  	-0.014292 
3774.692912  	-0.013477 
3776.621728  	-0.012896 
3778.550544  	-0.013883 
3780.479360  	-0.015413 
3782.408176  	-0.013967 
3784.336992  	-0.013922 
3786.265808  	-0.014284 
3788.194624  	-0.013912 
3790.123440  	-0.013704 
3792.052256  	-0.013743 
3793.981072  	-0.013400 
3795.909888  	-0.014300 
3797.838704  	-0.014650 
3799.767520  	-0.014177 
3801.696336  	-0.017481 
3803.625152  	-0.016386 
3805.553968  	-0.014571 
3807.482784  	-0.016434 
3809.411600  	-0.014999 
3811.340416  	-0.013591 
3813.269232  	-0.012892 
3815.198048  	-0.014696 
3817.126864  	-0.016640 
3819.055680  	-0.014734 
3820.984496  	-0.017369 
3822.913312  	-0.017048 
3824.842128  	-0.014284 
3826.770944  	-0.014884 
3828.699760  	-0.014379 
3830.628576  	-0.014058 
3832.557392  	-0.014800 
3834.486208  	-0.014476 
3836.415024  	-0.015062 
3838.343840  	-0.016642 
3840.272656  	-0.016491 
3842.201472  	-0.015262 
3844.130288  	-0.015323 
3846.059104  	-0.014472 
3847.987920  	-0.013266 
3849.916736  	-0.012671 
3851.845552  	-0.013769 
3853.774368  	-0.019494 
3855.703184  	-0.018019 
3857.632000  	-0.015011 
3859.560816  	-0.013605 
3861.489632  	-0.013491 
3863.418448  	-0.014231 
3865.347264  	-0.015178 
3867.276080  	-0.013682 
3869.204896  	-0.014313 
3871.133712  	-0.015599 
3873.062528  	-0.014461 
3874.991344  	-0.015319 
3876.920160  	-0.013737 
3878.848976  	-0.012830 
3880.777792  	-0.014196 
3882.706608  	-0.013624 
3884.635424  	-0.013385 
3886.564240  	-0.015132 
3888.493056  	-0.013751 
3890.421872  	-0.013811 
3892.350688  	-0.015214 
3894.279504  	-0.014110 
3896.208320  	-0.012758 
3898.137136  	-0.012521 
3900.065952  	-0.013210 
3901.994768  	-0.013381 
3903.923584  	-0.014519 
3905.852400  	-0.015157 
3907.781216  	-0.014288 
3909.710032  	-0.013653 
3911.638848  	-0.013477 
3913.567664  	-0.013202 
3915.496480  	-0.012975 
3917.425296  	-0.013671 
3919.354112  	-0.013915 
3921.282928  	-0.013627 
3923.211744  	-0.013032 
3925.140560  	-0.013378 
3927.069376  	-0.013450 
3928.998192  	-0.013168 
3930.927008  	-0.013162 
3932.855824  	-0.013499 
3934.784640  	-0.013737 
3936.713456  	-0.013596 
3938.642272  	-0.013444 
3940.571088  	-0.013027 
3942.499904  	-0.013205 
3944.428720  	-0.013531 
3946.357536  	-0.012898 
3948.286352  	-0.012717 
3950.215168  	-0.013372 
3952.143984  	-0.013888 
3954.072800  	-0.013814 
3956.001616  	-0.013524 
3957.930432  	-0.013603 
3959.859248  	-0.013521 
3961.788064  	-0.013620 
3963.716880  	-0.013928 
3965.645696  	-0.014081 
3967.574512  	-0.013973 
3969.503328  	-0.013654 
3971.432144  	-0.013663 
3973.360960  	-0.013716 
3975.289776  	-0.013747 
3977.218592  	-0.013672 
3979.147408  	-0.013636 
3981.076224  	-0.013734 
3983.005040  	-0.013798 
3984.933856  	-0.013697 
3986.862672  	-0.013760 
3988.791488  	-0.013657 
3990.720304  	-0.013563 
3992.649120  	-0.013653 
3994.577936  	-0.013766 
3996.506752  	-0.013763 
3998.435568  	-0.013705 
4000.364384  	-0.013593 