##TITLE=No Description
##DATA TYPE=INFRARED SPECTRUM
##XUNITS=1/CM
##YUNITS=Abs
399.264912  	0.477066 
401.193728  	0.477052 
403.122544  	0.483280 
405.051360  	0.466955 
406.980176  	0.463542 
408.908992  	0.462479 
410.837808  	0.466686 
412.766624  	0.455076 
414.695440  	0.445556 
416.624256  	0.446756 
418.553072  	0.465060 
420.481888  	0.457237 
422.410704  	0.450777 
424.339520  	0.443321 
426.268336  	0.441416 
428.197152  	0.435659 
430.125968  	0.429209 
432.054784  	0.428223 
433.983600  	0.429644 
435.912416  	0.426957 
437.841232  	0.423970 
439.770048  	0.420909 
441.698864  	0.420805 
443.627680  	0.416992 
445.556496  	0.416413 
447.485312  	0.411562 
449.414128  	0.409917 
451.342944  	0.414062 
453.271760  	0.415048 
455.200576  	0.413386 
457.129392  	0.416092 
459.058208  	0.411113 
460.987024  	0.406022 
462.915840  	0.403693 
464.844656  	0.406401 
466.773472  	0.402905 
468.702288  	0.399747 
470.631104  	0.398556 
472.559920  	0.404845 
474.488736  	0.402680 
476.417552  	0.400470 
478.346368  	0.397953 
480.275184  	0.395845 
482.204000  	0.394090 
484.132816  	0.395818 
486.061632  	0.394392 
487.990448  	0.393619 
489.919264  	0.390661 
491.848080  	0.390615 
493.776896  	0.392729 
495.705712  	0.391433 
497.634528  	0.386540 
499.563344  	0.384714 
501.492160  	0.385042 
503.420976  	0.385140 
505.349792  	0.381146 
507.278608  	0.382122 
509.207424  	0.380517 
511.136240  	0.382869 
513.065056  	0.383965 
514.993872  	0.385547 
516.922688  	0.385946 
518.851504  	0.387753 
520.780320  	0.385102 
522.709136  	0.382528 
524.637952  	0.380886 
526.566768  	0.380258 
528.495584  	0.377543 
530.424400  	0.375667 
532.353216  	0.372400 
534.282032  	0.369503 
536.210848  	0.365876 
538.139664  	0.362978 
540.068480  	0.359147 
541.997296  	0.356189 
543.926112  	0.353515 
545.854928  	0.353430 
547.783744  	0.350858 
549.712560  	0.348768 
551.641376  	0.345897 
553.570192  	0.344138 
555.499008  	0.341584 
557.427824  	0.340267 
559.356640  	0.337187 
561.285456  	0.334962 
563.214272  	0.332524 
565.143088  	0.329809 
567.071904  	0.326428 
569.000720  	0.324492 
570.929536  	0.322761 
572.858352  	0.320860 
574.787168  	0.319261 
576.715984  	0.317854 
578.644800  	0.314034 
580.573616  	0.311079 
582.502432  	0.307550 
584.431248  	0.304326 
586.360064  	0.301379 
588.288880  	0.299089 
590.217696  	0.297642 
592.146512  	0.296765 
594.075328  	0.294117 
596.004144  	0.292438 
597.932960  	0.290495 
599.861776  	0.289895 
601.790592  	0.288346 
603.719408  	0.287330 
605.648224  	0.285768 
607.577040  	0.284562 
609.505856  	0.282843 
611.434672  	0.280835 
613.363488  	0.280158 
615.292304  	0.279871 
617.221120  	0.278346 
619.149936  	0.277174 
621.078752  	0.275988 
623.007568  	0.274344 
624.936384  	0.273057 
626.865200  	0.272474 
628.794016  	0.271181 
630.722832  	0.270710 
632.651648  	0.270473 
634.580464  	0.270338 
636.509280  	0.270219 
638.438096  	0.269889 
640.366912  	0.269078 
642.295728  	0.267472 
644.224544  	0.265141 
646.153360  	0.262678 
648.082176  	0.259364 
650.010992  	0.257118 
651.939808  	0.254745 
653.868624  	0.252093 
655.797440  	0.249298 
657.726256  	0.247468 
659.655072  	0.244706 
661.583888  	0.241238 
663.512704  	0.238126 
665.441520  	0.235276 
667.370336  	0.233515 
669.299152  	0.232349 
671.227968  	0.227532 
673.156784  	0.223935 
675.085600  	0.221705 
677.014416  	0.219382 
678.943232  	0.217555 
680.872048  	0.216218 
682.800864  	0.214822 
684.729680  	0.213707 
686.658496  	0.212643 
688.587312  	0.211999 
690.516128  	0.210494 
692.444944  	0.209594 
694.373760  	0.207914 
696.302576  	0.206712 
698.231392  	0.204991 
700.160208  	0.203053 
702.089024  	0.201089 
704.017840  	0.199133 
705.946656  	0.196682 
707.875472  	0.194445 
709.804288  	0.193033 
711.733104  	0.191995 
713.661920  	0.190556 
715.590736  	0.188795 
717.519552  	0.187994 
719.448368  	0.188348 
721.377184  	0.188594 
723.306000  	0.188075 
725.234816  	0.187789 
727.163632  	0.187398 
729.092448  	0.185543 
731.021264  	0.182973 
732.950080  	0.179861 
734.878896  	0.177355 
736.807712  	0.175483 
738.736528  	0.173806 
740.665344  	0.171995 
742.594160  	0.170582 
744.522976  	0.169295 
746.451792  	0.168126 
748.380608  	0.166960 
750.309424  	0.165845 
752.238240  	0.164675 
754.167056  	0.163835 
756.095872  	0.163039 
758.024688  	0.161836 
759.953504  	0.161031 
761.882320  	0.161370 
763.811136  	0.161517 
765.739952  	0.159924 
767.668768  	0.157569 
769.597584  	0.155577 
771.526400  	0.154445 
773.455216  	0.155013 
775.384032  	0.157158 
777.312848  	0.160184 
779.241664  	0.162373 
781.170480  	0.161884 
783.099296  	0.158357 
785.028112  	0.154231 
786.956928  	0.150078 
788.885744  	0.146755 
790.814560  	0.144183 
792.743376  	0.142752 
794.672192  	0.142203 
796.601008  	0.141264 
798.529824  	0.138679 
800.458640  	0.135631 
802.387456  	0.132947 
804.316272  	0.131170 
806.245088  	0.130087 
808.173904  	0.129088 
810.102720  	0.128392 
812.031536  	0.127930 
813.960352  	0.127413 
815.889168  	0.127122 
817.817984  	0.127297 
819.746800  	0.127653 
821.675616  	0.127804 
823.604432  	0.127628 
825.533248  	0.127494 
827.462064  	0.127502 
829.390880  	0.126870 
831.319696  	0.126171 
833.248512  	0.125472 
835.177328  	0.124327 
837.106144  	0.122263 
839.034960  	0.120061 
840.963776  	0.117169 
842.892592  	0.114236 
844.821408  	0.111505 
846.750224  	0.109165 
848.679040  	0.107133 
850.607856  	0.105290 
852.536672  	0.103969 
854.465488  	0.103001 
856.394304  	0.102180 
858.323120  	0.100912 
860.251936  	0.099573 
862.180752  	0.098265 
864.109568  	0.096628 
866.038384  	0.095072 
867.967200  	0.093369 
869.896016  	0.091928 
871.824832  	0.090858 
873.753648  	0.090744 
875.682464  	0.090968 
877.611280  	0.091742 
879.540096  	0.092938 
881.468912  	0.094230 
883.397728  	0.095695 
885.326544  	0.096904 
887.255360  	0.097631 
889.184176  	0.097826 
891.112992  	0.097612 
893.041808  	0.096592 
894.970624  	0.094852 
896.899440  	0.092060 
898.828256  	0.088759 
900.757072  	0.085759 
902.685888  	0.083130 
904.614704  	0.081293 
906.543520  	0.080602 
908.472336  	0.081370 
910.401152  	0.082763 
912.329968  	0.084530 
914.258784  	0.085958 
916.187600  	0.087648 
918.116416  	0.088980 
920.045232  	0.089821 
921.974048  	0.090446 
923.902864  	0.090917 
925.831680  	0.091220 
927.760496  	0.091593 
929.689312  	0.092263 
931.618128  	0.093181 
933.546944  	0.093785 
935.475760  	0.093849 
937.404576  	0.093609 
939.333392  	0.093116 
941.262208  	0.092752 
943.191024  	0.093162 
945.119840  	0.094790 
947.048656  	0.097954 
948.977472  	0.102837 
950.906288  	0.109116 
952.835104  	0.116803 
954.763920  	0.125503 
956.692736  	0.134105 
958.621552  	0.142168 
960.550368  	0.148377 
962.479184  	0.152315 
964.408000  	0.153233 
966.336816  	0.151087 
968.265632  	0.145858 
970.194448  	0.138450 
972.123264  	0.129309 
974.052080  	0.119228 
975.980896  	0.109245 
977.909712  	0.099726 
979.838528  	0.091253 
981.767344  	0.084368 
983.696160  	0.079144 
985.624976  	0.075634 
987.553792  	0.074363 
989.482608  	0.075062 
991.411424  	0.077416 
993.340240  	0.081346 
995.269056  	0.085922 
997.197872  	0.090741 
999.126688  	0.095658 
1001.055504  	0.100753 
1002.984320  	0.105425 
1004.913136  	0.110299 
1006.841952  	0.115024 
1008.770768  	0.119370 
1010.699584  	0.123052 
1012.628400  	0.126154 
1014.557216  	0.128273 
1016.486032  	0.129351 
1018.414848  	0.130009 
1020.343664  	0.130410 
1022.272480  	0.130706 
1024.201296  	0.130590 
1026.130112  	0.130439 
1028.058928  	0.130925 
1029.987744  	0.132019 
1031.916560  	0.133514 
1033.845376  	0.135649 
1035.774192  	0.138835 
1037.703008  	0.143073 
1039.631824  	0.149078 
1041.560640  	0.156863 
1043.489456  	0.166964 
1045.418272  	0.178201 
1047.347088  	0.189723 
1049.275904  	0.198666 
1051.204720  	0.203937 
1053.133536  	0.205840 
1055.062352  	0.205291 
1056.991168  	0.203352 
1058.919984  	0.201606 
1060.848800  	0.200368 
1062.777616  	0.199645 
1064.706432  	0.198388 
1066.635248  	0.196516 
1068.564064  	0.193663 
1070.492880  	0.189968 
1072.421696  	0.186004 
1074.350512  	0.183442 
1076.279328  	0.183172 
1078.208144  	0.185832 
1080.136960  	0.189603 
1082.065776  	0.192873 
1083.994592  	0.193226 
1085.923408  	0.190875 
1087.852224  	0.185494 
1089.781040  	0.178947 
1091.709856  	0.171117 
1093.638672  	0.162017 
1095.567488  	0.151882 
1097.496304  	0.141883 
1099.425120  	0.131834 
1101.353936  	0.121895 
1103.282752  	0.112774 
1105.211568  	0.104256 
1107.140384  	0.096583 
1109.069200  	0.089607 
1110.998016  	0.083301 
1112.926832  	0.077443 
1114.855648  	0.072355 
1116.784464  	0.067350 
1118.713280  	0.062322 
1120.642096  	0.057713 
1122.570912  	0.053442 
1124.499728  	0.049566 
1126.428544  	0.046227 
1128.357360  	0.043285 
1130.286176  	0.040621 
1132.214992  	0.038407 
1134.143808  	0.036911 
1136.072624  	0.035768 
1138.001440  	0.034512 
1139.930256  	0.033373 
1141.859072  	0.032376 
1143.787888  	0.031134 
1145.716704  	0.030148 
1147.645520  	0.029286 
1149.574336  	0.028772 
1151.503152  	0.028254 
1153.431968  	0.028045 
1155.360784  	0.028098 
1157.289600  	0.028741 
1159.218416  	0.029549 
1161.147232  	0.030511 
1163.076048  	0.031593 
1165.004864  	0.032733 
1166.933680  	0.033866 
1168.862496  	0.035155 
1170.791312  	0.036568 
1172.720128  	0.038261 
1174.648944  	0.040247 
1176.577760  	0.042042 
1178.506576  	0.043932 
1180.435392  	0.046057 
1182.364208  	0.048278 
1184.293024  	0.050747 
1186.221840  	0.053703 
1188.150656  	0.057045 
1190.079472  	0.060669 
1192.008288  	0.065121 
1193.937104  	0.069971 
1195.865920  	0.075399 
1197.794736  	0.081297 
1199.723552  	0.087600 
1201.652368  	0.094020 
1203.581184  	0.100172 
1205.510000  	0.106078 
1207.438816  	0.111237 
1209.367632  	0.115835 
1211.296448  	0.119530 
1213.225264  	0.122396 
1215.154080  	0.124190 
1217.082896  	0.125367 
1219.011712  	0.125609 
1220.940528  	0.125199 
1222.869344  	0.124439 
1224.798160  	0.123461 
1226.726976  	0.121603 
1228.655792  	0.119077 
1230.584608  	0.116317 
1232.513424  	0.113184 
1234.442240  	0.109764 
1236.371056  	0.106080 
1238.299872  	0.102010 
1240.228688  	0.097420 
1242.157504  	0.092814 
1244.086320  	0.088316 
1246.015136  	0.083570 
1247.943952  	0.079114 
1249.872768  	0.074688 
1251.801584  	0.070449 
1253.730400  	0.066390 
1255.659216  	0.062351 
1257.588032  	0.058510 
1259.516848  	0.055206 
1261.445664  	0.051846 
1263.374480  	0.048529 
1265.303296  	0.045879 
1267.232112  	0.043845 
1269.160928  	0.042535 
1271.089744  	0.041632 
1273.018560  	0.040900 
1274.947376  	0.040700 
1276.876192  	0.041214 
1278.805008  	0.041684 
1280.733824  	0.041533 
1282.662640  	0.040354 
1284.591456  	0.039165 
1286.520272  	0.038441 
1288.449088  	0.037918 
1290.377904  	0.037448 
1292.306720  	0.037828 
1294.235536  	0.038346 
1296.164352  	0.038493 
1298.093168  	0.037326 
1300.021984  	0.035488 
1301.950800  	0.033586 
1303.879616  	0.031594 
1305.808432  	0.029525 
1307.737248  	0.027503 
1309.666064  	0.025386 
1311.594880  	0.024403 
1313.523696  	0.023825 
1315.452512  	0.022898 
1317.381328  	0.022986 
1319.310144  	0.023209 
1321.238960  	0.022495 
1323.167776  	0.022340 
1325.096592  	0.022614 
1327.025408  	0.022780 
1328.954224  	0.022807 
1330.883040  	0.022336 
1332.811856  	0.021365 
1334.740672  	0.021006 
1336.669488  	0.022387 
1338.598304  	0.025141 
1340.527120  	0.024285 
1342.455936  	0.020221 
1344.384752  	0.019019 
1346.313568  	0.019374 
1348.242384  	0.020123 
1350.171200  	0.020934 
1352.100016  	0.021848 
1354.028832  	0.023519 
1355.957648  	0.025040 
1357.886464  	0.026341 
1359.815280  	0.028696 
1361.744096  	0.032854 
1363.672912  	0.034231 
1365.601728  	0.032431 
1367.530544  	0.033506 
1369.459360  	0.035115 
1371.388176  	0.035533 
1373.316992  	0.037380 
1375.245808  	0.036890 
1377.174624  	0.033585 
1379.103440  	0.031538 
1381.032256  	0.029079 
1382.961072  	0.027046 
1384.889888  	0.026588 
1386.818704  	0.028210 
1388.747520  	0.026344 
1390.676336  	0.023314 
1392.605152  	0.022797 
1394.533968  	0.024944 
1396.462784  	0.025453 
1398.391600  	0.024788 
1400.320416  	0.022989 
1402.249232  	0.021411 
1404.178048  	0.023265 
1406.106864  	0.023924 
1408.035680  	0.023525 
1409.964496  	0.024819 
1411.893312  	0.026257 
1413.822128  	0.027249 
1415.750944  	0.030466 
1417.679760  	0.034919 
1419.608576  	0.035847 
1421.537392  	0.032540 
1423.466208  	0.032266 
1425.395024  	0.030448 
1427.323840  	0.027840 
1429.252656  	0.027599 
1431.181472  	0.026532 
1433.110288  	0.025451 
1435.039104  	0.026740 
1436.967920  	0.029198 
1438.896736  	0.027027 
1440.825552  	0.025968 
1442.754368  	0.026177 
1444.683184  	0.026332 
1446.612000  	0.027758 
1448.540816  	0.028764 
1450.469632  	0.028056 
1452.398448  	0.028749 
1454.327264  	0.030518 
1456.256080  	0.036082 
1458.184896  	0.037638 
1460.113712  	0.030857 
1462.042528  	0.027373 
1463.971344  	0.028197 
1465.900160  	0.029087 
1467.828976  	0.028028 
1469.757792  	0.029012 
1471.686608  	0.035383 
1473.615424  	0.042535 
1475.544240  	0.042741 
1477.473056  	0.043106 
1479.401872  	0.043357 
1481.330688  	0.045948 
1483.259504  	0.046867 
1485.188320  	0.048208 
1487.117136  	0.051811 
1489.045952  	0.056321 
1490.974768  	0.053811 
1492.903584  	0.047180 
1494.832400  	0.044570 
1496.761216  	0.044321 
1498.690032  	0.040406 
1500.618848  	0.035512 
1502.547664  	0.031379 
1504.476480  	0.030112 
1506.405296  	0.038401 
1508.334112  	0.040273 
1510.262928  	0.031597 
1512.191744  	0.026678 
1514.120560  	0.025869 
1516.049376  	0.029711 
1517.978192  	0.030790 
1519.907008  	0.031305 
1521.835824  	0.036769 
1523.764640  	0.035510 
1525.693456  	0.037015 
1527.622272  	0.037542 
1529.551088  	0.034948 
1531.479904  	0.034164 
1533.408720  	0.035815 
1535.337536  	0.032305 
1537.266352  	0.029849 
1539.195168  	0.033202 
1541.123984  	0.035251 
1543.052800  	0.032005 
1544.981616  	0.028633 
1546.910432  	0.022849 
1548.839248  	0.022687 
1550.768064  	0.023942 
1552.696880  	0.022534 
1554.625696  	0.024645 
1556.554512  	0.025705 
1558.483328  	0.033168 
1560.412144  	0.032338 
1562.340960  	0.027234 
1564.269776  	0.027824 
1566.198592  	0.030170 
1568.127408  	0.032552 
1570.056224  	0.038530 
1571.985040  	0.038776 
1573.913856  	0.039563 
1575.842672  	0.044477 
1577.771488  	0.046826 
1579.700304  	0.043349 
1581.629120  	0.042092 
1583.557936  	0.041597 
1585.486752  	0.042057 
1587.415568  	0.043275 
1589.344384  	0.046196 
1591.273200  	0.049535 
1593.202016  	0.053875 
1595.130832  	0.058733 
1597.059648  	0.062992 
1598.988464  	0.066344 
1600.917280  	0.070407 
1602.846096  	0.073508 
1604.774912  	0.075247 
1606.703728  	0.076068 
1608.632544  	0.076983 
1610.561360  	0.075739 
1612.490176  	0.074147 
1614.418992  	0.072636 
1616.347808  	0.075994 
1618.276624  	0.078224 
1620.205440  	0.076835 
1622.134256  	0.078958 
1624.063072  	0.085430 
1625.991888  	0.087006 
1627.920704  	0.091792 
1629.849520  	0.096102 
1631.778336  	0.098566 
1633.707152  	0.101554 
1635.635968  	0.114060 
1637.564784  	0.121557 
1639.493600  	0.119004 
1641.422416  	0.119290 
1643.351232  	0.119730 
1645.280048  	0.121539 
1647.208864  	0.132036 
1649.137680  	0.128898 
1651.066496  	0.121028 
1652.995312  	0.128198 
1654.924128  	0.133332 
1656.852944  	0.122981 
1658.781760  	0.118124 
1660.710576  	0.115984 
1662.639392  	0.116632 
1664.568208  	0.113691 
1666.497024  	0.108673 
1668.425840  	0.107832 
1670.354656  	0.108360 
1672.283472  	0.103049 
1674.212288  	0.099057 
1676.141104  	0.098786 
1678.069920  	0.095092 
1679.998736  	0.094965 
1681.927552  	0.093884 
1683.856368  	0.097457 
1685.785184  	0.098000 
1687.714000  	0.092724 
1689.642816  	0.091446 
1691.571632  	0.088464 
1693.500448  	0.085849 
1695.429264  	0.088531 
1697.358080  	0.091837 
1699.286896  	0.088837 
1701.215712  	0.090785 
1703.144528  	0.085641 
1705.073344  	0.083822 
1707.002160  	0.081048 
1708.930976  	0.075972 
1710.859792  	0.072018 
1712.788608  	0.068872 
1714.717424  	0.067282 
1716.646240  	0.064574 
1718.575056  	0.055448 
1720.503872  	0.044548 
1722.432688  	0.037773 
1724.361504  	0.031260 
1726.290320  	0.025010 
1728.219136  	0.021704 
1730.147952  	0.020413 
1732.076768  	0.018652 
1734.005584  	0.017438 
1735.934400  	0.011192 
1737.863216  	0.008483 
1739.792032  	0.007095 
1741.720848  	0.005779 
1743.649664  	0.006243 
1745.578480  	0.005332 
1747.507296  	0.005784 
1749.436112  	0.006673 
1751.364928  	0.004388 
1753.293744  	0.000206 
1755.222560  	-0.000972 
1757.151376  	0.000127 
1759.080192  	-0.000977 
1761.009008  	-0.000858 
1762.937824  	-0.001825 
1764.866640  	-0.003606 
1766.795456  	-0.002727 
1768.724272  	-0.001231 
1770.653088  	-0.000875 
1772.581904  	0.000029 
1774.510720  	-0.001803 
1776.439536  	-0.003278 
1778.368352  	-0.004097 
1780.297168  	-0.003320 
1782.225984  	-0.004350 
1784.154800  	-0.004654 
1786.083616  	-0.005358 
1788.012432  	-0.005848 
1789.941248  	-0.003733 
1791.870064  	-0.001246 
1793.798880  	-0.003160 
1795.727696  	-0.004229 
1797.656512  	-0.005196 
1799.585328  	-0.004843 
1801.514144  	-0.003866 
1803.442960  	-0.005369 
1805.371776  	-0.006678 
1807.300592  	-0.006427 
1809.229408  	-0.006022 
1811.158224  	-0.005665 
1813.087040  	-0.006824 
1815.015856  	-0.007831 
1816.944672  	-0.007358 
1818.873488  	-0.007361 
1820.802304  	-0.007413 
1822.731120  	-0.006452 
1824.659936  	-0.005405 
1826.588752  	-0.005863 
1828.517568  	-0.005399 
1830.446384  	-0.004869 
1832.375200  	-0.007065 
1834.304016  	-0.007666 
1836.232832  	-0.007408 
1838.161648  	-0.007069 
1840.090464  	-0.007467 
1842.019280  	-0.006488 
1843.948096  	-0.004705 
1845.876912  	-0.005082 
1847.805728  	-0.006520 
1849.734544  	-0.007838 
1851.663360  	-0.008673 
1853.592176  	-0.008421 
1855.520992  	-0.008543 
1857.449808  	-0.008350 
1859.378624  	-0.008534 
1861.307440  	-0.008471 
1863.236256  	-0.008784 
1865.165072  	-0.008048 
1867.093888  	-0.005964 
1869.022704  	-0.004288 
1870.951520  	-0.006574 
1872.880336  	-0.008312 
1874.809152  	-0.008946 
1876.737968  	-0.009273 
1878.666784  	-0.009411 
1880.595600  	-0.009338 
1882.524416  	-0.009252 
1884.453232  	-0.008867 
1886.382048  	-0.009130 
1888.310864  	-0.007955 
1890.239680  	-0.007421 
1892.168496  	-0.008259 
1894.097312  	-0.007889 
1896.026128  	-0.008162 
1897.954944  	-0.009134 
1899.883760  	-0.009240 
1901.812576  	-0.009427 
1903.741392  	-0.009305 
1905.670208  	-0.009221 
1907.599024  	-0.008615 
1909.527840  	-0.008328 
1911.456656  	-0.008507 
1913.385472  	-0.008782 
1915.314288  	-0.008427 
1917.243104  	-0.007419 
1919.171920  	-0.007182 
1921.100736  	-0.007379 
1923.029552  	-0.006942 
1924.958368  	-0.009295 
1926.887184  	-0.009896 
1928.816000  	-0.010134 
1930.744816  	-0.009912 
1932.673632  	-0.009656 
1934.602448  	-0.009153 
1936.531264  	-0.009400 
1938.460080  	-0.009111 
1940.388896  	-0.008366 
1942.317712  	-0.006840 
1944.246528  	-0.008184 
1946.175344  	-0.008963 
1948.104160  	-0.008879 
1950.032976  	-0.008832 
1951.961792  	-0.009482 
1953.890608  	-0.009752 
1955.819424  	-0.009580 
1957.748240  	-0.009998 
1959.677056  	-0.010870 
1961.605872  	-0.010046 
1963.534688  	-0.009639 
1965.463504  	-0.008139 
1967.392320  	-0.008149 
1969.321136  	-0.009444 
1971.249952  	-0.010481 
1973.178768  	-0.009635 
1975.107584  	-0.009262 
1977.036400  	-0.008248 
1978.965216  	-0.008492 
1980.894032  	-0.009356 
1982.822848  	-0.009265 
1984.751664  	-0.008289 
1986.680480  	-0.007938 
1988.609296  	-0.007319 
1990.538112  	-0.006528 
1992.466928  	-0.006452 
1994.395744  	-0.008715 
1996.324560  	-0.009764 
1998.253376  	-0.010218 
2000.182192  	-0.010415 
2002.111008  	-0.009881 
2004.039824  	-0.009218 
2005.968640  	-0.009887 
2007.897456  	-0.009185 
2009.826272  	-0.008944 
2011.755088  	-0.008307 
2013.683904  	-0.008727 
2015.612720  	-0.007896 
2017.541536  	-0.007827 
2019.470352  	-0.008507 
2021.399168  	-0.009599 
2023.327984  	-0.009480 
2025.256800  	-0.009686 
2027.185616  	-0.007980 
2029.114432  	-0.006791 
2031.043248  	-0.006801 
2032.972064  	-0.007604 
2034.900880  	-0.007664 
2036.829696  	-0.007779 
2038.758512  	-0.007423 
2040.687328  	-0.008196 
2042.616144  	-0.007823 
2044.544960  	-0.008185 
2046.473776  	-0.008227 
2048.402592  	-0.008279 
2050.331408  	-0.007878 
2052.260224  	-0.007794 
2054.189040  	-0.007767 
2056.117856  	-0.008337 
2058.046672  	-0.008462 
2059.975488  	-0.007963 
2061.904304  	-0.006994 
2063.833120  	-0.006802 
2065.761936  	-0.007027 
2067.690752  	-0.007644 
2069.619568  	-0.007520 
2071.548384  	-0.008029 
2073.477200  	-0.007846 
2075.406016  	-0.007696 
2077.334832  	-0.007206 
2079.263648  	-0.006621 
2081.192464  	-0.006837 
2083.121280  	-0.007677 
2085.050096  	-0.007964 
2086.978912  	-0.008094 
2088.907728  	-0.007439 
2090.836544  	-0.006822 
2092.765360  	-0.007165 
2094.694176  	-0.007344 
2096.622992  	-0.006894 
2098.551808  	-0.007085 
2100.480624  	-0.006824 
2102.409440  	-0.006748 
2104.338256  	-0.006852 
2106.267072  	-0.007255 
2108.195888  	-0.006981 
2110.124704  	-0.006771 
2112.053520  	-0.006601 
2113.982336  	-0.006946 
2115.911152  	-0.007022 
2117.839968  	-0.007249 
2119.768784  	-0.007472 
2121.697600  	-0.007757 
2123.626416  	-0.007532 
2125.555232  	-0.007759 
2127.484048  	-0.008287 
2129.412864  	-0.008193 
2131.341680  	-0.007544 
2133.270496  	-0.007073 
2135.199312  	-0.006754 
2137.128128  	-0.006475 
2139.056944  	-0.005678 
2140.985760  	-0.006098 
2142.914576  	-0.006193 
2144.843392  	-0.006940 
2146.772208  	-0.007033 
2148.701024  	-0.006739 
2150.629840  	-0.006083 
2152.558656  	-0.006107 
2154.487472  	-0.005927 
2156.416288  	-0.005408 
2158.345104  	-0.002469 
2160.273920  	-0.001363 
2162.202736  	-0.003200 
2164.131552  	-0.004514 
2166.060368  	-0.004182 
2167.989184  	-0.004918 
2169.918000  	-0.005568 
2171.846816  	-0.005553 
2173.775632  	-0.005146 
2175.704448  	-0.005022 
2177.633264  	-0.005098 
2179.562080  	-0.006193 
2181.490896  	-0.005709 
2183.419712  	-0.004845 
2185.348528  	-0.004933 
2187.277344  	-0.005722 
2189.206160  	-0.005988 
2191.134976  	-0.006379 
2193.063792  	-0.006837 
2194.992608  	-0.006904 
2196.921424  	-0.006032 
2198.850240  	-0.006316 
2200.779056  	-0.007333 
2202.707872  	-0.007501 
2204.636688  	-0.006673 
2206.565504  	-0.006957 
2208.494320  	-0.007869 
2210.423136  	-0.008640 
2212.351952  	-0.007907 
2214.280768  	-0.007704 
2216.209584  	-0.007715 
2218.138400  	-0.008671 
2220.067216  	-0.008784 
2221.996032  	-0.008512 
2223.924848  	-0.007802 
2225.853664  	-0.007066 
2227.782480  	-0.006924 
2229.711296  	-0.008120 
2231.640112  	-0.008389 
2233.568928  	-0.008428 
2235.497744  	-0.008675 
2237.426560  	-0.008613 
2239.355376  	-0.008286 
2241.284192  	-0.008896 
2243.213008  	-0.009091 
2245.141824  	-0.008650 
2247.070640  	-0.008029 
2248.999456  	-0.007986 
2250.928272  	-0.008039 
2252.857088  	-0.008387 
2254.785904  	-0.008320 
2256.714720  	-0.008148 
2258.643536  	-0.008057 
2260.572352  	-0.007410 
2262.501168  	-0.007060 
2264.429984  	-0.007417 
2266.358800  	-0.007632 
2268.287616  	-0.007750 
2270.216432  	-0.007837 
2272.145248  	-0.007754 
2274.074064  	-0.007341 
2276.002880  	-0.007497 
2277.931696  	-0.007452 
2279.860512  	-0.007379 
2281.789328  	-0.007380 
2283.718144  	-0.007338 
2285.646960  	-0.006955 
2287.575776  	-0.007000 
2289.504592  	-0.007009 
2291.433408  	-0.006872 
2293.362224  	-0.006419 
2295.291040  	-0.006309 
2297.219856  	-0.006072 
2299.148672  	-0.005893 
2301.077488  	-0.005365 
2303.006304  	-0.004652 
2304.935120  	-0.003999 
2306.863936  	-0.003715 
2308.792752  	-0.003467 
2310.721568  	-0.003287 
2312.650384  	-0.003503 
2314.579200  	-0.003870 
2316.508016  	-0.003718 
2318.436832  	-0.003577 
2320.365648  	-0.003351 
2322.294464  	-0.003577 
2324.223280  	-0.004811 
2326.152096  	-0.006553 
2328.080912  	-0.007716 
2330.009728  	-0.008002 
2331.938544  	-0.008448 
2333.867360  	-0.009428 
2335.796176  	-0.010076 
2337.724992  	-0.010735 
2339.653808  	-0.010726 
2341.582624  	-0.010233 
2343.511440  	-0.009013 
2345.440256  	-0.007438 
2347.369072  	-0.006257 
2349.297888  	-0.005971 
2351.226704  	-0.006989 
2353.155520  	-0.008855 
2355.084336  	-0.009804 
2357.013152  	-0.010076 
2358.941968  	-0.010116 
2360.870784  	-0.010624 
2362.799600  	-0.010599 
2364.728416  	-0.009759 
2366.657232  	-0.009062 
2368.586048  	-0.008144 
2370.514864  	-0.007068 
2372.443680  	-0.006277 
2374.372496  	-0.004980 
2376.301312  	-0.004372 
2378.230128  	-0.004402 
2380.158944  	-0.004779 
2382.087760  	-0.005460 
2384.016576  	-0.006616 
2385.945392  	-0.007561 
2387.874208  	-0.007994 
2389.803024  	-0.008253 
2391.731840  	-0.008537 
2393.660656  	-0.008673 
2395.589472  	-0.008640 
2397.518288  	-0.008594 
2399.447104  	-0.008595 
2401.375920  	-0.008620 
2403.304736  	-0.008888 
2405.233552  	-0.008869 
2407.162368  	-0.008787 
2409.091184  	-0.008787 
2411.020000  	-0.008896 
2412.948816  	-0.009051 
2414.877632  	-0.008922 
2416.806448  	-0.008569 
2418.735264  	-0.008630 
2420.664080  	-0.008632 
2422.592896  	-0.008601 
2424.521712  	-0.008454 
2426.450528  	-0.008579 
2428.379344  	-0.008606 
2430.308160  	-0.008402 
2432.236976  	-0.008392 
2434.165792  	-0.008433 
2436.094608  	-0.008348 
2438.023424  	-0.008172 
2439.952240  	-0.008071 
2441.881056  	-0.008221 
2443.809872  	-0.008218 
2445.738688  	-0.008025 
2447.667504  	-0.007812 
2449.596320  	-0.007522 
2451.525136  	-0.007558 
2453.453952  	-0.007663 
2455.382768  	-0.007649 
2457.311584  	-0.007531 
2459.240400  	-0.007596 
2461.169216  	-0.007581 
2463.098032  	-0.007403 
2465.026848  	-0.007399 
2466.955664  	-0.007537 
2468.884480  	-0.007672 
2470.813296  	-0.007716 
2472.742112  	-0.007527 
2474.670928  	-0.007164 
2476.599744  	-0.007076 
2478.528560  	-0.006978 
2480.457376  	-0.006748 
2482.386192  	-0.006637 
2484.315008  	-0.006916 
2486.243824  	-0.007051 
2488.172640  	-0.006743 
2490.101456  	-0.006426 
2492.030272  	-0.006388 
2493.959088  	-0.006547 
2495.887904  	-0.006703 
2497.816720  	-0.006473 
2499.745536  	-0.006368 
2501.674352  	-0.006471 
2503.603168  	-0.006583 
2505.531984  	-0.006446 
2507.460800  	-0.006460 
2509.389616  	-0.006623 
2511.318432  	-0.006798 
2513.247248  	-0.006596 
2515.176064  	-0.006169 
2517.104880  	-0.006131 
2519.033696  	-0.006455 
2520.962512  	-0.006357 
2522.891328  	-0.006218 
2524.820144  	-0.006070 
2526.748960  	-0.006085 
2528.677776  	-0.006071 
2530.606592  	-0.005894 
2532.535408  	-0.005519 
2534.464224  	-0.005502 
2536.393040  	-0.005729 
2538.321856  	-0.005686 
2540.250672  	-0.005558 
2542.179488  	-0.005503 
2544.108304  	-0.005427 
2546.037120  	-0.005304 
2547.965936  	-0.005119 
2549.894752  	-0.004923 
2551.823568  	-0.004730 
2553.752384  	-0.004756 
2555.681200  	-0.004891 
2557.610016  	-0.005098 
2559.538832  	-0.005202 
2561.467648  	-0.004832 
2563.396464  	-0.004532 
2565.325280  	-0.004446 
2567.254096  	-0.004581 
2569.182912  	-0.004671 
2571.111728  	-0.004655 
2573.040544  	-0.004686 
2574.969360  	-0.004381 
2576.898176  	-0.004187 
2578.826992  	-0.004259 
2580.755808  	-0.004403 
2582.684624  	-0.004261 
2584.613440  	-0.004066 
2586.542256  	-0.003893 
2588.471072  	-0.003967 
2590.399888  	-0.003933 
2592.328704  	-0.003815 
2594.257520  	-0.003671 
2596.186336  	-0.003748 
2598.115152  	-0.003811 
2600.043968  	-0.003721 
2601.972784  	-0.003523 
2603.901600  	-0.003330 
2605.830416  	-0.003397 
2607.759232  	-0.003445 
2609.688048  	-0.003426 
2611.616864  	-0.003250 
2613.545680  	-0.003176 
2615.474496  	-0.003165 
2617.403312  	-0.002993 
2619.332128  	-0.002961 
2621.260944  	-0.002887 
2623.189760  	-0.002843 
2625.118576  	-0.002694 
2627.047392  	-0.002597 
2628.976208  	-0.002519 
2630.905024  	-0.002457 
2632.833840  	-0.002336 
2634.762656  	-0.002334 
2636.691472  	-0.002183 
2638.620288  	-0.002054 
2640.549104  	-0.001936 
2642.477920  	-0.001845 
2644.406736  	-0.001852 
2646.335552  	-0.001829 
2648.264368  	-0.001709 
2650.193184  	-0.001583 
2652.122000  	-0.001407 
2654.050816  	-0.001203 
2655.979632  	-0.001135 
2657.908448  	-0.001095 
2659.837264  	-0.000992 
2661.766080  	-0.000934 
2663.694896  	-0.000851 
2665.623712  	-0.000708 
2667.552528  	-0.000669 
2669.481344  	-0.000699 
2671.410160  	-0.000670 
2673.338976  	-0.000535 
2675.267792  	-0.000324 
2677.196608  	-0.000098 
2679.125424  	0.000099 
2681.054240  	0.000227 
2682.983056  	0.000314 
2684.911872  	0.000279 
2686.840688  	0.000315 
2688.769504  	0.000435 
2690.698320  	0.000560 
2692.627136  	0.000665 
2694.555952  	0.000688 
2696.484768  	0.000743 
2698.413584  	0.000800 
2700.342400  	0.000773 
2702.271216  	0.000907 
2704.200032  	0.001086 
2706.128848  	0.001257 
2708.057664  	0.001399 
2709.986480  	0.001482 
2711.915296  	0.001609 
2713.844112  	0.001718 
2715.772928  	0.001742 
2717.701744  	0.001742 
2719.630560  	0.001846 
2721.559376  	0.002043 
2723.488192  	0.002174 
2725.417008  	0.002346 
2727.345824  	0.002530 
2729.274640  	0.002729 
2731.203456  	0.002769 
2733.132272  	0.002812 
2735.061088  	0.002934 
2736.989904  	0.002968 
2738.918720  	0.003052 
2740.847536  	0.003185 
2742.776352  	0.003336 
2744.705168  	0.003453 
2746.633984  	0.003579 
2748.562800  	0.003729 
2750.491616  	0.003710 
2752.420432  	0.003654 
2754.349248  	0.003611 
2756.278064  	0.003691 
2758.206880  	0.003719 
2760.135696  	0.003757 
2762.064512  	0.003740 
2763.993328  	0.003737 
2765.922144  	0.003775 
2767.850960  	0.003809 
2769.779776  	0.003839 
2771.708592  	0.003935 
2773.637408  	0.003820 
2775.566224  	0.003758 
2777.495040  	0.003834 
2779.423856  	0.003905 
2781.352672  	0.004089 
2783.281488  	0.004090 
2785.210304  	0.003976 
2787.139120  	0.004005 
2789.067936  	0.004060 
2790.996752  	0.004126 
2792.925568  	0.004196 
2794.854384  	0.004224 
2796.783200  	0.004246 
2798.712016  	0.004251 
2800.640832  	0.004252 
2802.569648  	0.004352 
2804.498464  	0.004402 
2806.427280  	0.004431 
2808.356096  	0.004523 
2810.284912  	0.004518 
2812.213728  	0.004489 
2814.142544  	0.004564 
2816.071360  	0.004515 
2818.000176  	0.004547 
2819.928992  	0.004708 
2821.857808  	0.004745 
2823.786624  	0.004672 
2825.715440  	0.004724 
2827.644256  	0.004793 
2829.573072  	0.004759 
2831.501888  	0.004801 
2833.430704  	0.004834 
2835.359520  	0.004798 
2837.288336  	0.004849 
2839.217152  	0.004838 
2841.145968  	0.004705 
2843.074784  	0.004656 
2845.003600  	0.004769 
2846.932416  	0.004821 
2848.861232  	0.004993 
2850.790048  	0.004999 
2852.718864  	0.005050 
2854.647680  	0.005210 
2856.576496  	0.005349 
2858.505312  	0.005405 
2860.434128  	0.005548 
2862.362944  	0.005665 
2864.291760  	0.005724 
2866.220576  	0.005755 
2868.149392  	0.005902 
2870.078208  	0.006131 
2872.007024  	0.006397 
2873.935840  	0.006685 
2875.864656  	0.006878 
2877.793472  	0.007052 
2879.722288  	0.007477 
2881.651104  	0.007828 
2883.579920  	0.008082 
2885.508736  	0.008326 
2887.437552  	0.008415 
2889.366368  	0.008446 
2891.295184  	0.008648 
2893.224000  	0.008693 
2895.152816  	0.008681 
2897.081632  	0.008765 
2899.010448  	0.008702 
2900.939264  	0.008605 
2902.868080  	0.008714 
2904.796896  	0.008910 
2906.725712  	0.008989 
2908.654528  	0.009192 
2910.583344  	0.009451 
2912.512160  	0.009623 
2914.440976  	0.009866 
2916.369792  	0.010264 
2918.298608  	0.010562 
2920.227424  	0.010885 
2922.156240  	0.011159 
2924.085056  	0.011473 
2926.013872  	0.011877 
2927.942688  	0.012351 
2929.871504  	0.012912 
2931.800320  	0.013255 
2933.729136  	0.013691 
2935.657952  	0.014239 
2937.586768  	0.014654 
2939.515584  	0.014837 
2941.444400  	0.015020 
2943.373216  	0.015245 
2945.302032  	0.015558 
2947.230848  	0.015670 
2949.159664  	0.015536 
2951.088480  	0.015497 
2953.017296  	0.015551 
2954.946112  	0.015425 
2956.874928  	0.015313 
2958.803744  	0.015152 
2960.732560  	0.015023 
2962.661376  	0.014950 
2964.590192  	0.015014 
2966.519008  	0.014934 
2968.447824  	0.014608 
2970.376640  	0.014381 
2972.305456  	0.014221 
2974.234272  	0.014323 
2976.163088  	0.014326 
2978.091904  	0.014107 
2980.020720  	0.013960 
2981.949536  	0.013977 
2983.878352  	0.013904 
2985.807168  	0.013792 
2987.735984  	0.013890 
2989.664800  	0.013961 
2991.593616  	0.014100 
2993.522432  	0.014284 
2995.451248  	0.014422 
2997.380064  	0.014559 
2999.308880  	0.014876 
3001.237696  	0.015227 
3003.166512  	0.015594 
3005.095328  	0.015777 
3007.024144  	0.015927 
3008.952960  	0.016379 
3010.881776  	0.016860 
3012.810592  	0.017237 
3014.739408  	0.017426 
3016.668224  	0.017656 
3018.597040  	0.017993 
3020.525856  	0.018289 
3022.454672  	0.018537 
3024.383488  	0.018976 
3026.312304  	0.019451 
3028.241120  	0.019573 
3030.169936  	0.019949 
3032.098752  	0.020614 
3034.027568  	0.020882 
3035.956384  	0.021156 
3037.885200  	0.021357 
3039.814016  	0.021614 
3041.742832  	0.021911 
3043.671648  	0.022344 
3045.600464  	0.022737 
3047.529280  	0.023164 
3049.458096  	0.023710 
3051.386912  	0.023883 
3053.315728  	0.024086 
3055.244544  	0.024606 
3057.173360  	0.025230 
3059.102176  	0.025695 
3061.030992  	0.026145 
3062.959808  	0.026627 
3064.888624  	0.027213 
3066.817440  	0.027828 
3068.746256  	0.028303 
3070.675072  	0.028557 
3072.603888  	0.029064 
3074.532704  	0.029789 
3076.461520  	0.030493 
3078.390336  	0.031162 
3080.319152  	0.031704 
3082.247968  	0.031982 
3084.176784  	0.032247 
3086.105600  	0.032917 
3088.034416  	0.033699 
3089.963232  	0.034080 
3091.892048  	0.034430 
3093.820864  	0.034989 
3095.749680  	0.035834 
3097.678496  	0.036495 
3099.607312  	0.037024 
3101.536128  	0.037721 
3103.464944  	0.038064 
3105.393760  	0.038272 
3107.322576  	0.038898 
3109.251392  	0.039544 
3111.180208  	0.039836 
3113.109024  	0.040208 
3115.037840  	0.040908 
3116.966656  	0.041695 
3118.895472  	0.042063 
3120.824288  	0.042289 
3122.753104  	0.042896 
3124.681920  	0.043274 
3126.610736  	0.043504 
3128.539552  	0.043781 
3130.468368  	0.044066 
3132.397184  	0.044728 
3134.326000  	0.045081 
3136.254816  	0.045249 
3138.183632  	0.045620 
3140.112448  	0.045962 
3142.041264  	0.046323 
3143.970080  	0.046835 
3145.898896  	0.047352 
3147.827712  	0.047771 
3149.756528  	0.048340 
3151.685344  	0.048823 
3153.614160  	0.049088 
3155.542976  	0.049408 
3157.471792  	0.049871 
3159.400608  	0.050380 
3161.329424  	0.050832 
3163.258240  	0.051281 
3165.187056  	0.051603 
3167.115872  	0.051868 
3169.044688  	0.052418 
3170.973504  	0.052779 
3172.902320  	0.052805 
3174.831136  	0.052890 
3176.759952  	0.053345 
3178.688768  	0.053830 
3180.617584  	0.053762 
3182.546400  	0.053796 
3184.475216  	0.054003 
3186.404032  	0.054294 
3188.332848  	0.054505 
3190.261664  	0.054469 
3192.190480  	0.054352 
3194.119296  	0.054472 
3196.048112  	0.054564 
3197.976928  	0.054865 
3199.905744  	0.054884 
3201.834560  	0.054683 
3203.763376  	0.054550 
3205.692192  	0.054361 
3207.621008  	0.054399 
3209.549824  	0.054709 
3211.478640  	0.054705 
3213.407456  	0.054514 
3215.336272  	0.054527 
3217.265088  	0.054314 
3219.193904  	0.054456 
3221.122720  	0.054620 
3223.051536  	0.054127 
3224.980352  	0.053842 
3226.909168  	0.054036 
3228.837984  	0.053961 
3230.766800  	0.053671 
3232.695616  	0.053731 
3234.624432  	0.053831 
3236.553248  	0.053827 
3238.482064  	0.053698 
3240.410880  	0.053520 
3242.339696  	0.053436 
3244.268512  	0.053603 
3246.197328  	0.053750 
3248.126144  	0.053537 
3250.054960  	0.053742 
3251.983776  	0.053921 
3253.912592  	0.054221 
3255.841408  	0.054460 
3257.770224  	0.054473 
3259.699040  	0.054425 
3261.627856  	0.054441 
3263.556672  	0.054447 
3265.485488  	0.054775 
3267.414304  	0.054928 
3269.343120  	0.054971 
3271.271936  	0.055092 
3273.200752  	0.055358 
3275.129568  	0.055591 
3277.058384  	0.055669 
3278.987200  	0.055539 
3280.916016  	0.055449 
3282.844832  	0.055457 
3284.773648  	0.055463 
3286.702464  	0.055584 
3288.631280  	0.056035 
3290.560096  	0.056152 
3292.488912  	0.056190 
3294.417728  	0.056145 
3296.346544  	0.056265 
3298.275360  	0.056501 
3300.204176  	0.056349 
3302.132992  	0.056219 
3304.061808  	0.056612 
3305.990624  	0.056908 
3307.919440  	0.057311 
3309.848256  	0.057580 
3311.777072  	0.057557 
3313.705888  	0.057648 
3315.634704  	0.057785 
3317.563520  	0.057949 
3319.492336  	0.058080 
3321.421152  	0.058255 
3323.349968  	0.058427 
3325.278784  	0.058468 
3327.207600  	0.058514 
3329.136416  	0.058484 
3331.065232  	0.058496 
3332.994048  	0.058595 
3334.922864  	0.058801 
3336.851680  	0.058953 
3338.780496  	0.058665 
3340.709312  	0.058217 
3342.638128  	0.058180 
3344.566944  	0.058127 
3346.495760  	0.057882 
3348.424576  	0.057770 
3350.353392  	0.057679 
3352.282208  	0.057336 
3354.211024  	0.057226 
3356.139840  	0.057076 
3358.068656  	0.056814 
3359.997472  	0.056517 
3361.926288  	0.056170 
3363.855104  	0.055820 
3365.783920  	0.055801 
3367.712736  	0.055658 
3369.641552  	0.055287 
3371.570368  	0.054775 
3373.499184  	0.054602 
3375.428000  	0.054565 
3377.356816  	0.054423 
3379.285632  	0.054191 
3381.214448  	0.053727 
3383.143264  	0.053584 
3385.072080  	0.053736 
3387.000896  	0.053108 
3388.929712  	0.052495 
3390.858528  	0.052452 
3392.787344  	0.052997 
3394.716160  	0.052592 
3396.644976  	0.052233 
3398.573792  	0.051890 
3400.502608  	0.051056 
3402.431424  	0.050517 
3404.360240  	0.050203 
3406.289056  	0.049650 
3408.217872  	0.049252 
3410.146688  	0.049048 
3412.075504  	0.048703 
3414.004320  	0.048414 
3415.933136  	0.048052 
3417.861952  	0.047751 
3419.790768  	0.048195 
3421.719584  	0.048352 
3423.648400  	0.047255 
3425.577216  	0.046245 
3427.506032  	0.045812 
3429.434848  	0.045339 
3431.363664  	0.045144 
3433.292480  	0.044841 
3435.221296  	0.044487 
3437.150112  	0.044007 
3439.078928  	0.043363 
3441.007744  	0.043137 
3442.936560  	0.043354 
3444.865376  	0.042564 
3446.794192  	0.043090 
3448.723008  	0.042835 
3450.651824  	0.041056 
3452.580640  	0.040402 
3454.509456  	0.040019 
3456.438272  	0.039607 
3458.367088  	0.039116 
3460.295904  	0.038897 
3462.224720  	0.038859 
3464.153536  	0.038026 
3466.082352  	0.037168 
3468.011168  	0.036806 
3469.939984  	0.035986 
3471.868800  	0.035132 
3473.797616  	0.034540 
3475.726432  	0.034258 
3477.655248  	0.033462 
3479.584064  	0.033148 
3481.512880  	0.033714 
3483.441696  	0.033211 
3485.370512  	0.031675 
3487.299328  	0.031294 
3489.228144  	0.030804 
3491.156960  	0.029648 
3493.085776  	0.028864 
3495.014592  	0.028766 
3496.943408  	0.028699 
3498.872224  	0.027836 
3500.801040  	0.028012 
3502.729856  	0.029223 
3504.658672  	0.028491 
3506.587488  	0.026113 
3508.516304  	0.025942 
3510.445120  	0.026403 
3512.373936  	0.024945 
3514.302752  	0.023796 
3516.231568  	0.023108 
3518.160384  	0.022881 
3520.089200  	0.022468 
3522.018016  	0.022940 
3523.946832  	0.024300 
3525.875648  	0.023506 
3527.804464  	0.022767 
3529.733280  	0.021800 
3531.662096  	0.020048 
3533.590912  	0.018519 
3535.519728  	0.018750 
3537.448544  	0.018887 
3539.377360  	0.017471 
3541.306176  	0.016824 
3543.234992  	0.017888 
3545.163808  	0.020202 
3547.092624  	0.020259 
3549.021440  	0.017251 
3550.950256  	0.015878 
3552.879072  	0.016532 
3554.807888  	0.014615 
3556.736704  	0.012785 
3558.665520  	0.013155 
3560.594336  	0.013933 
3562.523152  	0.013520 
3564.451968  	0.014684 
3566.380784  	0.019387 
3568.309600  	0.019447 
3570.238416  	0.013321 
3572.167232  	0.010144 
3574.096048  	0.009560 
3576.024864  	0.009192 
3577.953680  	0.008634 
3579.882496  	0.008385 
3581.811312  	0.007660 
3583.740128  	0.007337 
3585.668944  	0.009109 
3587.597760  	0.013158 
3589.526576  	0.010072 
3591.455392  	0.005754 
3593.384208  	0.005826 
3595.313024  	0.006689 
3597.241840  	0.005465 
3599.170656  	0.004275 
3601.099472  	0.003937 
3603.028288  	0.002358 
3604.957104  	0.001188 
3606.885920  	0.003175 
3608.814736  	0.004721 
3610.743552  	0.002551 
3612.672368  	0.002516 
3614.601184  	0.002618 
3616.530000  	0.000747 
3618.458816  	0.001875 
3620.387632  	0.001612 
3622.316448  	-0.002261 
3624.245264  	-0.004289 
3626.174080  	-0.003831 
3628.102896  	-0.000341 
3630.031712  	0.001483 
3631.960528  	-0.003744 
3633.889344  	-0.005651 
3635.818160  	-0.007152 
3637.746976  	-0.008355 
3639.675792  	-0.008900 
3641.604608  	-0.009077 
3643.533424  	-0.009441 
3645.462240  	-0.008709 
3647.391056  	-0.003420 
3649.319872  	0.000282 
3651.248688  	-0.003375 
3653.177504  	-0.009888 
3655.106320  	-0.011719 
3657.035136  	-0.011206 
3658.963952  	-0.013095 
3660.892768  	-0.014164 
3662.821584  	-0.014923 
3664.750400  	-0.015222 
3666.679216  	-0.014619 
3668.608032  	-0.011775 
3670.536848  	-0.008846 
3672.465664  	-0.011837 
3674.394480  	-0.011257 
3676.323296  	-0.008348 
3678.252112  	-0.012138 
3680.180928  	-0.014589 
3682.109744  	-0.016425 
3684.038560  	-0.016693 
3685.967376  	-0.016367 
3687.896192  	-0.013711 
3689.825008  	-0.010845 
3691.753824  	-0.012867 
3693.682640  	-0.015752 
3695.611456  	-0.016873 
3697.540272  	-0.017274 
3699.469088  	-0.017636 
3701.397904  	-0.016396 
3703.326720  	-0.016570 
3705.255536  	-0.017452 
3707.184352  	-0.016817 
3709.113168  	-0.014547 
3711.041984  	-0.011205 
3712.970800  	-0.012222 
3714.899616  	-0.015581 
3716.828432  	-0.017286 
3718.757248  	-0.016548 
3720.686064  	-0.015561 
3722.614880  	-0.014171 
3724.543696  	-0.013539 
3726.472512  	-0.013194 
3728.401328  	-0.015075 
3730.330144  	-0.016212 
3732.258960  	-0.014067 
3734.187776  	-0.009340 
3736.116592  	-0.006655 
3738.045408  	-0.011407 
3739.974224  	-0.013582 
3741.903040  	-0.013752 
3743.831856  	-0.012271 
3745.760672  	-0.010517 
3747.689488  	-0.012580 
3749.618304  	-0.010285 
3751.547120  	-0.008197 
3753.475936  	-0.011810 
3755.404752  	-0.014734 
3757.333568  	-0.014640 
3759.262384  	-0.014325 
3761.191200  	-0.016038 
3763.120016  	-0.017453 
3765.048832  	-0.016249 
3766.977648  	-0.015933 
3768.906464  	-0.015963 
3770.835280  	-0.015707 
3772.764096  	-0.017602 
3774.692912  	-0.018670 
3776.621728  	-0.018504 
3778.550544  	-0.017040 
3780.479360  	-0.016546 
3782.408176  	-0.017761 
3784.336992  	-0.017107 
3786.265808  	-0.017242 
3788.194624  	-0.018414 
3790.123440  	-0.018768 
3792.052256  	-0.018887 
3793.981072  	-0.018931 
3795.909888  	-0.016707 
3797.838704  	-0.014780 
3799.767520  	-0.014816 
3801.696336  	-0.012447 
3803.625152  	-0.014852 
3805.553968  	-0.016946 
3807.482784  	-0.016197 
3809.411600  	-0.017696 
3811.340416  	-0.018809 
3813.269232  	-0.018551 
3815.198048  	-0.015917 
3817.126864  	-0.013659 
3819.055680  	-0.014312 
3820.984496  	-0.012492 
3822.913312  	-0.014063 
3824.842128  	-0.016462 
3826.770944  	-0.016397 
3828.699760  	-0.017190 
3830.628576  	-0.017221 
3832.557392  	-0.016196 
3834.486208  	-0.015915 
3836.415024  	-0.014553 
3838.343840  	-0.012043 
3840.272656  	-0.011766 
3842.201472  	-0.014103 
3844.130288  	-0.015394 
3846.059104  	-0.017242 
3847.987920  	-0.017878 
3849.916736  	-0.016453 
3851.845552  	-0.013020 
3853.774368  	-0.008298 
3855.703184  	-0.011541 
3857.632000  	-0.014713 
3859.560816  	-0.016822 
3861.489632  	-0.015941 
3863.418448  	-0.013912 
3865.347264  	-0.013257 
3867.276080  	-0.015353 
3869.204896  	-0.013482 
3871.133712  	-0.012058 
3873.062528  	-0.014374 
3874.991344  	-0.015163 
3876.920160  	-0.017789 
3878.848976  	-0.017187 
3880.777792  	-0.013870 
3882.706608  	-0.014424 
3884.635424  	-0.014776 
3886.564240  	-0.015207 
3888.493056  	-0.017924 
3890.421872  	-0.016849 
3892.350688  	-0.014826 
3894.279504  	-0.016540 
3896.208320  	-0.017906 
3898.137136  	-0.016360 
3900.065952  	-0.013406 
3901.994768  	-0.012226 
3903.923584  	-0.011742 
3905.852400  	-0.013994 
3907.781216  	-0.017712 
3909.710032  	-0.019447 
3911.638848  	-0.019717 
3913.567664  	-0.019436 
3915.496480  	-0.017526 
3917.425296  	-0.015375 
3919.354112  	-0.015921 
3921.282928  	-0.016785 
3923.211744  	-0.016246 
3925.140560  	-0.015607 
3927.069376  	-0.017617 
3928.998192  	-0.017646 
3930.927008  	-0.015860 
3932.855824  	-0.015429 
3934.784640  	-0.017413 
3936.713456  	-0.018634 
3938.642272  	-0.018804 
3940.571088  	-0.018369 
3942.499904  	-0.016277 
3944.428720  	-0.016474 
3946.357536  	-0.017497 
3948.286352  	-0.016314 
3950.215168  	-0.016788 
3952.143984  	-0.018475 
3954.072800  	-0.019311 
3956.001616  	-0.019047 
3957.930432  	-0.018633 
3959.859248  	-0.018393 
3961.788064  	-0.017899 
3963.716880  	-0.018366 
3965.645696  	-0.019372 
3967.574512  	-0.019411 
3969.503328  	-0.019134 
3971.432144  	-0.018958 
3973.360960  	-0.018458 
3975.289776  	-0.017982 
3977.218592  	-0.018487 
3979.147408  	-0.019107 
3981.076224  	-0.019089 
3983.005040  	-0.019077 
3984.933856  	-0.019082 
3986.862672  	-0.019078 
3988.791488  	-0.018987 
3990.720304  	-0.018502 
3992.649120  	-0.018618 
3994.577936  	-0.018857 
3996.506752  	-0.019117 
3998.435568  	-0.019362 
4000.364384  	-0.019384 