##TITLE=No Description
##DATA TYPE=INFRARED SPECTRUM
##XUNITS=1/CM
##YUNITS=Abs
399.264912  	0.403868 
401.193728  	0.388385 
403.122544  	0.389075 
405.051360  	0.392739 
406.980176  	0.391270 
408.908992  	0.379038 
410.837808  	0.379154 
412.766624  	0.376964 
414.695440  	0.371709 
416.624256  	0.373462 
418.553072  	0.390585 
420.481888  	0.380511 
422.410704  	0.367895 
424.339520  	0.367183 
426.268336  	0.367666 
428.197152  	0.360034 
430.125968  	0.358528 
432.054784  	0.356240 
433.983600  	0.355900 
435.912416  	0.353102 
437.841232  	0.348646 
439.770048  	0.345671 
441.698864  	0.351562 
443.627680  	0.349788 
445.556496  	0.346351 
447.485312  	0.342289 
449.414128  	0.340641 
451.342944  	0.340306 
453.271760  	0.342757 
455.200576  	0.338580 
457.129392  	0.338881 
459.058208  	0.339009 
460.987024  	0.337072 
462.915840  	0.331290 
464.844656  	0.329967 
466.773472  	0.330208 
468.702288  	0.326937 
470.631104  	0.323770 
472.559920  	0.329653 
474.488736  	0.327579 
476.417552  	0.326634 
478.346368  	0.322004 
480.275184  	0.318555 
482.204000  	0.319242 
484.132816  	0.321372 
486.061632  	0.321396 
487.990448  	0.318897 
489.919264  	0.317140 
491.848080  	0.319698 
493.776896  	0.319062 
495.705712  	0.315847 
497.634528  	0.311733 
499.563344  	0.311707 
501.492160  	0.312867 
503.420976  	0.312364 
505.349792  	0.310122 
507.278608  	0.309676 
509.207424  	0.307584 
511.136240  	0.308607 
513.065056  	0.308804 
514.993872  	0.310615 
516.922688  	0.311234 
518.851504  	0.312148 
520.780320  	0.310492 
522.709136  	0.308742 
524.637952  	0.307355 
526.566768  	0.306307 
528.495584  	0.302809 
530.424400  	0.301617 
532.353216  	0.299137 
534.282032  	0.296506 
536.210848  	0.294560 
538.139664  	0.290414 
540.068480  	0.287525 
541.997296  	0.287417 
543.926112  	0.285155 
545.854928  	0.283957 
547.783744  	0.281250 
549.712560  	0.279768 
551.641376  	0.277667 
553.570192  	0.276351 
555.499008  	0.274021 
557.427824  	0.272751 
559.356640  	0.270398 
561.285456  	0.268627 
563.214272  	0.266647 
565.143088  	0.264482 
567.071904  	0.263311 
569.000720  	0.263214 
570.929536  	0.261106 
572.858352  	0.258296 
574.787168  	0.256652 
576.715984  	0.255562 
578.644800  	0.252963 
580.573616  	0.250835 
582.502432  	0.248243 
584.431248  	0.245868 
586.360064  	0.243245 
588.288880  	0.241293 
590.217696  	0.239951 
592.146512  	0.239224 
594.075328  	0.237355 
596.004144  	0.235823 
597.932960  	0.233996 
599.861776  	0.233570 
601.790592  	0.232571 
603.719408  	0.231301 
605.648224  	0.229564 
607.577040  	0.227817 
609.505856  	0.227003 
611.434672  	0.226499 
613.363488  	0.225219 
615.292304  	0.224899 
617.221120  	0.223524 
619.149936  	0.221995 
621.078752  	0.221067 
623.007568  	0.220196 
624.936384  	0.219416 
626.865200  	0.218347 
628.794016  	0.217410 
630.722832  	0.217422 
632.651648  	0.216861 
634.580464  	0.216257 
636.509280  	0.216100 
638.438096  	0.215329 
640.366912  	0.214007 
642.295728  	0.212783 
644.224544  	0.211878 
646.153360  	0.210369 
648.082176  	0.207874 
650.010992  	0.205772 
651.939808  	0.203690 
653.868624  	0.201768 
655.797440  	0.199406 
657.726256  	0.197596 
659.655072  	0.195309 
661.583888  	0.192940 
663.512704  	0.190373 
665.441520  	0.187120 
667.370336  	0.185800 
669.299152  	0.187773 
671.227968  	0.182708 
673.156784  	0.179060 
675.085600  	0.177699 
677.014416  	0.175803 
678.943232  	0.173821 
680.872048  	0.173074 
682.800864  	0.172375 
684.729680  	0.171499 
686.658496  	0.170260 
688.587312  	0.169233 
690.516128  	0.168080 
692.444944  	0.167442 
694.373760  	0.166392 
696.302576  	0.165433 
698.231392  	0.163648 
700.160208  	0.161949 
702.089024  	0.160341 
704.017840  	0.158893 
705.946656  	0.157024 
707.875472  	0.154853 
709.804288  	0.153511 
711.733104  	0.152308 
713.661920  	0.150979 
715.590736  	0.149789 
717.519552  	0.149245 
719.448368  	0.149575 
721.377184  	0.149634 
723.306000  	0.149052 
725.234816  	0.148650 
727.163632  	0.148102 
729.092448  	0.146750 
731.021264  	0.144894 
732.950080  	0.142892 
734.878896  	0.141003 
736.807712  	0.139536 
738.736528  	0.138208 
740.665344  	0.136929 
742.594160  	0.135998 
744.522976  	0.134814 
746.451792  	0.133735 
748.380608  	0.132423 
750.309424  	0.131103 
752.238240  	0.130134 
754.167056  	0.129574 
756.095872  	0.129043 
758.024688  	0.128067 
759.953504  	0.127226 
761.882320  	0.127221 
763.811136  	0.127318 
765.739952  	0.126209 
767.668768  	0.124435 
769.597584  	0.122691 
771.526400  	0.121543 
773.455216  	0.121783 
775.384032  	0.123408 
777.312848  	0.125841 
779.241664  	0.127690 
781.170480  	0.127077 
783.099296  	0.124341 
785.028112  	0.121121 
786.956928  	0.117892 
788.885744  	0.115434 
790.814560  	0.113289 
792.743376  	0.112129 
794.672192  	0.111558 
796.601008  	0.110765 
798.529824  	0.108912 
800.458640  	0.106390 
802.387456  	0.104238 
804.316272  	0.102755 
806.245088  	0.101883 
808.173904  	0.101037 
810.102720  	0.100417 
812.031536  	0.099809 
813.960352  	0.099241 
815.889168  	0.098896 
817.817984  	0.098844 
819.746800  	0.098968 
821.675616  	0.098836 
823.604432  	0.098586 
825.533248  	0.098477 
827.462064  	0.098379 
829.390880  	0.097599 
831.319696  	0.097087 
833.248512  	0.096560 
835.177328  	0.095624 
837.106144  	0.094021 
839.034960  	0.092359 
840.963776  	0.090156 
842.892592  	0.087867 
844.821408  	0.085930 
846.750224  	0.083941 
848.679040  	0.082130 
850.607856  	0.080791 
852.536672  	0.079957 
854.465488  	0.079192 
856.394304  	0.078421 
858.323120  	0.077105 
860.251936  	0.075794 
862.180752  	0.074821 
864.109568  	0.073378 
866.038384  	0.071864 
867.967200  	0.070400 
869.896016  	0.069086 
871.824832  	0.068309 
873.753648  	0.068131 
875.682464  	0.068126 
877.611280  	0.068622 
879.540096  	0.069239 
881.468912  	0.070166 
883.397728  	0.071390 
885.326544  	0.072451 
887.255360  	0.073016 
889.184176  	0.073102 
891.112992  	0.072817 
893.041808  	0.072083 
894.970624  	0.070962 
896.899440  	0.068827 
898.828256  	0.066247 
900.757072  	0.063763 
902.685888  	0.061853 
904.614704  	0.060634 
906.543520  	0.060176 
908.472336  	0.060725 
910.401152  	0.061605 
912.329968  	0.062882 
914.258784  	0.064120 
916.187600  	0.065387 
918.116416  	0.066504 
920.045232  	0.067293 
921.974048  	0.067719 
923.902864  	0.068013 
925.831680  	0.068305 
927.760496  	0.068539 
929.689312  	0.068727 
931.618128  	0.069329 
933.546944  	0.069928 
935.475760  	0.069964 
937.404576  	0.069755 
939.333392  	0.069430 
941.262208  	0.069259 
943.191024  	0.069670 
945.119840  	0.070887 
947.048656  	0.073206 
948.977472  	0.076802 
950.906288  	0.081197 
952.835104  	0.086627 
954.763920  	0.093050 
956.692736  	0.099394 
958.621552  	0.105369 
960.550368  	0.109927 
962.479184  	0.112746 
964.408000  	0.113510 
966.336816  	0.112069 
968.265632  	0.108257 
970.194448  	0.102779 
972.123264  	0.095935 
974.052080  	0.088458 
975.980896  	0.080874 
977.909712  	0.073558 
979.838528  	0.067166 
981.767344  	0.061877 
983.696160  	0.057855 
985.624976  	0.055083 
987.553792  	0.053969 
989.482608  	0.054386 
991.411424  	0.056236 
993.340240  	0.059075 
995.269056  	0.062370 
997.197872  	0.065974 
999.126688  	0.069544 
1001.055504  	0.073489 
1002.984320  	0.077043 
1004.913136  	0.080600 
1006.841952  	0.083945 
1008.770768  	0.087203 
1010.699584  	0.089899 
1012.628400  	0.091953 
1014.557216  	0.093525 
1016.486032  	0.094496 
1018.414848  	0.094894 
1020.343664  	0.094914 
1022.272480  	0.095042 
1024.201296  	0.094983 
1026.130112  	0.094814 
1028.058928  	0.095128 
1029.987744  	0.095978 
1031.916560  	0.097040 
1033.845376  	0.098499 
1035.774192  	0.100657 
1037.703008  	0.103399 
1039.631824  	0.107472 
1041.560640  	0.112907 
1043.489456  	0.119902 
1045.418272  	0.127919 
1047.347088  	0.136257 
1049.275904  	0.142768 
1051.204720  	0.146793 
1053.133536  	0.148478 
1055.062352  	0.148375 
1056.991168  	0.147085 
1058.919984  	0.145956 
1060.848800  	0.145130 
1062.777616  	0.144467 
1064.706432  	0.143522 
1066.635248  	0.142367 
1068.564064  	0.140547 
1070.492880  	0.137844 
1072.421696  	0.134889 
1074.350512  	0.132856 
1076.279328  	0.132563 
1078.208144  	0.134508 
1080.136960  	0.137339 
1082.065776  	0.139733 
1083.994592  	0.140148 
1085.923408  	0.138790 
1087.852224  	0.135390 
1089.781040  	0.131171 
1091.709856  	0.125483 
1093.638672  	0.118764 
1095.567488  	0.111262 
1097.496304  	0.103637 
1099.425120  	0.096265 
1101.353936  	0.089180 
1103.282752  	0.082192 
1105.211568  	0.075579 
1107.140384  	0.069679 
1109.069200  	0.064349 
1110.998016  	0.059565 
1112.926832  	0.055175 
1114.855648  	0.051126 
1116.784464  	0.047210 
1118.713280  	0.043507 
1120.642096  	0.040138 
1122.570912  	0.036976 
1124.499728  	0.033993 
1126.428544  	0.031375 
1128.357360  	0.029042 
1130.286176  	0.026883 
1132.214992  	0.025030 
1134.143808  	0.023833 
1136.072624  	0.023099 
1138.001440  	0.022256 
1139.930256  	0.021383 
1141.859072  	0.020458 
1143.787888  	0.019523 
1145.716704  	0.018847 
1147.645520  	0.018226 
1149.574336  	0.017933 
1151.503152  	0.017396 
1153.431968  	0.017041 
1155.360784  	0.017047 
1157.289600  	0.017595 
1159.218416  	0.018190 
1161.147232  	0.018795 
1163.076048  	0.019601 
1165.004864  	0.020519 
1166.933680  	0.021484 
1168.862496  	0.022523 
1170.791312  	0.023636 
1172.720128  	0.025054 
1174.648944  	0.026565 
1176.577760  	0.027732 
1178.506576  	0.029266 
1180.435392  	0.031097 
1182.364208  	0.032723 
1184.293024  	0.034615 
1186.221840  	0.036971 
1188.150656  	0.039622 
1190.079472  	0.042422 
1192.008288  	0.045633 
1193.937104  	0.049188 
1195.865920  	0.053209 
1197.794736  	0.057640 
1199.723552  	0.062558 
1201.652368  	0.067183 
1203.581184  	0.071539 
1205.510000  	0.075941 
1207.438816  	0.079834 
1209.367632  	0.083279 
1211.296448  	0.086232 
1213.225264  	0.088576 
1215.154080  	0.089806 
1217.082896  	0.090492 
1219.011712  	0.090641 
1220.940528  	0.090523 
1222.869344  	0.090046 
1224.798160  	0.089432 
1226.726976  	0.088084 
1228.655792  	0.086124 
1230.584608  	0.084246 
1232.513424  	0.082179 
1234.442240  	0.079550 
1236.371056  	0.076626 
1238.299872  	0.073630 
1240.228688  	0.070256 
1242.157504  	0.066867 
1244.086320  	0.063569 
1246.015136  	0.060085 
1247.943952  	0.056676 
1249.872768  	0.053273 
1251.801584  	0.050080 
1253.730400  	0.047036 
1255.659216  	0.043973 
1257.588032  	0.041076 
1259.516848  	0.038662 
1261.445664  	0.036171 
1263.374480  	0.033708 
1265.303296  	0.031670 
1267.232112  	0.030128 
1269.160928  	0.029208 
1271.089744  	0.028589 
1273.018560  	0.027907 
1274.947376  	0.027644 
1276.876192  	0.028010 
1278.805008  	0.028350 
1280.733824  	0.028258 
1282.662640  	0.027333 
1284.591456  	0.026333 
1286.520272  	0.025862 
1288.449088  	0.025585 
1290.377904  	0.025109 
1292.306720  	0.025322 
1294.235536  	0.025629 
1296.164352  	0.025697 
1298.093168  	0.024800 
1300.021984  	0.023462 
1301.950800  	0.022090 
1303.879616  	0.020512 
1305.808432  	0.018887 
1307.737248  	0.017407 
1309.666064  	0.015712 
1311.594880  	0.015130 
1313.523696  	0.014958 
1315.452512  	0.014146 
1317.381328  	0.014211 
1319.310144  	0.014531 
1321.238960  	0.013923 
1323.167776  	0.013646 
1325.096592  	0.013733 
1327.025408  	0.013808 
1328.954224  	0.013799 
1330.883040  	0.013433 
1332.811856  	0.012595 
1334.740672  	0.012406 
1336.669488  	0.013948 
1338.598304  	0.016726 
1340.527120  	0.015884 
1342.455936  	0.011923 
1344.384752  	0.010742 
1346.313568  	0.010984 
1348.242384  	0.011595 
1350.171200  	0.012188 
1352.100016  	0.012975 
1354.028832  	0.014488 
1355.957648  	0.015722 
1357.886464  	0.016583 
1359.815280  	0.018534 
1361.744096  	0.022421 
1363.672912  	0.023540 
1365.601728  	0.021425 
1367.530544  	0.022144 
1369.459360  	0.023325 
1371.388176  	0.023444 
1373.316992  	0.025194 
1375.245808  	0.024926 
1377.174624  	0.022002 
1379.103440  	0.020257 
1381.032256  	0.018133 
1382.961072  	0.016437 
1384.889888  	0.016213 
1386.818704  	0.018090 
1388.747520  	0.016409 
1390.676336  	0.013649 
1392.605152  	0.013415 
1394.533968  	0.015764 
1396.462784  	0.016534 
1398.391600  	0.015918 
1400.320416  	0.013961 
1402.249232  	0.012288 
1404.178048  	0.014002 
1406.106864  	0.014466 
1408.035680  	0.013812 
1409.964496  	0.014990 
1411.893312  	0.016333 
1413.822128  	0.017078 
1415.750944  	0.019881 
1417.679760  	0.023919 
1419.608576  	0.024794 
1421.537392  	0.021632 
1423.466208  	0.021446 
1425.395024  	0.019835 
1427.323840  	0.017536 
1429.252656  	0.017731 
1431.181472  	0.017056 
1433.110288  	0.016080 
1435.039104  	0.017043 
1436.967920  	0.019161 
1438.896736  	0.017001 
1440.825552  	0.015864 
1442.754368  	0.015932 
1444.683184  	0.016032 
1446.612000  	0.017330 
1448.540816  	0.018298 
1450.469632  	0.017557 
1452.398448  	0.018147 
1454.327264  	0.019763 
1456.256080  	0.025010 
1458.184896  	0.026950 
1460.113712  	0.020581 
1462.042528  	0.017069 
1463.971344  	0.017901 
1465.900160  	0.019029 
1467.828976  	0.017813 
1469.757792  	0.018400 
1471.686608  	0.024237 
1473.615424  	0.030877 
1475.544240  	0.030642 
1477.473056  	0.030259 
1479.401872  	0.029884 
1481.330688  	0.032041 
1483.259504  	0.032660 
1485.188320  	0.033593 
1487.117136  	0.036779 
1489.045952  	0.041018 
1490.974768  	0.038979 
1492.903584  	0.032654 
1494.832400  	0.030349 
1496.761216  	0.030960 
1498.690032  	0.028140 
1500.618848  	0.024192 
1502.547664  	0.020704 
1504.476480  	0.019621 
1506.405296  	0.028180 
1508.334112  	0.031364 
1510.262928  	0.022884 
1512.191744  	0.017858 
1514.120560  	0.016928 
1516.049376  	0.020653 
1517.978192  	0.021538 
1519.907008  	0.021515 
1521.835824  	0.026429 
1523.764640  	0.025066 
1525.693456  	0.026176 
1527.622272  	0.026384 
1529.551088  	0.023741 
1531.479904  	0.023109 
1533.408720  	0.025356 
1535.337536  	0.022267 
1537.266352  	0.019602 
1539.195168  	0.022885 
1541.123984  	0.026471 
1543.052800  	0.023763 
1544.981616  	0.020550 
1546.910432  	0.014569 
1548.839248  	0.014347 
1550.768064  	0.015769 
1552.696880  	0.014277 
1554.625696  	0.016135 
1556.554512  	0.016784 
1558.483328  	0.023085 
1560.412144  	0.022742 
1562.340960  	0.017703 
1564.269776  	0.017867 
1566.198592  	0.019713 
1568.127408  	0.021580 
1570.056224  	0.026806 
1571.985040  	0.026506 
1573.913856  	0.026472 
1575.842672  	0.030825 
1577.771488  	0.033263 
1579.700304  	0.029795 
1581.629120  	0.028575 
1583.557936  	0.028156 
1585.486752  	0.028574 
1587.415568  	0.029491 
1589.344384  	0.031715 
1591.273200  	0.034219 
1593.202016  	0.037571 
1595.130832  	0.041324 
1597.059648  	0.044346 
1598.988464  	0.046531 
1600.917280  	0.049585 
1602.846096  	0.052111 
1604.774912  	0.053343 
1606.703728  	0.053868 
1608.632544  	0.054644 
1610.561360  	0.053613 
1612.490176  	0.052184 
1614.418992  	0.050665 
1616.347808  	0.053874 
1618.276624  	0.056243 
1620.205440  	0.054491 
1622.134256  	0.056241 
1624.063072  	0.061899 
1625.991888  	0.062480 
1627.920704  	0.066134 
1629.849520  	0.069384 
1631.778336  	0.070520 
1633.707152  	0.072073 
1635.635968  	0.083112 
1637.564784  	0.090073 
1639.493600  	0.086973 
1641.422416  	0.086708 
1643.351232  	0.086337 
1645.280048  	0.087474 
1647.208864  	0.097641 
1649.137680  	0.094702 
1651.066496  	0.086290 
1652.995312  	0.093430 
1654.924128  	0.100039 
1656.852944  	0.090236 
1658.781760  	0.085595 
1660.710576  	0.083672 
1662.639392  	0.085029 
1664.568208  	0.083116 
1666.497024  	0.078467 
1668.425840  	0.078257 
1670.354656  	0.079929 
1672.283472  	0.075419 
1674.212288  	0.071871 
1676.141104  	0.072771 
1678.069920  	0.069585 
1679.998736  	0.069734 
1681.927552  	0.068630 
1683.856368  	0.072355 
1685.785184  	0.073704 
1687.714000  	0.068389 
1689.642816  	0.067120 
1691.571632  	0.064255 
1693.500448  	0.061341 
1695.429264  	0.064274 
1697.358080  	0.068018 
1699.286896  	0.064576 
1701.215712  	0.067246 
1703.144528  	0.062344 
1705.073344  	0.060669 
1707.002160  	0.058599 
1708.930976  	0.054090 
1710.859792  	0.050816 
1712.788608  	0.048443 
1714.717424  	0.047957 
1716.646240  	0.046568 
1718.575056  	0.039895 
1720.503872  	0.030739 
1722.432688  	0.025096 
1724.361504  	0.020256 
1726.290320  	0.015378 
1728.219136  	0.013038 
1730.147952  	0.012581 
1732.076768  	0.011414 
1734.005584  	0.010815 
1735.934400  	0.005588 
1737.863216  	0.003104 
1739.792032  	0.002239 
1741.720848  	0.001320 
1743.649664  	0.001905 
1745.578480  	0.001151 
1747.507296  	0.001809 
1749.436112  	0.002634 
1751.364928  	0.000407 
1753.293744  	-0.003569 
1755.222560  	-0.004549 
1757.151376  	-0.003272 
1759.080192  	-0.004183 
1761.009008  	-0.004007 
1762.937824  	-0.004847 
1764.866640  	-0.006514 
1766.795456  	-0.005612 
1768.724272  	-0.004107 
1770.653088  	-0.003786 
1772.581904  	-0.002947 
1774.510720  	-0.004600 
1776.439536  	-0.006071 
1778.368352  	-0.006834 
1780.297168  	-0.005983 
1782.225984  	-0.006927 
1784.154800  	-0.007169 
1786.083616  	-0.007832 
1788.012432  	-0.008472 
1789.941248  	-0.006466 
1791.870064  	-0.004155 
1793.798880  	-0.005667 
1795.727696  	-0.006442 
1797.656512  	-0.007296 
1799.585328  	-0.007166 
1801.514144  	-0.006421 
1803.442960  	-0.007955 
1805.371776  	-0.009076 
1807.300592  	-0.008851 
1809.229408  	-0.008453 
1811.158224  	-0.008055 
1813.087040  	-0.009248 
1815.015856  	-0.010340 
1816.944672  	-0.009630 
1818.873488  	-0.009554 
1820.802304  	-0.009754 
1822.731120  	-0.008961 
1824.659936  	-0.007969 
1826.588752  	-0.008318 
1828.517568  	-0.007934 
1830.446384  	-0.007485 
1832.375200  	-0.009479 
1834.304016  	-0.009978 
1836.232832  	-0.009637 
1838.161648  	-0.009602 
1840.090464  	-0.010033 
1842.019280  	-0.008972 
1843.948096  	-0.007260 
1845.876912  	-0.007511 
1847.805728  	-0.008792 
1849.734544  	-0.010173 
1851.663360  	-0.010812 
1853.592176  	-0.010616 
1855.520992  	-0.010750 
1857.449808  	-0.010477 
1859.378624  	-0.010677 
1861.307440  	-0.010813 
1863.236256  	-0.010991 
1865.165072  	-0.010196 
1867.093888  	-0.008203 
1869.022704  	-0.006657 
1870.951520  	-0.009076 
1872.880336  	-0.010905 
1874.809152  	-0.011316 
1876.737968  	-0.011305 
1878.666784  	-0.011419 
1880.595600  	-0.011599 
1882.524416  	-0.011595 
1884.453232  	-0.011211 
1886.382048  	-0.011459 
1888.310864  	-0.010303 
1890.239680  	-0.009712 
1892.168496  	-0.010573 
1894.097312  	-0.010329 
1896.026128  	-0.010309 
1897.954944  	-0.011091 
1899.883760  	-0.011471 
1901.812576  	-0.011717 
1903.741392  	-0.011360 
1905.670208  	-0.011226 
1907.599024  	-0.010992 
1909.527840  	-0.010640 
1911.456656  	-0.010588 
1913.385472  	-0.010904 
1915.314288  	-0.010807 
1917.243104  	-0.009954 
1919.171920  	-0.009526 
1921.100736  	-0.009723 
1923.029552  	-0.009479 
1924.958368  	-0.011556 
1926.887184  	-0.012369 
1928.816000  	-0.012494 
1930.744816  	-0.012290 
1932.673632  	-0.012017 
1934.602448  	-0.011468 
1936.531264  	-0.011584 
1938.460080  	-0.011593 
1940.388896  	-0.011152 
1942.317712  	-0.009943 
1944.246528  	-0.011083 
1946.175344  	-0.011608 
1948.104160  	-0.011917 
1950.032976  	-0.011909 
1951.961792  	-0.011483 
1953.890608  	-0.011327 
1955.819424  	-0.011995 
1957.748240  	-0.012446 
1959.677056  	-0.012722 
1961.605872  	-0.012284 
1963.534688  	-0.012170 
1965.463504  	-0.010801 
1967.392320  	-0.011050 
1969.321136  	-0.012178 
1971.249952  	-0.013325 
1973.178768  	-0.012931 
1975.107584  	-0.012602 
1977.036400  	-0.012576 
1978.965216  	-0.012562 
1980.894032  	-0.012273 
1982.822848  	-0.012605 
1984.751664  	-0.012773 
1986.680480  	-0.012181 
1988.609296  	-0.010533 
1990.538112  	-0.009852 
1992.466928  	-0.009266 
1994.395744  	-0.010559 
1996.324560  	-0.011849 
1998.253376  	-0.012380 
2000.182192  	-0.012220 
2002.111008  	-0.012060 
2004.039824  	-0.011866 
2005.968640  	-0.012036 
2007.897456  	-0.011969 
2009.826272  	-0.011885 
2011.755088  	-0.011795 
2013.683904  	-0.012532 
2015.612720  	-0.011832 
2017.541536  	-0.010969 
2019.470352  	-0.010165 
2021.399168  	-0.011514 
2023.327984  	-0.012519 
2025.256800  	-0.012111 
2027.185616  	-0.010577 
2029.114432  	-0.009904 
2031.043248  	-0.010202 
2032.972064  	-0.011381 
2034.900880  	-0.011290 
2036.829696  	-0.011821 
2038.758512  	-0.011730 
2040.687328  	-0.011252 
2042.616144  	-0.010570 
2044.544960  	-0.010794 
2046.473776  	-0.011070 
2048.402592  	-0.010853 
2050.331408  	-0.010194 
2052.260224  	-0.010258 
2054.189040  	-0.010266 
2056.117856  	-0.010768 
2058.046672  	-0.010887 
2059.975488  	-0.010699 
2061.904304  	-0.009962 
2063.833120  	-0.009290 
2065.761936  	-0.009077 
2067.690752  	-0.009828 
2069.619568  	-0.010238 
2071.548384  	-0.010392 
2073.477200  	-0.010068 
2075.406016  	-0.009820 
2077.334832  	-0.009302 
2079.263648  	-0.008908 
2081.192464  	-0.008599 
2083.121280  	-0.009348 
2085.050096  	-0.010067 
2086.978912  	-0.010302 
2088.907728  	-0.009911 
2090.836544  	-0.009588 
2092.765360  	-0.009912 
2094.694176  	-0.010066 
2096.622992  	-0.009267 
2098.551808  	-0.009323 
2100.480624  	-0.009234 
2102.409440  	-0.009256 
2104.338256  	-0.009296 
2106.267072  	-0.009466 
2108.195888  	-0.009621 
2110.124704  	-0.009825 
2112.053520  	-0.009417 
2113.982336  	-0.009306 
2115.911152  	-0.009349 
2117.839968  	-0.009653 
2119.768784  	-0.010119 
2121.697600  	-0.010131 
2123.626416  	-0.009956 
2125.555232  	-0.010119 
2127.484048  	-0.010229 
2129.412864  	-0.010019 
2131.341680  	-0.009597 
2133.270496  	-0.009550 
2135.199312  	-0.009151 
2137.128128  	-0.008293 
2139.056944  	-0.007862 
2140.985760  	-0.008808 
2142.914576  	-0.008761 
2144.843392  	-0.008985 
2146.772208  	-0.009117 
2148.701024  	-0.009214 
2150.629840  	-0.009565 
2152.558656  	-0.009677 
2154.487472  	-0.009047 
2156.416288  	-0.009067 
2158.345104  	-0.007583 
2160.273920  	-0.005443 
2162.202736  	-0.006293 
2164.131552  	-0.008591 
2166.060368  	-0.008057 
2167.989184  	-0.008493 
2169.918000  	-0.009272 
2171.846816  	-0.008955 
2173.775632  	-0.008460 
2175.704448  	-0.008523 
2177.633264  	-0.008152 
2179.562080  	-0.008489 
2181.490896  	-0.008513 
2183.419712  	-0.008062 
2185.348528  	-0.007891 
2187.277344  	-0.008641 
2189.206160  	-0.008698 
2191.134976  	-0.009137 
2193.063792  	-0.009609 
2194.992608  	-0.009640 
2196.921424  	-0.009115 
2198.850240  	-0.009115 
2200.779056  	-0.009437 
2202.707872  	-0.009619 
2204.636688  	-0.009466 
2206.565504  	-0.009663 
2208.494320  	-0.009847 
2210.423136  	-0.010222 
2212.351952  	-0.010205 
2214.280768  	-0.010223 
2216.209584  	-0.010114 
2218.138400  	-0.010571 
2220.067216  	-0.010688 
2221.996032  	-0.010643 
2223.924848  	-0.010324 
2225.853664  	-0.010155 
2227.782480  	-0.010222 
2229.711296  	-0.010538 
2231.640112  	-0.010593 
2233.568928  	-0.011244 
2235.497744  	-0.011098 
2237.426560  	-0.010924 
2239.355376  	-0.010665 
2241.284192  	-0.010800 
2243.213008  	-0.010850 
2245.141824  	-0.010804 
2247.070640  	-0.010811 
2248.999456  	-0.010735 
2250.928272  	-0.010489 
2252.857088  	-0.010774 
2254.785904  	-0.010457 
2256.714720  	-0.010218 
2258.643536  	-0.010458 
2260.572352  	-0.010402 
2262.501168  	-0.009994 
2264.429984  	-0.009860 
2266.358800  	-0.009813 
2268.287616  	-0.010134 
2270.216432  	-0.010201 
2272.145248  	-0.010106 
2274.074064  	-0.009745 
2276.002880  	-0.009917 
2277.931696  	-0.009887 
2279.860512  	-0.009972 
2281.789328  	-0.010083 
2283.718144  	-0.010055 
2285.646960  	-0.009475 
2287.575776  	-0.009145 
2289.504592  	-0.009239 
2291.433408  	-0.009314 
2293.362224  	-0.008899 
2295.291040  	-0.008650 
2297.219856  	-0.008160 
2299.148672  	-0.007732 
2301.077488  	-0.007426 
2303.006304  	-0.006962 
2304.935120  	-0.006323 
2306.863936  	-0.005970 
2308.792752  	-0.005797 
2310.721568  	-0.005450 
2312.650384  	-0.005605 
2314.579200  	-0.006385 
2316.508016  	-0.006468 
2318.436832  	-0.006019 
2320.365648  	-0.005686 
2322.294464  	-0.006020 
2324.223280  	-0.007260 
2326.152096  	-0.008738 
2328.080912  	-0.009608 
2330.009728  	-0.009786 
2331.938544  	-0.010448 
2333.867360  	-0.011802 
2335.796176  	-0.012679 
2337.724992  	-0.013081 
2339.653808  	-0.012869 
2341.582624  	-0.012249 
2343.511440  	-0.011083 
2345.440256  	-0.009343 
2347.369072  	-0.008084 
2349.297888  	-0.007995 
2351.226704  	-0.009352 
2353.155520  	-0.011138 
2355.084336  	-0.012039 
2357.013152  	-0.012397 
2358.941968  	-0.012491 
2360.870784  	-0.013154 
2362.799600  	-0.012777 
2364.728416  	-0.011888 
2366.657232  	-0.011291 
2368.586048  	-0.010488 
2370.514864  	-0.009662 
2372.443680  	-0.009068 
2374.372496  	-0.007881 
2376.301312  	-0.006972 
2378.230128  	-0.006728 
2380.158944  	-0.007136 
2382.087760  	-0.008018 
2384.016576  	-0.008904 
2385.945392  	-0.009680 
2387.874208  	-0.010164 
2389.803024  	-0.010497 
2391.731840  	-0.010914 
2393.660656  	-0.010969 
2395.589472  	-0.010932 
2397.518288  	-0.010993 
2399.447104  	-0.011113 
2401.375920  	-0.011085 
2403.304736  	-0.011218 
2405.233552  	-0.011192 
2407.162368  	-0.011098 
2409.091184  	-0.011167 
2411.020000  	-0.011386 
2412.948816  	-0.011469 
2414.877632  	-0.011317 
2416.806448  	-0.011047 
2418.735264  	-0.011009 
2420.664080  	-0.011156 
2422.592896  	-0.011342 
2424.521712  	-0.011205 
2426.450528  	-0.011041 
2428.379344  	-0.011010 
2430.308160  	-0.011013 
2432.236976  	-0.010956 
2434.165792  	-0.010705 
2436.094608  	-0.010483 
2438.023424  	-0.010561 
2439.952240  	-0.010748 
2441.881056  	-0.010882 
2443.809872  	-0.010894 
2445.738688  	-0.010662 
2447.667504  	-0.010452 
2449.596320  	-0.010408 
2451.525136  	-0.010435 
2453.453952  	-0.010373 
2455.382768  	-0.010318 
2457.311584  	-0.010377 
2459.240400  	-0.010508 
2461.169216  	-0.010445 
2463.098032  	-0.010268 
2465.026848  	-0.010356 
2466.955664  	-0.010542 
2468.884480  	-0.010678 
2470.813296  	-0.010803 
2472.742112  	-0.010730 
2474.670928  	-0.010521 
2476.599744  	-0.010364 
2478.528560  	-0.010156 
2480.457376  	-0.009895 
2482.386192  	-0.009741 
2484.315008  	-0.009832 
2486.243824  	-0.009812 
2488.172640  	-0.009617 
2490.101456  	-0.009540 
2492.030272  	-0.009588 
2493.959088  	-0.009686 
2495.887904  	-0.009747 
2497.816720  	-0.009651 
2499.745536  	-0.009570 
2501.674352  	-0.009498 
2503.603168  	-0.009504 
2505.531984  	-0.009510 
2507.460800  	-0.009679 
2509.389616  	-0.009893 
2511.318432  	-0.009890 
2513.247248  	-0.009725 
2515.176064  	-0.009681 
2517.104880  	-0.009715 
2519.033696  	-0.009786 
2520.962512  	-0.009659 
2522.891328  	-0.009658 
2524.820144  	-0.009420 
2526.748960  	-0.009214 
2528.677776  	-0.009256 
2530.606592  	-0.009344 
2532.535408  	-0.009242 
2534.464224  	-0.009126 
2536.393040  	-0.009148 
2538.321856  	-0.009218 
2540.250672  	-0.009126 
2542.179488  	-0.008942 
2544.108304  	-0.008834 
2546.037120  	-0.008853 
2547.965936  	-0.008783 
2549.894752  	-0.008659 
2551.823568  	-0.008455 
2553.752384  	-0.008449 
2555.681200  	-0.008681 
2557.610016  	-0.008634 
2559.538832  	-0.008509 
2561.467648  	-0.008409 
2563.396464  	-0.008292 
2565.325280  	-0.008447 
2567.254096  	-0.008544 
2569.182912  	-0.008451 
2571.111728  	-0.008350 
2573.040544  	-0.008242 
2574.969360  	-0.008050 
2576.898176  	-0.008009 
2578.826992  	-0.008047 
2580.755808  	-0.008143 
2582.684624  	-0.007987 
2584.613440  	-0.007909 
2586.542256  	-0.007792 
2588.471072  	-0.007783 
2590.399888  	-0.007808 
2592.328704  	-0.007758 
2594.257520  	-0.007636 
2596.186336  	-0.007813 
2598.115152  	-0.007917 
2600.043968  	-0.007700 
2601.972784  	-0.007560 
2603.901600  	-0.007454 
2605.830416  	-0.007439 
2607.759232  	-0.007485 
2609.688048  	-0.007468 
2611.616864  	-0.007303 
2613.545680  	-0.007164 
2615.474496  	-0.007213 
2617.403312  	-0.007064 
2619.332128  	-0.006888 
2621.260944  	-0.006842 
2623.189760  	-0.006794 
2625.118576  	-0.006716 
2627.047392  	-0.006707 
2628.976208  	-0.006594 
2630.905024  	-0.006431 
2632.833840  	-0.006528 
2634.762656  	-0.006722 
2636.691472  	-0.006561 
2638.620288  	-0.006380 
2640.549104  	-0.006198 
2642.477920  	-0.006051 
2644.406736  	-0.006087 
2646.335552  	-0.006130 
2648.264368  	-0.006089 
2650.193184  	-0.006081 
2652.122000  	-0.005974 
2654.050816  	-0.005825 
2655.979632  	-0.005753 
2657.908448  	-0.005685 
2659.837264  	-0.005597 
2661.766080  	-0.005604 
2663.694896  	-0.005558 
2665.623712  	-0.005422 
2667.552528  	-0.005270 
2669.481344  	-0.005238 
2671.410160  	-0.005288 
2673.338976  	-0.005211 
2675.267792  	-0.005011 
2677.196608  	-0.004819 
2679.125424  	-0.004666 
2681.054240  	-0.004689 
2682.983056  	-0.004680 
2684.911872  	-0.004665 
2686.840688  	-0.004630 
2688.769504  	-0.004544 
2690.698320  	-0.004455 
2692.627136  	-0.004472 
2694.555952  	-0.004484 
2696.484768  	-0.004360 
2698.413584  	-0.004305 
2700.342400  	-0.004336 
2702.271216  	-0.004175 
2704.200032  	-0.004036 
2706.128848  	-0.003955 
2708.057664  	-0.003845 
2709.986480  	-0.003797 
2711.915296  	-0.003734 
2713.844112  	-0.003637 
2715.772928  	-0.003535 
2717.701744  	-0.003541 
2719.630560  	-0.003423 
2721.559376  	-0.003260 
2723.488192  	-0.003298 
2725.417008  	-0.003205 
2727.345824  	-0.003058 
2729.274640  	-0.002948 
2731.203456  	-0.002911 
2733.132272  	-0.002861 
2735.061088  	-0.002753 
2736.989904  	-0.002759 
2738.918720  	-0.002697 
2740.847536  	-0.002568 
2742.776352  	-0.002449 
2744.705168  	-0.002415 
2746.633984  	-0.002453 
2748.562800  	-0.002314 
2750.491616  	-0.002206 
2752.420432  	-0.002247 
2754.349248  	-0.002278 
2756.278064  	-0.002268 
2758.206880  	-0.002373 
2760.135696  	-0.002409 
2762.064512  	-0.002378 
2763.993328  	-0.002341 
2765.922144  	-0.002264 
2767.850960  	-0.002216 
2769.779776  	-0.002245 
2771.708592  	-0.002205 
2773.637408  	-0.002122 
2775.566224  	-0.002135 
2777.495040  	-0.002185 
2779.423856  	-0.002171 
2781.352672  	-0.002072 
2783.281488  	-0.001971 
2785.210304  	-0.001983 
2787.139120  	-0.002005 
2789.067936  	-0.002006 
2790.996752  	-0.001955 
2792.925568  	-0.001888 
2794.854384  	-0.001898 
2796.783200  	-0.001958 
2798.712016  	-0.001985 
2800.640832  	-0.001845 
2802.569648  	-0.001706 
2804.498464  	-0.001634 
2806.427280  	-0.001576 
2808.356096  	-0.001520 
2810.284912  	-0.001524 
2812.213728  	-0.001617 
2814.142544  	-0.001545 
2816.071360  	-0.001538 
2818.000176  	-0.001516 
2819.928992  	-0.001420 
2821.857808  	-0.001416 
2823.786624  	-0.001462 
2825.715440  	-0.001442 
2827.644256  	-0.001440 
2829.573072  	-0.001480 
2831.501888  	-0.001505 
2833.430704  	-0.001510 
2835.359520  	-0.001518 
2837.288336  	-0.001573 
2839.217152  	-0.001606 
2841.145968  	-0.001621 
2843.074784  	-0.001666 
2845.003600  	-0.001619 
2846.932416  	-0.001612 
2848.861232  	-0.001551 
2850.790048  	-0.001529 
2852.718864  	-0.001431 
2854.647680  	-0.001332 
2856.576496  	-0.001227 
2858.505312  	-0.001153 
2860.434128  	-0.001114 
2862.362944  	-0.001068 
2864.291760  	-0.000989 
2866.220576  	-0.001027 
2868.149392  	-0.001143 
2870.078208  	-0.001103 
2872.007024  	-0.000836 
2873.935840  	-0.000634 
2875.864656  	-0.000451 
2877.793472  	-0.000353 
2879.722288  	-0.000153 
2881.651104  	0.000127 
2883.579920  	0.000367 
2885.508736  	0.000603 
2887.437552  	0.000695 
2889.366368  	0.000673 
2891.295184  	0.000799 
2893.224000  	0.000825 
2895.152816  	0.000780 
2897.081632  	0.000869 
2899.010448  	0.000743 
2900.939264  	0.000504 
2902.868080  	0.000587 
2904.796896  	0.000819 
2906.725712  	0.000968 
2908.654528  	0.001151 
2910.583344  	0.001250 
2912.512160  	0.001300 
2914.440976  	0.001504 
2916.369792  	0.001877 
2918.298608  	0.002190 
2920.227424  	0.002474 
2922.156240  	0.002641 
2924.085056  	0.002908 
2926.013872  	0.003136 
2927.942688  	0.003529 
2929.871504  	0.003963 
2931.800320  	0.004262 
2933.729136  	0.004593 
2935.657952  	0.005039 
2937.586768  	0.005403 
2939.515584  	0.005665 
2941.444400  	0.005762 
2943.373216  	0.005855 
2945.302032  	0.006071 
2947.230848  	0.006147 
2949.159664  	0.006106 
2951.088480  	0.006073 
2953.017296  	0.005991 
2954.946112  	0.005810 
2956.874928  	0.005665 
2958.803744  	0.005564 
2960.732560  	0.005531 
2962.661376  	0.005463 
2964.590192  	0.005399 
2966.519008  	0.005437 
2968.447824  	0.005205 
2970.376640  	0.004953 
2972.305456  	0.004793 
2974.234272  	0.004874 
2976.163088  	0.004858 
2978.091904  	0.004752 
2980.020720  	0.004717 
2981.949536  	0.004637 
2983.878352  	0.004512 
2985.807168  	0.004401 
2987.735984  	0.004471 
2989.664800  	0.004489 
2991.593616  	0.004773 
2993.522432  	0.005061 
2995.451248  	0.005095 
2997.380064  	0.005286 
2999.308880  	0.005638 
3001.237696  	0.005896 
3003.166512  	0.006174 
3005.095328  	0.006344 
3007.024144  	0.006454 
3008.952960  	0.006769 
3010.881776  	0.007266 
3012.810592  	0.007691 
3014.739408  	0.007936 
3016.668224  	0.007944 
3018.597040  	0.008049 
3020.525856  	0.008506 
3022.454672  	0.008776 
3024.383488  	0.009007 
3026.312304  	0.009391 
3028.241120  	0.009606 
3030.169936  	0.010006 
3032.098752  	0.010510 
3034.027568  	0.010631 
3035.956384  	0.010867 
3037.885200  	0.010992 
3039.814016  	0.011198 
3041.742832  	0.011414 
3043.671648  	0.011618 
3045.600464  	0.011844 
3047.529280  	0.012225 
3049.458096  	0.012750 
3051.386912  	0.012836 
3053.315728  	0.012885 
3055.244544  	0.013393 
3057.173360  	0.013880 
3059.102176  	0.014141 
3061.030992  	0.014345 
3062.959808  	0.014636 
3064.888624  	0.015237 
3066.817440  	0.015742 
3068.746256  	0.016075 
3070.675072  	0.016260 
3072.603888  	0.016525 
3074.532704  	0.016999 
3076.461520  	0.017423 
3078.390336  	0.017888 
3080.319152  	0.018544 
3082.247968  	0.018794 
3084.176784  	0.018911 
3086.105600  	0.019301 
3088.034416  	0.019732 
3089.963232  	0.019975 
3091.892048  	0.020282 
3093.820864  	0.020636 
3095.749680  	0.021412 
3097.678496  	0.021888 
3099.607312  	0.022171 
3101.536128  	0.022809 
3103.464944  	0.023176 
3105.393760  	0.023335 
3107.322576  	0.023593 
3109.251392  	0.023986 
3111.180208  	0.024230 
3113.109024  	0.024470 
3115.037840  	0.024959 
3116.966656  	0.025548 
3118.895472  	0.025924 
3120.824288  	0.026197 
3122.753104  	0.026588 
3124.681920  	0.026644 
3126.610736  	0.026877 
3128.539552  	0.027050 
3130.468368  	0.027084 
3132.397184  	0.027587 
3134.326000  	0.028001 
3136.254816  	0.028145 
3138.183632  	0.028337 
3140.112448  	0.028525 
3142.041264  	0.028955 
3143.970080  	0.029437 
3145.898896  	0.029628 
3147.827712  	0.029913 
3149.756528  	0.030368 
3151.685344  	0.030637 
3153.614160  	0.030726 
3155.542976  	0.030855 
3157.471792  	0.031298 
3159.400608  	0.031694 
3161.329424  	0.031859 
3163.258240  	0.032193 
3165.187056  	0.032638 
3167.115872  	0.032830 
3169.044688  	0.033043 
3170.973504  	0.033369 
3172.902320  	0.033437 
3174.831136  	0.033498 
3176.759952  	0.033754 
3178.688768  	0.034137 
3180.617584  	0.034154 
3182.546400  	0.034234 
3184.475216  	0.034363 
3186.404032  	0.034504 
3188.332848  	0.034474 
3190.261664  	0.034544 
3192.190480  	0.034568 
3194.119296  	0.034649 
3196.048112  	0.034598 
3197.976928  	0.035059 
3199.905744  	0.035194 
3201.834560  	0.035051 
3203.763376  	0.034919 
3205.692192  	0.034663 
3207.621008  	0.034467 
3209.549824  	0.034722 
3211.478640  	0.034939 
3213.407456  	0.034932 
3215.336272  	0.035017 
3217.265088  	0.034789 
3219.193904  	0.034794 
3221.122720  	0.034802 
3223.051536  	0.034451 
3224.980352  	0.034233 
3226.909168  	0.034207 
3228.837984  	0.034097 
3230.766800  	0.033843 
3232.695616  	0.033975 
3234.624432  	0.033980 
3236.553248  	0.034118 
3238.482064  	0.034261 
3240.410880  	0.034022 
3242.339696  	0.033876 
3244.268512  	0.034071 
3246.197328  	0.034199 
3248.126144  	0.033865 
3250.054960  	0.033823 
3251.983776  	0.033950 
3253.912592  	0.034359 
3255.841408  	0.034536 
3257.770224  	0.034488 
3259.699040  	0.034436 
3261.627856  	0.034439 
3263.556672  	0.034497 
3265.485488  	0.034622 
3267.414304  	0.034474 
3269.343120  	0.034535 
3271.271936  	0.034768 
3273.200752  	0.035171 
3275.129568  	0.035418 
3277.058384  	0.035316 
3278.987200  	0.035190 
3280.916016  	0.035220 
3282.844832  	0.035167 
3284.773648  	0.035200 
3286.702464  	0.035198 
3288.631280  	0.035487 
3290.560096  	0.035643 
3292.488912  	0.035617 
3294.417728  	0.035548 
3296.346544  	0.035675 
3298.275360  	0.035971 
3300.204176  	0.035995 
3302.132992  	0.035802 
3304.061808  	0.035877 
3305.990624  	0.036195 
3307.919440  	0.036590 
3309.848256  	0.036879 
3311.777072  	0.036815 
3313.705888  	0.036894 
3315.634704  	0.037004 
3317.563520  	0.037152 
3319.492336  	0.037241 
3321.421152  	0.037268 
3323.349968  	0.037342 
3325.278784  	0.037380 
3327.207600  	0.037479 
3329.136416  	0.037385 
3331.065232  	0.037222 
3332.994048  	0.037334 
3334.922864  	0.037783 
3336.851680  	0.038041 
3338.780496  	0.037695 
3340.709312  	0.037262 
3342.638128  	0.037337 
3344.566944  	0.037173 
3346.495760  	0.036890 
3348.424576  	0.036787 
3350.353392  	0.036701 
3352.282208  	0.036524 
3354.211024  	0.036351 
3356.139840  	0.036286 
3358.068656  	0.036258 
3359.997472  	0.036224 
3361.926288  	0.035923 
3363.855104  	0.035479 
3365.783920  	0.035536 
3367.712736  	0.035358 
3369.641552  	0.034831 
3371.570368  	0.034485 
3373.499184  	0.034453 
3375.428000  	0.034385 
3377.356816  	0.034323 
3379.285632  	0.034290 
3381.214448  	0.033935 
3383.143264  	0.033768 
3385.072080  	0.033834 
3387.000896  	0.033288 
3388.929712  	0.032810 
3390.858528  	0.032757 
3392.787344  	0.033328 
3394.716160  	0.033052 
3396.644976  	0.032839 
3398.573792  	0.032557 
3400.502608  	0.031818 
3402.431424  	0.031333 
3404.360240  	0.030994 
3406.289056  	0.030572 
3408.217872  	0.030288 
3410.146688  	0.030040 
3412.075504  	0.029703 
3414.004320  	0.029622 
3415.933136  	0.029500 
3417.861952  	0.029237 
3419.790768  	0.029747 
3421.719584  	0.030149 
3423.648400  	0.029313 
3425.577216  	0.028327 
3427.506032  	0.027993 
3429.434848  	0.027756 
3431.363664  	0.027705 
3433.292480  	0.027392 
3435.221296  	0.026898 
3437.150112  	0.026460 
3439.078928  	0.026079 
3441.007744  	0.025919 
3442.936560  	0.026255 
3444.865376  	0.025816 
3446.794192  	0.026521 
3448.723008  	0.026336 
3450.651824  	0.024693 
3452.580640  	0.024039 
3454.509456  	0.023605 
3456.438272  	0.023260 
3458.367088  	0.022989 
3460.295904  	0.022908 
3462.224720  	0.023026 
3464.153536  	0.022241 
3466.082352  	0.021487 
3468.011168  	0.021307 
3469.939984  	0.020781 
3471.868800  	0.020102 
3473.797616  	0.019673 
3475.726432  	0.019513 
3477.655248  	0.018858 
3479.584064  	0.018747 
3481.512880  	0.019405 
3483.441696  	0.019062 
3485.370512  	0.017733 
3487.299328  	0.017504 
3489.228144  	0.017095 
3491.156960  	0.015996 
3493.085776  	0.015458 
3495.014592  	0.015538 
3496.943408  	0.015485 
3498.872224  	0.014721 
3500.801040  	0.014964 
3502.729856  	0.016438 
3504.658672  	0.016048 
3506.587488  	0.013847 
3508.516304  	0.013802 
3510.445120  	0.014242 
3512.373936  	0.012789 
3514.302752  	0.011925 
3516.231568  	0.011576 
3518.160384  	0.011448 
3520.089200  	0.010969 
3522.018016  	0.011464 
3523.946832  	0.013072 
3525.875648  	0.012476 
3527.804464  	0.011870 
3529.733280  	0.011083 
3531.662096  	0.009455 
3533.590912  	0.008129 
3535.519728  	0.008625 
3537.448544  	0.008629 
3539.377360  	0.007086 
3541.306176  	0.006534 
3543.234992  	0.007651 
3545.163808  	0.010179 
3547.092624  	0.010313 
3549.021440  	0.007404 
3550.950256  	0.006416 
3552.879072  	0.007462 
3554.807888  	0.005752 
3556.736704  	0.003987 
3558.665520  	0.004251 
3560.594336  	0.005065 
3562.523152  	0.004790 
3564.451968  	0.006099 
3566.380784  	0.011012 
3568.309600  	0.011103 
3570.238416  	0.005088 
3572.167232  	0.001867 
3574.096048  	0.001375 
3576.024864  	0.001298 
3577.953680  	0.000969 
3579.882496  	0.000809 
3581.811312  	0.000081 
3583.740128  	-0.000189 
3585.668944  	0.001726 
3587.597760  	0.005946 
3589.526576  	0.003100 
3591.455392  	-0.001099 
3593.384208  	-0.000705 
3595.313024  	0.000643 
3597.241840  	-0.000757 
3599.170656  	-0.001988 
3601.099472  	-0.002037 
3603.028288  	-0.003612 
3604.957104  	-0.004877 
3606.885920  	-0.003017 
3608.814736  	-0.001097 
3610.743552  	-0.002730 
3612.672368  	-0.002405 
3614.601184  	-0.001974 
3616.530000  	-0.003801 
3618.458816  	-0.002990 
3620.387632  	-0.003455 
3622.316448  	-0.006993 
3624.245264  	-0.008962 
3626.174080  	-0.008565 
3628.102896  	-0.005262 
3630.031712  	-0.002909 
3631.960528  	-0.007602 
3633.889344  	-0.009321 
3635.818160  	-0.010820 
3637.746976  	-0.012051 
3639.675792  	-0.012459 
3641.604608  	-0.012338 
3643.533424  	-0.012441 
3645.462240  	-0.011717 
3647.391056  	-0.006879 
3649.319872  	-0.003880 
3651.248688  	-0.007312 
3653.177504  	-0.012856 
3655.106320  	-0.014273 
3657.035136  	-0.013670 
3658.963952  	-0.015501 
3660.892768  	-0.016546 
3662.821584  	-0.017297 
3664.750400  	-0.017637 
3666.679216  	-0.016934 
3668.608032  	-0.014439 
3670.536848  	-0.011982 
3672.465664  	-0.014224 
3674.394480  	-0.013382 
3676.323296  	-0.010549 
3678.252112  	-0.013901 
3680.180928  	-0.016147 
3682.109744  	-0.017740 
3684.038560  	-0.018106 
3685.967376  	-0.018048 
3687.896192  	-0.015899 
3689.825008  	-0.013163 
3691.753824  	-0.014763 
3693.682640  	-0.017337 
3695.611456  	-0.018364 
3697.540272  	-0.018560 
3699.469088  	-0.018814 
3701.397904  	-0.017671 
3703.326720  	-0.017724 
3705.255536  	-0.018578 
3707.184352  	-0.018233 
3709.113168  	-0.016490 
3711.041984  	-0.013465 
3712.970800  	-0.013876 
3714.899616  	-0.016722 
3716.828432  	-0.018153 
3718.757248  	-0.017460 
3720.686064  	-0.016743 
3722.614880  	-0.015233 
3724.543696  	-0.014535 
3726.472512  	-0.014401 
3728.401328  	-0.016563 
3730.330144  	-0.018000 
3732.258960  	-0.015844 
3734.187776  	-0.010858 
3736.116592  	-0.008128 
3738.045408  	-0.012711 
3739.974224  	-0.015104 
3741.903040  	-0.015611 
3743.831856  	-0.014863 
3745.760672  	-0.012780 
3747.689488  	-0.013774 
3749.618304  	-0.011935 
3751.547120  	-0.010594 
3753.475936  	-0.013777 
3755.404752  	-0.016342 
3757.333568  	-0.016307 
3759.262384  	-0.015538 
3761.191200  	-0.016896 
3763.120016  	-0.018555 
3765.048832  	-0.017480 
3766.977648  	-0.017102 
3768.906464  	-0.017094 
3770.835280  	-0.017101 
3772.764096  	-0.018957 
3774.692912  	-0.019862 
3776.621728  	-0.019576 
3778.550544  	-0.018147 
3780.479360  	-0.017743 
3782.408176  	-0.018870 
3784.336992  	-0.018228 
3786.265808  	-0.018198 
3788.194624  	-0.019323 
3790.123440  	-0.019755 
3792.052256  	-0.019869 
3793.981072  	-0.019800 
3795.909888  	-0.017753 
3797.838704  	-0.016136 
3799.767520  	-0.016444 
3801.696336  	-0.014013 
3803.625152  	-0.015801 
3805.553968  	-0.017885 
3807.482784  	-0.017196 
3809.411600  	-0.018544 
3811.340416  	-0.019519 
3813.269232  	-0.019340 
3815.198048  	-0.017184 
3817.126864  	-0.015292 
3819.055680  	-0.016016 
3820.984496  	-0.014040 
3822.913312  	-0.015075 
3824.842128  	-0.017507 
3826.770944  	-0.017470 
3828.699760  	-0.018008 
3830.628576  	-0.018086 
3832.557392  	-0.017409 
3834.486208  	-0.017363 
3836.415024  	-0.016232 
3838.343840  	-0.013778 
3840.272656  	-0.013109 
3842.201472  	-0.015122 
3844.130288  	-0.016259 
3846.059104  	-0.017994 
3847.987920  	-0.018599 
3849.916736  	-0.017428 
3851.845552  	-0.014841 
3853.774368  	-0.011233 
3855.703184  	-0.013598 
3857.632000  	-0.016072 
3859.560816  	-0.018021 
3861.489632  	-0.017358 
3863.418448  	-0.015305 
3865.347264  	-0.014351 
3867.276080  	-0.016326 
3869.204896  	-0.014760 
3871.133712  	-0.013399 
3873.062528  	-0.015554 
3874.991344  	-0.016383 
3876.920160  	-0.018904 
3878.848976  	-0.018360 
3880.777792  	-0.015065 
3882.706608  	-0.015574 
3884.635424  	-0.015942 
3886.564240  	-0.016077 
3888.493056  	-0.018778 
3890.421872  	-0.018153 
3892.350688  	-0.016572 
3894.279504  	-0.017976 
3896.208320  	-0.019057 
3898.137136  	-0.017394 
3900.065952  	-0.014419 
3901.994768  	-0.013611 
3903.923584  	-0.013205 
3905.852400  	-0.015087 
3907.781216  	-0.018769 
3909.710032  	-0.020649 
3911.638848  	-0.020851 
3913.567664  	-0.020440 
3915.496480  	-0.018763 
3917.425296  	-0.016849 
3919.354112  	-0.017208 
3921.282928  	-0.017910 
3923.211744  	-0.017559 
3925.140560  	-0.016941 
3927.069376  	-0.018754 
3928.998192  	-0.018759 
3930.927008  	-0.017040 
3932.855824  	-0.016704 
3934.784640  	-0.018653 
3936.713456  	-0.019755 
3938.642272  	-0.019773 
3940.571088  	-0.019378 
3942.499904  	-0.017522 
3944.428720  	-0.017950 
3946.357536  	-0.018864 
3948.286352  	-0.017487 
3950.215168  	-0.018035 
3952.143984  	-0.019704 
3954.072800  	-0.020238 
3956.001616  	-0.019862 
3957.930432  	-0.019562 
3959.859248  	-0.019365 
3961.788064  	-0.019122 
3963.716880  	-0.019739 
3965.645696  	-0.020634 
3967.574512  	-0.020680 
3969.503328  	-0.020395 
3971.432144  	-0.020113 
3973.360960  	-0.019595 
3975.289776  	-0.019198 
3977.218592  	-0.019760 
3979.147408  	-0.020442 
3981.076224  	-0.020389 
3983.005040  	-0.020443 
3984.933856  	-0.020509 
3986.862672  	-0.020431 
3988.791488  	-0.020203 
3990.720304  	-0.019707 
3992.649120  	-0.019875 
3994.577936  	-0.020013 
3996.506752  	-0.020264 
3998.435568  	-0.020631 
4000.364384  	-0.020711 