##TITLE=No Description
##DATA TYPE=INFRARED SPECTRUM
##XUNITS=1/CM
##YUNITS=Abs
399.264912  	0.661106 
401.193728  	0.633897 
403.122544  	0.616793 
405.051360  	0.603012 
406.980176  	0.595997 
408.908992  	0.580755 
410.837808  	0.602230 
412.766624  	0.605749 
414.695440  	0.595268 
416.624256  	0.597796 
418.553072  	0.620721 
420.481888  	0.608645 
422.410704  	0.608326 
424.339520  	0.598092 
426.268336  	0.574825 
428.197152  	0.570402 
430.125968  	0.570030 
432.054784  	0.560054 
433.983600  	0.560321 
435.912416  	0.558817 
437.841232  	0.558236 
439.770048  	0.554196 
441.698864  	0.553647 
443.627680  	0.547657 
445.556496  	0.551230 
447.485312  	0.548887 
449.414128  	0.548319 
451.342944  	0.549994 
453.271760  	0.551205 
455.200576  	0.544564 
457.129392  	0.546644 
459.058208  	0.549261 
460.987024  	0.556173 
462.915840  	0.550940 
464.844656  	0.545345 
466.773472  	0.548618 
468.702288  	0.546852 
470.631104  	0.542772 
472.559920  	0.550749 
474.488736  	0.547284 
476.417552  	0.543420 
478.346368  	0.536429 
480.275184  	0.535619 
482.204000  	0.533812 
484.132816  	0.534155 
486.061632  	0.532778 
487.990448  	0.533929 
489.919264  	0.533983 
491.848080  	0.534090 
493.776896  	0.531868 
495.705712  	0.531735 
497.634528  	0.527810 
499.563344  	0.527328 
501.492160  	0.526316 
503.420976  	0.526185 
505.349792  	0.523218 
507.278608  	0.522763 
509.207424  	0.522590 
511.136240  	0.525190 
513.065056  	0.527673 
514.993872  	0.533691 
516.922688  	0.533408 
518.851504  	0.532440 
520.780320  	0.530827 
522.709136  	0.531070 
524.637952  	0.528913 
526.566768  	0.525865 
528.495584  	0.521333 
530.424400  	0.519288 
532.353216  	0.513092 
534.282032  	0.508760 
536.210848  	0.505072 
538.139664  	0.498999 
540.068480  	0.495202 
541.997296  	0.493263 
543.926112  	0.487679 
545.854928  	0.485493 
547.783744  	0.482800 
549.712560  	0.480158 
551.641376  	0.476485 
553.570192  	0.473714 
555.499008  	0.470479 
557.427824  	0.467392 
559.356640  	0.463061 
561.285456  	0.460030 
563.214272  	0.456963 
565.143088  	0.454241 
567.071904  	0.451424 
569.000720  	0.450554 
570.929536  	0.446677 
572.858352  	0.442217 
574.787168  	0.439697 
576.715984  	0.438257 
578.644800  	0.434091 
580.573616  	0.429524 
582.502432  	0.423258 
584.431248  	0.419587 
586.360064  	0.415659 
588.288880  	0.412376 
590.217696  	0.410194 
592.146512  	0.410063 
594.075328  	0.407357 
596.004144  	0.405064 
597.932960  	0.403177 
599.861776  	0.402459 
601.790592  	0.400261 
603.719408  	0.398360 
605.648224  	0.396588 
607.577040  	0.395975 
609.505856  	0.394579 
611.434672  	0.392550 
613.363488  	0.390648 
615.292304  	0.389789 
617.221120  	0.387917 
619.149936  	0.386811 
621.078752  	0.384912 
623.007568  	0.383434 
624.936384  	0.382222 
626.865200  	0.381345 
628.794016  	0.380256 
630.722832  	0.380122 
632.651648  	0.380114 
634.580464  	0.379395 
636.509280  	0.379250 
638.438096  	0.379530 
640.366912  	0.378285 
642.295728  	0.376803 
644.224544  	0.373965 
646.153360  	0.370708 
648.082176  	0.366463 
650.010992  	0.362982 
651.939808  	0.359752 
653.868624  	0.356382 
655.797440  	0.351779 
657.726256  	0.347972 
659.655072  	0.344346 
661.583888  	0.339831 
663.512704  	0.335253 
665.441520  	0.332013 
667.370336  	0.329253 
669.299152  	0.325022 
671.227968  	0.319373 
673.156784  	0.314509 
675.085600  	0.311143 
677.014416  	0.308496 
678.943232  	0.306243 
680.872048  	0.305094 
682.800864  	0.303795 
684.729680  	0.301715 
686.658496  	0.299610 
688.587312  	0.298313 
690.516128  	0.296603 
692.444944  	0.295272 
694.373760  	0.293872 
696.302576  	0.292365 
698.231392  	0.290670 
700.160208  	0.288132 
702.089024  	0.285364 
704.017840  	0.283024 
705.946656  	0.280034 
707.875472  	0.277181 
709.804288  	0.274899 
711.733104  	0.273133 
713.661920  	0.271316 
715.590736  	0.269428 
717.519552  	0.268468 
719.448368  	0.269117 
721.377184  	0.269383 
723.306000  	0.269534 
725.234816  	0.269461 
727.163632  	0.268231 
729.092448  	0.265822 
731.021264  	0.262187 
732.950080  	0.258302 
734.878896  	0.254713 
736.807712  	0.251172 
738.736528  	0.248535 
740.665344  	0.247057 
742.594160  	0.245824 
744.522976  	0.243835 
746.451792  	0.241996 
748.380608  	0.240372 
750.309424  	0.238989 
752.238240  	0.237434 
754.167056  	0.236663 
756.095872  	0.235710 
758.024688  	0.234426 
759.953504  	0.233706 
761.882320  	0.234467 
763.811136  	0.234853 
765.739952  	0.232763 
767.668768  	0.229082 
769.597584  	0.225966 
771.526400  	0.224671 
773.455216  	0.225720 
775.384032  	0.229049 
777.312848  	0.234162 
779.241664  	0.237682 
781.170480  	0.236120 
783.099296  	0.230055 
785.028112  	0.223334 
786.956928  	0.217430 
788.885744  	0.212481 
790.814560  	0.208732 
792.743376  	0.206888 
794.672192  	0.205967 
796.601008  	0.204325 
798.529824  	0.200750 
800.458640  	0.196370 
802.387456  	0.193131 
804.316272  	0.191123 
806.245088  	0.189668 
808.173904  	0.188468 
810.102720  	0.187740 
812.031536  	0.187579 
813.960352  	0.187439 
815.889168  	0.187491 
817.817984  	0.187974 
819.746800  	0.188722 
821.675616  	0.189279 
823.604432  	0.189913 
825.533248  	0.190534 
827.462064  	0.190954 
829.390880  	0.190571 
831.319696  	0.189826 
833.248512  	0.188509 
835.177328  	0.186627 
837.106144  	0.183726 
839.034960  	0.180414 
840.963776  	0.176234 
842.892592  	0.171742 
844.821408  	0.167212 
846.750224  	0.163426 
848.679040  	0.160376 
850.607856  	0.158069 
852.536672  	0.156198 
854.465488  	0.154705 
856.394304  	0.153830 
858.323120  	0.152375 
860.251936  	0.150723 
862.180752  	0.149463 
864.109568  	0.147521 
866.038384  	0.145083 
867.967200  	0.142837 
869.896016  	0.141038 
871.824832  	0.140079 
873.753648  	0.140208 
875.682464  	0.140684 
877.611280  	0.142054 
879.540096  	0.144379 
881.468912  	0.147002 
883.397728  	0.149566 
885.326544  	0.151732 
887.255360  	0.153179 
889.184176  	0.153893 
891.112992  	0.153518 
893.041808  	0.151729 
894.970624  	0.148939 
896.899440  	0.144801 
898.828256  	0.139579 
900.757072  	0.134238 
902.685888  	0.129866 
904.614704  	0.127031 
906.543520  	0.126116 
908.472336  	0.127138 
910.401152  	0.129231 
912.329968  	0.131843 
914.258784  	0.134405 
916.187600  	0.136780 
918.116416  	0.138662 
920.045232  	0.140089 
921.974048  	0.141160 
923.902864  	0.141994 
925.831680  	0.142809 
927.760496  	0.143934 
929.689312  	0.145195 
931.618128  	0.146616 
933.546944  	0.147461 
935.475760  	0.147690 
937.404576  	0.147298 
939.333392  	0.146296 
941.262208  	0.145522 
943.191024  	0.145900 
945.119840  	0.148313 
947.048656  	0.153100 
948.977472  	0.160759 
950.906288  	0.171057 
952.835104  	0.184059 
954.763920  	0.199129 
956.692736  	0.214435 
958.621552  	0.228717 
960.550368  	0.239948 
962.479184  	0.246989 
964.408000  	0.248793 
966.336816  	0.245304 
968.265632  	0.236288 
970.194448  	0.223210 
972.123264  	0.207341 
974.052080  	0.190452 
975.980896  	0.173958 
977.909712  	0.158717 
979.838528  	0.145152 
981.767344  	0.133879 
983.696160  	0.125234 
985.624976  	0.119349 
987.553792  	0.116924 
989.482608  	0.117625 
991.411424  	0.121072 
993.340240  	0.126836 
995.269056  	0.133941 
997.197872  	0.141564 
999.126688  	0.149107 
1001.055504  	0.156819 
1002.984320  	0.164627 
1004.913136  	0.172567 
1006.841952  	0.180298 
1008.770768  	0.187809 
1010.699584  	0.194326 
1012.628400  	0.199452 
1014.557216  	0.203070 
1016.486032  	0.205280 
1018.414848  	0.206357 
1020.343664  	0.206888 
1022.272480  	0.207227 
1024.201296  	0.207384 
1026.130112  	0.207640 
1028.058928  	0.208735 
1029.987744  	0.211003 
1031.916560  	0.214404 
1033.845376  	0.218881 
1035.774192  	0.225140 
1037.703008  	0.233258 
1039.631824  	0.244587 
1041.560640  	0.259720 
1043.489456  	0.278931 
1045.418272  	0.300357 
1047.347088  	0.321330 
1049.275904  	0.337041 
1051.204720  	0.345770 
1053.133536  	0.347003 
1055.062352  	0.343850 
1056.991168  	0.338728 
1058.919984  	0.334413 
1060.848800  	0.331620 
1062.777616  	0.330751 
1064.706432  	0.329646 
1066.635248  	0.327341 
1068.564064  	0.322423 
1070.492880  	0.316193 
1072.421696  	0.309515 
1074.350512  	0.305536 
1076.279328  	0.306045 
1078.208144  	0.311680 
1080.136960  	0.319276 
1082.065776  	0.325260 
1083.994592  	0.325742 
1085.923408  	0.320271 
1087.852224  	0.309446 
1089.781040  	0.296096 
1091.709856  	0.280509 
1093.638672  	0.263621 
1095.567488  	0.245732 
1097.496304  	0.228422 
1099.425120  	0.211753 
1101.353936  	0.195901 
1103.282752  	0.180934 
1105.211568  	0.167292 
1107.140384  	0.155313 
1109.069200  	0.144529 
1110.998016  	0.134903 
1112.926832  	0.126327 
1114.855648  	0.118413 
1116.784464  	0.110743 
1118.713280  	0.103296 
1120.642096  	0.096185 
1122.570912  	0.089557 
1124.499728  	0.083582 
1126.428544  	0.078356 
1128.357360  	0.073868 
1130.286176  	0.070176 
1132.214992  	0.067094 
1134.143808  	0.065027 
1136.072624  	0.063318 
1138.001440  	0.061778 
1139.930256  	0.060352 
1141.859072  	0.059017 
1143.787888  	0.057311 
1145.716704  	0.055741 
1147.645520  	0.054364 
1149.574336  	0.053778 
1151.503152  	0.053244 
1153.431968  	0.053057 
1155.360784  	0.053389 
1157.289600  	0.054390 
1159.218416  	0.055563 
1161.147232  	0.057013 
1163.076048  	0.058732 
1165.004864  	0.060607 
1166.933680  	0.062216 
1168.862496  	0.064005 
1170.791312  	0.066294 
1172.720128  	0.069074 
1174.648944  	0.072070 
1176.577760  	0.075017 
1178.506576  	0.078148 
1180.435392  	0.081544 
1182.364208  	0.084857 
1184.293024  	0.088778 
1186.221840  	0.093391 
1188.150656  	0.098570 
1190.079472  	0.104514 
1192.008288  	0.111476 
1193.937104  	0.119416 
1195.865920  	0.128317 
1197.794736  	0.138116 
1199.723552  	0.148673 
1201.652368  	0.159370 
1203.581184  	0.169508 
1205.510000  	0.179139 
1207.438816  	0.187952 
1209.367632  	0.195839 
1211.296448  	0.202374 
1213.225264  	0.207247 
1215.154080  	0.210144 
1217.082896  	0.211906 
1219.011712  	0.212418 
1220.940528  	0.211826 
1222.869344  	0.210105 
1224.798160  	0.207947 
1226.726976  	0.204464 
1228.655792  	0.200229 
1230.584608  	0.195483 
1232.513424  	0.189823 
1234.442240  	0.183393 
1236.371056  	0.176778 
1238.299872  	0.169785 
1240.228688  	0.162250 
1242.157504  	0.154550 
1244.086320  	0.146918 
1246.015136  	0.139134 
1247.943952  	0.131785 
1249.872768  	0.124689 
1251.801584  	0.117872 
1253.730400  	0.111358 
1255.659216  	0.104965 
1257.588032  	0.098960 
1259.516848  	0.093572 
1261.445664  	0.088223 
1263.374480  	0.083270 
1265.303296  	0.079225 
1267.232112  	0.076102 
1269.160928  	0.074050 
1271.089744  	0.072597 
1273.018560  	0.071591 
1274.947376  	0.071518 
1276.876192  	0.072487 
1278.805008  	0.073337 
1280.733824  	0.073312 
1282.662640  	0.071817 
1284.591456  	0.069915 
1286.520272  	0.068498 
1288.449088  	0.067695 
1290.377904  	0.067501 
1292.306720  	0.068551 
1294.235536  	0.069746 
1296.164352  	0.070013 
1298.093168  	0.068205 
1300.021984  	0.065520 
1301.950800  	0.062574 
1303.879616  	0.059394 
1305.808432  	0.055786 
1307.737248  	0.052020 
1309.666064  	0.048233 
1311.594880  	0.045973 
1313.523696  	0.044473 
1315.452512  	0.043008 
1317.381328  	0.042784 
1319.310144  	0.042991 
1321.238960  	0.042537 
1323.167776  	0.042708 
1325.096592  	0.043368 
1327.025408  	0.043858 
1328.954224  	0.043769 
1330.883040  	0.042975 
1332.811856  	0.041415 
1334.740672  	0.040685 
1336.669488  	0.041828 
1338.598304  	0.044245 
1340.527120  	0.043165 
1342.455936  	0.039374 
1344.384752  	0.038344 
1346.313568  	0.038737 
1348.242384  	0.039626 
1350.171200  	0.040736 
1352.100016  	0.042107 
1354.028832  	0.044469 
1355.957648  	0.046691 
1357.886464  	0.048577 
1359.815280  	0.051518 
1361.744096  	0.056357 
1363.672912  	0.058622 
1365.601728  	0.058059 
1367.530544  	0.060284 
1369.459360  	0.062806 
1371.388176  	0.063980 
1373.316992  	0.066195 
1375.245808  	0.065185 
1377.174624  	0.061216 
1379.103440  	0.058189 
1381.032256  	0.054842 
1382.961072  	0.052222 
1384.889888  	0.051516 
1386.818704  	0.052455 
1388.747520  	0.049546 
1390.676336  	0.045998 
1392.605152  	0.045198 
1394.533968  	0.046802 
1396.462784  	0.046852 
1398.391600  	0.046093 
1400.320416  	0.044179 
1402.249232  	0.042964 
1404.178048  	0.044956 
1406.106864  	0.045558 
1408.035680  	0.045460 
1409.964496  	0.047245 
1411.893312  	0.049387 
1413.822128  	0.051201 
1415.750944  	0.055257 
1417.679760  	0.060256 
1419.608576  	0.061104 
1421.537392  	0.058262 
1423.466208  	0.058182 
1425.395024  	0.055762 
1427.323840  	0.052824 
1429.252656  	0.051635 
1431.181472  	0.049509 
1433.110288  	0.048137 
1435.039104  	0.049674 
1436.967920  	0.052314 
1438.896736  	0.051117 
1440.825552  	0.050893 
1442.754368  	0.051628 
1444.683184  	0.052167 
1446.612000  	0.053753 
1448.540816  	0.054719 
1450.469632  	0.054262 
1452.398448  	0.055124 
1454.327264  	0.057212 
1456.256080  	0.062333 
1458.184896  	0.062568 
1460.113712  	0.056109 
1462.042528  	0.053024 
1463.971344  	0.053605 
1465.900160  	0.053599 
1467.828976  	0.052291 
1469.757792  	0.053753 
1471.686608  	0.060567 
1473.615424  	0.068630 
1475.544240  	0.070793 
1477.473056  	0.073193 
1479.401872  	0.075472 
1481.330688  	0.080015 
1483.259504  	0.082426 
1485.188320  	0.085220 
1487.117136  	0.089822 
1489.045952  	0.094767 
1490.974768  	0.091373 
1492.903584  	0.084618 
1494.832400  	0.081385 
1496.761216  	0.078398 
1498.690032  	0.071335 
1500.618848  	0.064348 
1502.547664  	0.058712 
1504.476480  	0.056531 
1506.405296  	0.062798 
1508.334112  	0.062436 
1510.262928  	0.053916 
1512.191744  	0.048913 
1514.120560  	0.047979 
1516.049376  	0.051868 
1517.978192  	0.053325 
1519.907008  	0.054689 
1521.835824  	0.061101 
1523.764640  	0.061736 
1525.693456  	0.064734 
1527.622272  	0.066053 
1529.551088  	0.063749 
1531.479904  	0.062756 
1533.408720  	0.062788 
1535.337536  	0.057373 
1537.266352  	0.054690 
1539.195168  	0.056935 
1541.123984  	0.056966 
1543.052800  	0.053716 
1544.981616  	0.049938 
1546.910432  	0.043883 
1548.839248  	0.043703 
1550.768064  	0.044833 
1552.696880  	0.043627 
1554.625696  	0.045881 
1556.554512  	0.047321 
1558.483328  	0.054741 
1560.412144  	0.054023 
1562.340960  	0.050817 
1564.269776  	0.052475 
1566.198592  	0.056110 
1568.127408  	0.059725 
1570.056224  	0.066891 
1571.985040  	0.069098 
1573.913856  	0.071843 
1575.842672  	0.077362 
1577.771488  	0.080084 
1579.700304  	0.077374 
1581.629120  	0.076191 
1583.557936  	0.075401 
1585.486752  	0.076153 
1587.415568  	0.078318 
1589.344384  	0.082795 
1591.273200  	0.088233 
1593.202016  	0.095315 
1595.130832  	0.103058 
1597.059648  	0.110515 
1598.988464  	0.116874 
1600.917280  	0.124103 
1602.846096  	0.129893 
1604.774912  	0.133637 
1606.703728  	0.135334 
1608.632544  	0.136302 
1610.561360  	0.134528 
1612.490176  	0.132623 
1614.418992  	0.131231 
1616.347808  	0.133627 
1618.276624  	0.134512 
1620.205440  	0.135162 
1622.134256  	0.138766 
1624.063072  	0.146287 
1625.991888  	0.150578 
1627.920704  	0.158365 
1629.849520  	0.166032 
1631.778336  	0.172933 
1633.707152  	0.179765 
1635.635968  	0.194205 
1637.564784  	0.203571 
1639.493600  	0.205466 
1641.422416  	0.208606 
1643.351232  	0.211930 
1645.280048  	0.215383 
1647.208864  	0.223446 
1649.137680  	0.220653 
1651.066496  	0.217250 
1652.995312  	0.220366 
1654.924128  	0.220957 
1656.852944  	0.213904 
1658.781760  	0.209905 
1660.710576  	0.207379 
1662.639392  	0.205163 
1664.568208  	0.199219 
1666.497024  	0.194437 
1668.425840  	0.191436 
1670.354656  	0.186371 
1672.283472  	0.178774 
1674.212288  	0.173592 
1676.141104  	0.168614 
1678.069920  	0.164494 
1679.998736  	0.163910 
1681.927552  	0.163009 
1683.856368  	0.164087 
1685.785184  	0.161383 
1687.714000  	0.158064 
1689.642816  	0.156994 
1691.571632  	0.154014 
1693.500448  	0.152847 
1695.429264  	0.155225 
1697.358080  	0.158077 
1699.286896  	0.156168 
1701.215712  	0.155230 
1703.144528  	0.151773 
1705.073344  	0.150175 
1707.002160  	0.145666 
1708.930976  	0.139920 
1710.859792  	0.134224 
1712.788608  	0.129202 
1714.717424  	0.124160 
1716.646240  	0.116229 
1718.575056  	0.099312 
1720.503872  	0.084460 
1722.432688  	0.074332 
1724.361504  	0.062917 
1726.290320  	0.052795 
1728.219136  	0.046277 
1730.147952  	0.042043 
1732.076768  	0.038127 
1734.005584  	0.034691 
1735.934400  	0.026087 
1737.863216  	0.023007 
1739.792032  	0.020588 
1741.720848  	0.018370 
1743.649664  	0.018076 
1745.578480  	0.016734 
1747.507296  	0.016626 
1749.436112  	0.016932 
1751.364928  	0.013975 
1753.293744  	0.009628 
1755.222560  	0.008286 
1757.151376  	0.009260 
1759.080192  	0.007914 
1761.009008  	0.007991 
1762.937824  	0.006592 
1764.866640  	0.004754 
1766.795456  	0.005444 
1768.724272  	0.006596 
1770.653088  	0.006616 
1772.581904  	0.007362 
1774.510720  	0.005433 
1776.439536  	0.004100 
1778.368352  	0.003199 
1780.297168  	0.003950 
1782.225984  	0.002601 
1784.154800  	0.002201 
1786.083616  	0.001368 
1788.012432  	0.000839 
1789.941248  	0.002735 
1791.870064  	0.005121 
1793.798880  	0.003277 
1795.727696  	0.002419 
1797.656512  	0.001344 
1799.585328  	0.001544 
1801.514144  	0.002085 
1803.442960  	0.000596 
1805.371776  	-0.000601 
1807.300592  	-0.000430 
1809.229408  	-0.000266 
1811.158224  	0.000186 
1813.087040  	-0.001107 
1815.015856  	-0.002005 
1816.944672  	-0.001638 
1818.873488  	-0.001639 
1820.802304  	-0.001766 
1822.731120  	-0.000872 
1824.659936  	-0.000105 
1826.588752  	-0.000388 
1828.517568  	-0.000016 
1830.446384  	0.000470 
1832.375200  	-0.001656 
1834.304016  	-0.001993 
1836.232832  	-0.001826 
1838.161648  	-0.001635 
1840.090464  	-0.002337 
1842.019280  	-0.001241 
1843.948096  	0.000544 
1845.876912  	0.000344 
1847.805728  	-0.001121 
1849.734544  	-0.002425 
1851.663360  	-0.003176 
1853.592176  	-0.002831 
1855.520992  	-0.003004 
1857.449808  	-0.002925 
1859.378624  	-0.003148 
1861.307440  	-0.002873 
1863.236256  	-0.003146 
1865.165072  	-0.002365 
1867.093888  	-0.000521 
1869.022704  	0.000963 
1870.951520  	-0.001493 
1872.880336  	-0.003060 
1874.809152  	-0.003861 
1876.737968  	-0.003914 
1878.666784  	-0.003946 
1880.595600  	-0.004094 
1882.524416  	-0.004149 
1884.453232  	-0.003580 
1886.382048  	-0.003865 
1888.310864  	-0.002688 
1890.239680  	-0.002571 
1892.168496  	-0.003306 
1894.097312  	-0.002965 
1896.026128  	-0.002836 
1897.954944  	-0.003795 
1899.883760  	-0.003796 
1901.812576  	-0.004102 
1903.741392  	-0.004121 
1905.670208  	-0.004122 
1907.599024  	-0.003364 
1909.527840  	-0.002937 
1911.456656  	-0.002896 
1913.385472  	-0.003429 
1915.314288  	-0.003233 
1917.243104  	-0.002767 
1919.171920  	-0.002364 
1921.100736  	-0.002382 
1923.029552  	-0.001943 
1924.958368  	-0.004062 
1926.887184  	-0.004620 
1928.816000  	-0.005005 
1930.744816  	-0.004249 
1932.673632  	-0.004102 
1934.602448  	-0.004140 
1936.531264  	-0.004926 
1938.460080  	-0.004976 
1940.388896  	-0.004401 
1942.317712  	-0.002171 
1944.246528  	-0.003838 
1946.175344  	-0.004452 
1948.104160  	-0.004655 
1950.032976  	-0.004486 
1951.961792  	-0.004743 
1953.890608  	-0.004962 
1955.819424  	-0.005868 
1957.748240  	-0.006032 
1959.677056  	-0.006836 
1961.605872  	-0.006114 
1963.534688  	-0.005836 
1965.463504  	-0.004519 
1967.392320  	-0.004430 
1969.321136  	-0.004478 
1971.249952  	-0.006090 
1973.178768  	-0.006662 
1975.107584  	-0.006357 
1977.036400  	-0.004813 
1978.965216  	-0.004079 
1980.894032  	-0.003860 
1982.822848  	-0.004884 
1984.751664  	-0.004886 
1986.680480  	-0.004664 
1988.609296  	-0.003402 
1990.538112  	-0.002670 
1992.466928  	-0.001645 
1994.395744  	-0.003944 
1996.324560  	-0.004560 
1998.253376  	-0.004465 
2000.182192  	-0.003896 
2002.111008  	-0.003928 
2004.039824  	-0.003207 
2005.968640  	-0.003801 
2007.897456  	-0.004229 
2009.826272  	-0.004528 
2011.755088  	-0.003371 
2013.683904  	-0.004149 
2015.612720  	-0.003373 
2017.541536  	-0.002067 
2019.470352  	-0.001758 
2021.399168  	-0.003398 
2023.327984  	-0.003640 
2025.256800  	-0.003545 
2027.185616  	-0.001700 
2029.114432  	-0.001817 
2031.043248  	-0.001881 
2032.972064  	-0.002632 
2034.900880  	-0.002034 
2036.829696  	-0.001714 
2038.758512  	-0.001332 
2040.687328  	-0.002392 
2042.616144  	-0.002003 
2044.544960  	-0.002203 
2046.473776  	-0.001586 
2048.402592  	-0.001513 
2050.331408  	-0.001678 
2052.260224  	-0.002052 
2054.189040  	-0.001430 
2056.117856  	-0.002166 
2058.046672  	-0.002099 
2059.975488  	-0.001665 
2061.904304  	-0.001176 
2063.833120  	-0.001521 
2065.761936  	-0.001271 
2067.690752  	-0.001846 
2069.619568  	-0.001772 
2071.548384  	-0.001789 
2073.477200  	-0.001507 
2075.406016  	-0.001228 
2077.334832  	-0.000959 
2079.263648  	-0.000747 
2081.192464  	-0.000077 
2083.121280  	-0.000592 
2085.050096  	-0.001166 
2086.978912  	-0.001362 
2088.907728  	-0.000641 
2090.836544  	-0.000201 
2092.765360  	-0.000396 
2094.694176  	-0.000488 
2096.622992  	0.000324 
2098.551808  	-0.000045 
2100.480624  	-0.000597 
2102.409440  	-0.000871 
2104.338256  	-0.000401 
2106.267072  	-0.000487 
2108.195888  	-0.000457 
2110.124704  	-0.000459 
2112.053520  	-0.000203 
2113.982336  	-0.000223 
2115.911152  	-0.000181 
2117.839968  	-0.000691 
2119.768784  	-0.000780 
2121.697600  	-0.000547 
2123.626416  	-0.000532 
2125.555232  	-0.001027 
2127.484048  	-0.001013 
2129.412864  	-0.001168 
2131.341680  	-0.000826 
2133.270496  	-0.000374 
2135.199312  	0.000393 
2137.128128  	0.000178 
2139.056944  	0.000185 
2140.985760  	0.000177 
2142.914576  	0.000608 
2144.843392  	-0.000143 
2146.772208  	-0.000168 
2148.701024  	0.000002 
2150.629840  	0.000014 
2152.558656  	0.000102 
2154.487472  	0.000565 
2156.416288  	0.000565 
2158.345104  	0.003093 
2160.273920  	0.004703 
2162.202736  	0.003773 
2164.131552  	0.002116 
2166.060368  	0.002681 
2167.989184  	0.002324 
2169.918000  	0.001883 
2171.846816  	0.000938 
2173.775632  	0.001334 
2175.704448  	0.001272 
2177.633264  	0.001478 
2179.562080  	0.000411 
2181.490896  	0.001128 
2183.419712  	0.001865 
2185.348528  	0.001604 
2187.277344  	0.000890 
2189.206160  	0.001362 
2191.134976  	0.001054 
2193.063792  	0.000950 
2194.992608  	0.000456 
2196.921424  	0.000663 
2198.850240  	0.000162 
2200.779056  	-0.000220 
2202.707872  	-0.000512 
2204.636688  	0.000460 
2206.565504  	0.000155 
2208.494320  	-0.000083 
2210.423136  	-0.000556 
2212.351952  	-0.000294 
2214.280768  	-0.000270 
2216.209584  	-0.000474 
2218.138400  	-0.001484 
2220.067216  	-0.001372 
2221.996032  	-0.001190 
2223.924848  	-0.000745 
2225.853664  	-0.000829 
2227.782480  	-0.000401 
2229.711296  	-0.000561 
2231.640112  	-0.001450 
2233.568928  	-0.002270 
2235.497744  	-0.001940 
2237.426560  	-0.001316 
2239.355376  	-0.000837 
2241.284192  	-0.001659 
2243.213008  	-0.002096 
2245.141824  	-0.001853 
2247.070640  	-0.001825 
2248.999456  	-0.001723 
2250.928272  	-0.001426 
2252.857088  	-0.002071 
2254.785904  	-0.001755 
2256.714720  	-0.000948 
2258.643536  	-0.000871 
2260.572352  	-0.000896 
2262.501168  	-0.000746 
2264.429984  	-0.000710 
2266.358800  	-0.000767 
2268.287616  	-0.001331 
2270.216432  	-0.001491 
2272.145248  	-0.001297 
2274.074064  	-0.000934 
2276.002880  	-0.000973 
2277.931696  	-0.000645 
2279.860512  	-0.000778 
2281.789328  	-0.000731 
2283.718144  	-0.000617 
2285.646960  	-0.000243 
2287.575776  	-0.000266 
2289.504592  	-0.000296 
2291.433408  	-0.000212 
2293.362224  	0.000383 
2295.291040  	0.000630 
2297.219856  	0.001100 
2299.148672  	0.001486 
2301.077488  	0.001747 
2303.006304  	0.002226 
2304.935120  	0.002896 
2306.863936  	0.003302 
2308.792752  	0.003857 
2310.721568  	0.004028 
2312.650384  	0.003657 
2314.579200  	0.003040 
2316.508016  	0.003316 
2318.436832  	0.003725 
2320.365648  	0.003972 
2322.294464  	0.003491 
2324.223280  	0.002384 
2326.152096  	0.000908 
2328.080912  	-0.000169 
2330.009728  	-0.000716 
2331.938544  	-0.001176 
2333.867360  	-0.002152 
2335.796176  	-0.002850 
2337.724992  	-0.003326 
2339.653808  	-0.003487 
2341.582624  	-0.003256 
2343.511440  	-0.002011 
2345.440256  	-0.000361 
2347.369072  	0.000676 
2349.297888  	0.000959 
2351.226704  	0.000201 
2353.155520  	-0.001607 
2355.084336  	-0.002848 
2357.013152  	-0.003368 
2358.941968  	-0.003285 
2360.870784  	-0.004178 
2362.799600  	-0.004204 
2364.728416  	-0.002811 
2366.657232  	-0.001830 
2368.586048  	-0.001222 
2370.514864  	-0.000034 
2372.443680  	0.000768 
2374.372496  	0.001646 
2376.301312  	0.002221 
2378.230128  	0.002432 
2380.158944  	0.002284 
2382.087760  	0.001539 
2384.016576  	0.000312 
2385.945392  	-0.000639 
2387.874208  	-0.001069 
2389.803024  	-0.001311 
2391.731840  	-0.001758 
2393.660656  	-0.001834 
2395.589472  	-0.001802 
2397.518288  	-0.001734 
2399.447104  	-0.001734 
2401.375920  	-0.001751 
2403.304736  	-0.001861 
2405.233552  	-0.001797 
2407.162368  	-0.001935 
2409.091184  	-0.001972 
2411.020000  	-0.001865 
2412.948816  	-0.001773 
2414.877632  	-0.001785 
2416.806448  	-0.001546 
2418.735264  	-0.001480 
2420.664080  	-0.001575 
2422.592896  	-0.001641 
2424.521712  	-0.001465 
2426.450528  	-0.001426 
2428.379344  	-0.001199 
2430.308160  	-0.001081 
2432.236976  	-0.001023 
2434.165792  	-0.000840 
2436.094608  	-0.000747 
2438.023424  	-0.000752 
2439.952240  	-0.000594 
2441.881056  	-0.000573 
2443.809872  	-0.000618 
2445.738688  	-0.000698 
2447.667504  	-0.000521 
2449.596320  	-0.000069 
2451.525136  	0.000039 
2453.453952  	-0.000029 
2455.382768  	0.000040 
2457.311584  	0.000018 
2459.240400  	-0.000109 
2461.169216  	-0.000135 
2463.098032  	0.000041 
2465.026848  	0.000051 
2466.955664  	-0.000010 
2468.884480  	-0.000178 
2470.813296  	-0.000196 
2472.742112  	0.000033 
2474.670928  	0.000359 
2476.599744  	0.000509 
2478.528560  	0.000801 
2480.457376  	0.000961 
2482.386192  	0.001082 
2484.315008  	0.001033 
2486.243824  	0.001011 
2488.172640  	0.001291 
2490.101456  	0.001703 
2492.030272  	0.001881 
2493.959088  	0.001758 
2495.887904  	0.001540 
2497.816720  	0.001836 
2499.745536  	0.002032 
2501.674352  	0.002089 
2503.603168  	0.002053 
2505.531984  	0.002040 
2507.460800  	0.001973 
2509.389616  	0.001919 
2511.318432  	0.001927 
2513.247248  	0.002186 
2515.176064  	0.002398 
2517.104880  	0.002451 
2519.033696  	0.002333 
2520.962512  	0.002409 
2522.891328  	0.002626 
2524.820144  	0.003083 
2526.748960  	0.003088 
2528.677776  	0.002969 
2530.606592  	0.002994 
2532.535408  	0.003248 
2534.464224  	0.003226 
2536.393040  	0.003175 
2538.321856  	0.003282 
2540.250672  	0.003483 
2542.179488  	0.003709 
2544.108304  	0.004035 
2546.037120  	0.004166 
2547.965936  	0.004248 
2549.894752  	0.004345 
2551.823568  	0.004597 
2553.752384  	0.004690 
2555.681200  	0.004580 
2557.610016  	0.004625 
2559.538832  	0.004725 
2561.467648  	0.004780 
2563.396464  	0.005006 
2565.325280  	0.005213 
2567.254096  	0.005340 
2569.182912  	0.005575 
2571.111728  	0.005744 
2573.040544  	0.005740 
2574.969360  	0.005857 
2576.898176  	0.006137 
2578.826992  	0.006392 
2580.755808  	0.006220 
2582.684624  	0.006296 
2584.613440  	0.006575 
2586.542256  	0.006780 
2588.471072  	0.006750 
2590.399888  	0.006729 
2592.328704  	0.007033 
2594.257520  	0.007351 
2596.186336  	0.007296 
2598.115152  	0.007364 
2600.043968  	0.007504 
2601.972784  	0.007626 
2603.901600  	0.007730 
2605.830416  	0.007705 
2607.759232  	0.007748 
2609.688048  	0.007850 
2611.616864  	0.008073 
2613.545680  	0.008402 
2615.474496  	0.008632 
2617.403312  	0.008750 
2619.332128  	0.008780 
2621.260944  	0.008928 
2623.189760  	0.009120 
2625.118576  	0.009350 
2627.047392  	0.009476 
2628.976208  	0.009684 
2630.905024  	0.009932 
2632.833840  	0.010092 
2634.762656  	0.010117 
2636.691472  	0.010255 
2638.620288  	0.010500 
2640.549104  	0.010735 
2642.477920  	0.010958 
2644.406736  	0.010993 
2646.335552  	0.011022 
2648.264368  	0.011281 
2650.193184  	0.011588 
2652.122000  	0.011771 
2654.050816  	0.011918 
2655.979632  	0.012071 
2657.908448  	0.012260 
2659.837264  	0.012442 
2661.766080  	0.012614 
2663.694896  	0.012814 
2665.623712  	0.012958 
2667.552528  	0.013220 
2669.481344  	0.013381 
2671.410160  	0.013452 
2673.338976  	0.013672 
2675.267792  	0.013905 
2677.196608  	0.014209 
2679.125424  	0.014463 
2681.054240  	0.014553 
2682.983056  	0.014748 
2684.911872  	0.014877 
2686.840688  	0.014968 
2688.769504  	0.015126 
2690.698320  	0.015323 
2692.627136  	0.015465 
2694.555952  	0.015554 
2696.484768  	0.015729 
2698.413584  	0.016005 
2700.342400  	0.016114 
2702.271216  	0.016295 
2704.200032  	0.016502 
2706.128848  	0.016755 
2708.057664  	0.016941 
2709.986480  	0.017070 
2711.915296  	0.017207 
2713.844112  	0.017376 
2715.772928  	0.017537 
2717.701744  	0.017652 
2719.630560  	0.017913 
2721.559376  	0.018196 
2723.488192  	0.018389 
2725.417008  	0.018548 
2727.345824  	0.018705 
2729.274640  	0.019043 
2731.203456  	0.019172 
2733.132272  	0.019183 
2735.061088  	0.019392 
2736.989904  	0.019691 
2738.918720  	0.019894 
2740.847536  	0.020009 
2742.776352  	0.020258 
2744.705168  	0.020476 
2746.633984  	0.020529 
2748.562800  	0.020684 
2750.491616  	0.020802 
2752.420432  	0.020863 
2754.349248  	0.020906 
2756.278064  	0.020992 
2758.206880  	0.021040 
2760.135696  	0.021069 
2762.064512  	0.021083 
2763.993328  	0.021156 
2765.922144  	0.021203 
2767.850960  	0.021274 
2769.779776  	0.021221 
2771.708592  	0.021199 
2773.637408  	0.021148 
2775.566224  	0.021184 
2777.495040  	0.021160 
2779.423856  	0.021174 
2781.352672  	0.021259 
2783.281488  	0.021304 
2785.210304  	0.021297 
2787.139120  	0.021374 
2789.067936  	0.021390 
2790.996752  	0.021393 
2792.925568  	0.021335 
2794.854384  	0.021352 
2796.783200  	0.021403 
2798.712016  	0.021352 
2800.640832  	0.021332 
2802.569648  	0.021539 
2804.498464  	0.021607 
2806.427280  	0.021599 
2808.356096  	0.021739 
2810.284912  	0.021698 
2812.213728  	0.021575 
2814.142544  	0.021746 
2816.071360  	0.021677 
2818.000176  	0.021699 
2819.928992  	0.021874 
2821.857808  	0.021959 
2823.786624  	0.021880 
2825.715440  	0.021995 
2827.644256  	0.021995 
2829.573072  	0.021945 
2831.501888  	0.022055 
2833.430704  	0.022141 
2835.359520  	0.022146 
2837.288336  	0.022066 
2839.217152  	0.022035 
2841.145968  	0.022024 
2843.074784  	0.022148 
2845.003600  	0.022328 
2846.932416  	0.022372 
2848.861232  	0.022614 
2850.790048  	0.022752 
2852.718864  	0.022932 
2854.647680  	0.023154 
2856.576496  	0.023319 
2858.505312  	0.023531 
2860.434128  	0.023835 
2862.362944  	0.024028 
2864.291760  	0.024179 
2866.220576  	0.024381 
2868.149392  	0.024640 
2870.078208  	0.024977 
2872.007024  	0.025382 
2873.935840  	0.025827 
2875.864656  	0.026227 
2877.793472  	0.026644 
2879.722288  	0.027323 
2881.651104  	0.027989 
2883.579920  	0.028495 
2885.508736  	0.029024 
2887.437552  	0.029395 
2889.366368  	0.029357 
2891.295184  	0.029390 
2893.224000  	0.029497 
2895.152816  	0.029577 
2897.081632  	0.029729 
2899.010448  	0.029629 
2900.939264  	0.029436 
2902.868080  	0.029569 
2904.796896  	0.029945 
2906.725712  	0.030272 
2908.654528  	0.030534 
2910.583344  	0.030810 
2912.512160  	0.031127 
2914.440976  	0.031570 
2916.369792  	0.032133 
2918.298608  	0.032632 
2920.227424  	0.033133 
2922.156240  	0.033682 
2924.085056  	0.034293 
2926.013872  	0.034900 
2927.942688  	0.035823 
2929.871504  	0.036707 
2931.800320  	0.037525 
2933.729136  	0.038384 
2935.657952  	0.039179 
2937.586768  	0.039924 
2939.515584  	0.040489 
2941.444400  	0.041016 
2943.373216  	0.041526 
2945.302032  	0.041936 
2947.230848  	0.042133 
2949.159664  	0.042284 
2951.088480  	0.042370 
2953.017296  	0.042483 
2954.946112  	0.042382 
2956.874928  	0.042234 
2958.803744  	0.042119 
2960.732560  	0.041918 
2962.661376  	0.041707 
2964.590192  	0.041617 
2966.519008  	0.041542 
2968.447824  	0.041418 
2970.376640  	0.041185 
2972.305456  	0.040882 
2974.234272  	0.040870 
2976.163088  	0.040797 
2978.091904  	0.040601 
2980.020720  	0.040508 
2981.949536  	0.040493 
2983.878352  	0.040423 
2985.807168  	0.040444 
2987.735984  	0.040627 
2989.664800  	0.040626 
2991.593616  	0.040717 
2993.522432  	0.040907 
2995.451248  	0.040963 
2997.380064  	0.041278 
2999.308880  	0.041630 
3001.237696  	0.042005 
3003.166512  	0.042617 
3005.095328  	0.043084 
3007.024144  	0.043442 
3008.952960  	0.044124 
3010.881776  	0.044814 
3012.810592  	0.045346 
3014.739408  	0.045772 
3016.668224  	0.046186 
3018.597040  	0.046692 
3020.525856  	0.047297 
3022.454672  	0.047718 
3024.383488  	0.048299 
3026.312304  	0.049065 
3028.241120  	0.049562 
3030.169936  	0.050278 
3032.098752  	0.051177 
3034.027568  	0.051577 
3035.956384  	0.052072 
3037.885200  	0.052693 
3039.814016  	0.053498 
3041.742832  	0.054194 
3043.671648  	0.054835 
3045.600464  	0.055515 
3047.529280  	0.056277 
3049.458096  	0.057164 
3051.386912  	0.057666 
3053.315728  	0.058341 
3055.244544  	0.059338 
3057.173360  	0.060319 
3059.102176  	0.061195 
3061.030992  	0.062118 
3062.959808  	0.063200 
3064.888624  	0.064390 
3066.817440  	0.065378 
3068.746256  	0.066194 
3070.675072  	0.067120 
3072.603888  	0.068248 
3074.532704  	0.069423 
3076.461520  	0.070472 
3078.390336  	0.071603 
3080.319152  	0.072819 
3082.247968  	0.073680 
3084.176784  	0.074440 
3086.105600  	0.075558 
3088.034416  	0.076796 
3089.963232  	0.077666 
3091.892048  	0.078549 
3093.820864  	0.079784 
3095.749680  	0.081121 
3097.678496  	0.082314 
3099.607312  	0.083556 
3101.536128  	0.084874 
3103.464944  	0.085843 
3105.393760  	0.086788 
3107.322576  	0.087869 
3109.251392  	0.088756 
3111.180208  	0.089572 
3113.109024  	0.090535 
3115.037840  	0.091725 
3116.966656  	0.092920 
3118.895472  	0.093902 
3120.824288  	0.094721 
3122.753104  	0.095585 
3124.681920  	0.096240 
3126.610736  	0.097085 
3128.539552  	0.097943 
3130.468368  	0.098544 
3132.397184  	0.099487 
3134.326000  	0.100431 
3136.254816  	0.101125 
3138.183632  	0.101864 
3140.112448  	0.102744 
3142.041264  	0.103807 
3143.970080  	0.104671 
3145.898896  	0.105368 
3147.827712  	0.106080 
3149.756528  	0.107139 
3151.685344  	0.108226 
3153.614160  	0.108962 
3155.542976  	0.109547 
3157.471792  	0.110574 
3159.400608  	0.111649 
3161.329424  	0.112378 
3163.258240  	0.113206 
3165.187056  	0.114069 
3167.115872  	0.114770 
3169.044688  	0.115459 
3170.973504  	0.116065 
3172.902320  	0.116449 
3174.831136  	0.116953 
3176.759952  	0.117797 
3178.688768  	0.118482 
3180.617584  	0.118991 
3182.546400  	0.119437 
3184.475216  	0.119761 
3186.404032  	0.120019 
3188.332848  	0.120185 
3190.261664  	0.120228 
3192.190480  	0.120317 
3194.119296  	0.120345 
3196.048112  	0.120497 
3197.976928  	0.121105 
3199.905744  	0.121290 
3201.834560  	0.120970 
3203.763376  	0.120634 
3205.692192  	0.120363 
3207.621008  	0.120266 
3209.549824  	0.120309 
3211.478640  	0.120094 
3213.407456  	0.119926 
3215.336272  	0.120056 
3217.265088  	0.119967 
3219.193904  	0.119956 
3221.122720  	0.119935 
3223.051536  	0.119685 
3224.980352  	0.119360 
3226.909168  	0.119237 
3228.837984  	0.119061 
3230.766800  	0.118935 
3232.695616  	0.119018 
3234.624432  	0.119006 
3236.553248  	0.119053 
3238.482064  	0.119113 
3240.410880  	0.119066 
3242.339696  	0.119268 
3244.268512  	0.119568 
3246.197328  	0.119590 
3248.126144  	0.119420 
3250.054960  	0.119617 
3251.983776  	0.119816 
3253.912592  	0.120384 
3255.841408  	0.120792 
3257.770224  	0.120782 
3259.699040  	0.120980 
3261.627856  	0.121450 
3263.556672  	0.121523 
3265.485488  	0.121696 
3267.414304  	0.121920 
3269.343120  	0.122141 
3271.271936  	0.122513 
3273.200752  	0.122927 
3275.129568  	0.123062 
3277.058384  	0.123170 
3278.987200  	0.123122 
3280.916016  	0.123193 
3282.844832  	0.123391 
3284.773648  	0.123620 
3286.702464  	0.123872 
3288.631280  	0.124339 
3290.560096  	0.124562 
3292.488912  	0.124682 
3294.417728  	0.124889 
3296.346544  	0.125029 
3298.275360  	0.125160 
3300.204176  	0.125520 
3302.132992  	0.125871 
3304.061808  	0.126438 
3305.990624  	0.126809 
3307.919440  	0.127131 
3309.848256  	0.127316 
3311.777072  	0.127579 
3313.705888  	0.127862 
3315.634704  	0.128125 
3317.563520  	0.128464 
3319.492336  	0.128835 
3321.421152  	0.129179 
3323.349968  	0.129323 
3325.278784  	0.129441 
3327.207600  	0.129616 
3329.136416  	0.129454 
3331.065232  	0.129239 
3332.994048  	0.129215 
3334.922864  	0.129621 
3336.851680  	0.129784 
3338.780496  	0.129598 
3340.709312  	0.129271 
3342.638128  	0.129064 
3344.566944  	0.128603 
3346.495760  	0.128142 
3348.424576  	0.127948 
3350.353392  	0.127749 
3352.282208  	0.127351 
3354.211024  	0.127137 
3356.139840  	0.126926 
3358.068656  	0.126382 
3359.997472  	0.125941 
3361.926288  	0.125457 
3363.855104  	0.124940 
3365.783920  	0.124759 
3367.712736  	0.124252 
3369.641552  	0.123535 
3371.570368  	0.123059 
3373.499184  	0.122911 
3375.428000  	0.122655 
3377.356816  	0.122362 
3379.285632  	0.122089 
3381.214448  	0.121487 
3383.143264  	0.120984 
3385.072080  	0.120699 
3387.000896  	0.119845 
3388.929712  	0.119075 
3390.858528  	0.118773 
3392.787344  	0.118863 
3394.716160  	0.118398 
3396.644976  	0.117941 
3398.573792  	0.117144 
3400.502608  	0.116059 
3402.431424  	0.115228 
3404.360240  	0.114449 
3406.289056  	0.113779 
3408.217872  	0.113098 
3410.146688  	0.112424 
3412.075504  	0.111805 
3414.004320  	0.111354 
3415.933136  	0.110629 
3417.861952  	0.109817 
3419.790768  	0.109943 
3421.719584  	0.109640 
3423.648400  	0.108323 
3425.577216  	0.107051 
3427.506032  	0.106300 
3429.434848  	0.105463 
3431.363664  	0.104835 
3433.292480  	0.104148 
3435.221296  	0.103296 
3437.150112  	0.102306 
3439.078928  	0.101348 
3441.007744  	0.100676 
3442.936560  	0.100490 
3444.865376  	0.099574 
3446.794192  	0.099273 
3448.723008  	0.098205 
3450.651824  	0.096307 
3452.580640  	0.095226 
3454.509456  	0.094347 
3456.438272  	0.093334 
3458.367088  	0.092516 
3460.295904  	0.091867 
3462.224720  	0.091387 
3464.153536  	0.090089 
3466.082352  	0.088903 
3468.011168  	0.087891 
3469.939984  	0.086681 
3471.868800  	0.085444 
3473.797616  	0.084314 
3475.726432  	0.083335 
3477.655248  	0.081947 
3479.584064  	0.081192 
3481.512880  	0.081160 
3483.441696  	0.080008 
3485.370512  	0.078096 
3487.299328  	0.077028 
3489.228144  	0.075927 
3491.156960  	0.074384 
3493.085776  	0.073258 
3495.014592  	0.072663 
3496.943408  	0.071863 
3498.872224  	0.070564 
3500.801040  	0.070486 
3502.729856  	0.070939 
3504.658672  	0.069686 
3506.587488  	0.067145 
3508.516304  	0.066417 
3510.445120  	0.065947 
3512.373936  	0.064135 
3514.302752  	0.062833 
3516.231568  	0.061825 
3518.160384  	0.060924 
3520.089200  	0.060012 
3522.018016  	0.060002 
3523.946832  	0.060776 
3525.875648  	0.059738 
3527.804464  	0.058526 
3529.733280  	0.056960 
3531.662096  	0.054910 
3533.590912  	0.053096 
3535.519728  	0.052971 
3537.448544  	0.052411 
3539.377360  	0.050569 
3541.306176  	0.049632 
3543.234992  	0.050342 
3545.163808  	0.051954 
3547.092624  	0.050956 
3549.021440  	0.047501 
3550.950256  	0.046069 
3552.879072  	0.046126 
3554.807888  	0.043966 
3556.736704  	0.042025 
3558.665520  	0.041983 
3560.594336  	0.042214 
3562.523152  	0.041342 
3564.451968  	0.042201 
3566.380784  	0.046104 
3568.309600  	0.044729 
3570.238416  	0.038604 
3572.167232  	0.035486 
3574.096048  	0.034571 
3576.024864  	0.033615 
3577.953680  	0.032720 
3579.882496  	0.032191 
3581.811312  	0.030968 
3583.740128  	0.030255 
3585.668944  	0.031650 
3587.597760  	0.034473 
3589.526576  	0.030673 
3591.455392  	0.026500 
3593.384208  	0.026484 
3595.313024  	0.026810 
3597.241840  	0.024959 
3599.170656  	0.023305 
3601.099472  	0.022537 
3603.028288  	0.020365 
3604.957104  	0.018843 
3606.885920  	0.020300 
3608.814736  	0.021033 
3610.743552  	0.018614 
3612.672368  	0.018520 
3614.601184  	0.017939 
3616.530000  	0.015776 
3618.458816  	0.016134 
3620.387632  	0.015107 
3622.316448  	0.011219 
3624.245264  	0.009055 
3626.174080  	0.009154 
3628.102896  	0.011743 
3630.031712  	0.012493 
3631.960528  	0.007409 
3633.889344  	0.005269 
3635.818160  	0.003389 
3637.746976  	0.001804 
3639.675792  	0.000984 
3641.604608  	0.000689 
3643.533424  	0.000170 
3645.462240  	0.000209 
3647.391056  	0.004019 
3649.319872  	0.006295 
3651.248688  	0.002828 
3653.177504  	-0.003168 
3655.106320  	-0.004891 
3657.035136  	-0.004562 
3658.963952  	-0.006883 
3660.892768  	-0.008429 
3662.821584  	-0.009449 
3664.750400  	-0.010127 
3666.679216  	-0.009958 
3668.608032  	-0.007969 
3670.536848  	-0.005779 
3672.465664  	-0.008483 
3674.394480  	-0.007707 
3676.323296  	-0.004734 
3678.252112  	-0.008214 
3680.180928  	-0.010701 
3682.109744  	-0.012756 
3684.038560  	-0.013373 
3685.967376  	-0.013227 
3687.896192  	-0.010747 
3689.825008  	-0.008106 
3691.753824  	-0.010239 
3693.682640  	-0.013074 
3695.611456  	-0.014278 
3697.540272  	-0.014667 
3699.469088  	-0.015048 
3701.397904  	-0.013546 
3703.326720  	-0.013562 
3705.255536  	-0.014653 
3707.184352  	-0.014436 
3709.113168  	-0.012609 
3711.041984  	-0.009199 
3712.970800  	-0.010082 
3714.899616  	-0.013550 
3716.828432  	-0.014997 
3718.757248  	-0.014263 
3720.686064  	-0.013551 
3722.614880  	-0.012373 
3724.543696  	-0.011841 
3726.472512  	-0.011591 
3728.401328  	-0.013717 
3730.330144  	-0.015184 
3732.258960  	-0.012852 
3734.187776  	-0.008093 
3736.116592  	-0.005257 
3738.045408  	-0.009462 
3739.974224  	-0.011909 
3741.903040  	-0.012668 
3743.831856  	-0.011547 
3745.760672  	-0.009670 
3747.689488  	-0.011173 
3749.618304  	-0.009203 
3751.547120  	-0.007149 
3753.475936  	-0.010484 
3755.404752  	-0.013484 
3757.333568  	-0.013411 
3759.262384  	-0.012604 
3761.191200  	-0.014095 
3763.120016  	-0.015782 
3765.048832  	-0.014565 
3766.977648  	-0.014293 
3768.906464  	-0.014265 
3770.835280  	-0.013911 
3772.764096  	-0.015674 
3774.692912  	-0.016825 
3776.621728  	-0.016840 
3778.550544  	-0.015396 
3780.479360  	-0.014823 
3782.408176  	-0.016102 
3784.336992  	-0.015473 
3786.265808  	-0.015499 
3788.194624  	-0.016621 
3790.123440  	-0.016978 
3792.052256  	-0.017127 
3793.981072  	-0.017032 
3795.909888  	-0.014840 
3797.838704  	-0.013336 
3799.767520  	-0.013728 
3801.696336  	-0.011124 
3803.625152  	-0.013128 
3805.553968  	-0.015032 
3807.482784  	-0.013899 
3809.411600  	-0.015535 
3811.340416  	-0.016719 
3813.269232  	-0.016664 
3815.198048  	-0.014460 
3817.126864  	-0.012695 
3819.055680  	-0.013334 
3820.984496  	-0.010742 
3822.913312  	-0.012081 
3824.842128  	-0.014646 
3826.770944  	-0.014412 
3828.699760  	-0.015213 
3830.628576  	-0.015485 
3832.557392  	-0.014639 
3834.486208  	-0.014513 
3836.415024  	-0.013510 
3838.343840  	-0.011199 
3840.272656  	-0.010333 
3842.201472  	-0.012488 
3844.130288  	-0.013914 
3846.059104  	-0.015562 
3847.987920  	-0.016256 
3849.916736  	-0.015153 
3851.845552  	-0.012309 
3853.774368  	-0.007682 
3855.703184  	-0.010304 
3857.632000  	-0.013326 
3859.560816  	-0.015275 
3861.489632  	-0.014344 
3863.418448  	-0.012433 
3865.347264  	-0.011676 
3867.276080  	-0.013739 
3869.204896  	-0.011868 
3871.133712  	-0.010352 
3873.062528  	-0.012606 
3874.991344  	-0.013519 
3876.920160  	-0.016190 
3878.848976  	-0.015615 
3880.777792  	-0.012280 
3882.706608  	-0.012798 
3884.635424  	-0.013236 
3886.564240  	-0.013421 
3888.493056  	-0.016209 
3890.421872  	-0.015390 
3892.350688  	-0.013404 
3894.279504  	-0.015012 
3896.208320  	-0.016277 
3898.137136  	-0.014511 
3900.065952  	-0.011825 
3901.994768  	-0.010923 
3903.923584  	-0.010166 
3905.852400  	-0.012251 
3907.781216  	-0.015975 
3909.710032  	-0.017805 
3911.638848  	-0.018002 
3913.567664  	-0.017587 
3915.496480  	-0.015791 
3917.425296  	-0.013709 
3919.354112  	-0.014316 
3921.282928  	-0.015255 
3923.211744  	-0.014819 
3925.140560  	-0.014080 
3927.069376  	-0.015895 
3928.998192  	-0.015750 
3930.927008  	-0.013965 
3932.855824  	-0.013678 
3934.784640  	-0.015834 
3936.713456  	-0.016991 
3938.642272  	-0.017064 
3940.571088  	-0.016632 
3942.499904  	-0.014457 
3944.428720  	-0.014759 
3946.357536  	-0.015911 
3948.286352  	-0.014775 
3950.215168  	-0.015247 
3952.143984  	-0.016848 
3954.072800  	-0.017428 
3956.001616  	-0.017051 
3957.930432  	-0.016650 
3959.859248  	-0.016471 
3961.788064  	-0.016161 
3963.716880  	-0.016648 
3965.645696  	-0.017570 
3967.574512  	-0.017740 
3969.503328  	-0.017500 
3971.432144  	-0.017289 
3973.360960  	-0.016810 
3975.289776  	-0.016149 
3977.218592  	-0.016620 
3979.147408  	-0.017484 
3981.076224  	-0.017658 
3983.005040  	-0.017633 
3984.933856  	-0.017601 
3986.862672  	-0.017456 
3988.791488  	-0.017379 
3990.720304  	-0.016970 
3992.649120  	-0.017070 
3994.577936  	-0.017267 
3996.506752  	-0.017487 
3998.435568  	-0.017730 
4000.364384  	-0.017626 