##TITLE=No Description
##DATA TYPE=INFRARED SPECTRUM
##XUNITS=1/CM
##YUNITS=Abs
399.264912  	0.402934 
401.193728  	0.389246 
403.122544  	0.385341 
405.051360  	0.379158 
406.980176  	0.384880 
408.908992  	0.386837 
410.837808  	0.379141 
412.766624  	0.371045 
414.695440  	0.373300 
416.624256  	0.372062 
418.553072  	0.382665 
420.481888  	0.372348 
422.410704  	0.367310 
424.339520  	0.359564 
426.268336  	0.353949 
428.197152  	0.355143 
430.125968  	0.356876 
432.054784  	0.354881 
433.983600  	0.358056 
435.912416  	0.355427 
437.841232  	0.349452 
439.770048  	0.342490 
441.698864  	0.342265 
443.627680  	0.343208 
445.556496  	0.342933 
447.485312  	0.337912 
449.414128  	0.334966 
451.342944  	0.334685 
453.271760  	0.336571 
455.200576  	0.334050 
457.129392  	0.337711 
459.058208  	0.336936 
460.987024  	0.338278 
462.915840  	0.336824 
464.844656  	0.333084 
466.773472  	0.329105 
468.702288  	0.327978 
470.631104  	0.325532 
472.559920  	0.329868 
474.488736  	0.329396 
476.417552  	0.326567 
478.346368  	0.324104 
480.275184  	0.322985 
482.204000  	0.318523 
484.132816  	0.319134 
486.061632  	0.322275 
487.990448  	0.322584 
489.919264  	0.319757 
491.848080  	0.317452 
493.776896  	0.316252 
495.705712  	0.316523 
497.634528  	0.314974 
499.563344  	0.314398 
501.492160  	0.313737 
503.420976  	0.313416 
505.349792  	0.311070 
507.278608  	0.311933 
509.207424  	0.310005 
511.136240  	0.309645 
513.065056  	0.309233 
514.993872  	0.311577 
516.922688  	0.314108 
518.851504  	0.315788 
520.780320  	0.313428 
522.709136  	0.312877 
524.637952  	0.312316 
526.566768  	0.311604 
528.495584  	0.308652 
530.424400  	0.306354 
532.353216  	0.303795 
534.282032  	0.300157 
536.210848  	0.296728 
538.139664  	0.293899 
540.068480  	0.290735 
541.997296  	0.288435 
543.926112  	0.286009 
545.854928  	0.285636 
547.783744  	0.283699 
549.712560  	0.282335 
551.641376  	0.279908 
553.570192  	0.278755 
555.499008  	0.275821 
557.427824  	0.273781 
559.356640  	0.271525 
561.285456  	0.269634 
563.214272  	0.267032 
565.143088  	0.265527 
567.071904  	0.264023 
569.000720  	0.262817 
570.929536  	0.260224 
572.858352  	0.257736 
574.787168  	0.256754 
576.715984  	0.255577 
578.644800  	0.252571 
580.573616  	0.250163 
582.502432  	0.246739 
584.431248  	0.243904 
586.360064  	0.241042 
588.288880  	0.239243 
590.217696  	0.238168 
592.146512  	0.237662 
594.075328  	0.235316 
596.004144  	0.233720 
597.932960  	0.232166 
599.861776  	0.231525 
601.790592  	0.230135 
603.719408  	0.229279 
605.648224  	0.227944 
607.577040  	0.227140 
609.505856  	0.225684 
611.434672  	0.225457 
613.363488  	0.224617 
615.292304  	0.223825 
617.221120  	0.222837 
619.149936  	0.221665 
621.078752  	0.220453 
623.007568  	0.219681 
624.936384  	0.218845 
626.865200  	0.217616 
628.794016  	0.216484 
630.722832  	0.216382 
632.651648  	0.216974 
634.580464  	0.216957 
636.509280  	0.216573 
638.438096  	0.216079 
640.366912  	0.215259 
642.295728  	0.214436 
644.224544  	0.212994 
646.153360  	0.210934 
648.082176  	0.208312 
650.010992  	0.206420 
651.939808  	0.203908 
653.868624  	0.202007 
655.797440  	0.199671 
657.726256  	0.197525 
659.655072  	0.195389 
661.583888  	0.192508 
663.512704  	0.189735 
665.441520  	0.186579 
667.370336  	0.184498 
669.299152  	0.185251 
671.227968  	0.181026 
673.156784  	0.177298 
675.085600  	0.175029 
677.014416  	0.173270 
678.943232  	0.172096 
680.872048  	0.171460 
682.800864  	0.170430 
684.729680  	0.169324 
686.658496  	0.168282 
688.587312  	0.167690 
690.516128  	0.166667 
692.444944  	0.166070 
694.373760  	0.164893 
696.302576  	0.164093 
698.231392  	0.162860 
700.160208  	0.161234 
702.089024  	0.159366 
704.017840  	0.157739 
705.946656  	0.155928 
707.875472  	0.154078 
709.804288  	0.152434 
711.733104  	0.151453 
713.661920  	0.150646 
715.590736  	0.149555 
717.519552  	0.148952 
719.448368  	0.149503 
721.377184  	0.150173 
723.306000  	0.150276 
725.234816  	0.150130 
727.163632  	0.149259 
729.092448  	0.147596 
731.021264  	0.145554 
732.950080  	0.143490 
734.878896  	0.141536 
736.807712  	0.139514 
738.736528  	0.137907 
740.665344  	0.136749 
742.594160  	0.136099 
744.522976  	0.135042 
746.451792  	0.134007 
748.380608  	0.132711 
750.309424  	0.131868 
752.238240  	0.130870 
754.167056  	0.130209 
756.095872  	0.129974 
758.024688  	0.129159 
759.953504  	0.128657 
761.882320  	0.129332 
763.811136  	0.129822 
765.739952  	0.128283 
767.668768  	0.126145 
769.597584  	0.124544 
771.526400  	0.123946 
773.455216  	0.124756 
775.384032  	0.126899 
777.312848  	0.130157 
779.241664  	0.132369 
781.170480  	0.131758 
783.099296  	0.128638 
785.028112  	0.125092 
786.956928  	0.121390 
788.885744  	0.118441 
790.814560  	0.116276 
792.743376  	0.115195 
794.672192  	0.114524 
796.601008  	0.113584 
798.529824  	0.111751 
800.458640  	0.109276 
802.387456  	0.107204 
804.316272  	0.105886 
806.245088  	0.104973 
808.173904  	0.104073 
810.102720  	0.103775 
812.031536  	0.103698 
813.960352  	0.103441 
815.889168  	0.103456 
817.817984  	0.103920 
819.746800  	0.104461 
821.675616  	0.104855 
823.604432  	0.105085 
825.533248  	0.105371 
827.462064  	0.105732 
829.390880  	0.105389 
831.319696  	0.105200 
833.248512  	0.104640 
835.177328  	0.103409 
837.106144  	0.101626 
839.034960  	0.099899 
840.963776  	0.097415 
842.892592  	0.094753 
844.821408  	0.092223 
846.750224  	0.090010 
848.679040  	0.088185 
850.607856  	0.086592 
852.536672  	0.085668 
854.465488  	0.085082 
856.394304  	0.084426 
858.323120  	0.083292 
860.251936  	0.082253 
862.180752  	0.081247 
864.109568  	0.079761 
866.038384  	0.078443 
867.967200  	0.077138 
869.896016  	0.076130 
871.824832  	0.075542 
873.753648  	0.075634 
875.682464  	0.075811 
877.611280  	0.076673 
879.540096  	0.077946 
881.468912  	0.079487 
883.397728  	0.081209 
885.326544  	0.082559 
887.255360  	0.083426 
889.184176  	0.083584 
891.112992  	0.083353 
893.041808  	0.082504 
894.970624  	0.081049 
896.899440  	0.078696 
898.828256  	0.075796 
900.757072  	0.072884 
902.685888  	0.070468 
904.614704  	0.069037 
906.543520  	0.068737 
908.472336  	0.069701 
910.401152  	0.071312 
912.329968  	0.073200 
914.258784  	0.074860 
916.187600  	0.076610 
918.116416  	0.077909 
920.045232  	0.078774 
921.974048  	0.079265 
923.902864  	0.079915 
925.831680  	0.080278 
927.760496  	0.080891 
929.689312  	0.081720 
931.618128  	0.082495 
933.546944  	0.083101 
935.475760  	0.083166 
937.404576  	0.082959 
939.333392  	0.082484 
941.262208  	0.082154 
943.191024  	0.082624 
945.119840  	0.084311 
947.048656  	0.087421 
948.977472  	0.092193 
950.906288  	0.098206 
952.835104  	0.105482 
954.763920  	0.113811 
956.692736  	0.121999 
958.621552  	0.129533 
960.550368  	0.134845 
962.479184  	0.137911 
964.408000  	0.138300 
966.336816  	0.135898 
968.265632  	0.130578 
970.194448  	0.123422 
972.123264  	0.114983 
974.052080  	0.105880 
975.980896  	0.096826 
977.909712  	0.088208 
979.838528  	0.080716 
981.767344  	0.074364 
983.696160  	0.069732 
985.624976  	0.066673 
987.553792  	0.065682 
989.482608  	0.066470 
991.411424  	0.068859 
993.340240  	0.072657 
995.269056  	0.076816 
997.197872  	0.081227 
999.126688  	0.085701 
1001.055504  	0.090539 
1002.984320  	0.094923 
1004.913136  	0.099427 
1006.841952  	0.103702 
1008.770768  	0.107740 
1010.699584  	0.110953 
1012.628400  	0.113460 
1014.557216  	0.115316 
1016.486032  	0.116309 
1018.414848  	0.116670 
1020.343664  	0.116651 
1022.272480  	0.116787 
1024.201296  	0.116521 
1026.130112  	0.116166 
1028.058928  	0.116683 
1029.987744  	0.118020 
1031.916560  	0.119577 
1033.845376  	0.121501 
1035.774192  	0.124380 
1037.703008  	0.128112 
1039.631824  	0.133707 
1041.560640  	0.140823 
1043.489456  	0.149743 
1045.418272  	0.159147 
1047.347088  	0.168151 
1049.275904  	0.173982 
1051.204720  	0.176397 
1053.133536  	0.176218 
1055.062352  	0.174381 
1056.991168  	0.171664 
1058.919984  	0.169444 
1060.848800  	0.168076 
1062.777616  	0.166886 
1064.706432  	0.165215 
1066.635248  	0.163427 
1068.564064  	0.161399 
1070.492880  	0.158162 
1072.421696  	0.154499 
1074.350512  	0.152281 
1076.279328  	0.152084 
1078.208144  	0.154278 
1080.136960  	0.157476 
1082.065776  	0.159897 
1083.994592  	0.159673 
1085.923408  	0.157204 
1087.852224  	0.152350 
1089.781040  	0.146803 
1091.709856  	0.140020 
1093.638672  	0.132218 
1095.567488  	0.123799 
1097.496304  	0.115409 
1099.425120  	0.107091 
1101.353936  	0.099073 
1103.282752  	0.091492 
1105.211568  	0.084494 
1107.140384  	0.078401 
1109.069200  	0.072545 
1110.998016  	0.067441 
1112.926832  	0.062870 
1114.855648  	0.058785 
1116.784464  	0.054579 
1118.713280  	0.050305 
1120.642096  	0.046461 
1122.570912  	0.043020 
1124.499728  	0.039799 
1126.428544  	0.037106 
1128.357360  	0.034693 
1130.286176  	0.032399 
1132.214992  	0.030778 
1134.143808  	0.029626 
1136.072624  	0.028647 
1138.001440  	0.027660 
1139.930256  	0.026878 
1141.859072  	0.026012 
1143.787888  	0.025018 
1145.716704  	0.024308 
1147.645520  	0.023652 
1149.574336  	0.023278 
1151.503152  	0.022857 
1153.431968  	0.022674 
1155.360784  	0.022755 
1157.289600  	0.023499 
1159.218416  	0.024339 
1161.147232  	0.025210 
1163.076048  	0.026314 
1165.004864  	0.027460 
1166.933680  	0.028575 
1168.862496  	0.029847 
1170.791312  	0.031284 
1172.720128  	0.032959 
1174.648944  	0.035042 
1176.577760  	0.036839 
1178.506576  	0.038771 
1180.435392  	0.040823 
1182.364208  	0.042742 
1184.293024  	0.045017 
1186.221840  	0.047886 
1188.150656  	0.051071 
1190.079472  	0.054518 
1192.008288  	0.058534 
1193.937104  	0.062748 
1195.865920  	0.067621 
1197.794736  	0.072950 
1199.723552  	0.078487 
1201.652368  	0.083939 
1203.581184  	0.089084 
1205.510000  	0.094138 
1207.438816  	0.098454 
1209.367632  	0.102103 
1211.296448  	0.104974 
1213.225264  	0.107102 
1215.154080  	0.108117 
1217.082896  	0.108603 
1219.011712  	0.108374 
1220.940528  	0.107865 
1222.869344  	0.106800 
1224.798160  	0.105591 
1226.726976  	0.103696 
1228.655792  	0.101484 
1230.584608  	0.099111 
1232.513424  	0.096201 
1234.442240  	0.093086 
1236.371056  	0.089935 
1238.299872  	0.086518 
1240.228688  	0.082344 
1242.157504  	0.078351 
1244.086320  	0.074783 
1246.015136  	0.070878 
1247.943952  	0.067118 
1249.872768  	0.063477 
1251.801584  	0.059909 
1253.730400  	0.056458 
1255.659216  	0.053147 
1257.588032  	0.050014 
1259.516848  	0.047349 
1261.445664  	0.044544 
1263.374480  	0.041789 
1265.303296  	0.039631 
1267.232112  	0.038095 
1269.160928  	0.037065 
1271.089744  	0.036365 
1273.018560  	0.035724 
1274.947376  	0.035487 
1276.876192  	0.036022 
1278.805008  	0.036392 
1280.733824  	0.036295 
1282.662640  	0.035423 
1284.591456  	0.034420 
1286.520272  	0.033836 
1288.449088  	0.033607 
1290.377904  	0.033254 
1292.306720  	0.033610 
1294.235536  	0.034072 
1296.164352  	0.034138 
1298.093168  	0.033144 
1300.021984  	0.031535 
1301.950800  	0.029805 
1303.879616  	0.028006 
1305.808432  	0.026171 
1307.737248  	0.024319 
1309.666064  	0.022330 
1311.594880  	0.021531 
1313.523696  	0.021166 
1315.452512  	0.020251 
1317.381328  	0.020315 
1319.310144  	0.020590 
1321.238960  	0.019839 
1323.167776  	0.019540 
1325.096592  	0.019799 
1327.025408  	0.019910 
1328.954224  	0.019904 
1330.883040  	0.019546 
1332.811856  	0.018584 
1334.740672  	0.018231 
1336.669488  	0.019771 
1338.598304  	0.022668 
1340.527120  	0.022250 
1342.455936  	0.018129 
1344.384752  	0.016765 
1346.313568  	0.017000 
1348.242384  	0.017636 
1350.171200  	0.018382 
1352.100016  	0.019162 
1354.028832  	0.020677 
1355.957648  	0.022190 
1357.886464  	0.023187 
1359.815280  	0.025067 
1361.744096  	0.029123 
1363.672912  	0.030867 
1365.601728  	0.028706 
1367.530544  	0.029433 
1369.459360  	0.030936 
1371.388176  	0.030945 
1373.316992  	0.032784 
1375.245808  	0.032835 
1377.174624  	0.029506 
1379.103440  	0.027529 
1381.032256  	0.025166 
1382.961072  	0.023265 
1384.889888  	0.022803 
1386.818704  	0.024873 
1388.747520  	0.023343 
1390.676336  	0.020035 
1392.605152  	0.019156 
1394.533968  	0.021794 
1396.462784  	0.022990 
1398.391600  	0.022290 
1400.320416  	0.020520 
1402.249232  	0.018306 
1404.178048  	0.019951 
1406.106864  	0.020720 
1408.035680  	0.020002 
1409.964496  	0.021126 
1411.893312  	0.022636 
1413.822128  	0.023529 
1415.750944  	0.026405 
1417.679760  	0.030700 
1419.608576  	0.032621 
1421.537392  	0.029140 
1423.466208  	0.028686 
1425.395024  	0.027214 
1427.323840  	0.024424 
1429.252656  	0.024562 
1431.181472  	0.023812 
1433.110288  	0.022475 
1435.039104  	0.023334 
1436.967920  	0.026713 
1438.896736  	0.024565 
1440.825552  	0.023114 
1442.754368  	0.023399 
1444.683184  	0.023596 
1446.612000  	0.024971 
1448.540816  	0.026391 
1450.469632  	0.025490 
1452.398448  	0.025789 
1454.327264  	0.026897 
1456.256080  	0.032469 
1458.184896  	0.036115 
1460.113712  	0.028991 
1462.042528  	0.024581 
1463.971344  	0.025328 
1465.900160  	0.026757 
1467.828976  	0.024994 
1469.757792  	0.024950 
1471.686608  	0.031025 
1473.615424  	0.038949 
1475.544240  	0.038916 
1477.473056  	0.038968 
1479.401872  	0.038615 
1481.330688  	0.041087 
1483.259504  	0.041974 
1485.188320  	0.042841 
1487.117136  	0.046254 
1489.045952  	0.051216 
1490.974768  	0.049884 
1492.903584  	0.042673 
1494.832400  	0.039406 
1496.761216  	0.040059 
1498.690032  	0.037096 
1500.618848  	0.032490 
1502.547664  	0.027998 
1504.476480  	0.025922 
1506.405296  	0.035439 
1508.334112  	0.040221 
1510.262928  	0.030588 
1512.191744  	0.025142 
1514.120560  	0.023736 
1516.049376  	0.027523 
1517.978192  	0.029028 
1519.907008  	0.028544 
1521.835824  	0.034925 
1523.764640  	0.033651 
1525.693456  	0.034605 
1527.622272  	0.035069 
1529.551088  	0.031917 
1531.479904  	0.030406 
1533.408720  	0.032919 
1535.337536  	0.029640 
1537.266352  	0.025599 
1539.195168  	0.028812 
1541.123984  	0.034087 
1543.052800  	0.031071 
1544.981616  	0.027707 
1546.910432  	0.021255 
1548.839248  	0.020590 
1550.768064  	0.022223 
1552.696880  	0.020353 
1554.625696  	0.022420 
1556.554512  	0.022539 
1558.483328  	0.030022 
1560.412144  	0.032340 
1562.340960  	0.025587 
1564.269776  	0.025416 
1566.198592  	0.027449 
1568.127408  	0.029109 
1570.056224  	0.035707 
1571.985040  	0.035545 
1573.913856  	0.035026 
1575.842672  	0.040223 
1577.771488  	0.043490 
1579.700304  	0.039302 
1581.629120  	0.037900 
1583.557936  	0.037560 
1585.486752  	0.038091 
1587.415568  	0.039180 
1589.344384  	0.041899 
1591.273200  	0.044784 
1593.202016  	0.048564 
1595.130832  	0.052979 
1597.059648  	0.056605 
1598.988464  	0.059150 
1600.917280  	0.062615 
1602.846096  	0.065496 
1604.774912  	0.066820 
1606.703728  	0.067215 
1608.632544  	0.068217 
1610.561360  	0.067106 
1612.490176  	0.065116 
1614.418992  	0.062853 
1616.347808  	0.066774 
1618.276624  	0.070028 
1620.205440  	0.067533 
1622.134256  	0.069051 
1624.063072  	0.075676 
1625.991888  	0.076219 
1627.920704  	0.080211 
1629.849520  	0.083774 
1631.778336  	0.084441 
1633.707152  	0.085712 
1635.635968  	0.098071 
1637.564784  	0.105695 
1639.493600  	0.101587 
1641.422416  	0.100855 
1643.351232  	0.099866 
1645.280048  	0.100547 
1647.208864  	0.111666 
1649.137680  	0.108182 
1651.066496  	0.098229 
1652.995312  	0.106266 
1654.924128  	0.114040 
1656.852944  	0.102883 
1658.781760  	0.097497 
1660.710576  	0.095024 
1662.639392  	0.096461 
1664.568208  	0.094429 
1666.497024  	0.088790 
1668.425840  	0.088360 
1670.354656  	0.090663 
1672.283472  	0.085653 
1674.212288  	0.081439 
1676.141104  	0.082694 
1678.069920  	0.078638 
1679.998736  	0.078354 
1681.927552  	0.076576 
1683.856368  	0.081038 
1685.785184  	0.083416 
1687.714000  	0.077157 
1689.642816  	0.075920 
1691.571632  	0.072956 
1693.500448  	0.069368 
1695.429264  	0.072493 
1697.358080  	0.076986 
1699.286896  	0.073562 
1701.215712  	0.077844 
1703.144528  	0.071698 
1705.073344  	0.069941 
1707.002160  	0.068314 
1708.930976  	0.063402 
1710.859792  	0.059770 
1712.788608  	0.056844 
1714.717424  	0.055979 
1716.646240  	0.054713 
1718.575056  	0.048572 
1720.503872  	0.038073 
1722.432688  	0.031435 
1724.361504  	0.026026 
1726.290320  	0.020392 
1728.219136  	0.017553 
1730.147952  	0.017055 
1732.076768  	0.015295 
1734.005584  	0.015575 
1735.934400  	0.010414 
1737.863216  	0.006639 
1739.792032  	0.005932 
1741.720848  	0.004932 
1743.649664  	0.005534 
1745.578480  	0.004630 
1747.507296  	0.005036 
1749.436112  	0.006105 
1751.364928  	0.004597 
1753.293744  	0.000095 
1755.222560  	-0.001716 
1757.151376  	-0.000146 
1759.080192  	-0.001214 
1761.009008  	-0.000984 
1762.937824  	-0.001355 
1764.866640  	-0.003566 
1766.795456  	-0.003024 
1768.724272  	-0.001405 
1770.653088  	-0.001232 
1772.581904  	0.000760 
1774.510720  	-0.001036 
1776.439536  	-0.002943 
1778.368352  	-0.003923 
1780.297168  	-0.003082 
1782.225984  	-0.004129 
1784.154800  	-0.004547 
1786.083616  	-0.005049 
1788.012432  	-0.005997 
1789.941248  	-0.004234 
1791.870064  	-0.001277 
1793.798880  	-0.002318 
1795.727696  	-0.003622 
1797.656512  	-0.004795 
1799.585328  	-0.004560 
1801.514144  	-0.003377 
1803.442960  	-0.005020 
1805.371776  	-0.006446 
1807.300592  	-0.006295 
1809.229408  	-0.005925 
1811.158224  	-0.005302 
1813.087040  	-0.006405 
1815.015856  	-0.007778 
1816.944672  	-0.007153 
1818.873488  	-0.007025 
1820.802304  	-0.007262 
1822.731120  	-0.006504 
1824.659936  	-0.005240 
1826.588752  	-0.005738 
1828.517568  	-0.005622 
1830.446384  	-0.004412 
1832.375200  	-0.006472 
1834.304016  	-0.007371 
1836.232832  	-0.007141 
1838.161648  	-0.006947 
1840.090464  	-0.007552 
1842.019280  	-0.006943 
1843.948096  	-0.004604 
1845.876912  	-0.004494 
1847.805728  	-0.005989 
1849.734544  	-0.007301 
1851.663360  	-0.008150 
1853.592176  	-0.008051 
1855.520992  	-0.008305 
1857.449808  	-0.007943 
1859.378624  	-0.008017 
1861.307440  	-0.008166 
1863.236256  	-0.008472 
1865.165072  	-0.007816 
1867.093888  	-0.005993 
1869.022704  	-0.003734 
1870.951520  	-0.005865 
1872.880336  	-0.008152 
1874.809152  	-0.008812 
1876.737968  	-0.009033 
1878.666784  	-0.009223 
1880.595600  	-0.009265 
1882.524416  	-0.009050 
1884.453232  	-0.008732 
1886.382048  	-0.009150 
1888.310864  	-0.007919 
1890.239680  	-0.006997 
1892.168496  	-0.008060 
1894.097312  	-0.007933 
1896.026128  	-0.008080 
1897.954944  	-0.008897 
1899.883760  	-0.009158 
1901.812576  	-0.009263 
1903.741392  	-0.009005 
1905.670208  	-0.008945 
1907.599024  	-0.008685 
1909.527840  	-0.008202 
1911.456656  	-0.007903 
1913.385472  	-0.008278 
1915.314288  	-0.008300 
1917.243104  	-0.007673 
1919.171920  	-0.007291 
1921.100736  	-0.007417 
1923.029552  	-0.006693 
1924.958368  	-0.008640 
1926.887184  	-0.009505 
1928.816000  	-0.009999 
1930.744816  	-0.009706 
1932.673632  	-0.009128 
1934.602448  	-0.008952 
1936.531264  	-0.009623 
1938.460080  	-0.009681 
1940.388896  	-0.008842 
1942.317712  	-0.007135 
1944.246528  	-0.008465 
1946.175344  	-0.009177 
1948.104160  	-0.009402 
1950.032976  	-0.009510 
1951.961792  	-0.009788 
1953.890608  	-0.009931 
1955.819424  	-0.010272 
1957.748240  	-0.010713 
1959.677056  	-0.011259 
1961.605872  	-0.010820 
1963.534688  	-0.010326 
1965.463504  	-0.009077 
1967.392320  	-0.008686 
1969.321136  	-0.009635 
1971.249952  	-0.011018 
1973.178768  	-0.011462 
1975.107584  	-0.011003 
1977.036400  	-0.009740 
1978.965216  	-0.010311 
1980.894032  	-0.010369 
1982.822848  	-0.010230 
1984.751664  	-0.009294 
1986.680480  	-0.008875 
1988.609296  	-0.008666 
1990.538112  	-0.008249 
1992.466928  	-0.006710 
1994.395744  	-0.008404 
1996.324560  	-0.009307 
1998.253376  	-0.009278 
2000.182192  	-0.009594 
2002.111008  	-0.009801 
2004.039824  	-0.009413 
2005.968640  	-0.009496 
2007.897456  	-0.009291 
2009.826272  	-0.009255 
2011.755088  	-0.008351 
2013.683904  	-0.008520 
2015.612720  	-0.008886 
2017.541536  	-0.008553 
2019.470352  	-0.008730 
2021.399168  	-0.010045 
2023.327984  	-0.010225 
2025.256800  	-0.009184 
2027.185616  	-0.007098 
2029.114432  	-0.006375 
2031.043248  	-0.007802 
2032.972064  	-0.008730 
2034.900880  	-0.007696 
2036.829696  	-0.007848 
2038.758512  	-0.008289 
2040.687328  	-0.008581 
2042.616144  	-0.008492 
2044.544960  	-0.008001 
2046.473776  	-0.007231 
2048.402592  	-0.006847 
2050.331408  	-0.006834 
2052.260224  	-0.006776 
2054.189040  	-0.006914 
2056.117856  	-0.007984 
2058.046672  	-0.008349 
2059.975488  	-0.007973 
2061.904304  	-0.007257 
2063.833120  	-0.006934 
2065.761936  	-0.006743 
2067.690752  	-0.007290 
2069.619568  	-0.007449 
2071.548384  	-0.007676 
2073.477200  	-0.007141 
2075.406016  	-0.006923 
2077.334832  	-0.006695 
2079.263648  	-0.006179 
2081.192464  	-0.006429 
2083.121280  	-0.007327 
2085.050096  	-0.007486 
2086.978912  	-0.007522 
2088.907728  	-0.007242 
2090.836544  	-0.006976 
2092.765360  	-0.007334 
2094.694176  	-0.007070 
2096.622992  	-0.006593 
2098.551808  	-0.006955 
2100.480624  	-0.007226 
2102.409440  	-0.007125 
2104.338256  	-0.006976 
2106.267072  	-0.007285 
2108.195888  	-0.007164 
2110.124704  	-0.007062 
2112.053520  	-0.006620 
2113.982336  	-0.006322 
2115.911152  	-0.006686 
2117.839968  	-0.007133 
2119.768784  	-0.007164 
2121.697600  	-0.007129 
2123.626416  	-0.007282 
2125.555232  	-0.007880 
2127.484048  	-0.008149 
2129.412864  	-0.007752 
2131.341680  	-0.006993 
2133.270496  	-0.006844 
2135.199312  	-0.006635 
2137.128128  	-0.006178 
2139.056944  	-0.006118 
2140.985760  	-0.006252 
2142.914576  	-0.005721 
2144.843392  	-0.006539 
2146.772208  	-0.007017 
2148.701024  	-0.007753 
2150.629840  	-0.007741 
2152.558656  	-0.006890 
2154.487472  	-0.006469 
2156.416288  	-0.006368 
2158.345104  	-0.004955 
2160.273920  	-0.003641 
2162.202736  	-0.003387 
2164.131552  	-0.004100 
2166.060368  	-0.004015 
2167.989184  	-0.004913 
2169.918000  	-0.005621 
2171.846816  	-0.005456 
2173.775632  	-0.004563 
2175.704448  	-0.004440 
2177.633264  	-0.004951 
2179.562080  	-0.006373 
2181.490896  	-0.005881 
2183.419712  	-0.004663 
2185.348528  	-0.004573 
2187.277344  	-0.005178 
2189.206160  	-0.005594 
2191.134976  	-0.006303 
2193.063792  	-0.006670 
2194.992608  	-0.006302 
2196.921424  	-0.006325 
2198.850240  	-0.007133 
2200.779056  	-0.007167 
2202.707872  	-0.006883 
2204.636688  	-0.005957 
2206.565504  	-0.006221 
2208.494320  	-0.006815 
2210.423136  	-0.006289 
2212.351952  	-0.005971 
2214.280768  	-0.006635 
2216.209584  	-0.006699 
2218.138400  	-0.007003 
2220.067216  	-0.007218 
2221.996032  	-0.006987 
2223.924848  	-0.006720 
2225.853664  	-0.006508 
2227.782480  	-0.006498 
2229.711296  	-0.007167 
2231.640112  	-0.007035 
2233.568928  	-0.007125 
2235.497744  	-0.006934 
2237.426560  	-0.006918 
2239.355376  	-0.007091 
2241.284192  	-0.007200 
2243.213008  	-0.007511 
2245.141824  	-0.008106 
2247.070640  	-0.007829 
2248.999456  	-0.007355 
2250.928272  	-0.007402 
2252.857088  	-0.007888 
2254.785904  	-0.007435 
2256.714720  	-0.006620 
2258.643536  	-0.006187 
2260.572352  	-0.006155 
2262.501168  	-0.006396 
2264.429984  	-0.006656 
2266.358800  	-0.006935 
2268.287616  	-0.007328 
2270.216432  	-0.007253 
2272.145248  	-0.006722 
2274.074064  	-0.006189 
2276.002880  	-0.006319 
2277.931696  	-0.006564 
2279.860512  	-0.006948 
2281.789328  	-0.006702 
2283.718144  	-0.006236 
2285.646960  	-0.005879 
2287.575776  	-0.005791 
2289.504592  	-0.005739 
2291.433408  	-0.005610 
2293.362224  	-0.005315 
2295.291040  	-0.005309 
2297.219856  	-0.005032 
2299.148672  	-0.004722 
2301.077488  	-0.004566 
2303.006304  	-0.004183 
2304.935120  	-0.003579 
2306.863936  	-0.003116 
2308.792752  	-0.002616 
2310.721568  	-0.002325 
2312.650384  	-0.002560 
2314.579200  	-0.003186 
2316.508016  	-0.003401 
2318.436832  	-0.003298 
2320.365648  	-0.003013 
2322.294464  	-0.003017 
2324.223280  	-0.003912 
2326.152096  	-0.005801 
2328.080912  	-0.007049 
2330.009728  	-0.007356 
2331.938544  	-0.007816 
2333.867360  	-0.009188 
2335.796176  	-0.010482 
2337.724992  	-0.011228 
2339.653808  	-0.010970 
2341.582624  	-0.009938 
2343.511440  	-0.008352 
2345.440256  	-0.006560 
2347.369072  	-0.005612 
2349.297888  	-0.006039 
2351.226704  	-0.007368 
2353.155520  	-0.009138 
2355.084336  	-0.010462 
2357.013152  	-0.010651 
2358.941968  	-0.010687 
2360.870784  	-0.011185 
2362.799600  	-0.010898 
2364.728416  	-0.009678 
2366.657232  	-0.008748 
2368.586048  	-0.007999 
2370.514864  	-0.006549 
2372.443680  	-0.005430 
2374.372496  	-0.004239 
2376.301312  	-0.003350 
2378.230128  	-0.002946 
2380.158944  	-0.003366 
2382.087760  	-0.004204 
2384.016576  	-0.005295 
2385.945392  	-0.006338 
2387.874208  	-0.006853 
2389.803024  	-0.007307 
2391.731840  	-0.007709 
2393.660656  	-0.007774 
2395.589472  	-0.007578 
2397.518288  	-0.007428 
2399.447104  	-0.007484 
2401.375920  	-0.007585 
2403.304736  	-0.007796 
2405.233552  	-0.007816 
2407.162368  	-0.007837 
2409.091184  	-0.007813 
2411.020000  	-0.007893 
2412.948816  	-0.007942 
2414.877632  	-0.007866 
2416.806448  	-0.007675 
2418.735264  	-0.007483 
2420.664080  	-0.007499 
2422.592896  	-0.007538 
2424.521712  	-0.007572 
2426.450528  	-0.007761 
2428.379344  	-0.007691 
2430.308160  	-0.007488 
2432.236976  	-0.007349 
2434.165792  	-0.007173 
2436.094608  	-0.006913 
2438.023424  	-0.006838 
2439.952240  	-0.007020 
2441.881056  	-0.007075 
2443.809872  	-0.006931 
2445.738688  	-0.006989 
2447.667504  	-0.006959 
2449.596320  	-0.006735 
2451.525136  	-0.006663 
2453.453952  	-0.006766 
2455.382768  	-0.006697 
2457.311584  	-0.006768 
2459.240400  	-0.006993 
2461.169216  	-0.006916 
2463.098032  	-0.006649 
2465.026848  	-0.006677 
2466.955664  	-0.006646 
2468.884480  	-0.006772 
2470.813296  	-0.007054 
2472.742112  	-0.006970 
2474.670928  	-0.006672 
2476.599744  	-0.006513 
2478.528560  	-0.006224 
2480.457376  	-0.006099 
2482.386192  	-0.005987 
2484.315008  	-0.005956 
2486.243824  	-0.006025 
2488.172640  	-0.005793 
2490.101456  	-0.005610 
2492.030272  	-0.005524 
2493.959088  	-0.005613 
2495.887904  	-0.005888 
2497.816720  	-0.005710 
2499.745536  	-0.005483 
2501.674352  	-0.005581 
2503.603168  	-0.005757 
2505.531984  	-0.005735 
2507.460800  	-0.005815 
2509.389616  	-0.005932 
2511.318432  	-0.005967 
2513.247248  	-0.005843 
2515.176064  	-0.005621 
2517.104880  	-0.005501 
2519.033696  	-0.005607 
2520.962512  	-0.005429 
2522.891328  	-0.005232 
2524.820144  	-0.005048 
2526.748960  	-0.004981 
2528.677776  	-0.004868 
2530.606592  	-0.004923 
2532.535408  	-0.004926 
2534.464224  	-0.004935 
2536.393040  	-0.004953 
2538.321856  	-0.005033 
2540.250672  	-0.005059 
2542.179488  	-0.004851 
2544.108304  	-0.004675 
2546.037120  	-0.004581 
2547.965936  	-0.004323 
2549.894752  	-0.004176 
2551.823568  	-0.004135 
2553.752384  	-0.004163 
2555.681200  	-0.004267 
2557.610016  	-0.004356 
2559.538832  	-0.004223 
2561.467648  	-0.003916 
2563.396464  	-0.003805 
2565.325280  	-0.003913 
2567.254096  	-0.003853 
2569.182912  	-0.003820 
2571.111728  	-0.003814 
2573.040544  	-0.003702 
2574.969360  	-0.003465 
2576.898176  	-0.003369 
2578.826992  	-0.003453 
2580.755808  	-0.003477 
2582.684624  	-0.003275 
2584.613440  	-0.003243 
2586.542256  	-0.003223 
2588.471072  	-0.003195 
2590.399888  	-0.003098 
2592.328704  	-0.002936 
2594.257520  	-0.002878 
2596.186336  	-0.002998 
2598.115152  	-0.002999 
2600.043968  	-0.002724 
2601.972784  	-0.002650 
2603.901600  	-0.002596 
2605.830416  	-0.002707 
2607.759232  	-0.002827 
2609.688048  	-0.002698 
2611.616864  	-0.002449 
2613.545680  	-0.002316 
2615.474496  	-0.002291 
2617.403312  	-0.002231 
2619.332128  	-0.002129 
2621.260944  	-0.002112 
2623.189760  	-0.002059 
2625.118576  	-0.001850 
2627.047392  	-0.001823 
2628.976208  	-0.001799 
2630.905024  	-0.001746 
2632.833840  	-0.001688 
2634.762656  	-0.001607 
2636.691472  	-0.001447 
2638.620288  	-0.001362 
2640.549104  	-0.001281 
2642.477920  	-0.001153 
2644.406736  	-0.001170 
2646.335552  	-0.001143 
2648.264368  	-0.001060 
2650.193184  	-0.000908 
2652.122000  	-0.000765 
2654.050816  	-0.000728 
2655.979632  	-0.000708 
2657.908448  	-0.000633 
2659.837264  	-0.000521 
2661.766080  	-0.000478 
2663.694896  	-0.000481 
2665.623712  	-0.000300 
2667.552528  	-0.000183 
2669.481344  	-0.000267 
2671.410160  	-0.000244 
2673.338976  	-0.000099 
2675.267792  	-0.000037 
2677.196608  	0.000107 
2679.125424  	0.000328 
2681.054240  	0.000462 
2682.983056  	0.000562 
2684.911872  	0.000632 
2686.840688  	0.000633 
2688.769504  	0.000667 
2690.698320  	0.000721 
2692.627136  	0.000792 
2694.555952  	0.000820 
2696.484768  	0.000917 
2698.413584  	0.000998 
2700.342400  	0.001022 
2702.271216  	0.001196 
2704.200032  	0.001326 
2706.128848  	0.001401 
2708.057664  	0.001505 
2709.986480  	0.001522 
2711.915296  	0.001618 
2713.844112  	0.001708 
2715.772928  	0.001705 
2717.701744  	0.001765 
2719.630560  	0.001969 
2721.559376  	0.002146 
2723.488192  	0.002275 
2725.417008  	0.002354 
2727.345824  	0.002367 
2729.274640  	0.002522 
2731.203456  	0.002535 
2733.132272  	0.002569 
2735.061088  	0.002792 
2736.989904  	0.002854 
2738.918720  	0.002899 
2740.847536  	0.002984 
2742.776352  	0.003148 
2744.705168  	0.003216 
2746.633984  	0.003273 
2748.562800  	0.003424 
2750.491616  	0.003404 
2752.420432  	0.003376 
2754.349248  	0.003320 
2756.278064  	0.003276 
2758.206880  	0.003314 
2760.135696  	0.003388 
2762.064512  	0.003376 
2763.993328  	0.003335 
2765.922144  	0.003326 
2767.850960  	0.003364 
2769.779776  	0.003410 
2771.708592  	0.003415 
2773.637408  	0.003306 
2775.566224  	0.003310 
2777.495040  	0.003344 
2779.423856  	0.003391 
2781.352672  	0.003484 
2783.281488  	0.003537 
2785.210304  	0.003538 
2787.139120  	0.003553 
2789.067936  	0.003534 
2790.996752  	0.003653 
2792.925568  	0.003679 
2794.854384  	0.003534 
2796.783200  	0.003556 
2798.712016  	0.003622 
2800.640832  	0.003569 
2802.569648  	0.003696 
2804.498464  	0.003854 
2806.427280  	0.003864 
2808.356096  	0.003865 
2810.284912  	0.003833 
2812.213728  	0.003740 
2814.142544  	0.003804 
2816.071360  	0.003879 
2818.000176  	0.003873 
2819.928992  	0.003870 
2821.857808  	0.003877 
2823.786624  	0.003857 
2825.715440  	0.003909 
2827.644256  	0.003927 
2829.573072  	0.003880 
2831.501888  	0.003891 
2833.430704  	0.003904 
2835.359520  	0.003859 
2837.288336  	0.003799 
2839.217152  	0.003784 
2841.145968  	0.003699 
2843.074784  	0.003627 
2845.003600  	0.003627 
2846.932416  	0.003600 
2848.861232  	0.003812 
2850.790048  	0.003849 
2852.718864  	0.003809 
2854.647680  	0.003801 
2856.576496  	0.003912 
2858.505312  	0.003950 
2860.434128  	0.004036 
2862.362944  	0.004046 
2864.291760  	0.003993 
2866.220576  	0.004058 
2868.149392  	0.004106 
2870.078208  	0.004118 
2872.007024  	0.004301 
2873.935840  	0.004541 
2875.864656  	0.004758 
2877.793472  	0.004900 
2879.722288  	0.005130 
2881.651104  	0.005269 
2883.579920  	0.005473 
2885.508736  	0.005666 
2887.437552  	0.005767 
2889.366368  	0.005755 
2891.295184  	0.005782 
2893.224000  	0.005832 
2895.152816  	0.005894 
2897.081632  	0.005897 
2899.010448  	0.005689 
2900.939264  	0.005428 
2902.868080  	0.005610 
2904.796896  	0.005954 
2906.725712  	0.006066 
2908.654528  	0.006217 
2910.583344  	0.006491 
2912.512160  	0.006741 
2914.440976  	0.007031 
2916.369792  	0.007486 
2918.298608  	0.007663 
2920.227424  	0.007821 
2922.156240  	0.008204 
2924.085056  	0.008590 
2926.013872  	0.008806 
2927.942688  	0.009264 
2929.871504  	0.009882 
2931.800320  	0.010232 
2933.729136  	0.010569 
2935.657952  	0.011011 
2937.586768  	0.011319 
2939.515584  	0.011507 
2941.444400  	0.011720 
2943.373216  	0.011997 
2945.302032  	0.012368 
2947.230848  	0.012486 
2949.159664  	0.012296 
2951.088480  	0.012168 
2953.017296  	0.012214 
2954.946112  	0.012062 
2956.874928  	0.011798 
2958.803744  	0.011645 
2960.732560  	0.011597 
2962.661376  	0.011522 
2964.590192  	0.011371 
2966.519008  	0.011293 
2968.447824  	0.010968 
2970.376640  	0.010750 
2972.305456  	0.010641 
2974.234272  	0.010739 
2976.163088  	0.010763 
2978.091904  	0.010612 
2980.020720  	0.010530 
2981.949536  	0.010577 
2983.878352  	0.010473 
2985.807168  	0.010321 
2987.735984  	0.010289 
2989.664800  	0.010415 
2991.593616  	0.010865 
2993.522432  	0.011184 
2995.451248  	0.011307 
2997.380064  	0.011479 
2999.308880  	0.011829 
3001.237696  	0.012204 
3003.166512  	0.012633 
3005.095328  	0.012917 
3007.024144  	0.013055 
3008.952960  	0.013522 
3010.881776  	0.014127 
3012.810592  	0.014641 
3014.739408  	0.014889 
3016.668224  	0.015126 
3018.597040  	0.015263 
3020.525856  	0.015514 
3022.454672  	0.015834 
3024.383488  	0.016326 
3026.312304  	0.016881 
3028.241120  	0.017101 
3030.169936  	0.017634 
3032.098752  	0.018325 
3034.027568  	0.018500 
3035.956384  	0.018608 
3037.885200  	0.018812 
3039.814016  	0.019203 
3041.742832  	0.019540 
3043.671648  	0.019894 
3045.600464  	0.020172 
3047.529280  	0.020572 
3049.458096  	0.021064 
3051.386912  	0.021222 
3053.315728  	0.021443 
3055.244544  	0.021966 
3057.173360  	0.022546 
3059.102176  	0.022865 
3061.030992  	0.023224 
3062.959808  	0.023705 
3064.888624  	0.024369 
3066.817440  	0.024956 
3068.746256  	0.025349 
3070.675072  	0.025577 
3072.603888  	0.025973 
3074.532704  	0.026559 
3076.461520  	0.026972 
3078.390336  	0.027440 
3080.319152  	0.028099 
3082.247968  	0.028578 
3084.176784  	0.028896 
3086.105600  	0.029326 
3088.034416  	0.029860 
3089.963232  	0.030000 
3091.892048  	0.030333 
3093.820864  	0.030824 
3095.749680  	0.031592 
3097.678496  	0.032190 
3099.607312  	0.032676 
3101.536128  	0.033393 
3103.464944  	0.033699 
3105.393760  	0.033880 
3107.322576  	0.034280 
3109.251392  	0.034656 
3111.180208  	0.034952 
3113.109024  	0.035309 
3115.037840  	0.035892 
3116.966656  	0.036530 
3118.895472  	0.036884 
3120.824288  	0.037161 
3122.753104  	0.037595 
3124.681920  	0.037809 
3126.610736  	0.037987 
3128.539552  	0.038191 
3130.468368  	0.038331 
3132.397184  	0.038896 
3134.326000  	0.039330 
3136.254816  	0.039341 
3138.183632  	0.039552 
3140.112448  	0.039844 
3142.041264  	0.040336 
3143.970080  	0.040688 
3145.898896  	0.040803 
3147.827712  	0.041147 
3149.756528  	0.041575 
3151.685344  	0.041838 
3153.614160  	0.042075 
3155.542976  	0.042396 
3157.471792  	0.042805 
3159.400608  	0.043233 
3161.329424  	0.043547 
3163.258240  	0.043908 
3165.187056  	0.044253 
3167.115872  	0.044313 
3169.044688  	0.044516 
3170.973504  	0.044861 
3172.902320  	0.044944 
3174.831136  	0.044964 
3176.759952  	0.045200 
3178.688768  	0.045727 
3180.617584  	0.045809 
3182.546400  	0.045776 
3184.475216  	0.045864 
3186.404032  	0.046042 
3188.332848  	0.045991 
3190.261664  	0.045852 
3192.190480  	0.045781 
3194.119296  	0.045896 
3196.048112  	0.045812 
3197.976928  	0.046120 
3199.905744  	0.046245 
3201.834560  	0.046063 
3203.763376  	0.045815 
3205.692192  	0.045558 
3207.621008  	0.045452 
3209.549824  	0.045786 
3211.478640  	0.045758 
3213.407456  	0.045475 
3215.336272  	0.045632 
3217.265088  	0.045473 
3219.193904  	0.045578 
3221.122720  	0.045705 
3223.051536  	0.045144 
3224.980352  	0.044698 
3226.909168  	0.044711 
3228.837984  	0.044823 
3230.766800  	0.044662 
3232.695616  	0.044645 
3234.624432  	0.044581 
3236.553248  	0.044739 
3238.482064  	0.044838 
3240.410880  	0.044559 
3242.339696  	0.044477 
3244.268512  	0.044767 
3246.197328  	0.044976 
3248.126144  	0.044541 
3250.054960  	0.044564 
3251.983776  	0.044816 
3253.912592  	0.045228 
3255.841408  	0.045274 
3257.770224  	0.045195 
3259.699040  	0.045267 
3261.627856  	0.045144 
3263.556672  	0.045010 
3265.485488  	0.045434 
3267.414304  	0.045634 
3269.343120  	0.045520 
3271.271936  	0.045470 
3273.200752  	0.045670 
3275.129568  	0.045974 
3277.058384  	0.046038 
3278.987200  	0.045902 
3280.916016  	0.045940 
3282.844832  	0.045941 
3284.773648  	0.046058 
3286.702464  	0.046139 
3288.631280  	0.046242 
3290.560096  	0.046210 
3292.488912  	0.046327 
3294.417728  	0.046449 
3296.346544  	0.046520 
3298.275360  	0.046577 
3300.204176  	0.046539 
3302.132992  	0.046370 
3304.061808  	0.046574 
3305.990624  	0.046720 
3307.919440  	0.047043 
3309.848256  	0.047480 
3311.777072  	0.047453 
3313.705888  	0.047399 
3315.634704  	0.047388 
3317.563520  	0.047497 
3319.492336  	0.047653 
3321.421152  	0.047769 
3323.349968  	0.047867 
3325.278784  	0.047965 
3327.207600  	0.048036 
3329.136416  	0.047883 
3331.065232  	0.047804 
3332.994048  	0.047800 
3334.922864  	0.048034 
3336.851680  	0.048242 
3338.780496  	0.047964 
3340.709312  	0.047484 
3342.638128  	0.047509 
3344.566944  	0.047406 
3346.495760  	0.047069 
3348.424576  	0.046960 
3350.353392  	0.046822 
3352.282208  	0.046332 
3354.211024  	0.046219 
3356.139840  	0.046398 
3358.068656  	0.046127 
3359.997472  	0.045932 
3361.926288  	0.045917 
3363.855104  	0.045525 
3365.783920  	0.045315 
3367.712736  	0.045080 
3369.641552  	0.044709 
3371.570368  	0.044347 
3373.499184  	0.044288 
3375.428000  	0.044239 
3377.356816  	0.044113 
3379.285632  	0.043968 
3381.214448  	0.043612 
3383.143264  	0.043489 
3385.072080  	0.043662 
3387.000896  	0.043103 
3388.929712  	0.042498 
3390.858528  	0.042291 
3392.787344  	0.042864 
3394.716160  	0.042503 
3396.644976  	0.042314 
3398.573792  	0.042152 
3400.502608  	0.041224 
3402.431424  	0.040786 
3404.360240  	0.040718 
3406.289056  	0.040358 
3408.217872  	0.039934 
3410.146688  	0.039723 
3412.075504  	0.039265 
3414.004320  	0.038939 
3415.933136  	0.038730 
3417.861952  	0.038458 
3419.790768  	0.039091 
3421.719584  	0.039523 
3423.648400  	0.038280 
3425.577216  	0.037072 
3427.506032  	0.036812 
3429.434848  	0.036735 
3431.363664  	0.036764 
3433.292480  	0.036290 
3435.221296  	0.035635 
3437.150112  	0.035236 
3439.078928  	0.034818 
3441.007744  	0.034577 
3442.936560  	0.034865 
3444.865376  	0.034267 
3446.794192  	0.035163 
3448.723008  	0.035134 
3450.651824  	0.033258 
3452.580640  	0.032574 
3454.509456  	0.032040 
3456.438272  	0.031743 
3458.367088  	0.031539 
3460.295904  	0.031470 
3462.224720  	0.031507 
3464.153536  	0.030658 
3466.082352  	0.029795 
3468.011168  	0.029715 
3469.939984  	0.029132 
3471.868800  	0.028269 
3473.797616  	0.027713 
3475.726432  	0.027654 
3477.655248  	0.026801 
3479.584064  	0.026384 
3481.512880  	0.027180 
3483.441696  	0.027030 
3485.370512  	0.025457 
3487.299328  	0.025129 
3489.228144  	0.024775 
3491.156960  	0.023650 
3493.085776  	0.023128 
3495.014592  	0.023130 
3496.943408  	0.023123 
3498.872224  	0.022196 
3500.801040  	0.022242 
3502.729856  	0.023926 
3504.658672  	0.023568 
3506.587488  	0.020921 
3508.516304  	0.020756 
3510.445120  	0.021495 
3512.373936  	0.020000 
3514.302752  	0.018891 
3516.231568  	0.018347 
3518.160384  	0.018142 
3520.089200  	0.017547 
3522.018016  	0.018122 
3523.946832  	0.019954 
3525.875648  	0.019436 
3527.804464  	0.019057 
3529.733280  	0.018251 
3531.662096  	0.016281 
3533.590912  	0.014609 
3535.519728  	0.014969 
3537.448544  	0.015195 
3539.377360  	0.013478 
3541.306176  	0.012680 
3543.234992  	0.013780 
3545.163808  	0.016606 
3547.092624  	0.017118 
3549.021440  	0.013864 
3550.950256  	0.012322 
3552.879072  	0.013723 
3554.807888  	0.011977 
3556.736704  	0.009907 
3558.665520  	0.010061 
3560.594336  	0.010884 
3562.523152  	0.010306 
3564.451968  	0.011146 
3566.380784  	0.016931 
3568.309600  	0.018485 
3570.238416  	0.011793 
3572.167232  	0.007850 
3574.096048  	0.007046 
3576.024864  	0.007012 
3577.953680  	0.006544 
3579.882496  	0.006285 
3581.811312  	0.005356 
3583.740128  	0.004605 
3585.668944  	0.006128 
3587.597760  	0.011858 
3589.526576  	0.009241 
3591.455392  	0.003641 
3593.384208  	0.003851 
3595.313024  	0.005662 
3597.241840  	0.004353 
3599.170656  	0.002901 
3601.099472  	0.002901 
3603.028288  	0.001297 
3604.957104  	-0.000589 
3606.885920  	0.001224 
3608.814736  	0.003832 
3610.743552  	0.001803 
3612.672368  	0.002332 
3614.601184  	0.002979 
3616.530000  	0.000227 
3618.458816  	0.002020 
3620.387632  	0.002808 
3622.316448  	-0.001935 
3624.245264  	-0.004945 
3626.174080  	-0.005129 
3628.102896  	-0.000906 
3630.031712  	0.003726 
3631.960528  	-0.002953 
3633.889344  	-0.005356 
3635.818160  	-0.006944 
3637.746976  	-0.008280 
3639.675792  	-0.008752 
3641.604608  	-0.008880 
3643.533424  	-0.009320 
3645.462240  	-0.009579 
3647.391056  	-0.004409 
3649.319872  	0.001181 
3651.248688  	-0.000899 
3653.177504  	-0.009031 
3655.106320  	-0.011534 
3657.035136  	-0.009815 
3658.963952  	-0.012053 
3660.892768  	-0.013589 
3662.821584  	-0.014326 
3664.750400  	-0.014822 
3666.679216  	-0.015211 
3668.608032  	-0.012887 
3670.536848  	-0.007965 
3672.465664  	-0.011234 
3674.394480  	-0.011052 
3676.323296  	-0.005085 
3678.252112  	-0.009771 
3680.180928  	-0.012624 
3682.109744  	-0.014916 
3684.038560  	-0.015760 
3685.967376  	-0.016233 
3687.896192  	-0.013338 
3689.825008  	-0.008634 
3691.753824  	-0.010214 
3693.682640  	-0.013791 
3695.611456  	-0.015400 
3697.540272  	-0.015979 
3699.469088  	-0.016877 
3701.397904  	-0.014914 
3703.326720  	-0.014197 
3705.255536  	-0.015807 
3707.184352  	-0.016075 
3709.113168  	-0.014215 
3711.041984  	-0.009491 
3712.970800  	-0.008899 
3714.899616  	-0.012942 
3716.828432  	-0.015568 
3718.757248  	-0.015101 
3720.686064  	-0.014343 
3722.614880  	-0.012642 
3724.543696  	-0.011830 
3726.472512  	-0.011076 
3728.401328  	-0.013620 
3730.330144  	-0.016135 
3732.258960  	-0.013476 
3734.187776  	-0.007533 
3736.116592  	-0.002990 
3738.045408  	-0.008198 
3739.974224  	-0.012070 
3741.903040  	-0.013878 
3743.831856  	-0.011936 
3745.760672  	-0.007859 
3747.689488  	-0.011256 
3749.618304  	-0.009049 
3751.547120  	-0.005539 
3753.475936  	-0.008926 
3755.404752  	-0.013192 
3757.333568  	-0.013387 
3759.262384  	-0.012054 
3761.191200  	-0.013408 
3763.120016  	-0.016111 
3765.048832  	-0.014691 
3766.977648  	-0.014149 
3768.906464  	-0.014175 
3770.835280  	-0.013016 
3772.764096  	-0.015423 
3774.692912  	-0.016994 
3776.621728  	-0.017235 
3778.550544  	-0.015663 
3780.479360  	-0.014330 
3782.408176  	-0.016123 
3784.336992  	-0.015403 
3786.265808  	-0.015138 
3788.194624  	-0.016528 
3790.123440  	-0.016970 
3792.052256  	-0.017161 
3793.981072  	-0.017804 
3795.909888  	-0.015541 
3797.838704  	-0.013445 
3799.767520  	-0.014345 
3801.696336  	-0.009936 
3803.625152  	-0.011978 
3805.553968  	-0.015275 
3807.482784  	-0.013081 
3809.411600  	-0.015104 
3811.340416  	-0.017044 
3813.269232  	-0.017747 
3815.198048  	-0.015121 
3817.126864  	-0.011744 
3819.055680  	-0.013593 
3820.984496  	-0.009872 
3822.913312  	-0.010441 
3824.842128  	-0.014521 
3826.770944  	-0.014113 
3828.699760  	-0.015139 
3830.628576  	-0.015915 
3832.557392  	-0.014864 
3834.486208  	-0.015008 
3836.415024  	-0.013659 
3838.343840  	-0.009973 
3840.272656  	-0.008850 
3842.201472  	-0.011476 
3844.130288  	-0.012690 
3846.059104  	-0.014899 
3847.987920  	-0.016527 
3849.916736  	-0.016179 
3851.845552  	-0.013504 
3853.774368  	-0.005100 
3855.703184  	-0.007697 
3857.632000  	-0.012087 
3859.560816  	-0.015223 
3861.489632  	-0.014704 
3863.418448  	-0.012188 
3865.347264  	-0.010787 
3867.276080  	-0.014078 
3869.204896  	-0.012171 
3871.133712  	-0.009179 
3873.062528  	-0.012324 
3874.991344  	-0.012556 
3876.920160  	-0.016032 
3878.848976  	-0.016076 
3880.777792  	-0.011458 
3882.706608  	-0.012320 
3884.635424  	-0.013215 
3886.564240  	-0.011999 
3888.493056  	-0.015933 
3890.421872  	-0.015459 
3892.350688  	-0.012431 
3894.279504  	-0.014487 
3896.208320  	-0.016530 
3898.137136  	-0.014911 
3900.065952  	-0.011475 
3901.994768  	-0.010282 
3903.923584  	-0.008966 
3905.852400  	-0.010720 
3907.781216  	-0.015231 
3909.710032  	-0.017605 
3911.638848  	-0.018022 
3913.567664  	-0.017912 
3915.496480  	-0.016226 
3917.425296  	-0.013438 
3919.354112  	-0.013702 
3921.282928  	-0.014747 
3923.211744  	-0.014571 
3925.140560  	-0.013453 
3927.069376  	-0.015676 
3928.998192  	-0.016072 
3930.927008  	-0.014021 
3932.855824  	-0.013065 
3934.784640  	-0.015339 
3936.713456  	-0.016940 
3938.642272  	-0.016989 
3940.571088  	-0.016646 
3942.499904  	-0.014169 
3944.428720  	-0.014416 
3946.357536  	-0.016017 
3948.286352  	-0.014567 
3950.215168  	-0.014770 
3952.143984  	-0.016476 
3954.072800  	-0.017247 
3956.001616  	-0.016964 
3957.930432  	-0.016595 
3959.859248  	-0.016464 
3961.788064  	-0.016144 
3963.716880  	-0.016605 
3965.645696  	-0.017553 
3967.574512  	-0.017627 
3969.503328  	-0.017350 
3971.432144  	-0.017159 
3973.360960  	-0.016665 
3975.289776  	-0.015980 
3977.218592  	-0.016482 
3979.147408  	-0.017321 
3981.076224  	-0.017318 
3983.005040  	-0.017245 
3984.933856  	-0.017333 
3986.862672  	-0.017307 
3988.791488  	-0.017219 
3990.720304  	-0.016729 
3992.649120  	-0.017054 
3994.577936  	-0.017381 
3996.506752  	-0.017578 
3998.435568  	-0.017796 
4000.364384  	-0.017772 