##TITLE=No Description
##DATA TYPE=INFRARED SPECTRUM
##XUNITS=1/CM
##YUNITS=Abs
399.264912  	0.616809 
401.193728  	0.613511 
403.122544  	0.641729 
405.051360  	0.638781 
406.980176  	0.627418 
408.908992  	0.603622 
410.837808  	0.598299 
412.766624  	0.604982 
414.695440  	0.608608 
416.624256  	0.602199 
418.553072  	0.596575 
420.481888  	0.572783 
422.410704  	0.574997 
424.339520  	0.577923 
426.268336  	0.588385 
428.197152  	0.580498 
430.125968  	0.579149 
432.054784  	0.572293 
433.983600  	0.573444 
435.912416  	0.570830 
437.841232  	0.570987 
439.770048  	0.565842 
441.698864  	0.562366 
443.627680  	0.555906 
445.556496  	0.551255 
447.485312  	0.548667 
449.414128  	0.552911 
451.342944  	0.550393 
453.271760  	0.550341 
455.200576  	0.545667 
457.129392  	0.547219 
459.058208  	0.545049 
460.987024  	0.547449 
462.915840  	0.544583 
464.844656  	0.547652 
466.773472  	0.538943 
468.702288  	0.539448 
470.631104  	0.539146 
472.559920  	0.538416 
474.488736  	0.537004 
476.417552  	0.539716 
478.346368  	0.535191 
480.275184  	0.532861 
482.204000  	0.529815 
484.132816  	0.527718 
486.061632  	0.527612 
487.990448  	0.532079 
489.919264  	0.528564 
491.848080  	0.526795 
493.776896  	0.523453 
495.705712  	0.520786 
497.634528  	0.518146 
499.563344  	0.519871 
501.492160  	0.517487 
503.420976  	0.517315 
505.349792  	0.516593 
507.278608  	0.520352 
509.207424  	0.519563 
511.136240  	0.520803 
513.065056  	0.520550 
514.993872  	0.523104 
516.922688  	0.522285 
518.851504  	0.521402 
520.780320  	0.518645 
522.709136  	0.519158 
524.637952  	0.517887 
526.566768  	0.518095 
528.495584  	0.515631 
530.424400  	0.515243 
532.353216  	0.510084 
534.282032  	0.506850 
536.210848  	0.501952 
538.139664  	0.498547 
540.068480  	0.493522 
541.997296  	0.489435 
543.926112  	0.485465 
545.854928  	0.482338 
547.783744  	0.478450 
549.712560  	0.475635 
551.641376  	0.472777 
553.570192  	0.470608 
555.499008  	0.466169 
557.427824  	0.464443 
559.356640  	0.460546 
561.285456  	0.457545 
563.214272  	0.454824 
565.143088  	0.451802 
567.071904  	0.448418 
569.000720  	0.445602 
570.929536  	0.442020 
572.858352  	0.439851 
574.787168  	0.438214 
576.715984  	0.437187 
578.644800  	0.433721 
580.573616  	0.429879 
582.502432  	0.425195 
584.431248  	0.422300 
586.360064  	0.419152 
588.288880  	0.417463 
590.217696  	0.414821 
592.146512  	0.412256 
594.075328  	0.408934 
596.004144  	0.407316 
597.932960  	0.405837 
599.861776  	0.404046 
601.790592  	0.401386 
603.719408  	0.399335 
605.648224  	0.397140 
607.577040  	0.395877 
609.505856  	0.394098 
611.434672  	0.392434 
613.363488  	0.390216 
615.292304  	0.389151 
617.221120  	0.387327 
619.149936  	0.386457 
621.078752  	0.384195 
623.007568  	0.383095 
624.936384  	0.381466 
626.865200  	0.379357 
628.794016  	0.377740 
630.722832  	0.376968 
632.651648  	0.375586 
634.580464  	0.374836 
636.509280  	0.373867 
638.438096  	0.373099 
640.366912  	0.371701 
642.295728  	0.369973 
644.224544  	0.367022 
646.153360  	0.363568 
648.082176  	0.359425 
650.010992  	0.356458 
651.939808  	0.352274 
653.868624  	0.348298 
655.797440  	0.345093 
657.726256  	0.342262 
659.655072  	0.338470 
661.583888  	0.334934 
663.512704  	0.331636 
665.441520  	0.329309 
667.370336  	0.322963 
669.299152  	0.316879 
671.227968  	0.315816 
673.156784  	0.313030 
675.085600  	0.310317 
677.014416  	0.307774 
678.943232  	0.304963 
680.872048  	0.303552 
682.800864  	0.302338 
684.729680  	0.300364 
686.658496  	0.298370 
688.587312  	0.296943 
690.516128  	0.295032 
692.444944  	0.293391 
694.373760  	0.292369 
696.302576  	0.290949 
698.231392  	0.288371 
700.160208  	0.285571 
702.089024  	0.283415 
704.017840  	0.281511 
705.946656  	0.278826 
707.875472  	0.276518 
709.804288  	0.274422 
711.733104  	0.272546 
713.661920  	0.270344 
715.590736  	0.268800 
717.519552  	0.267571 
719.448368  	0.266476 
721.377184  	0.265491 
723.306000  	0.265191 
725.234816  	0.264569 
727.163632  	0.263527 
729.092448  	0.261663 
731.021264  	0.259271 
732.950080  	0.256336 
734.878896  	0.253309 
736.807712  	0.250326 
738.736528  	0.247932 
740.665344  	0.245607 
742.594160  	0.243694 
744.522976  	0.241888 
746.451792  	0.240058 
748.380608  	0.238051 
750.309424  	0.236681 
752.238240  	0.235617 
754.167056  	0.234604 
756.095872  	0.232668 
758.024688  	0.230767 
759.953504  	0.229624 
761.882320  	0.229398 
763.811136  	0.229117 
765.739952  	0.228184 
767.668768  	0.225718 
769.597584  	0.222792 
771.526400  	0.220933 
773.455216  	0.221356 
775.384032  	0.223040 
777.312848  	0.225395 
779.241664  	0.227336 
781.170480  	0.227036 
783.099296  	0.223605 
785.028112  	0.218837 
786.956928  	0.213902 
788.885744  	0.209644 
790.814560  	0.206296 
792.743376  	0.203801 
794.672192  	0.202071 
796.601008  	0.200727 
798.529824  	0.197922 
800.458640  	0.193953 
802.387456  	0.190519 
804.316272  	0.188420 
806.245088  	0.186811 
808.173904  	0.185472 
810.102720  	0.184174 
812.031536  	0.183382 
813.960352  	0.182988 
815.889168  	0.182245 
817.817984  	0.181630 
819.746800  	0.181043 
821.675616  	0.180211 
823.604432  	0.179418 
825.533248  	0.178463 
827.462064  	0.177493 
829.390880  	0.176208 
831.319696  	0.174592 
833.248512  	0.172619 
835.177328  	0.170467 
837.106144  	0.168145 
839.034960  	0.165397 
840.963776  	0.162133 
842.892592  	0.158863 
844.821408  	0.155887 
846.750224  	0.153127 
848.679040  	0.150506 
850.607856  	0.148265 
852.536672  	0.146475 
854.465488  	0.144568 
856.394304  	0.142836 
858.323120  	0.141158 
860.251936  	0.139228 
862.180752  	0.137026 
864.109568  	0.134359 
866.038384  	0.132112 
867.967200  	0.130107 
869.896016  	0.128083 
871.824832  	0.126703 
873.753648  	0.125981 
875.682464  	0.126006 
877.611280  	0.126054 
879.540096  	0.126281 
881.468912  	0.127322 
883.397728  	0.127850 
885.326544  	0.128360 
887.255360  	0.128344 
889.184176  	0.127219 
891.112992  	0.125446 
893.041808  	0.124084 
894.970624  	0.122072 
896.899440  	0.119275 
898.828256  	0.116129 
900.757072  	0.113180 
902.685888  	0.110608 
904.614704  	0.108953 
906.543520  	0.108612 
908.472336  	0.109242 
910.401152  	0.110717 
912.329968  	0.112378 
914.258784  	0.114170 
916.187600  	0.115930 
918.116416  	0.117457 
920.045232  	0.118626 
921.974048  	0.119207 
923.902864  	0.119188 
925.831680  	0.118704 
927.760496  	0.118365 
929.689312  	0.118396 
931.618128  	0.118828 
933.546944  	0.118857 
935.475760  	0.118892 
937.404576  	0.118523 
939.333392  	0.117622 
941.262208  	0.117106 
943.191024  	0.117370 
945.119840  	0.119266 
947.048656  	0.122762 
948.977472  	0.127461 
950.906288  	0.133170 
952.835104  	0.139788 
954.763920  	0.147133 
956.692736  	0.154306 
958.621552  	0.160711 
960.550368  	0.165338 
962.479184  	0.167795 
964.408000  	0.167578 
966.336816  	0.164645 
968.265632  	0.158800 
970.194448  	0.150755 
972.123264  	0.141374 
974.052080  	0.131251 
975.980896  	0.121119 
977.909712  	0.111452 
979.838528  	0.102834 
981.767344  	0.095585 
983.696160  	0.089763 
985.624976  	0.085776 
987.553792  	0.083735 
989.482608  	0.083403 
991.411424  	0.084739 
993.340240  	0.087389 
995.269056  	0.090917 
997.197872  	0.094992 
999.126688  	0.099172 
1001.055504  	0.103210 
1002.984320  	0.107234 
1004.913136  	0.111440 
1006.841952  	0.115665 
1008.770768  	0.119120 
1010.699584  	0.121514 
1012.628400  	0.122830 
1014.557216  	0.123339 
1016.486032  	0.123184 
1018.414848  	0.122836 
1020.343664  	0.122442 
1022.272480  	0.121768 
1024.201296  	0.120517 
1026.130112  	0.117239 
1028.058928  	0.115613 
1029.987744  	0.117921 
1031.916560  	0.119105 
1033.845376  	0.119232 
1035.774192  	0.119128 
1037.703008  	0.120049 
1039.631824  	0.123825 
1041.560640  	0.129325 
1043.489456  	0.136786 
1045.418272  	0.146572 
1047.347088  	0.157871 
1049.275904  	0.168762 
1051.204720  	0.177939 
1053.133536  	0.184385 
1055.062352  	0.187974 
1056.991168  	0.188925 
1058.919984  	0.191288 
1060.848800  	0.193566 
1062.777616  	0.192320 
1064.706432  	0.187390 
1066.635248  	0.183782 
1068.564064  	0.184339 
1070.492880  	0.181942 
1072.421696  	0.176507 
1074.350512  	0.172391 
1076.279328  	0.171245 
1078.208144  	0.173341 
1080.136960  	0.177750 
1082.065776  	0.183337 
1083.994592  	0.187862 
1085.923408  	0.190644 
1087.852224  	0.191133 
1089.781040  	0.189478 
1091.709856  	0.186755 
1093.638672  	0.181838 
1095.567488  	0.174079 
1097.496304  	0.165318 
1099.425120  	0.155883 
1101.353936  	0.145953 
1103.282752  	0.136507 
1105.211568  	0.127366 
1107.140384  	0.118463 
1109.069200  	0.110011 
1110.998016  	0.102210 
1112.926832  	0.095190 
1114.855648  	0.089033 
1116.784464  	0.083182 
1118.713280  	0.077465 
1120.642096  	0.072093 
1122.570912  	0.067127 
1124.499728  	0.062160 
1126.428544  	0.057805 
1128.357360  	0.054069 
1130.286176  	0.051026 
1132.214992  	0.048383 
1134.143808  	0.046044 
1136.072624  	0.044262 
1138.001440  	0.042836 
1139.930256  	0.041042 
1141.859072  	0.039198 
1143.787888  	0.037369 
1145.716704  	0.035708 
1147.645520  	0.034019 
1149.574336  	0.032562 
1151.503152  	0.031214 
1153.431968  	0.030733 
1155.360784  	0.030755 
1157.289600  	0.031123 
1159.218416  	0.031989 
1161.147232  	0.033407 
1163.076048  	0.034768 
1165.004864  	0.036276 
1166.933680  	0.037702 
1168.862496  	0.039284 
1170.791312  	0.040942 
1172.720128  	0.042905 
1174.648944  	0.044836 
1176.577760  	0.046698 
1178.506576  	0.048318 
1180.435392  	0.050256 
1182.364208  	0.052039 
1184.293024  	0.054217 
1186.221840  	0.056465 
1188.150656  	0.059041 
1190.079472  	0.062077 
1192.008288  	0.065759 
1193.937104  	0.070367 
1195.865920  	0.075702 
1197.794736  	0.081160 
1199.723552  	0.087524 
1201.652368  	0.094060 
1203.581184  	0.100427 
1205.510000  	0.106802 
1207.438816  	0.113143 
1209.367632  	0.119088 
1211.296448  	0.124224 
1213.225264  	0.128494 
1215.154080  	0.131877 
1217.082896  	0.134354 
1219.011712  	0.136070 
1220.940528  	0.137392 
1222.869344  	0.138372 
1224.798160  	0.138665 
1226.726976  	0.138359 
1228.655792  	0.137899 
1230.584608  	0.137018 
1232.513424  	0.135727 
1234.442240  	0.133955 
1236.371056  	0.131747 
1238.299872  	0.128661 
1240.228688  	0.123239 
1242.157504  	0.117786 
1244.086320  	0.113684 
1246.015136  	0.108283 
1247.943952  	0.101858 
1249.872768  	0.095424 
1251.801584  	0.090222 
1253.730400  	0.084988 
1255.659216  	0.079609 
1257.588032  	0.074554 
1259.516848  	0.069778 
1261.445664  	0.065368 
1263.374480  	0.061437 
1265.303296  	0.058153 
1267.232112  	0.055449 
1269.160928  	0.053383 
1271.089744  	0.051790 
1273.018560  	0.050891 
1274.947376  	0.050666 
1276.876192  	0.051006 
1278.805008  	0.051029 
1280.733824  	0.050200 
1282.662640  	0.048658 
1284.591456  	0.046849 
1286.520272  	0.045212 
1288.449088  	0.044054 
1290.377904  	0.043265 
1292.306720  	0.043272 
1294.235536  	0.043406 
1296.164352  	0.042809 
1298.093168  	0.041013 
1300.021984  	0.038812 
1301.950800  	0.036464 
1303.879616  	0.034264 
1305.808432  	0.031988 
1307.737248  	0.029742 
1309.666064  	0.027478 
1311.594880  	0.026031 
1313.523696  	0.024936 
1315.452512  	0.024061 
1317.381328  	0.023510 
1319.310144  	0.023316 
1321.238960  	0.023200 
1323.167776  	0.023513 
1325.096592  	0.024013 
1327.025408  	0.024438 
1328.954224  	0.024424 
1330.883040  	0.024095 
1332.811856  	0.023338 
1334.740672  	0.022989 
1336.669488  	0.023322 
1338.598304  	0.023966 
1340.527120  	0.022693 
1342.455936  	0.020660 
1344.384752  	0.020065 
1346.313568  	0.020225 
1348.242384  	0.020617 
1350.171200  	0.021418 
1352.100016  	0.022516 
1354.028832  	0.024031 
1355.957648  	0.025367 
1357.886464  	0.026785 
1359.815280  	0.028597 
1361.744096  	0.030709 
1363.672912  	0.031350 
1365.601728  	0.031613 
1367.530544  	0.032534 
1369.459360  	0.032826 
1371.388176  	0.032586 
1373.316992  	0.031697 
1375.245808  	0.028866 
1377.174624  	0.026827 
1379.103440  	0.024572 
1381.032256  	0.022031 
1382.961072  	0.020284 
1384.889888  	0.020071 
1386.818704  	0.020199 
1388.747520  	0.018660 
1390.676336  	0.016527 
1392.605152  	0.013637 
1394.533968  	0.012094 
1396.462784  	0.014932 
1398.391600  	0.016046 
1400.320416  	0.014765 
1402.249232  	0.014618 
1404.178048  	0.015027 
1406.106864  	0.015272 
1408.035680  	0.016746 
1409.964496  	0.018938 
1411.893312  	0.021267 
1413.822128  	0.023662 
1415.750944  	0.027193 
1417.679760  	0.029759 
1419.608576  	0.028954 
1421.537392  	0.029195 
1423.466208  	0.029905 
1425.395024  	0.028699 
1427.323840  	0.027900 
1429.252656  	0.026102 
1431.181472  	0.024760 
1433.110288  	0.024881 
1435.039104  	0.025585 
1436.967920  	0.024625 
1438.896736  	0.024769 
1440.825552  	0.025810 
1442.754368  	0.026273 
1444.683184  	0.026511 
1446.612000  	0.026506 
1448.540816  	0.025248 
1450.469632  	0.025525 
1452.398448  	0.026428 
1454.327264  	0.027512 
1456.256080  	0.027084 
1458.184896  	0.024046 
1460.113712  	0.025300 
1462.042528  	0.026886 
1463.971344  	0.026496 
1465.900160  	0.026436 
1467.828976  	0.028774 
1469.757792  	0.031494 
1471.686608  	0.033477 
1473.615424  	0.036903 
1475.544240  	0.042070 
1477.473056  	0.046060 
1479.401872  	0.048978 
1481.330688  	0.051499 
1483.259504  	0.053135 
1485.188320  	0.054575 
1487.117136  	0.054603 
1489.045952  	0.054288 
1490.974768  	0.051614 
1492.903584  	0.050139 
1494.832400  	0.048165 
1496.761216  	0.042849 
1498.690032  	0.038345 
1500.618848  	0.036169 
1502.547664  	0.033892 
1504.476480  	0.030593 
1506.405296  	0.025397 
1508.334112  	0.024871 
1510.262928  	0.025532 
1512.191744  	0.023927 
1514.120560  	0.023207 
1516.049376  	0.022588 
1517.978192  	0.021007 
1519.907008  	0.021870 
1521.835824  	0.021143 
1523.764640  	0.024704 
1525.693456  	0.028587 
1527.622272  	0.030219 
1529.551088  	0.030927 
1531.479904  	0.031197 
1533.408720  	0.027815 
1535.337536  	0.025679 
1537.266352  	0.024580 
1539.195168  	0.017323 
1541.123984  	0.011308 
1543.052800  	0.015370 
1544.981616  	0.016857 
1546.910432  	0.016365 
1548.839248  	0.016946 
1550.768064  	0.016938 
1552.696880  	0.016415 
1554.625696  	0.016135 
1556.554512  	0.015636 
1558.483328  	0.012159 
1560.412144  	0.014971 
1562.340960  	0.021569 
1564.269776  	0.024464 
1566.198592  	0.028155 
1568.127408  	0.030930 
1570.056224  	0.033445 
1571.985040  	0.039250 
1573.913856  	0.043049 
1575.842672  	0.042461 
1577.771488  	0.044572 
1579.700304  	0.047297 
1581.629120  	0.047640 
1583.557936  	0.047239 
1585.486752  	0.047629 
1587.415568  	0.049152 
1589.344384  	0.052122 
1591.273200  	0.056109 
1593.202016  	0.061032 
1595.130832  	0.066234 
1597.059648  	0.071951 
1598.988464  	0.077126 
1600.917280  	0.081606 
1602.846096  	0.084529 
1604.774912  	0.086580 
1606.703728  	0.087093 
1608.632544  	0.086502 
1610.561360  	0.085268 
1612.490176  	0.084508 
1614.418992  	0.082943 
1616.347808  	0.079275 
1618.276624  	0.079595 
1620.205440  	0.084243 
1622.134256  	0.086214 
1624.063072  	0.089205 
1625.991888  	0.094699 
1627.920704  	0.100259 
1629.849520  	0.107484 
1631.778336  	0.115252 
1633.707152  	0.120321 
1635.635968  	0.123996 
1637.564784  	0.132105 
1639.493600  	0.140590 
1641.422416  	0.146066 
1643.351232  	0.150408 
1645.280048  	0.151488 
1647.208864  	0.150198 
1649.137680  	0.153037 
1651.066496  	0.155920 
1652.995312  	0.149130 
1654.924128  	0.148990 
1656.852944  	0.152600 
1658.781760  	0.152594 
1660.710576  	0.150418 
1662.639392  	0.145958 
1664.568208  	0.143289 
1666.497024  	0.142965 
1668.425840  	0.138621 
1670.354656  	0.132052 
1672.283472  	0.130487 
1674.212288  	0.128976 
1676.141104  	0.124378 
1678.069920  	0.124839 
1679.998736  	0.125098 
1681.927552  	0.124104 
1683.856368  	0.118243 
1685.785184  	0.116709 
1687.714000  	0.120567 
1689.642816  	0.120568 
1691.571632  	0.119470 
1693.500448  	0.119586 
1695.429264  	0.115823 
1697.358080  	0.112774 
1699.286896  	0.111803 
1701.215712  	0.106980 
1703.144528  	0.108056 
1705.073344  	0.105192 
1707.002160  	0.100668 
1708.930976  	0.098435 
1710.859792  	0.094332 
1712.788608  	0.089504 
1714.717424  	0.082884 
1716.646240  	0.073567 
1718.575056  	0.062001 
1720.503872  	0.056745 
1722.432688  	0.052055 
1724.361504  	0.044524 
1726.290320  	0.038159 
1728.219136  	0.032970 
1730.147952  	0.028296 
1732.076768  	0.024143 
1734.005584  	0.017606 
1735.934400  	0.013225 
1737.863216  	0.013434 
1739.792032  	0.009975 
1741.720848  	0.009120 
1743.649664  	0.008989 
1745.578480  	0.008093 
1747.507296  	0.006523 
1749.436112  	0.005771 
1751.364928  	0.004814 
1753.293744  	0.004039 
1755.222560  	0.003931 
1757.151376  	0.003341 
1759.080192  	0.002853 
1761.009008  	0.002309 
1762.937824  	0.000836 
1764.866640  	0.001314 
1766.795456  	0.001985 
1768.724272  	0.001505 
1770.653088  	-0.000849 
1772.581904  	-0.003375 
1774.510720  	-0.001798 
1776.439536  	0.000007 
1778.368352  	0.000328 
1780.297168  	0.000041 
1782.225984  	-0.000479 
1784.154800  	-0.000104 
1786.083616  	-0.000663 
1788.012432  	-0.000579 
1789.941248  	-0.000324 
1791.870064  	-0.001684 
1793.798880  	-0.002814 
1795.727696  	-0.001158 
1797.656512  	-0.001467 
1799.585328  	-0.001703 
1801.514144  	-0.001131 
1803.442960  	-0.001293 
1805.371776  	-0.001998 
1807.300592  	-0.001698 
1809.229408  	-0.002197 
1811.158224  	-0.002499 
1813.087040  	-0.002547 
1815.015856  	-0.002294 
1816.944672  	-0.002098 
1818.873488  	-0.002085 
1820.802304  	-0.002259 
1822.731120  	-0.001625 
1824.659936  	-0.002126 
1826.588752  	-0.002692 
1828.517568  	-0.003188 
1830.446384  	-0.003555 
1832.375200  	-0.002875 
1834.304016  	-0.002174 
1836.232832  	-0.002282 
1838.161648  	-0.002339 
1840.090464  	-0.002533 
1842.019280  	-0.001952 
1843.948096  	-0.003024 
1845.876912  	-0.002999 
1847.805728  	-0.002246 
1849.734544  	-0.002325 
1851.663360  	-0.002744 
1853.592176  	-0.002764 
1855.520992  	-0.002937 
1857.449808  	-0.002707 
1859.378624  	-0.002696 
1861.307440  	-0.002627 
1863.236256  	-0.002794 
1865.165072  	-0.002572 
1867.093888  	-0.002760 
1869.022704  	-0.003086 
1870.951520  	-0.003285 
1872.880336  	-0.002999 
1874.809152  	-0.003163 
1876.737968  	-0.003044 
1878.666784  	-0.003289 
1880.595600  	-0.002915 
1882.524416  	-0.003112 
1884.453232  	-0.003107 
1886.382048  	-0.003391 
1888.310864  	-0.003275 
1890.239680  	-0.003563 
1892.168496  	-0.003259 
1894.097312  	-0.003100 
1896.026128  	-0.002846 
1897.954944  	-0.003213 
1899.883760  	-0.002895 
1901.812576  	-0.003082 
1903.741392  	-0.003617 
1905.670208  	-0.003894 
1907.599024  	-0.003291 
1909.527840  	-0.003097 
1911.456656  	-0.003033 
1913.385472  	-0.003214 
1915.314288  	-0.002641 
1917.243104  	-0.002807 
1919.171920  	-0.003174 
1921.100736  	-0.003016 
1923.029552  	-0.002675 
1924.958368  	-0.003139 
1926.887184  	-0.003178 
1928.816000  	-0.003803 
1930.744816  	-0.003813 
1932.673632  	-0.003718 
1934.602448  	-0.003014 
1936.531264  	-0.002672 
1938.460080  	-0.002292 
1940.388896  	-0.002544 
1942.317712  	-0.002373 
1944.246528  	-0.003119 
1946.175344  	-0.002369 
1948.104160  	-0.002672 
1950.032976  	-0.002640 
1951.961792  	-0.002797 
1953.890608  	-0.002446 
1955.819424  	-0.002814 
1957.748240  	-0.002628 
1959.677056  	-0.003114 
1961.605872  	-0.001915 
1963.534688  	-0.001947 
1965.463504  	-0.001650 
1967.392320  	-0.002182 
1969.321136  	-0.002387 
1971.249952  	-0.002118 
1973.178768  	-0.001135 
1975.107584  	-0.001918 
1977.036400  	-0.001109 
1978.965216  	-0.000103 
1980.894032  	-0.000386 
1982.822848  	-0.001412 
1984.751664  	-0.001376 
1986.680480  	-0.001957 
1988.609296  	-0.001438 
1990.538112  	-0.002118 
1992.466928  	-0.001775 
1994.395744  	-0.002868 
1996.324560  	-0.003718 
1998.253376  	-0.003850 
2000.182192  	-0.003267 
2002.111008  	-0.002929 
2004.039824  	-0.001410 
2005.968640  	-0.002711 
2007.897456  	-0.002009 
2009.826272  	-0.001005 
2011.755088  	-0.000337 
2013.683904  	-0.001766 
2015.612720  	-0.001754 
2017.541536  	-0.002334 
2019.470352  	-0.001821 
2021.399168  	-0.003101 
2023.327984  	-0.002911 
2025.256800  	-0.001485 
2027.185616  	-0.000964 
2029.114432  	-0.001628 
2031.043248  	-0.001226 
2032.972064  	-0.001321 
2034.900880  	-0.001375 
2036.829696  	-0.002308 
2038.758512  	-0.001438 
2040.687328  	-0.001496 
2042.616144  	-0.001187 
2044.544960  	-0.001588 
2046.473776  	-0.001300 
2048.402592  	-0.002082 
2050.331408  	-0.001954 
2052.260224  	-0.002127 
2054.189040  	-0.002535 
2056.117856  	-0.003758 
2058.046672  	-0.003426 
2059.975488  	-0.003193 
2061.904304  	-0.002866 
2063.833120  	-0.003047 
2065.761936  	-0.003223 
2067.690752  	-0.003533 
2069.619568  	-0.002893 
2071.548384  	-0.002377 
2073.477200  	-0.002464 
2075.406016  	-0.002560 
2077.334832  	-0.002068 
2079.263648  	-0.002207 
2081.192464  	-0.002142 
2083.121280  	-0.002196 
2085.050096  	-0.002280 
2086.978912  	-0.002600 
2088.907728  	-0.002588 
2090.836544  	-0.002859 
2092.765360  	-0.002909 
2094.694176  	-0.002659 
2096.622992  	-0.002253 
2098.551808  	-0.002212 
2100.480624  	-0.002146 
2102.409440  	-0.002411 
2104.338256  	-0.002307 
2106.267072  	-0.001993 
2108.195888  	-0.001847 
2110.124704  	-0.002480 
2112.053520  	-0.002368 
2113.982336  	-0.002199 
2115.911152  	-0.002140 
2117.839968  	-0.002464 
2119.768784  	-0.002608 
2121.697600  	-0.003004 
2123.626416  	-0.002823 
2125.555232  	-0.002682 
2127.484048  	-0.002738 
2129.412864  	-0.003438 
2131.341680  	-0.003452 
2133.270496  	-0.003174 
2135.199312  	-0.002508 
2137.128128  	-0.001869 
2139.056944  	-0.001361 
2140.985760  	-0.001806 
2142.914576  	-0.001998 
2144.843392  	-0.001715 
2146.772208  	-0.001140 
2148.701024  	-0.001587 
2150.629840  	-0.001352 
2152.558656  	-0.001771 
2154.487472  	-0.001130 
2156.416288  	-0.000788 
2158.345104  	-0.000184 
2160.273920  	0.001490 
2162.202736  	0.002697 
2164.131552  	0.001675 
2166.060368  	0.001397 
2167.989184  	0.002034 
2169.918000  	0.002364 
2171.846816  	0.000447 
2173.775632  	0.000077 
2175.704448  	0.000569 
2177.633264  	0.000376 
2179.562080  	-0.000173 
2181.490896  	0.000164 
2183.419712  	-0.000058 
2185.348528  	0.000041 
2187.277344  	-0.000484 
2189.206160  	-0.000595 
2191.134976  	-0.000584 
2193.063792  	-0.000870 
2194.992608  	-0.001326 
2196.921424  	-0.001124 
2198.850240  	-0.000830 
2200.779056  	-0.000655 
2202.707872  	-0.001252 
2204.636688  	-0.001261 
2206.565504  	-0.001122 
2208.494320  	-0.001342 
2210.423136  	-0.001646 
2212.351952  	-0.001846 
2214.280768  	-0.002269 
2216.209584  	-0.001810 
2218.138400  	-0.002045 
2220.067216  	-0.001798 
2221.996032  	-0.001516 
2223.924848  	-0.000973 
2225.853664  	-0.001050 
2227.782480  	-0.001250 
2229.711296  	-0.001861 
2231.640112  	-0.002695 
2233.568928  	-0.002676 
2235.497744  	-0.002197 
2237.426560  	-0.002383 
2239.355376  	-0.002132 
2241.284192  	-0.002023 
2243.213008  	-0.001946 
2245.141824  	-0.002375 
2247.070640  	-0.002251 
2248.999456  	-0.002466 
2250.928272  	-0.003170 
2252.857088  	-0.003386 
2254.785904  	-0.003264 
2256.714720  	-0.003673 
2258.643536  	-0.003771 
2260.572352  	-0.003913 
2262.501168  	-0.003974 
2264.429984  	-0.003719 
2266.358800  	-0.003603 
2268.287616  	-0.003623 
2270.216432  	-0.003236 
2272.145248  	-0.003305 
2274.074064  	-0.003610 
2276.002880  	-0.003473 
2277.931696  	-0.003009 
2279.860512  	-0.002780 
2281.789328  	-0.002515 
2283.718144  	-0.002426 
2285.646960  	-0.002364 
2287.575776  	-0.002434 
2289.504592  	-0.002747 
2291.433408  	-0.003178 
2293.362224  	-0.003222 
2295.291040  	-0.002784 
2297.219856  	-0.002303 
2299.148672  	-0.002498 
2301.077488  	-0.002621 
2303.006304  	-0.002693 
2304.935120  	-0.002611 
2306.863936  	-0.002817 
2308.792752  	-0.003295 
2310.721568  	-0.003913 
2312.650384  	-0.004335 
2314.579200  	-0.005261 
2316.508016  	-0.006496 
2318.436832  	-0.007949 
2320.365648  	-0.009677 
2322.294464  	-0.011356 
2324.223280  	-0.013075 
2326.152096  	-0.015662 
2328.080912  	-0.017923 
2330.009728  	-0.020159 
2331.938544  	-0.022031 
2333.867360  	-0.023818 
2335.796176  	-0.025459 
2337.724992  	-0.026358 
2339.653808  	-0.026666 
2341.582624  	-0.027157 
2343.511440  	-0.025711 
2345.440256  	-0.022141 
2347.369072  	-0.016136 
2349.297888  	-0.013031 
2351.226704  	-0.016608 
2353.155520  	-0.023292 
2355.084336  	-0.028367 
2357.013152  	-0.032332 
2358.941968  	-0.034845 
2360.870784  	-0.035865 
2362.799600  	-0.034668 
2364.728416  	-0.032900 
2366.657232  	-0.029514 
2368.586048  	-0.025249 
2370.514864  	-0.020872 
2372.443680  	-0.016597 
2374.372496  	-0.012312 
2376.301312  	-0.008655 
2378.230128  	-0.005840 
2380.158944  	-0.004025 
2382.087760  	-0.003110 
2384.016576  	-0.002898 
2385.945392  	-0.003085 
2387.874208  	-0.003416 
2389.803024  	-0.003638 
2391.731840  	-0.003822 
2393.660656  	-0.003799 
2395.589472  	-0.003698 
2397.518288  	-0.003511 
2399.447104  	-0.003585 
2401.375920  	-0.003727 
2403.304736  	-0.003998 
2405.233552  	-0.003883 
2407.162368  	-0.003750 
2409.091184  	-0.003681 
2411.020000  	-0.003805 
2412.948816  	-0.003777 
2414.877632  	-0.003564 
2416.806448  	-0.003281 
2418.735264  	-0.003448 
2420.664080  	-0.003655 
2422.592896  	-0.003620 
2424.521712  	-0.003617 
2426.450528  	-0.003631 
2428.379344  	-0.003378 
2430.308160  	-0.003268 
2432.236976  	-0.003146 
2434.165792  	-0.003146 
2436.094608  	-0.003197 
2438.023424  	-0.003065 
2439.952240  	-0.002907 
2441.881056  	-0.003012 
2443.809872  	-0.003087 
2445.738688  	-0.002969 
2447.667504  	-0.002766 
2449.596320  	-0.002695 
2451.525136  	-0.002602 
2453.453952  	-0.002637 
2455.382768  	-0.002769 
2457.311584  	-0.002759 
2459.240400  	-0.002794 
2461.169216  	-0.002951 
2463.098032  	-0.003042 
2465.026848  	-0.003064 
2466.955664  	-0.003055 
2468.884480  	-0.003093 
2470.813296  	-0.003229 
2472.742112  	-0.003234 
2474.670928  	-0.003070 
2476.599744  	-0.003215 
2478.528560  	-0.003212 
2480.457376  	-0.003110 
2482.386192  	-0.003040 
2484.315008  	-0.002927 
2486.243824  	-0.003015 
2488.172640  	-0.002941 
2490.101456  	-0.002650 
2492.030272  	-0.002544 
2493.959088  	-0.002516 
2495.887904  	-0.002433 
2497.816720  	-0.002320 
2499.745536  	-0.002210 
2501.674352  	-0.002224 
2503.603168  	-0.001999 
2505.531984  	-0.001962 
2507.460800  	-0.002323 
2509.389616  	-0.002364 
2511.318432  	-0.002395 
2513.247248  	-0.002225 
2515.176064  	-0.002055 
2517.104880  	-0.002047 
2519.033696  	-0.002204 
2520.962512  	-0.002109 
2522.891328  	-0.001880 
2524.820144  	-0.001977 
2526.748960  	-0.001967 
2528.677776  	-0.001768 
2530.606592  	-0.001780 
2532.535408  	-0.001660 
2534.464224  	-0.001600 
2536.393040  	-0.001691 
2538.321856  	-0.001779 
2540.250672  	-0.001580 
2542.179488  	-0.001406 
2544.108304  	-0.001505 
2546.037120  	-0.001441 
2547.965936  	-0.001483 
2549.894752  	-0.001467 
2551.823568  	-0.001478 
2553.752384  	-0.001446 
2555.681200  	-0.001147 
2557.610016  	-0.001107 
2559.538832  	-0.000998 
2561.467648  	-0.000694 
2563.396464  	-0.000632 
2565.325280  	-0.000510 
2567.254096  	-0.000515 
2569.182912  	-0.000733 
2571.111728  	-0.000730 
2573.040544  	-0.000670 
2574.969360  	-0.000514 
2576.898176  	-0.000359 
2578.826992  	-0.000418 
2580.755808  	-0.000518 
2582.684624  	-0.000339 
2584.613440  	-0.000319 
2586.542256  	-0.000249 
2588.471072  	-0.000116 
2590.399888  	-0.000001 
2592.328704  	-0.000115 
2594.257520  	-0.000196 
2596.186336  	-0.000128 
2598.115152  	-0.000107 
2600.043968  	-0.000190 
2601.972784  	-0.000038 
2603.901600  	0.000019 
2605.830416  	0.000028 
2607.759232  	-0.000002 
2609.688048  	0.000223 
2611.616864  	0.000432 
2613.545680  	0.000563 
2615.474496  	0.000580 
2617.403312  	0.000751 
2619.332128  	0.000968 
2621.260944  	0.000974 
2623.189760  	0.000864 
2625.118576  	0.000914 
2627.047392  	0.000953 
2628.976208  	0.001074 
2630.905024  	0.001115 
2632.833840  	0.001080 
2634.762656  	0.001216 
2636.691472  	0.001226 
2638.620288  	0.001242 
2640.549104  	0.001342 
2642.477920  	0.001409 
2644.406736  	0.001517 
2646.335552  	0.001585 
2648.264368  	0.001642 
2650.193184  	0.001658 
2652.122000  	0.001765 
2654.050816  	0.002015 
2655.979632  	0.002127 
2657.908448  	0.002120 
2659.837264  	0.002213 
2661.766080  	0.002286 
2663.694896  	0.002351 
2665.623712  	0.002325 
2667.552528  	0.002440 
2669.481344  	0.002645 
2671.410160  	0.002767 
2673.338976  	0.002772 
2675.267792  	0.002901 
2677.196608  	0.003138 
2679.125424  	0.003239 
2681.054240  	0.003317 
2682.983056  	0.003469 
2684.911872  	0.003500 
2686.840688  	0.003555 
2688.769504  	0.003674 
2690.698320  	0.003694 
2692.627136  	0.003707 
2694.555952  	0.003815 
2696.484768  	0.003893 
2698.413584  	0.003922 
2700.342400  	0.003847 
2702.271216  	0.003953 
2704.200032  	0.004187 
2706.128848  	0.004260 
2708.057664  	0.004232 
2709.986480  	0.004368 
2711.915296  	0.004454 
2713.844112  	0.004550 
2715.772928  	0.004601 
2717.701744  	0.004685 
2719.630560  	0.004858 
2721.559376  	0.004916 
2723.488192  	0.004976 
2725.417008  	0.005221 
2727.345824  	0.005457 
2729.274640  	0.005533 
2731.203456  	0.005649 
2733.132272  	0.005737 
2735.061088  	0.005763 
2736.989904  	0.005917 
2738.918720  	0.006015 
2740.847536  	0.006074 
2742.776352  	0.006077 
2744.705168  	0.006115 
2746.633984  	0.006148 
2748.562800  	0.006169 
2750.491616  	0.006284 
2752.420432  	0.006432 
2754.349248  	0.006375 
2756.278064  	0.006346 
2758.206880  	0.006189 
2760.135696  	0.006098 
2762.064512  	0.006172 
2763.993328  	0.006242 
2765.922144  	0.006274 
2767.850960  	0.006269 
2769.779776  	0.006316 
2771.708592  	0.006439 
2773.637408  	0.006358 
2775.566224  	0.006228 
2777.495040  	0.006149 
2779.423856  	0.006261 
2781.352672  	0.006319 
2783.281488  	0.006310 
2785.210304  	0.006249 
2787.139120  	0.006301 
2789.067936  	0.006417 
2790.996752  	0.006531 
2792.925568  	0.006377 
2794.854384  	0.006237 
2796.783200  	0.006302 
2798.712016  	0.006351 
2800.640832  	0.006356 
2802.569648  	0.006460 
2804.498464  	0.006423 
2806.427280  	0.006217 
2808.356096  	0.006098 
2810.284912  	0.006224 
2812.213728  	0.006251 
2814.142544  	0.006190 
2816.071360  	0.006215 
2818.000176  	0.006059 
2819.928992  	0.005874 
2821.857808  	0.005721 
2823.786624  	0.005592 
2825.715440  	0.005597 
2827.644256  	0.005534 
2829.573072  	0.005422 
2831.501888  	0.005128 
2833.430704  	0.004860 
2835.359520  	0.004638 
2837.288336  	0.004402 
2839.217152  	0.004152 
2841.145968  	0.003833 
2843.074784  	0.003475 
2845.003600  	0.003211 
2846.932416  	0.003027 
2848.861232  	0.002910 
2850.790048  	0.002616 
2852.718864  	0.002065 
2854.647680  	0.001351 
2856.576496  	0.000557 
2858.505312  	-0.000102 
2860.434128  	-0.000631 
2862.362944  	-0.001446 
2864.291760  	-0.002402 
2866.220576  	-0.003134 
2868.149392  	-0.003462 
2870.078208  	-0.003664 
2872.007024  	-0.003890 
2873.935840  	-0.003900 
2875.864656  	-0.003929 
2877.793472  	-0.004298 
2879.722288  	-0.004666 
2881.651104  	-0.005194 
2883.579920  	-0.005564 
2885.508736  	-0.005470 
2887.437552  	-0.005255 
2889.366368  	-0.005211 
2891.295184  	-0.005397 
2893.224000  	-0.005538 
2895.152816  	-0.005447 
2897.081632  	-0.005778 
2899.010448  	-0.007529 
2900.939264  	-0.009061 
2902.868080  	-0.007757 
2904.796896  	-0.006358 
2906.725712  	-0.005802 
2908.654528  	-0.005255 
2910.583344  	-0.004865 
2912.512160  	-0.004101 
2914.440976  	-0.002746 
2916.369792  	-0.001802 
2918.298608  	-0.001282 
2920.227424  	-0.000891 
2922.156240  	-0.000387 
2924.085056  	0.000206 
2926.013872  	0.000745 
2927.942688  	0.001426 
2929.871504  	0.002199 
2931.800320  	0.002869 
2933.729136  	0.003371 
2935.657952  	0.003657 
2937.586768  	0.004140 
2939.515584  	0.004651 
2941.444400  	0.004657 
2943.373216  	0.004589 
2945.302032  	0.004823 
2947.230848  	0.004932 
2949.159664  	0.004568 
2951.088480  	0.004016 
2953.017296  	0.003562 
2954.946112  	0.003073 
2956.874928  	0.002339 
2958.803744  	0.001564 
2960.732560  	0.001133 
2962.661376  	0.000578 
2964.590192  	-0.000377 
2966.519008  	-0.001597 
2968.447824  	-0.002643 
2970.376640  	-0.003421 
2972.305456  	-0.003969 
2974.234272  	-0.003725 
2976.163088  	-0.003323 
2978.091904  	-0.003281 
2980.020720  	-0.003341 
2981.949536  	-0.003159 
2983.878352  	-0.003308 
2985.807168  	-0.004241 
2987.735984  	-0.005199 
2989.664800  	-0.004844 
2991.593616  	-0.001862 
2993.522432  	0.000049 
2995.451248  	0.000567 
2997.380064  	0.001415 
2999.308880  	0.002601 
3001.237696  	0.003803 
3003.166512  	0.005190 
3005.095328  	0.006566 
3007.024144  	0.007840 
3008.952960  	0.009244 
3010.881776  	0.010797 
3012.810592  	0.012189 
3014.739408  	0.013386 
3016.668224  	0.014446 
3018.597040  	0.015688 
3020.525856  	0.016880 
3022.454672  	0.017863 
3024.383488  	0.018879 
3026.312304  	0.019905 
3028.241120  	0.020871 
3030.169936  	0.021762 
3032.098752  	0.022429 
3034.027568  	0.023075 
3035.956384  	0.023934 
3037.885200  	0.024778 
3039.814016  	0.025371 
3041.742832  	0.025888 
3043.671648  	0.026397 
3045.600464  	0.026887 
3047.529280  	0.027305 
3049.458096  	0.027696 
3051.386912  	0.028109 
3053.315728  	0.028507 
3055.244544  	0.029067 
3057.173360  	0.029645 
3059.102176  	0.030059 
3061.030992  	0.030572 
3062.959808  	0.031230 
3064.888624  	0.031742 
3066.817440  	0.032263 
3068.746256  	0.032937 
3070.675072  	0.033625 
3072.603888  	0.034224 
3074.532704  	0.034747 
3076.461520  	0.035404 
3078.390336  	0.036148 
3080.319152  	0.036717 
3082.247968  	0.037269 
3084.176784  	0.037787 
3086.105600  	0.038509 
3088.034416  	0.039199 
3089.963232  	0.039951 
3091.892048  	0.040518 
3093.820864  	0.041070 
3095.749680  	0.041684 
3097.678496  	0.042309 
3099.607312  	0.043089 
3101.536128  	0.043956 
3103.464944  	0.044593 
3105.393760  	0.045007 
3107.322576  	0.045647 
3109.251392  	0.046376 
3111.180208  	0.046880 
3113.109024  	0.047349 
3115.037840  	0.047955 
3116.966656  	0.048661 
3118.895472  	0.049162 
3120.824288  	0.049780 
3122.753104  	0.050441 
3124.681920  	0.050756 
3126.610736  	0.051067 
3128.539552  	0.051810 
3130.468368  	0.052539 
3132.397184  	0.053001 
3134.326000  	0.053521 
3136.254816  	0.053939 
3138.183632  	0.054528 
3140.112448  	0.055196 
3142.041264  	0.055791 
3143.970080  	0.056309 
3145.898896  	0.056721 
3147.827712  	0.057390 
3149.756528  	0.057900 
3151.685344  	0.058295 
3153.614160  	0.059083 
3155.542976  	0.059828 
3157.471792  	0.060394 
3159.400608  	0.061021 
3161.329424  	0.061536 
3163.258240  	0.061777 
3165.187056  	0.062233 
3167.115872  	0.062840 
3169.044688  	0.063276 
3170.973504  	0.063570 
3172.902320  	0.063876 
3174.831136  	0.064391 
3176.759952  	0.064990 
3178.688768  	0.065451 
3180.617584  	0.065862 
3182.546400  	0.066248 
3184.475216  	0.066410 
3186.404032  	0.066387 
3188.332848  	0.066702 
3190.261664  	0.067142 
3192.190480  	0.067326 
3194.119296  	0.067465 
3196.048112  	0.067781 
3197.976928  	0.067760 
3199.905744  	0.067667 
3201.834560  	0.067730 
3203.763376  	0.067900 
3205.692192  	0.068047 
3207.621008  	0.067961 
3209.549824  	0.067671 
3211.478640  	0.067628 
3213.407456  	0.067751 
3215.336272  	0.067788 
3217.265088  	0.067762 
3219.193904  	0.067664 
3221.122720  	0.067651 
3223.051536  	0.067550 
3224.980352  	0.067277 
3226.909168  	0.066976 
3228.837984  	0.066841 
3230.766800  	0.066891 
3232.695616  	0.066902 
3234.624432  	0.066838 
3236.553248  	0.066878 
3238.482064  	0.066938 
3240.410880  	0.066955 
3242.339696  	0.067092 
3244.268512  	0.066922 
3246.197328  	0.066901 
3248.126144  	0.067286 
3250.054960  	0.067543 
3251.983776  	0.067620 
3253.912592  	0.067678 
3255.841408  	0.067899 
3257.770224  	0.068267 
3259.699040  	0.068596 
3261.627856  	0.068837 
3263.556672  	0.069106 
3265.485488  	0.069235 
3267.414304  	0.069382 
3269.343120  	0.069964 
3271.271936  	0.070378 
3273.200752  	0.070352 
3275.129568  	0.070448 
3277.058384  	0.070915 
3278.987200  	0.071181 
3280.916016  	0.071161 
3282.844832  	0.071211 
3284.773648  	0.071322 
3286.702464  	0.071495 
3288.631280  	0.071737 
3290.560096  	0.072176 
3292.488912  	0.072688 
3294.417728  	0.072901 
3296.346544  	0.073202 
3298.275360  	0.073420 
3300.204176  	0.073718 
3302.132992  	0.074050 
3304.061808  	0.074397 
3305.990624  	0.074888 
3307.919440  	0.075103 
3309.848256  	0.075413 
3311.777072  	0.075813 
3313.705888  	0.076033 
3315.634704  	0.076417 
3317.563520  	0.077011 
3319.492336  	0.077331 
3321.421152  	0.077472 
3323.349968  	0.077696 
3325.278784  	0.078133 
3327.207600  	0.078547 
3329.136416  	0.078448 
3331.065232  	0.078631 
3332.994048  	0.078834 
3334.922864  	0.078953 
3336.851680  	0.079069 
3338.780496  	0.079194 
3340.709312  	0.079185 
3342.638128  	0.079091 
3344.566944  	0.078755 
3346.495760  	0.078578 
3348.424576  	0.078479 
3350.353392  	0.078287 
3352.282208  	0.078056 
3354.211024  	0.077900 
3356.139840  	0.077760 
3358.068656  	0.077524 
3359.997472  	0.077355 
3361.926288  	0.077059 
3363.855104  	0.076645 
3365.783920  	0.076357 
3367.712736  	0.076267 
3369.641552  	0.076015 
3371.570368  	0.075537 
3373.499184  	0.075211 
3375.428000  	0.074938 
3377.356816  	0.074656 
3379.285632  	0.074678 
3381.214448  	0.074608 
3383.143264  	0.074266 
3385.072080  	0.073809 
3387.000896  	0.073371 
3388.929712  	0.073069 
3390.858528  	0.072956 
3392.787344  	0.072650 
3394.716160  	0.072369 
3396.644976  	0.072260 
3398.573792  	0.071828 
3400.502608  	0.071530 
3402.431424  	0.070967 
3404.360240  	0.070310 
3406.289056  	0.069917 
3408.217872  	0.069589 
3410.146688  	0.069159 
3412.075504  	0.068913 
3414.004320  	0.068566 
3415.933136  	0.068300 
3417.861952  	0.067941 
3419.790768  	0.067640 
3421.719584  	0.067237 
3423.648400  	0.066668 
3425.577216  	0.065986 
3427.506032  	0.065467 
3429.434848  	0.065063 
3431.363664  	0.064654 
3433.292480  	0.064249 
3435.221296  	0.063699 
3437.150112  	0.063306 
3439.078928  	0.062983 
3441.007744  	0.062551 
3442.936560  	0.062362 
3444.865376  	0.062044 
3446.794192  	0.061218 
3448.723008  	0.060372 
3450.651824  	0.059794 
3452.580640  	0.059273 
3454.509456  	0.058821 
3456.438272  	0.058382 
3458.367088  	0.057916 
3460.295904  	0.057356 
3462.224720  	0.056695 
3464.153536  	0.056023 
3466.082352  	0.055254 
3468.011168  	0.054288 
3469.939984  	0.053612 
3471.868800  	0.053058 
3473.797616  	0.052478 
3475.726432  	0.051991 
3477.655248  	0.051297 
3479.584064  	0.050908 
3481.512880  	0.050360 
3483.441696  	0.049345 
3485.370512  	0.048681 
3487.299328  	0.047760 
3489.228144  	0.047107 
3491.156960  	0.046561 
3493.085776  	0.045802 
3495.014592  	0.045117 
3496.943408  	0.044628 
3498.872224  	0.044315 
3500.801040  	0.044339 
3502.729856  	0.043703 
3504.658672  	0.042332 
3506.587488  	0.041679 
3508.516304  	0.041427 
3510.445120  	0.040700 
3512.373936  	0.039608 
3514.302752  	0.039086 
3516.231568  	0.038948 
3518.160384  	0.038510 
3520.089200  	0.037881 
3522.018016  	0.037801 
3523.946832  	0.037919 
3525.875648  	0.037046 
3527.804464  	0.035690 
3529.733280  	0.034835 
3531.662096  	0.034171 
3533.590912  	0.033541 
3535.519728  	0.033481 
3537.448544  	0.033171 
3539.377360  	0.032170 
3541.306176  	0.031679 
3543.234992  	0.031912 
3545.163808  	0.032506 
3547.092624  	0.031602 
3549.021440  	0.029850 
3550.950256  	0.029274 
3552.879072  	0.029006 
3554.807888  	0.028260 
3556.736704  	0.027510 
3558.665520  	0.027332 
3560.594336  	0.027090 
3562.523152  	0.026023 
3564.451968  	0.026159 
3566.380784  	0.027024 
3568.309600  	0.025591 
3570.238416  	0.024073 
3572.167232  	0.023182 
3574.096048  	0.022229 
3576.024864  	0.021578 
3577.953680  	0.021323 
3579.882496  	0.020845 
3581.811312  	0.020081 
3583.740128  	0.019397 
3585.668944  	0.019536 
3587.597760  	0.019120 
3589.526576  	0.017555 
3591.455392  	0.016516 
3593.384208  	0.016159 
3595.313024  	0.015621 
3597.241840  	0.014384 
3599.170656  	0.013014 
3601.099472  	0.012192 
3603.028288  	0.011960 
3604.957104  	0.011684 
3606.885920  	0.011316 
3608.814736  	0.010659 
3610.743552  	0.010061 
3612.672368  	0.009015 
3614.601184  	0.008118 
3616.530000  	0.007396 
3618.458816  	0.005652 
3620.387632  	0.004576 
3622.316448  	0.004559 
3624.245264  	0.004102 
3626.174080  	0.003516 
3628.102896  	0.001482 
3630.031712  	-0.000546 
3631.960528  	0.000488 
3633.889344  	0.000387 
3635.818160  	-0.000344 
3637.746976  	-0.001369 
3639.675792  	-0.001680 
3641.604608  	-0.001688 
3643.533424  	-0.002177 
3645.462240  	-0.003311 
3647.391056  	-0.006214 
3649.319872  	-0.009576 
3651.248688  	-0.009772 
3653.177504  	-0.008086 
3655.106320  	-0.008878 
3657.035136  	-0.010360 
3658.963952  	-0.010237 
3660.892768  	-0.010560 
3662.821584  	-0.010851 
3664.750400  	-0.010942 
3666.679216  	-0.011510 
3668.608032  	-0.013491 
3670.536848  	-0.015334 
3672.465664  	-0.013966 
3674.394480  	-0.015564 
3676.323296  	-0.017900 
3678.252112  	-0.014539 
3680.180928  	-0.013069 
3682.109744  	-0.012838 
3684.038560  	-0.013081 
3685.967376  	-0.013507 
3687.896192  	-0.016043 
3689.825008  	-0.017997 
3691.753824  	-0.016294 
3693.682640  	-0.014238 
3695.611456  	-0.013367 
3697.540272  	-0.012659 
3699.469088  	-0.012301 
3701.397904  	-0.012941 
3703.326720  	-0.012340 
3705.255536  	-0.011310 
3707.184352  	-0.011456 
3709.113168  	-0.012938 
3711.041984  	-0.014305 
3712.970800  	-0.012237 
3714.899616  	-0.009554 
3716.828432  	-0.009611 
3718.757248  	-0.010331 
3720.686064  	-0.010848 
3722.614880  	-0.011138 
3724.543696  	-0.010405 
3726.472512  	-0.010491 
3728.401328  	-0.010742 
3730.330144  	-0.011951 
3732.258960  	-0.013801 
3734.187776  	-0.012789 
3736.116592  	-0.012136 
3738.045408  	-0.011668 
3739.974224  	-0.010629 
3741.903040  	-0.010316 
3743.831856  	-0.012239 
3745.760672  	-0.012780 
3747.689488  	-0.012049 
3749.618304  	-0.014288 
3751.547120  	-0.014946 
3753.475936  	-0.012395 
3755.404752  	-0.010639 
3757.333568  	-0.010422 
3759.262384  	-0.010991 
3761.191200  	-0.010495 
3763.120016  	-0.009380 
3765.048832  	-0.009962 
3766.977648  	-0.009926 
3768.906464  	-0.010734 
3770.835280  	-0.010734 
3772.764096  	-0.009325 
3774.692912  	-0.008993 
3776.621728  	-0.009259 
3778.550544  	-0.010612 
3780.479360  	-0.010928 
3782.408176  	-0.009743 
3784.336992  	-0.009888 
3786.265808  	-0.009526 
3788.194624  	-0.009238 
3790.123440  	-0.009406 
3792.052256  	-0.009501 
3793.981072  	-0.009674 
3795.909888  	-0.010818 
3797.838704  	-0.010629 
3799.767520  	-0.011428 
3801.696336  	-0.014304 
3803.625152  	-0.012235 
3805.553968  	-0.011626 
3807.482784  	-0.012042 
3809.411600  	-0.009806 
3811.340416  	-0.009003 
3813.269232  	-0.009425 
3815.198048  	-0.011747 
3817.126864  	-0.012324 
3819.055680  	-0.011909 
3820.984496  	-0.014138 
3822.913312  	-0.011875 
3824.842128  	-0.010192 
3826.770944  	-0.010633 
3828.699760  	-0.010155 
3830.628576  	-0.010663 
3832.557392  	-0.011345 
3834.486208  	-0.011464 
3836.415024  	-0.012763 
3838.343840  	-0.013400 
3840.272656  	-0.011741 
3842.201472  	-0.010529 
3844.130288  	-0.010382 
3846.059104  	-0.009504 
3847.987920  	-0.009162 
3849.916736  	-0.009885 
3851.845552  	-0.012467 
3853.774368  	-0.015252 
3855.703184  	-0.011853 
3857.632000  	-0.009697 
3859.560816  	-0.009040 
3861.489632  	-0.009388 
3863.418448  	-0.010249 
3865.347264  	-0.010168 
3867.276080  	-0.009297 
3869.204896  	-0.010430 
3871.133712  	-0.009995 
3873.062528  	-0.009648 
3874.991344  	-0.009993 
3876.920160  	-0.008853 
3878.848976  	-0.008698 
3880.777792  	-0.008855 
3882.706608  	-0.008332 
3884.635424  	-0.008782 
3886.564240  	-0.009278 
3888.493056  	-0.009080 
3890.421872  	-0.009766 
3892.350688  	-0.009810 
3894.279504  	-0.008763 
3896.208320  	-0.008592 
3898.137136  	-0.008576 
3900.065952  	-0.008270 
3901.994768  	-0.007988 
3903.923584  	-0.008557 
3905.852400  	-0.008658 
3907.781216  	-0.008572 
3909.710032  	-0.008795 
3911.638848  	-0.008749 
3913.567664  	-0.008513 
3915.496480  	-0.008112 
3917.425296  	-0.007837 
3919.354112  	-0.008187 
3921.282928  	-0.008343 
3923.211744  	-0.008013 
3925.140560  	-0.007727 
3927.069376  	-0.008199 
3928.998192  	-0.008537 
3930.927008  	-0.007847 
3932.855824  	-0.007277 
3934.784640  	-0.007847 
3936.713456  	-0.008302 
3938.642272  	-0.008023 
3940.571088  	-0.007722 
3942.499904  	-0.007416 
3944.428720  	-0.007582 
3946.357536  	-0.007515 
3948.286352  	-0.007117 
3950.215168  	-0.007728 
3952.143984  	-0.008546 
3954.072800  	-0.008699 
3956.001616  	-0.008457 
3957.930432  	-0.008434 
3959.859248  	-0.008363 
3961.788064  	-0.008204 
3963.716880  	-0.008448 
3965.645696  	-0.008732 
3967.574512  	-0.008520 
3969.503328  	-0.008276 
3971.432144  	-0.008485 
3973.360960  	-0.008504 
3975.289776  	-0.008227 
3977.218592  	-0.008181 
3979.147408  	-0.008441 
3981.076224  	-0.008602 
3983.005040  	-0.008484 
3984.933856  	-0.008312 
3986.862672  	-0.008325 
3988.791488  	-0.008257 
3990.720304  	-0.008003 
3992.649120  	-0.008118 
3994.577936  	-0.008264 
3996.506752  	-0.008386 
3998.435568  	-0.008528 
4000.364384  	-0.008478 