##TITLE=No Description
##DATA TYPE=INFRARED SPECTRUM
##XUNITS=1/CM
##YUNITS=Abs
399.264912  	0.643443 
401.193728  	0.606901 
403.122544  	0.608078 
405.051360  	0.600430 
406.980176  	0.605344 
408.908992  	0.609256 
410.837808  	0.608704 
412.766624  	0.586017 
414.695440  	0.586218 
416.624256  	0.588653 
418.553072  	0.584892 
420.481888  	0.573427 
422.410704  	0.578737 
424.339520  	0.574538 
426.268336  	0.575702 
428.197152  	0.573703 
430.125968  	0.572758 
432.054784  	0.564670 
433.983600  	0.565427 
435.912416  	0.562930 
437.841232  	0.558742 
439.770048  	0.548445 
441.698864  	0.550019 
443.627680  	0.545096 
445.556496  	0.545525 
447.485312  	0.545843 
449.414128  	0.547666 
451.342944  	0.545909 
453.271760  	0.546643 
455.200576  	0.544654 
457.129392  	0.545681 
459.058208  	0.541872 
460.987024  	0.546062 
462.915840  	0.542054 
464.844656  	0.543099 
466.773472  	0.545590 
468.702288  	0.547061 
470.631104  	0.542823 
472.559920  	0.540545 
474.488736  	0.537856 
476.417552  	0.538304 
478.346368  	0.534568 
480.275184  	0.534441 
482.204000  	0.532798 
484.132816  	0.533933 
486.061632  	0.531281 
487.990448  	0.533102 
489.919264  	0.531928 
491.848080  	0.531168 
493.776896  	0.525212 
495.705712  	0.521433 
497.634528  	0.518699 
499.563344  	0.520872 
501.492160  	0.518127 
503.420976  	0.518300 
505.349792  	0.517965 
507.278608  	0.520712 
509.207424  	0.520931 
511.136240  	0.521983 
513.065056  	0.522528 
514.993872  	0.526107 
516.922688  	0.527319 
518.851504  	0.529746 
520.780320  	0.526419 
522.709136  	0.526628 
524.637952  	0.526869 
526.566768  	0.525885 
528.495584  	0.521252 
530.424400  	0.519080 
532.353216  	0.514376 
534.282032  	0.507853 
536.210848  	0.502006 
538.139664  	0.498833 
540.068480  	0.494065 
541.997296  	0.488714 
543.926112  	0.481530 
545.854928  	0.477883 
547.783744  	0.475213 
549.712560  	0.472635 
551.641376  	0.468875 
553.570192  	0.465997 
555.499008  	0.462448 
557.427824  	0.459652 
559.356640  	0.455243 
561.285456  	0.451959 
563.214272  	0.447570 
565.143088  	0.443950 
567.071904  	0.440054 
569.000720  	0.436521 
570.929536  	0.433905 
572.858352  	0.432267 
574.787168  	0.429265 
576.715984  	0.426866 
578.644800  	0.423194 
580.573616  	0.419276 
582.502432  	0.414108 
584.431248  	0.410350 
586.360064  	0.406854 
588.288880  	0.404343 
590.217696  	0.401908 
592.146512  	0.400153 
594.075328  	0.397166 
596.004144  	0.394890 
597.932960  	0.392900 
599.861776  	0.391686 
601.790592  	0.389607 
603.719408  	0.387598 
605.648224  	0.386149 
607.577040  	0.385543 
609.505856  	0.383650 
611.434672  	0.381858 
613.363488  	0.379842 
615.292304  	0.378505 
617.221120  	0.377060 
619.149936  	0.375898 
621.078752  	0.374190 
623.007568  	0.373091 
624.936384  	0.371035 
626.865200  	0.369436 
628.794016  	0.367726 
630.722832  	0.367685 
632.651648  	0.367918 
634.580464  	0.367620 
636.509280  	0.366892 
638.438096  	0.367133 
640.366912  	0.366309 
642.295728  	0.364320 
644.224544  	0.361736 
646.153360  	0.358567 
648.082176  	0.353991 
650.010992  	0.349919 
651.939808  	0.346012 
653.868624  	0.342289 
655.797440  	0.337980 
657.726256  	0.333780 
659.655072  	0.329936 
661.583888  	0.326413 
663.512704  	0.322675 
665.441520  	0.319556 
667.370336  	0.312792 
669.299152  	0.305390 
671.227968  	0.304908 
673.156784  	0.302817 
675.085600  	0.299790 
677.014416  	0.296884 
678.943232  	0.294408 
680.872048  	0.293191 
682.800864  	0.291824 
684.729680  	0.290210 
686.658496  	0.289377 
688.587312  	0.288144 
690.516128  	0.285880 
692.444944  	0.284357 
694.373760  	0.283691 
696.302576  	0.282001 
698.231392  	0.279674 
700.160208  	0.277139 
702.089024  	0.274765 
704.017840  	0.272273 
705.946656  	0.269712 
707.875472  	0.267605 
709.804288  	0.265566 
711.733104  	0.263424 
713.661920  	0.261385 
715.590736  	0.260270 
717.519552  	0.259569 
719.448368  	0.259495 
721.377184  	0.259846 
723.306000  	0.260645 
725.234816  	0.260913 
727.163632  	0.260198 
729.092448  	0.258019 
731.021264  	0.254557 
732.950080  	0.250849 
734.878896  	0.248003 
736.807712  	0.245266 
738.736528  	0.242577 
740.665344  	0.240367 
742.594160  	0.238481 
744.522976  	0.236828 
746.451792  	0.235182 
748.380608  	0.233619 
750.309424  	0.232480 
752.238240  	0.231404 
754.167056  	0.230534 
756.095872  	0.229015 
758.024688  	0.227728 
759.953504  	0.227370 
761.882320  	0.228175 
763.811136  	0.228691 
765.739952  	0.227565 
767.668768  	0.225042 
769.597584  	0.222675 
771.526400  	0.221544 
773.455216  	0.222931 
775.384032  	0.226317 
777.312848  	0.231147 
779.241664  	0.235406 
781.170480  	0.235977 
783.099296  	0.232624 
785.028112  	0.226953 
786.956928  	0.220743 
788.885744  	0.215528 
790.814560  	0.211717 
792.743376  	0.209228 
794.672192  	0.207683 
796.601008  	0.206546 
798.529824  	0.203989 
800.458640  	0.199384 
802.387456  	0.195365 
804.316272  	0.193371 
806.245088  	0.191920 
808.173904  	0.191003 
810.102720  	0.190639 
812.031536  	0.190648 
813.960352  	0.191121 
815.889168  	0.191418 
817.817984  	0.191592 
819.746800  	0.191687 
821.675616  	0.191963 
823.604432  	0.191798 
825.533248  	0.191187 
827.462064  	0.190671 
829.390880  	0.189875 
831.319696  	0.188631 
833.248512  	0.187079 
835.177328  	0.184872 
837.106144  	0.182188 
839.034960  	0.178634 
840.963776  	0.174857 
842.892592  	0.171083 
844.821408  	0.167352 
846.750224  	0.164034 
848.679040  	0.161398 
850.607856  	0.159110 
852.536672  	0.157237 
854.465488  	0.155457 
856.394304  	0.154077 
858.323120  	0.152847 
860.251936  	0.150855 
862.180752  	0.148442 
864.109568  	0.145641 
866.038384  	0.142867 
867.967200  	0.140623 
869.896016  	0.138750 
871.824832  	0.137671 
873.753648  	0.137198 
875.682464  	0.137718 
877.611280  	0.138241 
879.540096  	0.139221 
881.468912  	0.141137 
883.397728  	0.142715 
885.326544  	0.143954 
887.255360  	0.144219 
889.184176  	0.143166 
891.112992  	0.141151 
893.041808  	0.139333 
894.970624  	0.137047 
896.899440  	0.133583 
898.828256  	0.129193 
900.757072  	0.125041 
902.685888  	0.121815 
904.614704  	0.119837 
906.543520  	0.119863 
908.472336  	0.121293 
910.401152  	0.123866 
912.329968  	0.126545 
914.258784  	0.129565 
916.187600  	0.132643 
918.116416  	0.135342 
920.045232  	0.137147 
921.974048  	0.138114 
923.902864  	0.138623 
925.831680  	0.138621 
927.760496  	0.138725 
929.689312  	0.139133 
931.618128  	0.139981 
933.546944  	0.140757 
935.475760  	0.141195 
937.404576  	0.141071 
939.333392  	0.140683 
941.262208  	0.140753 
943.191024  	0.142144 
945.119840  	0.145774 
947.048656  	0.151613 
948.977472  	0.159454 
950.906288  	0.169267 
952.835104  	0.180288 
954.763920  	0.191976 
956.692736  	0.203209 
958.621552  	0.212886 
960.550368  	0.219701 
962.479184  	0.223234 
964.408000  	0.222762 
966.336816  	0.218054 
968.265632  	0.209452 
970.194448  	0.197948 
972.123264  	0.184574 
974.052080  	0.170471 
975.980896  	0.156568 
977.909712  	0.143599 
979.838528  	0.132000 
981.767344  	0.122272 
983.696160  	0.114861 
985.624976  	0.110079 
987.553792  	0.108071 
989.482608  	0.108978 
991.411424  	0.112081 
993.340240  	0.117018 
995.269056  	0.123432 
997.197872  	0.130240 
999.126688  	0.137191 
1001.055504  	0.144234 
1002.984320  	0.151364 
1004.913136  	0.158362 
1006.841952  	0.165241 
1008.770768  	0.170974 
1010.699584  	0.175167 
1012.628400  	0.177633 
1014.557216  	0.178491 
1016.486032  	0.178570 
1018.414848  	0.178271 
1020.343664  	0.177837 
1022.272480  	0.176845 
1024.201296  	0.175439 
1026.130112  	0.172091 
1028.058928  	0.170901 
1029.987744  	0.173887 
1031.916560  	0.176011 
1033.845376  	0.177506 
1035.774192  	0.179101 
1037.703008  	0.182477 
1039.631824  	0.189351 
1041.560640  	0.198847 
1043.489456  	0.211371 
1045.418272  	0.226827 
1047.347088  	0.244273 
1049.275904  	0.260858 
1051.204720  	0.273960 
1053.133536  	0.281855 
1055.062352  	0.285300 
1056.991168  	0.285053 
1058.919984  	0.286067 
1060.848800  	0.286994 
1062.777616  	0.284558 
1064.706432  	0.278038 
1066.635248  	0.272369 
1068.564064  	0.270036 
1070.492880  	0.265020 
1072.421696  	0.256776 
1074.350512  	0.250856 
1076.279328  	0.249035 
1078.208144  	0.251542 
1080.136960  	0.256938 
1082.065776  	0.263109 
1083.994592  	0.267023 
1085.923408  	0.267594 
1087.852224  	0.264847 
1089.781040  	0.260065 
1091.709856  	0.253423 
1093.638672  	0.244315 
1095.567488  	0.232601 
1097.496304  	0.219650 
1099.425120  	0.205897 
1101.353936  	0.192146 
1103.282752  	0.178784 
1105.211568  	0.166110 
1107.140384  	0.153867 
1109.069200  	0.142488 
1110.998016  	0.132124 
1112.926832  	0.122628 
1114.855648  	0.114091 
1116.784464  	0.106071 
1118.713280  	0.098457 
1120.642096  	0.091304 
1122.570912  	0.084690 
1124.499728  	0.078380 
1126.428544  	0.072886 
1128.357360  	0.067833 
1130.286176  	0.063596 
1132.214992  	0.060033 
1134.143808  	0.057365 
1136.072624  	0.054850 
1138.001440  	0.052686 
1139.930256  	0.050335 
1141.859072  	0.047978 
1143.787888  	0.045484 
1145.716704  	0.043330 
1147.645520  	0.041105 
1149.574336  	0.039203 
1151.503152  	0.037753 
1153.431968  	0.037125 
1155.360784  	0.037146 
1157.289600  	0.038069 
1159.218416  	0.039717 
1161.147232  	0.041796 
1163.076048  	0.043916 
1165.004864  	0.046368 
1166.933680  	0.048710 
1168.862496  	0.051303 
1170.791312  	0.053789 
1172.720128  	0.056875 
1174.648944  	0.059786 
1176.577760  	0.062699 
1178.506576  	0.065431 
1180.435392  	0.068455 
1182.364208  	0.071347 
1184.293024  	0.074641 
1186.221840  	0.078067 
1188.150656  	0.082018 
1190.079472  	0.086648 
1192.008288  	0.092456 
1193.937104  	0.099334 
1195.865920  	0.107405 
1197.794736  	0.116066 
1199.723552  	0.125498 
1201.652368  	0.135317 
1203.581184  	0.145047 
1205.510000  	0.154629 
1207.438816  	0.163943 
1209.367632  	0.172695 
1211.296448  	0.180415 
1213.225264  	0.186718 
1215.154080  	0.191616 
1217.082896  	0.195238 
1219.011712  	0.197461 
1220.940528  	0.199016 
1222.869344  	0.199927 
1224.798160  	0.199949 
1226.726976  	0.199274 
1228.655792  	0.198137 
1230.584608  	0.196131 
1232.513424  	0.193703 
1234.442240  	0.190637 
1236.371056  	0.186672 
1238.299872  	0.181521 
1240.228688  	0.173969 
1242.157504  	0.166327 
1244.086320  	0.159753 
1246.015136  	0.151932 
1247.943952  	0.143129 
1249.872768  	0.134466 
1251.801584  	0.126958 
1253.730400  	0.119601 
1255.659216  	0.112271 
1257.588032  	0.105303 
1259.516848  	0.098662 
1261.445664  	0.092597 
1263.374480  	0.087105 
1265.303296  	0.082471 
1267.232112  	0.078711 
1269.160928  	0.075934 
1271.089744  	0.073870 
1273.018560  	0.072625 
1274.947376  	0.072252 
1276.876192  	0.072545 
1278.805008  	0.072475 
1280.733824  	0.071319 
1282.662640  	0.069165 
1284.591456  	0.066698 
1286.520272  	0.064556 
1288.449088  	0.063069 
1290.377904  	0.062218 
1292.306720  	0.062387 
1294.235536  	0.062513 
1296.164352  	0.061666 
1298.093168  	0.059287 
1300.021984  	0.056331 
1301.950800  	0.053072 
1303.879616  	0.049958 
1305.808432  	0.046626 
1307.737248  	0.043404 
1309.666064  	0.040282 
1311.594880  	0.038222 
1313.523696  	0.036550 
1315.452512  	0.035405 
1317.381328  	0.034783 
1319.310144  	0.034633 
1321.238960  	0.034673 
1323.167776  	0.035241 
1325.096592  	0.036021 
1327.025408  	0.036638 
1328.954224  	0.036635 
1330.883040  	0.036212 
1332.811856  	0.035367 
1334.740672  	0.034955 
1336.669488  	0.035136 
1338.598304  	0.035559 
1340.527120  	0.033838 
1342.455936  	0.031790 
1344.384752  	0.031278 
1346.313568  	0.031657 
1348.242384  	0.032369 
1350.171200  	0.033614 
1352.100016  	0.035160 
1354.028832  	0.037276 
1355.957648  	0.039251 
1357.886464  	0.041478 
1359.815280  	0.044149 
1361.744096  	0.046878 
1363.672912  	0.047949 
1365.601728  	0.048916 
1367.530544  	0.050467 
1369.459360  	0.051049 
1371.388176  	0.051099 
1373.316992  	0.050090 
1375.245808  	0.046446 
1377.174624  	0.043625 
1379.103440  	0.040541 
1381.032256  	0.037336 
1382.961072  	0.035015 
1384.889888  	0.034518 
1386.818704  	0.034010 
1388.747520  	0.031710 
1390.676336  	0.029230 
1392.605152  	0.026503 
1394.533968  	0.024813 
1396.462784  	0.027363 
1398.391600  	0.028555 
1400.320416  	0.027324 
1402.249232  	0.027694 
1404.178048  	0.028658 
1406.106864  	0.029098 
1408.035680  	0.030850 
1409.964496  	0.033529 
1411.893312  	0.036522 
1413.822128  	0.039695 
1415.750944  	0.044041 
1417.679760  	0.047087 
1419.608576  	0.045778 
1421.537392  	0.045884 
1423.466208  	0.046437 
1425.395024  	0.044370 
1427.323840  	0.043176 
1429.252656  	0.040741 
1431.181472  	0.038692 
1433.110288  	0.038741 
1435.039104  	0.039942 
1436.967920  	0.038571 
1438.896736  	0.038860 
1440.825552  	0.040298 
1442.754368  	0.040922 
1444.683184  	0.041211 
1446.612000  	0.041383 
1448.540816  	0.040024 
1450.469632  	0.040520 
1452.398448  	0.041695 
1454.327264  	0.043450 
1456.256080  	0.043199 
1458.184896  	0.039118 
1460.113712  	0.040384 
1462.042528  	0.042415 
1463.971344  	0.042177 
1465.900160  	0.042103 
1467.828976  	0.045281 
1469.757792  	0.049397 
1471.686608  	0.052850 
1473.615424  	0.057926 
1475.544240  	0.064649 
1477.473056  	0.070224 
1479.401872  	0.074487 
1481.330688  	0.077820 
1483.259504  	0.079826 
1485.188320  	0.081714 
1487.117136  	0.081986 
1489.045952  	0.081280 
1490.974768  	0.077078 
1492.903584  	0.074853 
1494.832400  	0.072176 
1496.761216  	0.065012 
1498.690032  	0.058320 
1500.618848  	0.054433 
1502.547664  	0.051247 
1504.476480  	0.047909 
1506.405296  	0.041067 
1508.334112  	0.037594 
1510.262928  	0.038056 
1512.191744  	0.036111 
1514.120560  	0.035486 
1516.049376  	0.035207 
1517.978192  	0.033713 
1519.907008  	0.035601 
1521.835824  	0.035260 
1523.764640  	0.039563 
1525.693456  	0.044357 
1527.622272  	0.046380 
1529.551088  	0.047279 
1531.479904  	0.047618 
1533.408720  	0.043020 
1535.337536  	0.039594 
1537.266352  	0.038982 
1539.195168  	0.031250 
1541.123984  	0.022728 
1543.052800  	0.025696 
1544.981616  	0.026227 
1546.910432  	0.025734 
1548.839248  	0.026633 
1550.768064  	0.026553 
1552.696880  	0.026680 
1554.625696  	0.027112 
1556.554512  	0.027799 
1558.483328  	0.024809 
1560.412144  	0.026783 
1562.340960  	0.035495 
1564.269776  	0.040017 
1566.198592  	0.045452 
1568.127408  	0.050091 
1570.056224  	0.054459 
1571.985040  	0.061992 
1573.913856  	0.067801 
1575.842672  	0.068227 
1577.771488  	0.070504 
1579.700304  	0.073200 
1581.629120  	0.073214 
1583.557936  	0.072577 
1585.486752  	0.073358 
1587.415568  	0.075768 
1589.344384  	0.080313 
1591.273200  	0.086503 
1593.202016  	0.094058 
1595.130832  	0.101845 
1597.059648  	0.110072 
1598.988464  	0.117300 
1600.917280  	0.123629 
1602.846096  	0.127637 
1604.774912  	0.130346 
1606.703728  	0.130814 
1608.632544  	0.129679 
1610.561360  	0.127415 
1612.490176  	0.126209 
1614.418992  	0.124591 
1616.347808  	0.120702 
1618.276624  	0.120993 
1620.205440  	0.126856 
1622.134256  	0.130296 
1624.063072  	0.135360 
1625.991888  	0.143029 
1627.920704  	0.151410 
1629.849520  	0.161541 
1631.778336  	0.172264 
1633.707152  	0.179923 
1635.635968  	0.186446 
1637.564784  	0.196651 
1639.493600  	0.206364 
1641.422416  	0.212472 
1643.351232  	0.217604 
1645.280048  	0.218595 
1647.208864  	0.216124 
1649.137680  	0.217773 
1651.066496  	0.220292 
1652.995312  	0.210678 
1654.924128  	0.207955 
1656.852944  	0.210598 
1658.781760  	0.209285 
1660.710576  	0.205684 
1662.639392  	0.199183 
1664.568208  	0.194605 
1666.497024  	0.193185 
1668.425840  	0.187291 
1670.354656  	0.178664 
1672.283472  	0.175723 
1674.212288  	0.173067 
1676.141104  	0.166854 
1678.069920  	0.166867 
1679.998736  	0.166715 
1681.927552  	0.165764 
1683.856368  	0.159088 
1685.785184  	0.156413 
1687.714000  	0.160168 
1689.642816  	0.159661 
1691.571632  	0.157821 
1693.500448  	0.157541 
1695.429264  	0.152740 
1697.358080  	0.148916 
1699.286896  	0.147041 
1701.215712  	0.139389 
1703.144528  	0.140245 
1705.073344  	0.136234 
1707.002160  	0.129351 
1708.930976  	0.125348 
1710.859792  	0.119615 
1712.788608  	0.113178 
1714.717424  	0.104693 
1716.646240  	0.092790 
1718.575056  	0.077635 
1720.503872  	0.070458 
1722.432688  	0.064401 
1724.361504  	0.054725 
1726.290320  	0.046918 
1728.219136  	0.040884 
1730.147952  	0.035244 
1732.076768  	0.030625 
1734.005584  	0.022504 
1735.934400  	0.016708 
1737.863216  	0.017561 
1739.792032  	0.013390 
1741.720848  	0.012234 
1743.649664  	0.011987 
1745.578480  	0.011133 
1747.507296  	0.009469 
1749.436112  	0.008455 
1751.364928  	0.006704 
1753.293744  	0.005889 
1755.222560  	0.006054 
1757.151376  	0.005216 
1759.080192  	0.004686 
1761.009008  	0.004062 
1762.937824  	0.002049 
1764.866640  	0.002817 
1766.795456  	0.003667 
1768.724272  	0.003248 
1770.653088  	0.001392 
1772.581904  	-0.001986 
1774.510720  	-0.001067 
1776.439536  	0.000857 
1778.368352  	0.001307 
1780.297168  	0.000902 
1782.225984  	0.000209 
1784.154800  	0.000845 
1786.083616  	0.000094 
1788.012432  	0.000530 
1789.941248  	0.001269 
1791.870064  	-0.000394 
1793.798880  	-0.002369 
1795.727696  	-0.000527 
1797.656512  	-0.000661 
1799.585328  	-0.000706 
1801.514144  	-0.000500 
1803.442960  	-0.000746 
1805.371776  	-0.001363 
1807.300592  	-0.000851 
1809.229408  	-0.001412 
1811.158224  	-0.001988 
1813.087040  	-0.002272 
1815.015856  	-0.001669 
1816.944672  	-0.001550 
1818.873488  	-0.001694 
1820.802304  	-0.001900 
1822.731120  	-0.000943 
1824.659936  	-0.001704 
1826.588752  	-0.002436 
1828.517568  	-0.002783 
1830.446384  	-0.003614 
1832.375200  	-0.002900 
1834.304016  	-0.001822 
1836.232832  	-0.001947 
1838.161648  	-0.001845 
1840.090464  	-0.001959 
1842.019280  	-0.000844 
1843.948096  	-0.002374 
1845.876912  	-0.002846 
1847.805728  	-0.001963 
1849.734544  	-0.002077 
1851.663360  	-0.002449 
1853.592176  	-0.002357 
1855.520992  	-0.002634 
1857.449808  	-0.002647 
1859.378624  	-0.002804 
1861.307440  	-0.002625 
1863.236256  	-0.002726 
1865.165072  	-0.002305 
1867.093888  	-0.002406 
1869.022704  	-0.003242 
1870.951520  	-0.003722 
1872.880336  	-0.002859 
1874.809152  	-0.003033 
1876.737968  	-0.003035 
1878.666784  	-0.003281 
1880.595600  	-0.002686 
1882.524416  	-0.002970 
1884.453232  	-0.003011 
1886.382048  	-0.003118 
1888.310864  	-0.002565 
1890.239680  	-0.003404 
1892.168496  	-0.003088 
1894.097312  	-0.002948 
1896.026128  	-0.002958 
1897.954944  	-0.003364 
1899.883760  	-0.003178 
1901.812576  	-0.003383 
1903.741392  	-0.003288 
1905.670208  	-0.003133 
1907.599024  	-0.002626 
1909.527840  	-0.003147 
1911.456656  	-0.002999 
1913.385472  	-0.002903 
1915.314288  	-0.002274 
1917.243104  	-0.002788 
1919.171920  	-0.003151 
1921.100736  	-0.002521 
1923.029552  	-0.001833 
1924.958368  	-0.003021 
1926.887184  	-0.003230 
1928.816000  	-0.003529 
1930.744816  	-0.003360 
1932.673632  	-0.003538 
1934.602448  	-0.002905 
1936.531264  	-0.003266 
1938.460080  	-0.003047 
1940.388896  	-0.002929 
1942.317712  	-0.002862 
1944.246528  	-0.003558 
1946.175344  	-0.002767 
1948.104160  	-0.003186 
1950.032976  	-0.002822 
1951.961792  	-0.003116 
1953.890608  	-0.002837 
1955.819424  	-0.002982 
1957.748240  	-0.001633 
1959.677056  	-0.002815 
1961.605872  	-0.002758 
1963.534688  	-0.003037 
1965.463504  	-0.001795 
1967.392320  	-0.002330 
1969.321136  	-0.002790 
1971.249952  	-0.002809 
1973.178768  	-0.001796 
1975.107584  	-0.003682 
1977.036400  	-0.002551 
1978.965216  	-0.001457 
1980.894032  	-0.001583 
1982.822848  	-0.002813 
1984.751664  	-0.002166 
1986.680480  	-0.002803 
1988.609296  	-0.002006 
1990.538112  	-0.002685 
1992.466928  	-0.002189 
1994.395744  	-0.002738 
1996.324560  	-0.002743 
1998.253376  	-0.003614 
2000.182192  	-0.003546 
2002.111008  	-0.003691 
2004.039824  	-0.002855 
2005.968640  	-0.003304 
2007.897456  	-0.001850 
2009.826272  	-0.002070 
2011.755088  	-0.002252 
2013.683904  	-0.003243 
2015.612720  	-0.002003 
2017.541536  	-0.002174 
2019.470352  	-0.001778 
2021.399168  	-0.002682 
2023.327984  	-0.003042 
2025.256800  	-0.003112 
2027.185616  	-0.002192 
2029.114432  	-0.001700 
2031.043248  	-0.001202 
2032.972064  	-0.001517 
2034.900880  	-0.000725 
2036.829696  	-0.001296 
2038.758512  	-0.000954 
2040.687328  	-0.002026 
2042.616144  	-0.001584 
2044.544960  	-0.002483 
2046.473776  	-0.002585 
2048.402592  	-0.002576 
2050.331408  	-0.002286 
2052.260224  	-0.002989 
2054.189040  	-0.002809 
2056.117856  	-0.003263 
2058.046672  	-0.002655 
2059.975488  	-0.002795 
2061.904304  	-0.002872 
2063.833120  	-0.002723 
2065.761936  	-0.002581 
2067.690752  	-0.003296 
2069.619568  	-0.003111 
2071.548384  	-0.003193 
2073.477200  	-0.003055 
2075.406016  	-0.002765 
2077.334832  	-0.002180 
2079.263648  	-0.002182 
2081.192464  	-0.002142 
2083.121280  	-0.002683 
2085.050096  	-0.002733 
2086.978912  	-0.002886 
2088.907728  	-0.002631 
2090.836544  	-0.002774 
2092.765360  	-0.002367 
2094.694176  	-0.002307 
2096.622992  	-0.002228 
2098.551808  	-0.002202 
2100.480624  	-0.001667 
2102.409440  	-0.001816 
2104.338256  	-0.002291 
2106.267072  	-0.002110 
2108.195888  	-0.001180 
2110.124704  	-0.001418 
2112.053520  	-0.001468 
2113.982336  	-0.001719 
2115.911152  	-0.001628 
2117.839968  	-0.001928 
2119.768784  	-0.002006 
2121.697600  	-0.002400 
2123.626416  	-0.002644 
2125.555232  	-0.002905 
2127.484048  	-0.002253 
2129.412864  	-0.002470 
2131.341680  	-0.002576 
2133.270496  	-0.002957 
2135.199312  	-0.001905 
2137.128128  	-0.001294 
2139.056944  	-0.001487 
2140.985760  	-0.001944 
2142.914576  	-0.001432 
2144.843392  	-0.001081 
2146.772208  	-0.001002 
2148.701024  	-0.002039 
2150.629840  	-0.001651 
2152.558656  	-0.001761 
2154.487472  	-0.001982 
2156.416288  	-0.002461 
2158.345104  	-0.000990 
2160.273920  	0.000458 
2162.202736  	0.002068 
2164.131552  	0.001560 
2166.060368  	0.001325 
2167.989184  	0.000499 
2169.918000  	0.000699 
2171.846816  	0.000045 
2173.775632  	0.001012 
2175.704448  	0.001127 
2177.633264  	0.000792 
2179.562080  	0.000076 
2181.490896  	0.000632 
2183.419712  	-0.000261 
2185.348528  	-0.000604 
2187.277344  	-0.001638 
2189.206160  	-0.002078 
2191.134976  	-0.001524 
2193.063792  	-0.001063 
2194.992608  	-0.001517 
2196.921424  	-0.000984 
2198.850240  	-0.000926 
2200.779056  	-0.001114 
2202.707872  	-0.001851 
2204.636688  	-0.001720 
2206.565504  	-0.001491 
2208.494320  	-0.001487 
2210.423136  	-0.001815 
2212.351952  	-0.001426 
2214.280768  	-0.001504 
2216.209584  	-0.001460 
2218.138400  	-0.002697 
2220.067216  	-0.002876 
2221.996032  	-0.002572 
2223.924848  	-0.001829 
2225.853664  	-0.001299 
2227.782480  	-0.001242 
2229.711296  	-0.002525 
2231.640112  	-0.002897 
2233.568928  	-0.002746 
2235.497744  	-0.002493 
2237.426560  	-0.002986 
2239.355376  	-0.003080 
2241.284192  	-0.003083 
2243.213008  	-0.002835 
2245.141824  	-0.003004 
2247.070640  	-0.002910 
2248.999456  	-0.003163 
2250.928272  	-0.003435 
2252.857088  	-0.003688 
2254.785904  	-0.003703 
2256.714720  	-0.004200 
2258.643536  	-0.003938 
2260.572352  	-0.003889 
2262.501168  	-0.003718 
2264.429984  	-0.004000 
2266.358800  	-0.004206 
2268.287616  	-0.004228 
2270.216432  	-0.003847 
2272.145248  	-0.003855 
2274.074064  	-0.003801 
2276.002880  	-0.003637 
2277.931696  	-0.003394 
2279.860512  	-0.003177 
2281.789328  	-0.002805 
2283.718144  	-0.002825 
2285.646960  	-0.002461 
2287.575776  	-0.002297 
2289.504592  	-0.002730 
2291.433408  	-0.003193 
2293.362224  	-0.003020 
2295.291040  	-0.002577 
2297.219856  	-0.002064 
2299.148672  	-0.002003 
2301.077488  	-0.001797 
2303.006304  	-0.001710 
2304.935120  	-0.001653 
2306.863936  	-0.001855 
2308.792752  	-0.001880 
2310.721568  	-0.001993 
2312.650384  	-0.002735 
2314.579200  	-0.003847 
2316.508016  	-0.004665 
2318.436832  	-0.005597 
2320.365648  	-0.006806 
2322.294464  	-0.008329 
2324.223280  	-0.010246 
2326.152096  	-0.012620 
2328.080912  	-0.014376 
2330.009728  	-0.016549 
2331.938544  	-0.018745 
2333.867360  	-0.020204 
2335.796176  	-0.021256 
2337.724992  	-0.022269 
2339.653808  	-0.022398 
2341.582624  	-0.022745 
2343.511440  	-0.021706 
2345.440256  	-0.019171 
2347.369072  	-0.013808 
2349.297888  	-0.009954 
2351.226704  	-0.012334 
2353.155520  	-0.018367 
2355.084336  	-0.022978 
2357.013152  	-0.026726 
2358.941968  	-0.029256 
2360.870784  	-0.030623 
2362.799600  	-0.029649 
2364.728416  	-0.028312 
2366.657232  	-0.025414 
2368.586048  	-0.021771 
2370.514864  	-0.018131 
2372.443680  	-0.014452 
2374.372496  	-0.010973 
2376.301312  	-0.007882 
2378.230128  	-0.005088 
2380.158944  	-0.003701 
2382.087760  	-0.003167 
2384.016576  	-0.003118 
2385.945392  	-0.003364 
2387.874208  	-0.003631 
2389.803024  	-0.003743 
2391.731840  	-0.004025 
2393.660656  	-0.004029 
2395.589472  	-0.004073 
2397.518288  	-0.003984 
2399.447104  	-0.004138 
2401.375920  	-0.004266 
2403.304736  	-0.004328 
2405.233552  	-0.004306 
2407.162368  	-0.004471 
2409.091184  	-0.004459 
2411.020000  	-0.004346 
2412.948816  	-0.004222 
2414.877632  	-0.004109 
2416.806448  	-0.003911 
2418.735264  	-0.004083 
2420.664080  	-0.004272 
2422.592896  	-0.004298 
2424.521712  	-0.004223 
2426.450528  	-0.004336 
2428.379344  	-0.004184 
2430.308160  	-0.003931 
2432.236976  	-0.003662 
2434.165792  	-0.003654 
2436.094608  	-0.003707 
2438.023424  	-0.003625 
2439.952240  	-0.003410 
2441.881056  	-0.003502 
2443.809872  	-0.003779 
2445.738688  	-0.003679 
2447.667504  	-0.003278 
2449.596320  	-0.003076 
2451.525136  	-0.002815 
2453.453952  	-0.002906 
2455.382768  	-0.003029 
2457.311584  	-0.003175 
2459.240400  	-0.003247 
2461.169216  	-0.003283 
2463.098032  	-0.003473 
2465.026848  	-0.003531 
2466.955664  	-0.003405 
2468.884480  	-0.003559 
2470.813296  	-0.003500 
2472.742112  	-0.003474 
2474.670928  	-0.003445 
2476.599744  	-0.003578 
2478.528560  	-0.003498 
2480.457376  	-0.003404 
2482.386192  	-0.003361 
2484.315008  	-0.003291 
2486.243824  	-0.003173 
2488.172640  	-0.003235 
2490.101456  	-0.003141 
2492.030272  	-0.003035 
2493.959088  	-0.002888 
2495.887904  	-0.002754 
2497.816720  	-0.002619 
2499.745536  	-0.002550 
2501.674352  	-0.002474 
2503.603168  	-0.002360 
2505.531984  	-0.002321 
2507.460800  	-0.002629 
2509.389616  	-0.002717 
2511.318432  	-0.002591 
2513.247248  	-0.002436 
2515.176064  	-0.002380 
2517.104880  	-0.002285 
2519.033696  	-0.002489 
2520.962512  	-0.002502 
2522.891328  	-0.002290 
2524.820144  	-0.002319 
2526.748960  	-0.002283 
2528.677776  	-0.002011 
2530.606592  	-0.002091 
2532.535408  	-0.002109 
2534.464224  	-0.002126 
2536.393040  	-0.001953 
2538.321856  	-0.001803 
2540.250672  	-0.001735 
2542.179488  	-0.001732 
2544.108304  	-0.001749 
2546.037120  	-0.001764 
2547.965936  	-0.001641 
2549.894752  	-0.001641 
2551.823568  	-0.001611 
2553.752384  	-0.001276 
2555.681200  	-0.000845 
2557.610016  	-0.000821 
2559.538832  	-0.000884 
2561.467648  	-0.000848 
2563.396464  	-0.000729 
2565.325280  	-0.000575 
2567.254096  	-0.000497 
2569.182912  	-0.000635 
2571.111728  	-0.000563 
2573.040544  	-0.000485 
2574.969360  	-0.000337 
2576.898176  	-0.000160 
2578.826992  	-0.000212 
2580.755808  	-0.000232 
2582.684624  	0.000026 
2584.613440  	0.000163 
2586.542256  	0.000185 
2588.471072  	0.000022 
2590.399888  	0.000082 
2592.328704  	0.000261 
2594.257520  	0.000190 
2596.186336  	0.000304 
2598.115152  	0.000522 
2600.043968  	0.000469 
2601.972784  	0.000477 
2603.901600  	0.000564 
2605.830416  	0.000838 
2607.759232  	0.000900 
2609.688048  	0.001006 
2611.616864  	0.001273 
2613.545680  	0.001481 
2615.474496  	0.001603 
2617.403312  	0.001757 
2619.332128  	0.001815 
2621.260944  	0.001805 
2623.189760  	0.001884 
2625.118576  	0.002021 
2627.047392  	0.002112 
2628.976208  	0.002302 
2630.905024  	0.002335 
2632.833840  	0.002380 
2634.762656  	0.002575 
2636.691472  	0.002693 
2638.620288  	0.002789 
2640.549104  	0.002929 
2642.477920  	0.002983 
2644.406736  	0.003168 
2646.335552  	0.003268 
2648.264368  	0.003374 
2650.193184  	0.003428 
2652.122000  	0.003516 
2654.050816  	0.003647 
2655.979632  	0.003836 
2657.908448  	0.003981 
2659.837264  	0.004141 
2661.766080  	0.004218 
2663.694896  	0.004409 
2665.623712  	0.004603 
2667.552528  	0.004745 
2669.481344  	0.004862 
2671.410160  	0.004968 
2673.338976  	0.005079 
2675.267792  	0.005218 
2677.196608  	0.005452 
2679.125424  	0.005644 
2681.054240  	0.005772 
2682.983056  	0.005902 
2684.911872  	0.005987 
2686.840688  	0.006147 
2688.769504  	0.006233 
2690.698320  	0.006264 
2692.627136  	0.006340 
2694.555952  	0.006391 
2696.484768  	0.006460 
2698.413584  	0.006614 
2700.342400  	0.006739 
2702.271216  	0.006966 
2704.200032  	0.007153 
2706.128848  	0.007182 
2708.057664  	0.007102 
2709.986480  	0.007234 
2711.915296  	0.007418 
2713.844112  	0.007555 
2715.772928  	0.007658 
2717.701744  	0.007834 
2719.630560  	0.008110 
2721.559376  	0.008238 
2723.488192  	0.008345 
2725.417008  	0.008595 
2727.345824  	0.008791 
2729.274640  	0.008872 
2731.203456  	0.008997 
2733.132272  	0.009208 
2735.061088  	0.009418 
2736.989904  	0.009571 
2738.918720  	0.009679 
2740.847536  	0.009705 
2742.776352  	0.009667 
2744.705168  	0.009841 
2746.633984  	0.010003 
2748.562800  	0.010119 
2750.491616  	0.010165 
2752.420432  	0.010258 
2754.349248  	0.010259 
2756.278064  	0.010207 
2758.206880  	0.010088 
2760.135696  	0.010091 
2762.064512  	0.010150 
2763.993328  	0.010153 
2765.922144  	0.010084 
2767.850960  	0.010100 
2769.779776  	0.010202 
2771.708592  	0.010271 
2773.637408  	0.010090 
2775.566224  	0.009973 
2777.495040  	0.010016 
2779.423856  	0.010214 
2781.352672  	0.010309 
2783.281488  	0.010255 
2785.210304  	0.010236 
2787.139120  	0.010297 
2789.067936  	0.010313 
2790.996752  	0.010337 
2792.925568  	0.010219 
2794.854384  	0.010236 
2796.783200  	0.010348 
2798.712016  	0.010332 
2800.640832  	0.010226 
2802.569648  	0.010356 
2804.498464  	0.010426 
2806.427280  	0.010327 
2808.356096  	0.010191 
2810.284912  	0.010194 
2812.213728  	0.010272 
2814.142544  	0.010270 
2816.071360  	0.010240 
2818.000176  	0.010100 
2819.928992  	0.010054 
2821.857808  	0.010040 
2823.786624  	0.009923 
2825.715440  	0.009796 
2827.644256  	0.009574 
2829.573072  	0.009404 
2831.501888  	0.009122 
2833.430704  	0.008868 
2835.359520  	0.008650 
2837.288336  	0.008420 
2839.217152  	0.008067 
2841.145968  	0.007671 
2843.074784  	0.007327 
2845.003600  	0.007088 
2846.932416  	0.006893 
2848.861232  	0.006731 
2850.790048  	0.006370 
2852.718864  	0.005730 
2854.647680  	0.005193 
2856.576496  	0.004687 
2858.505312  	0.004088 
2860.434128  	0.003407 
2862.362944  	0.002613 
2864.291760  	0.001914 
2866.220576  	0.001403 
2868.149392  	0.001076 
2870.078208  	0.000838 
2872.007024  	0.000803 
2873.935840  	0.000876 
2875.864656  	0.000949 
2877.793472  	0.000922 
2879.722288  	0.000794 
2881.651104  	0.000497 
2883.579920  	0.000463 
2885.508736  	0.000715 
2887.437552  	0.000945 
2889.366368  	0.001089 
2891.295184  	0.000947 
2893.224000  	0.000766 
2895.152816  	0.000833 
2897.081632  	0.000572 
2899.010448  	-0.001068 
2900.939264  	-0.002514 
2902.868080  	-0.001323 
2904.796896  	-0.000064 
2906.725712  	0.000574 
2908.654528  	0.001388 
2910.583344  	0.001944 
2912.512160  	0.002679 
2914.440976  	0.003945 
2916.369792  	0.004954 
2918.298608  	0.005646 
2920.227424  	0.006202 
2922.156240  	0.006889 
2924.085056  	0.007679 
2926.013872  	0.008622 
2927.942688  	0.009577 
2929.871504  	0.010454 
2931.800320  	0.011290 
2933.729136  	0.012048 
2935.657952  	0.012658 
2937.586768  	0.013356 
2939.515584  	0.013927 
2941.444400  	0.014218 
2943.373216  	0.014364 
2945.302032  	0.014707 
2947.230848  	0.014955 
2949.159664  	0.014701 
2951.088480  	0.014198 
2953.017296  	0.013692 
2954.946112  	0.013049 
2956.874928  	0.012423 
2958.803744  	0.011704 
2960.732560  	0.011198 
2962.661376  	0.010601 
2964.590192  	0.009658 
2966.519008  	0.008344 
2968.447824  	0.007292 
2970.376640  	0.006596 
2972.305456  	0.006016 
2974.234272  	0.006128 
2976.163088  	0.006556 
2978.091904  	0.006496 
2980.020720  	0.006377 
2981.949536  	0.006611 
2983.878352  	0.006592 
2985.807168  	0.005674 
2987.735984  	0.004734 
2989.664800  	0.004993 
2991.593616  	0.007789 
2993.522432  	0.009866 
2995.451248  	0.010495 
2997.380064  	0.011217 
2999.308880  	0.012398 
3001.237696  	0.013752 
3003.166512  	0.015347 
3005.095328  	0.016795 
3007.024144  	0.018252 
3008.952960  	0.019666 
3010.881776  	0.021108 
3012.810592  	0.022547 
3014.739408  	0.023845 
3016.668224  	0.025015 
3018.597040  	0.026300 
3020.525856  	0.027457 
3022.454672  	0.028585 
3024.383488  	0.029696 
3026.312304  	0.030745 
3028.241120  	0.031948 
3030.169936  	0.032938 
3032.098752  	0.033692 
3034.027568  	0.034498 
3035.956384  	0.035409 
3037.885200  	0.036393 
3039.814016  	0.037166 
3041.742832  	0.037864 
3043.671648  	0.038432 
3045.600464  	0.039125 
3047.529280  	0.039765 
3049.458096  	0.040272 
3051.386912  	0.040908 
3053.315728  	0.041780 
3055.244544  	0.042537 
3057.173360  	0.043238 
3059.102176  	0.043919 
3061.030992  	0.044657 
3062.959808  	0.045368 
3064.888624  	0.046022 
3066.817440  	0.046756 
3068.746256  	0.047773 
3070.675072  	0.048794 
3072.603888  	0.049648 
3074.532704  	0.050456 
3076.461520  	0.051288 
3078.390336  	0.052163 
3080.319152  	0.053024 
3082.247968  	0.053777 
3084.176784  	0.054622 
3086.105600  	0.055642 
3088.034416  	0.056533 
3089.963232  	0.057537 
3091.892048  	0.058396 
3093.820864  	0.059117 
3095.749680  	0.059940 
3097.678496  	0.060936 
3099.607312  	0.062022 
3101.536128  	0.062974 
3103.464944  	0.063963 
3105.393760  	0.064890 
3107.322576  	0.065760 
3109.251392  	0.066529 
3111.180208  	0.067188 
3113.109024  	0.067985 
3115.037840  	0.068787 
3116.966656  	0.069612 
3118.895472  	0.070491 
3120.824288  	0.071265 
3122.753104  	0.071897 
3124.681920  	0.072481 
3126.610736  	0.073083 
3128.539552  	0.073963 
3130.468368  	0.074845 
3132.397184  	0.075277 
3134.326000  	0.075930 
3136.254816  	0.076705 
3138.183632  	0.077422 
3140.112448  	0.078087 
3142.041264  	0.078680 
3143.970080  	0.079297 
3145.898896  	0.080149 
3147.827712  	0.081024 
3149.756528  	0.081702 
3151.685344  	0.082295 
3153.614160  	0.083109 
3155.542976  	0.083975 
3157.471792  	0.084695 
3159.400608  	0.085327 
3161.329424  	0.085989 
3163.258240  	0.086601 
3165.187056  	0.087174 
3167.115872  	0.087762 
3169.044688  	0.088289 
3170.973504  	0.088813 
3172.902320  	0.089162 
3174.831136  	0.089625 
3176.759952  	0.090293 
3178.688768  	0.090799 
3180.617584  	0.091197 
3182.546400  	0.091544 
3184.475216  	0.091846 
3186.404032  	0.092126 
3188.332848  	0.092440 
3190.261664  	0.092739 
3192.190480  	0.092902 
3194.119296  	0.092790 
3196.048112  	0.092853 
3197.976928  	0.092892 
3199.905744  	0.093007 
3201.834560  	0.092911 
3203.763376  	0.092732 
3205.692192  	0.092809 
3207.621008  	0.092604 
3209.549824  	0.092371 
3211.478640  	0.092506 
3213.407456  	0.092502 
3215.336272  	0.092225 
3217.265088  	0.092069 
3219.193904  	0.091950 
3221.122720  	0.091718 
3223.051536  	0.091571 
3224.980352  	0.091450 
3226.909168  	0.091275 
3228.837984  	0.090972 
3230.766800  	0.090877 
3232.695616  	0.090738 
3234.624432  	0.090651 
3236.553248  	0.090682 
3238.482064  	0.090667 
3240.410880  	0.090703 
3242.339696  	0.090870 
3244.268512  	0.090600 
3246.197328  	0.090719 
3248.126144  	0.091173 
3250.054960  	0.091271 
3251.983776  	0.091394 
3253.912592  	0.091642 
3255.841408  	0.091913 
3257.770224  	0.092282 
3259.699040  	0.092664 
3261.627856  	0.092892 
3263.556672  	0.093052 
3265.485488  	0.093168 
3267.414304  	0.093461 
3269.343120  	0.093971 
3271.271936  	0.094366 
3273.200752  	0.094443 
3275.129568  	0.094421 
3277.058384  	0.094614 
3278.987200  	0.094962 
3280.916016  	0.095256 
3282.844832  	0.095384 
3284.773648  	0.095584 
3286.702464  	0.095921 
3288.631280  	0.096189 
3290.560096  	0.096470 
3292.488912  	0.096869 
3294.417728  	0.097116 
3296.346544  	0.097482 
3298.275360  	0.097897 
3300.204176  	0.098286 
3302.132992  	0.098552 
3304.061808  	0.098863 
3305.990624  	0.099441 
3307.919440  	0.099920 
3309.848256  	0.100150 
3311.777072  	0.100374 
3313.705888  	0.100715 
3315.634704  	0.101309 
3317.563520  	0.101758 
3319.492336  	0.101980 
3321.421152  	0.102100 
3323.349968  	0.102420 
3325.278784  	0.102690 
3327.207600  	0.102862 
3329.136416  	0.102911 
3331.065232  	0.103065 
3332.994048  	0.103150 
3334.922864  	0.103133 
3336.851680  	0.103194 
3338.780496  	0.103096 
3340.709312  	0.102988 
3342.638128  	0.102919 
3344.566944  	0.102370 
3346.495760  	0.102063 
3348.424576  	0.101872 
3350.353392  	0.101423 
3352.282208  	0.101061 
3354.211024  	0.100782 
3356.139840  	0.100417 
3358.068656  	0.100088 
3359.997472  	0.099818 
3361.926288  	0.099388 
3363.855104  	0.098928 
3365.783920  	0.098544 
3367.712736  	0.098142 
3369.641552  	0.097565 
3371.570368  	0.096875 
3373.499184  	0.096576 
3375.428000  	0.096327 
3377.356816  	0.095882 
3379.285632  	0.095444 
3381.214448  	0.094994 
3383.143264  	0.094559 
3385.072080  	0.094087 
3387.000896  	0.093688 
3388.929712  	0.093303 
3390.858528  	0.092988 
3392.787344  	0.092635 
3394.716160  	0.092113 
3396.644976  	0.091680 
3398.573792  	0.091225 
3400.502608  	0.090761 
3402.431424  	0.090040 
3404.360240  	0.089441 
3406.289056  	0.088866 
3408.217872  	0.088396 
3410.146688  	0.087873 
3412.075504  	0.087412 
3414.004320  	0.086843 
3415.933136  	0.086315 
3417.861952  	0.085574 
3419.790768  	0.084987 
3421.719584  	0.084441 
3423.648400  	0.083860 
3425.577216  	0.083176 
3427.506032  	0.082482 
3429.434848  	0.082017 
3431.363664  	0.081512 
3433.292480  	0.080802 
3435.221296  	0.080128 
3437.150112  	0.079573 
3439.078928  	0.079068 
3441.007744  	0.078414 
3442.936560  	0.077755 
3444.865376  	0.077283 
3446.794192  	0.076403 
3448.723008  	0.075423 
3450.651824  	0.074704 
3452.580640  	0.073889 
3454.509456  	0.073240 
3456.438272  	0.072765 
3458.367088  	0.072259 
3460.295904  	0.071579 
3462.224720  	0.070651 
3464.153536  	0.069674 
3466.082352  	0.068843 
3468.011168  	0.067892 
3469.939984  	0.067018 
3471.868800  	0.066196 
3473.797616  	0.065330 
3475.726432  	0.064467 
3477.655248  	0.063525 
3479.584064  	0.062914 
3481.512880  	0.062229 
3483.441696  	0.061046 
3485.370512  	0.060190 
3487.299328  	0.059120 
3489.228144  	0.058206 
3491.156960  	0.057260 
3493.085776  	0.056452 
3495.014592  	0.055846 
3496.943408  	0.055146 
3498.872224  	0.054658 
3500.801040  	0.054593 
3502.729856  	0.053558 
3504.658672  	0.052040 
3506.587488  	0.051670 
3508.516304  	0.051335 
3510.445120  	0.050110 
3512.373936  	0.048875 
3514.302752  	0.048173 
3516.231568  	0.047824 
3518.160384  	0.047340 
3520.089200  	0.046841 
3522.018016  	0.046599 
3523.946832  	0.046381 
3525.875648  	0.045446 
3527.804464  	0.043919 
3529.733280  	0.042845 
3531.662096  	0.042140 
3533.590912  	0.041356 
3535.519728  	0.041098 
3537.448544  	0.040686 
3539.377360  	0.039655 
3541.306176  	0.039037 
3543.234992  	0.039241 
3545.163808  	0.039460 
3547.092624  	0.038096 
3549.021440  	0.036404 
3550.950256  	0.035622 
3552.879072  	0.034681 
3554.807888  	0.033975 
3556.736704  	0.033520 
3558.665520  	0.033205 
3560.594336  	0.032789 
3562.523152  	0.032102 
3564.451968  	0.032426 
3566.380784  	0.032391 
3568.309600  	0.029762 
3570.238416  	0.028455 
3572.167232  	0.027960 
3574.096048  	0.027130 
3576.024864  	0.026211 
3577.953680  	0.025835 
3579.882496  	0.025220 
3581.811312  	0.024346 
3583.740128  	0.024032 
3585.668944  	0.024257 
3587.597760  	0.022498 
3589.526576  	0.020450 
3591.455392  	0.020097 
3593.384208  	0.019767 
3595.313024  	0.018434 
3597.241840  	0.017094 
3599.170656  	0.015705 
3601.099472  	0.014388 
3603.028288  	0.014377 
3604.957104  	0.014704 
3606.885920  	0.014030 
3608.814736  	0.012313 
3610.743552  	0.012029 
3612.672368  	0.010940 
3614.601184  	0.009486 
3616.530000  	0.009489 
3618.458816  	0.007298 
3620.387632  	0.004945 
3622.316448  	0.005100 
3624.245264  	0.005235 
3626.174080  	0.005268 
3628.102896  	0.002375 
3630.031712  	-0.001849 
3631.960528  	0.000138 
3633.889344  	-0.000143 
3635.818160  	-0.001190 
3637.746976  	-0.002078 
3639.675792  	-0.002399 
3641.604608  	-0.002505 
3643.533424  	-0.002723 
3645.462240  	-0.003077 
3647.391056  	-0.005916 
3649.319872  	-0.010825 
3651.248688  	-0.012946 
3653.177504  	-0.009978 
3655.106320  	-0.010184 
3657.035136  	-0.013274 
3658.963952  	-0.012788 
3660.892768  	-0.012591 
3662.821584  	-0.013008 
3664.750400  	-0.012947 
3666.679216  	-0.012606 
3668.608032  	-0.014592 
3670.536848  	-0.018522 
3672.465664  	-0.015966 
3674.394480  	-0.016852 
3676.323296  	-0.022410 
3678.252112  	-0.018399 
3680.180928  	-0.016466 
3682.109744  	-0.015725 
3684.038560  	-0.015681 
3685.967376  	-0.015283 
3687.896192  	-0.018004 
3689.825008  	-0.021653 
3691.753824  	-0.020567 
3693.682640  	-0.017942 
3695.611456  	-0.016777 
3697.540272  	-0.015916 
3699.469088  	-0.014901 
3701.397904  	-0.016165 
3703.326720  	-0.016376 
3705.255536  	-0.014461 
3707.184352  	-0.013650 
3709.113168  	-0.015181 
3711.041984  	-0.017934 
3712.970800  	-0.017358 
3714.899616  	-0.014083 
3716.828432  	-0.013111 
3718.757248  	-0.013518 
3720.686064  	-0.013997 
3722.614880  	-0.014502 
3724.543696  	-0.013698 
3726.472512  	-0.014178 
3728.401328  	-0.014273 
3730.330144  	-0.014412 
3732.258960  	-0.016027 
3734.187776  	-0.015116 
3736.116592  	-0.016224 
3738.045408  	-0.016031 
3739.974224  	-0.013895 
3741.903040  	-0.012245 
3743.831856  	-0.014719 
3745.760672  	-0.017385 
3747.689488  	-0.014788 
3749.618304  	-0.017527 
3751.547120  	-0.020100 
3753.475936  	-0.017774 
3755.404752  	-0.014443 
3757.333568  	-0.013776 
3759.262384  	-0.014871 
3761.191200  	-0.014918 
3763.120016  	-0.012672 
3765.048832  	-0.013266 
3766.977648  	-0.013440 
3768.906464  	-0.014339 
3770.835280  	-0.015377 
3772.764096  	-0.013686 
3774.692912  	-0.012842 
3776.621728  	-0.012592 
3778.550544  	-0.013856 
3780.479360  	-0.015141 
3782.408176  	-0.013450 
3784.336992  	-0.013591 
3786.265808  	-0.013700 
3788.194624  	-0.013335 
3790.123440  	-0.013236 
3792.052256  	-0.013101 
3793.981072  	-0.012692 
3795.909888  	-0.013991 
3797.838704  	-0.014059 
3799.767520  	-0.014115 
3801.696336  	-0.018613 
3803.625152  	-0.016448 
3805.553968  	-0.014886 
3807.482784  	-0.017196 
3809.411600  	-0.014741 
3811.340416  	-0.012845 
3813.269232  	-0.012164 
3815.198048  	-0.014893 
3817.126864  	-0.016620 
3819.055680  	-0.014423 
3820.984496  	-0.018062 
3822.913312  	-0.017232 
3824.842128  	-0.014051 
3826.770944  	-0.014530 
3828.699760  	-0.013744 
3830.628576  	-0.013788 
3832.557392  	-0.014615 
3834.486208  	-0.014363 
3836.415024  	-0.015326 
3838.343840  	-0.017223 
3840.272656  	-0.016659 
3842.201472  	-0.015049 
3844.130288  	-0.014805 
3846.059104  	-0.013683 
3847.987920  	-0.012497 
3849.916736  	-0.012075 
3851.845552  	-0.014081 
3853.774368  	-0.020528 
3855.703184  	-0.017619 
3857.632000  	-0.014246 
3859.560816  	-0.012848 
3861.489632  	-0.012725 
3863.418448  	-0.013631 
3865.347264  	-0.014460 
3867.276080  	-0.012786 
3869.204896  	-0.013839 
3871.133712  	-0.014617 
3873.062528  	-0.013525 
3874.991344  	-0.014518 
3876.920160  	-0.012605 
3878.848976  	-0.011922 
3880.777792  	-0.013316 
3882.706608  	-0.012193 
3884.635424  	-0.012233 
3886.564240  	-0.014194 
3888.493056  	-0.012744 
3890.421872  	-0.013233 
3892.350688  	-0.014654 
3894.279504  	-0.013355 
3896.208320  	-0.011923 
3898.137136  	-0.011429 
3900.065952  	-0.011840 
3901.994768  	-0.011977 
3903.923584  	-0.013290 
3905.852400  	-0.013909 
3907.781216  	-0.013216 
3909.710032  	-0.012931 
3911.638848  	-0.012854 
3913.567664  	-0.012345 
3915.496480  	-0.011657 
3917.425296  	-0.012060 
3919.354112  	-0.012635 
3921.282928  	-0.012509 
3923.211744  	-0.011811 
3925.140560  	-0.012082 
3927.069376  	-0.012233 
3928.998192  	-0.012044 
3930.927008  	-0.011755 
3932.855824  	-0.011911 
3934.784640  	-0.012301 
3936.713456  	-0.012325 
3938.642272  	-0.012121 
3940.571088  	-0.011684 
3942.499904  	-0.011696 
3944.428720  	-0.011963 
3946.357536  	-0.011521 
3948.286352  	-0.011344 
3950.215168  	-0.012119 
3952.143984  	-0.012925 
3954.072800  	-0.012802 
3956.001616  	-0.012454 
3957.930432  	-0.012516 
3959.859248  	-0.012312 
3961.788064  	-0.012263 
3963.716880  	-0.012687 
3965.645696  	-0.012922 
3967.574512  	-0.012775 
3969.503328  	-0.012478 
3971.432144  	-0.012442 
3973.360960  	-0.012461 
3975.289776  	-0.012511 
3977.218592  	-0.012453 
3979.147408  	-0.012434 
3981.076224  	-0.012676 
3983.005040  	-0.012677 
3984.933856  	-0.012518 
3986.862672  	-0.012512 
3988.791488  	-0.012269 
3990.720304  	-0.012028 
3992.649120  	-0.012192 
3994.577936  	-0.012543 
3996.506752  	-0.012588 
3998.435568  	-0.012714 
4000.364384  	-0.012691 