##TITLE=No Description
##DATA TYPE=INFRARED SPECTRUM
##XUNITS=1/CM
##YUNITS=Abs
399.264912  	0.596863 
401.193728  	0.576822 
403.122544  	0.577351 
405.051360  	0.592739 
406.980176  	0.598116 
408.908992  	0.567244 
410.837808  	0.570436 
412.766624  	0.579407 
414.695440  	0.582907 
416.624256  	0.582680 
418.553072  	0.573386 
420.481888  	0.546505 
422.410704  	0.558298 
424.339520  	0.564003 
426.268336  	0.561634 
428.197152  	0.551154 
430.125968  	0.541213 
432.054784  	0.536310 
433.983600  	0.541794 
435.912416  	0.541429 
437.841232  	0.540436 
439.770048  	0.535939 
441.698864  	0.533861 
443.627680  	0.531194 
445.556496  	0.535337 
447.485312  	0.527676 
449.414128  	0.522976 
451.342944  	0.524761 
453.271760  	0.526568 
455.200576  	0.522642 
457.129392  	0.529051 
459.058208  	0.525616 
460.987024  	0.524182 
462.915840  	0.518964 
464.844656  	0.520180 
466.773472  	0.519294 
468.702288  	0.523863 
470.631104  	0.521257 
472.559920  	0.519170 
474.488736  	0.513129 
476.417552  	0.515242 
478.346368  	0.517474 
480.275184  	0.520433 
482.204000  	0.513784 
484.132816  	0.507489 
486.061632  	0.503074 
487.990448  	0.509400 
489.919264  	0.513407 
491.848080  	0.514318 
493.776896  	0.509400 
495.705712  	0.505230 
497.634528  	0.502043 
499.563344  	0.505284 
501.492160  	0.504307 
503.420976  	0.500395 
505.349792  	0.496092 
507.278608  	0.495997 
509.207424  	0.495682 
511.136240  	0.498629 
513.065056  	0.499415 
514.993872  	0.504333 
516.922688  	0.505757 
518.851504  	0.506671 
520.780320  	0.504493 
522.709136  	0.502406 
524.637952  	0.501223 
526.566768  	0.501721 
528.495584  	0.496630 
530.424400  	0.496584 
532.353216  	0.492799 
534.282032  	0.486080 
536.210848  	0.481389 
538.139664  	0.478907 
540.068480  	0.473318 
541.997296  	0.470403 
543.926112  	0.466093 
545.854928  	0.463023 
547.783744  	0.458564 
549.712560  	0.455232 
551.641376  	0.452476 
553.570192  	0.448600 
555.499008  	0.444280 
557.427824  	0.442463 
559.356640  	0.438444 
561.285456  	0.434314 
563.214272  	0.430158 
565.143088  	0.427302 
567.071904  	0.424305 
569.000720  	0.420983 
570.929536  	0.417512 
572.858352  	0.415332 
574.787168  	0.412100 
576.715984  	0.409967 
578.644800  	0.406732 
580.573616  	0.403977 
582.502432  	0.398668 
584.431248  	0.395118 
586.360064  	0.391842 
588.288880  	0.389738 
590.217696  	0.387692 
592.146512  	0.385488 
594.075328  	0.382329 
596.004144  	0.380105 
597.932960  	0.378511 
599.861776  	0.376821 
601.790592  	0.374535 
603.719408  	0.373748 
605.648224  	0.372862 
607.577040  	0.370712 
609.505856  	0.368201 
611.434672  	0.367050 
613.363488  	0.365248 
615.292304  	0.364122 
617.221120  	0.362799 
619.149936  	0.361610 
621.078752  	0.359957 
623.007568  	0.358687 
624.936384  	0.356529 
626.865200  	0.355584 
628.794016  	0.354958 
630.722832  	0.354431 
632.651648  	0.353455 
634.580464  	0.353143 
636.509280  	0.352957 
638.438096  	0.352828 
640.366912  	0.351791 
642.295728  	0.349931 
644.224544  	0.346887 
646.153360  	0.343946 
648.082176  	0.340235 
650.010992  	0.336439 
651.939808  	0.332390 
653.868624  	0.328665 
655.797440  	0.324869 
657.726256  	0.321623 
659.655072  	0.318133 
661.583888  	0.314685 
663.512704  	0.310993 
665.441520  	0.307830 
667.370336  	0.301637 
669.299152  	0.295712 
671.227968  	0.294441 
673.156784  	0.292005 
675.085600  	0.289242 
677.014416  	0.286580 
678.943232  	0.284105 
680.872048  	0.282435 
682.800864  	0.280928 
684.729680  	0.278872 
686.658496  	0.277825 
688.587312  	0.277227 
690.516128  	0.275487 
692.444944  	0.273720 
694.373760  	0.272485 
696.302576  	0.270486 
698.231392  	0.267938 
700.160208  	0.265697 
702.089024  	0.263817 
704.017840  	0.261993 
705.946656  	0.259148 
707.875472  	0.256433 
709.804288  	0.254439 
711.733104  	0.252955 
713.661920  	0.251039 
715.590736  	0.249466 
717.519552  	0.248722 
719.448368  	0.248653 
721.377184  	0.248672 
723.306000  	0.249082 
725.234816  	0.249613 
727.163632  	0.249427 
729.092448  	0.247243 
731.021264  	0.243789 
732.950080  	0.240516 
734.878896  	0.237610 
736.807712  	0.234302 
738.736528  	0.231652 
740.665344  	0.229776 
742.594160  	0.228294 
744.522976  	0.226867 
746.451792  	0.225003 
748.380608  	0.223247 
750.309424  	0.221879 
752.238240  	0.220910 
754.167056  	0.220360 
756.095872  	0.218943 
758.024688  	0.217389 
759.953504  	0.216887 
761.882320  	0.217185 
763.811136  	0.217251 
765.739952  	0.216539 
767.668768  	0.214218 
769.597584  	0.211628 
771.526400  	0.210613 
773.455216  	0.211710 
775.384032  	0.214823 
777.312848  	0.219484 
779.241664  	0.223295 
781.170480  	0.223369 
783.099296  	0.219884 
785.028112  	0.214648 
786.956928  	0.208893 
788.885744  	0.204034 
790.814560  	0.200403 
792.743376  	0.198250 
794.672192  	0.197198 
796.601008  	0.196146 
798.529824  	0.193104 
800.458640  	0.188619 
802.387456  	0.185214 
804.316272  	0.183407 
806.245088  	0.182077 
808.173904  	0.181143 
810.102720  	0.180553 
812.031536  	0.180238 
813.960352  	0.180392 
815.889168  	0.180413 
817.817984  	0.180536 
819.746800  	0.180664 
821.675616  	0.180866 
823.604432  	0.180644 
825.533248  	0.180315 
827.462064  	0.179900 
829.390880  	0.178904 
831.319696  	0.177661 
833.248512  	0.176058 
835.177328  	0.173780 
837.106144  	0.171346 
839.034960  	0.168536 
840.963776  	0.164973 
842.892592  	0.161144 
844.821408  	0.157495 
846.750224  	0.154579 
848.679040  	0.152101 
850.607856  	0.150001 
852.536672  	0.148135 
854.465488  	0.146472 
856.394304  	0.145106 
858.323120  	0.143689 
860.251936  	0.141759 
862.180752  	0.139613 
864.109568  	0.137048 
866.038384  	0.134641 
867.967200  	0.132655 
869.896016  	0.130807 
871.824832  	0.129655 
873.753648  	0.129114 
875.682464  	0.129489 
877.611280  	0.129994 
879.540096  	0.130897 
881.468912  	0.132968 
883.397728  	0.134457 
885.326544  	0.135611 
887.255360  	0.135868 
889.184176  	0.134698 
891.112992  	0.132670 
893.041808  	0.131085 
894.970624  	0.129012 
896.899440  	0.125757 
898.828256  	0.121675 
900.757072  	0.117846 
902.685888  	0.114668 
904.614704  	0.112670 
906.543520  	0.112573 
908.472336  	0.113772 
910.401152  	0.116001 
912.329968  	0.118511 
914.258784  	0.121273 
916.187600  	0.123812 
918.116416  	0.126118 
920.045232  	0.127741 
921.974048  	0.128825 
923.902864  	0.129483 
925.831680  	0.129431 
927.760496  	0.129554 
929.689312  	0.129882 
931.618128  	0.130620 
933.546944  	0.131289 
935.475760  	0.131603 
937.404576  	0.131398 
939.333392  	0.130883 
941.262208  	0.130745 
943.191024  	0.131723 
945.119840  	0.134865 
947.048656  	0.140138 
948.977472  	0.147087 
950.906288  	0.155716 
952.835104  	0.165736 
954.763920  	0.176560 
956.692736  	0.186961 
958.621552  	0.196084 
960.550368  	0.202591 
962.479184  	0.205897 
964.408000  	0.205694 
966.336816  	0.201753 
968.265632  	0.194100 
970.194448  	0.183646 
972.123264  	0.171323 
974.052080  	0.158192 
975.980896  	0.145388 
977.909712  	0.133421 
979.838528  	0.122593 
981.767344  	0.113477 
983.696160  	0.106371 
985.624976  	0.101739 
987.553792  	0.099734 
989.482608  	0.100205 
991.411424  	0.102966 
993.340240  	0.107447 
995.269056  	0.113125 
997.197872  	0.119301 
999.126688  	0.125604 
1001.055504  	0.131952 
1002.984320  	0.138243 
1004.913136  	0.144320 
1006.841952  	0.150457 
1008.770768  	0.155778 
1010.699584  	0.159512 
1012.628400  	0.161791 
1014.557216  	0.162686 
1016.486032  	0.162666 
1018.414848  	0.162183 
1020.343664  	0.161537 
1022.272480  	0.160748 
1024.201296  	0.159426 
1026.130112  	0.156254 
1028.058928  	0.155102 
1029.987744  	0.157638 
1031.916560  	0.159298 
1033.845376  	0.160560 
1035.774192  	0.161902 
1037.703008  	0.164531 
1039.631824  	0.170571 
1041.560640  	0.179230 
1043.489456  	0.190768 
1045.418272  	0.204864 
1047.347088  	0.220702 
1049.275904  	0.235231 
1051.204720  	0.246698 
1053.133536  	0.254004 
1055.062352  	0.257107 
1056.991168  	0.256585 
1058.919984  	0.257276 
1060.848800  	0.258222 
1062.777616  	0.256369 
1064.706432  	0.250648 
1066.635248  	0.245536 
1068.564064  	0.243871 
1070.492880  	0.239473 
1072.421696  	0.232050 
1074.350512  	0.226642 
1076.279328  	0.224814 
1078.208144  	0.227328 
1080.136960  	0.232878 
1082.065776  	0.239231 
1083.994592  	0.243443 
1085.923408  	0.244663 
1087.852224  	0.242329 
1089.781040  	0.237826 
1091.709856  	0.232240 
1093.638672  	0.224246 
1095.567488  	0.213440 
1097.496304  	0.201369 
1099.425120  	0.188826 
1101.353936  	0.176117 
1103.282752  	0.163738 
1105.211568  	0.152140 
1107.140384  	0.140900 
1109.069200  	0.130267 
1110.998016  	0.120882 
1112.926832  	0.112509 
1114.855648  	0.104718 
1116.784464  	0.097432 
1118.713280  	0.090444 
1120.642096  	0.083878 
1122.570912  	0.077722 
1124.499728  	0.071765 
1126.428544  	0.066554 
1128.357360  	0.061983 
1130.286176  	0.058214 
1132.214992  	0.054859 
1134.143808  	0.052329 
1136.072624  	0.050203 
1138.001440  	0.048414 
1139.930256  	0.046306 
1141.859072  	0.044112 
1143.787888  	0.041959 
1145.716704  	0.039861 
1147.645520  	0.037740 
1149.574336  	0.036164 
1151.503152  	0.034703 
1153.431968  	0.034144 
1155.360784  	0.034391 
1157.289600  	0.035312 
1159.218416  	0.036548 
1161.147232  	0.038309 
1163.076048  	0.040323 
1165.004864  	0.042678 
1166.933680  	0.044742 
1168.862496  	0.047051 
1170.791312  	0.049283 
1172.720128  	0.051990 
1174.648944  	0.054682 
1176.577760  	0.057411 
1178.506576  	0.059885 
1180.435392  	0.062623 
1182.364208  	0.065237 
1184.293024  	0.068329 
1186.221840  	0.071557 
1188.150656  	0.075270 
1190.079472  	0.079543 
1192.008288  	0.084811 
1193.937104  	0.091139 
1195.865920  	0.098494 
1197.794736  	0.106468 
1199.723552  	0.115182 
1201.652368  	0.124002 
1203.581184  	0.132931 
1205.510000  	0.141695 
1207.438816  	0.150069 
1209.367632  	0.157938 
1211.296448  	0.164594 
1213.225264  	0.169984 
1215.154080  	0.174239 
1217.082896  	0.177536 
1219.011712  	0.179604 
1220.940528  	0.180903 
1222.869344  	0.181458 
1224.798160  	0.181252 
1226.726976  	0.180485 
1228.655792  	0.179464 
1230.584608  	0.177610 
1232.513424  	0.175231 
1234.442240  	0.172342 
1236.371056  	0.168686 
1238.299872  	0.163771 
1240.228688  	0.156970 
1242.157504  	0.150169 
1244.086320  	0.144335 
1246.015136  	0.137188 
1247.943952  	0.129210 
1249.872768  	0.121392 
1251.801584  	0.114624 
1253.730400  	0.107826 
1255.659216  	0.101125 
1257.588032  	0.094939 
1259.516848  	0.089005 
1261.445664  	0.083540 
1263.374480  	0.078593 
1265.303296  	0.074450 
1267.232112  	0.071090 
1269.160928  	0.068551 
1271.089744  	0.066627 
1273.018560  	0.065659 
1274.947376  	0.065474 
1276.876192  	0.065697 
1278.805008  	0.065624 
1280.733824  	0.064744 
1282.662640  	0.062964 
1284.591456  	0.060810 
1286.520272  	0.058910 
1288.449088  	0.057570 
1290.377904  	0.056819 
1292.306720  	0.056953 
1294.235536  	0.057086 
1296.164352  	0.056384 
1298.093168  	0.054219 
1300.021984  	0.051506 
1301.950800  	0.048593 
1303.879616  	0.045839 
1305.808432  	0.042793 
1307.737248  	0.039730 
1309.666064  	0.036785 
1311.594880  	0.034954 
1313.523696  	0.033514 
1315.452512  	0.032340 
1317.381328  	0.031689 
1319.310144  	0.031520 
1321.238960  	0.031474 
1323.167776  	0.032045 
1325.096592  	0.032909 
1327.025408  	0.033471 
1328.954224  	0.033374 
1330.883040  	0.032896 
1332.811856  	0.032022 
1334.740672  	0.031654 
1336.669488  	0.031958 
1338.598304  	0.032552 
1340.527120  	0.031064 
1342.455936  	0.029026 
1344.384752  	0.028452 
1346.313568  	0.028630 
1348.242384  	0.029170 
1350.171200  	0.030319 
1352.100016  	0.031819 
1354.028832  	0.033698 
1355.957648  	0.035348 
1357.886464  	0.037218 
1359.815280  	0.039673 
1361.744096  	0.042413 
1363.672912  	0.043457 
1365.601728  	0.044110 
1367.530544  	0.045497 
1369.459360  	0.045993 
1371.388176  	0.045982 
1373.316992  	0.045218 
1375.245808  	0.042039 
1377.174624  	0.039336 
1379.103440  	0.036523 
1381.032256  	0.033558 
1382.961072  	0.031287 
1384.889888  	0.030780 
1386.818704  	0.030549 
1388.747520  	0.028563 
1390.676336  	0.026196 
1392.605152  	0.023434 
1394.533968  	0.021878 
1396.462784  	0.024489 
1398.391600  	0.025523 
1400.320416  	0.024319 
1402.249232  	0.024561 
1404.178048  	0.025413 
1406.106864  	0.025815 
1408.035680  	0.027387 
1409.964496  	0.029889 
1411.893312  	0.032655 
1413.822128  	0.035435 
1415.750944  	0.039376 
1417.679760  	0.042405 
1419.608576  	0.041563 
1421.537392  	0.041575 
1423.466208  	0.042097 
1425.395024  	0.040389 
1427.323840  	0.039162 
1429.252656  	0.036897 
1431.181472  	0.035082 
1433.110288  	0.035113 
1435.039104  	0.036178 
1436.967920  	0.035318 
1438.896736  	0.035398 
1440.825552  	0.036467 
1442.754368  	0.037079 
1444.683184  	0.037358 
1446.612000  	0.037496 
1448.540816  	0.036355 
1450.469632  	0.036722 
1452.398448  	0.037788 
1454.327264  	0.039328 
1456.256080  	0.039286 
1458.184896  	0.035815 
1460.113712  	0.036669 
1462.042528  	0.038218 
1463.971344  	0.038076 
1465.900160  	0.038077 
1467.828976  	0.040610 
1469.757792  	0.044170 
1471.686608  	0.047512 
1473.615424  	0.052282 
1475.544240  	0.058195 
1477.473056  	0.063177 
1479.401872  	0.066857 
1481.330688  	0.070028 
1483.259504  	0.072056 
1485.188320  	0.073786 
1487.117136  	0.074108 
1489.045952  	0.073925 
1490.974768  	0.070338 
1492.903584  	0.067904 
1494.832400  	0.065298 
1496.761216  	0.059039 
1498.690032  	0.053120 
1500.618848  	0.049567 
1502.547664  	0.046416 
1504.476480  	0.043054 
1506.405296  	0.037669 
1508.334112  	0.035457 
1510.262928  	0.035196 
1512.191744  	0.032997 
1514.120560  	0.032232 
1516.049376  	0.032042 
1517.978192  	0.030804 
1519.907008  	0.032315 
1521.835824  	0.032218 
1523.764640  	0.036070 
1525.693456  	0.040397 
1527.622272  	0.042212 
1529.551088  	0.042774 
1531.479904  	0.042944 
1533.408720  	0.039072 
1535.337536  	0.035976 
1537.266352  	0.034950 
1539.195168  	0.027887 
1541.123984  	0.021004 
1543.052800  	0.023810 
1544.981616  	0.024197 
1546.910432  	0.023513 
1548.839248  	0.024285 
1550.768064  	0.024301 
1552.696880  	0.024144 
1554.625696  	0.024512 
1556.554512  	0.024934 
1558.483328  	0.022674 
1560.412144  	0.024943 
1562.340960  	0.032064 
1564.269776  	0.035937 
1566.198592  	0.040777 
1568.127408  	0.044894 
1570.056224  	0.049119 
1571.985040  	0.055681 
1573.913856  	0.060487 
1575.842672  	0.060954 
1577.771488  	0.063404 
1579.700304  	0.065781 
1581.629120  	0.065696 
1583.557936  	0.065101 
1585.486752  	0.065817 
1587.415568  	0.067959 
1589.344384  	0.072003 
1591.273200  	0.077495 
1593.202016  	0.084102 
1595.130832  	0.091048 
1597.059648  	0.098565 
1598.988464  	0.105142 
1600.917280  	0.110881 
1602.846096  	0.114518 
1604.774912  	0.117024 
1606.703728  	0.117509 
1608.632544  	0.116561 
1610.561360  	0.114594 
1612.490176  	0.113348 
1614.418992  	0.111537 
1616.347808  	0.108258 
1618.276624  	0.108934 
1620.205440  	0.113908 
1622.134256  	0.116751 
1624.063072  	0.121400 
1625.991888  	0.127946 
1627.920704  	0.135242 
1629.849520  	0.144428 
1631.778336  	0.153817 
1633.707152  	0.160278 
1635.635968  	0.166505 
1637.564784  	0.176123 
1639.493600  	0.184519 
1641.422416  	0.189946 
1643.351232  	0.194315 
1645.280048  	0.195117 
1647.208864  	0.193942 
1649.137680  	0.195585 
1651.066496  	0.197186 
1652.995312  	0.189603 
1654.924128  	0.188392 
1656.852944  	0.190199 
1658.781760  	0.188636 
1660.710576  	0.185287 
1662.639392  	0.179915 
1664.568208  	0.176074 
1666.497024  	0.174541 
1668.425840  	0.169172 
1670.354656  	0.161603 
1672.283472  	0.159002 
1674.212288  	0.156338 
1676.141104  	0.151036 
1678.069920  	0.150744 
1679.998736  	0.150459 
1681.927552  	0.149424 
1683.856368  	0.143827 
1685.785184  	0.141952 
1687.714000  	0.144897 
1689.642816  	0.144384 
1691.571632  	0.142646 
1693.500448  	0.142143 
1695.429264  	0.138083 
1697.358080  	0.135093 
1699.286896  	0.133329 
1701.215712  	0.127282 
1703.144528  	0.127629 
1705.073344  	0.124030 
1707.002160  	0.118202 
1708.930976  	0.114518 
1710.859792  	0.109253 
1712.788608  	0.103467 
1714.717424  	0.095924 
1716.646240  	0.085404 
1718.575056  	0.071884 
1720.503872  	0.064919 
1722.432688  	0.059116 
1724.361504  	0.050408 
1726.290320  	0.043110 
1728.219136  	0.037429 
1730.147952  	0.032548 
1732.076768  	0.028416 
1734.005584  	0.021232 
1735.934400  	0.015750 
1737.863216  	0.016190 
1739.792032  	0.012483 
1741.720848  	0.011324 
1743.649664  	0.011097 
1745.578480  	0.010352 
1747.507296  	0.008940 
1749.436112  	0.008102 
1751.364928  	0.006543 
1753.293744  	0.005581 
1755.222560  	0.005568 
1757.151376  	0.004970 
1759.080192  	0.004453 
1761.009008  	0.003911 
1762.937824  	0.002197 
1764.866640  	0.002795 
1766.795456  	0.003598 
1768.724272  	0.003160 
1770.653088  	0.001200 
1772.581904  	-0.001617 
1774.510720  	-0.000624 
1776.439536  	0.000982 
1778.368352  	0.001252 
1780.297168  	0.000968 
1782.225984  	0.000448 
1784.154800  	0.000984 
1786.083616  	0.000282 
1788.012432  	0.000518 
1789.941248  	0.001142 
1791.870064  	-0.000097 
1793.798880  	-0.001727 
1795.727696  	-0.000173 
1797.656512  	-0.000307 
1799.585328  	-0.000416 
1801.514144  	-0.000164 
1803.442960  	-0.000481 
1805.371776  	-0.001153 
1807.300592  	-0.000749 
1809.229408  	-0.001211 
1811.158224  	-0.001605 
1813.087040  	-0.001781 
1815.015856  	-0.001463 
1816.944672  	-0.001279 
1818.873488  	-0.001235 
1820.802304  	-0.001511 
1822.731120  	-0.000741 
1824.659936  	-0.001229 
1826.588752  	-0.001887 
1828.517568  	-0.002228 
1830.446384  	-0.002895 
1832.375200  	-0.002398 
1834.304016  	-0.001630 
1836.232832  	-0.001720 
1838.161648  	-0.001613 
1840.090464  	-0.001779 
1842.019280  	-0.000824 
1843.948096  	-0.001926 
1845.876912  	-0.002180 
1847.805728  	-0.001570 
1849.734544  	-0.001899 
1851.663360  	-0.002310 
1853.592176  	-0.002286 
1855.520992  	-0.002320 
1857.449808  	-0.001971 
1859.378624  	-0.002071 
1861.307440  	-0.002157 
1863.236256  	-0.002581 
1865.165072  	-0.002271 
1867.093888  	-0.002179 
1869.022704  	-0.002328 
1870.951520  	-0.002702 
1872.880336  	-0.002340 
1874.809152  	-0.002834 
1876.737968  	-0.002817 
1878.666784  	-0.002746 
1880.595600  	-0.002192 
1882.524416  	-0.002497 
1884.453232  	-0.002370 
1886.382048  	-0.002543 
1888.310864  	-0.002275 
1890.239680  	-0.003054 
1892.168496  	-0.002816 
1894.097312  	-0.002683 
1896.026128  	-0.002614 
1897.954944  	-0.002754 
1899.883760  	-0.002295 
1901.812576  	-0.002791 
1903.741392  	-0.003197 
1905.670208  	-0.002988 
1907.599024  	-0.002176 
1909.527840  	-0.002360 
1911.456656  	-0.002415 
1913.385472  	-0.002766 
1915.314288  	-0.002089 
1917.243104  	-0.002046 
1919.171920  	-0.002623 
1921.100736  	-0.002550 
1923.029552  	-0.001991 
1924.958368  	-0.002630 
1926.887184  	-0.002738 
1928.816000  	-0.002873 
1930.744816  	-0.002666 
1932.673632  	-0.002957 
1934.602448  	-0.002364 
1936.531264  	-0.002246 
1938.460080  	-0.001791 
1940.388896  	-0.001904 
1942.317712  	-0.001293 
1944.246528  	-0.001794 
1946.175344  	-0.001994 
1948.104160  	-0.002553 
1950.032976  	-0.002265 
1951.961792  	-0.002485 
1953.890608  	-0.001854 
1955.819424  	-0.002158 
1957.748240  	-0.002086 
1959.677056  	-0.002651 
1961.605872  	-0.001842 
1963.534688  	-0.001991 
1965.463504  	-0.001570 
1967.392320  	-0.002164 
1969.321136  	-0.001641 
1971.249952  	-0.001906 
1973.178768  	-0.001477 
1975.107584  	-0.002387 
1977.036400  	-0.002073 
1978.965216  	-0.001349 
1980.894032  	-0.001578 
1982.822848  	-0.002504 
1984.751664  	-0.002014 
1986.680480  	-0.002863 
1988.609296  	-0.002186 
1990.538112  	-0.002116 
1992.466928  	-0.001573 
1994.395744  	-0.002495 
1996.324560  	-0.001774 
1998.253376  	-0.002105 
2000.182192  	-0.002708 
2002.111008  	-0.003276 
2004.039824  	-0.002385 
2005.968640  	-0.002811 
2007.897456  	-0.001853 
2009.826272  	-0.002661 
2011.755088  	-0.002808 
2013.683904  	-0.003547 
2015.612720  	-0.002292 
2017.541536  	-0.001658 
2019.470352  	-0.001583 
2021.399168  	-0.002536 
2023.327984  	-0.001977 
2025.256800  	-0.001543 
2027.185616  	-0.000793 
2029.114432  	-0.001154 
2031.043248  	-0.001521 
2032.972064  	-0.002032 
2034.900880  	-0.001191 
2036.829696  	-0.002014 
2038.758512  	-0.001250 
2040.687328  	-0.002297 
2042.616144  	-0.002674 
2044.544960  	-0.002790 
2046.473776  	-0.002351 
2048.402592  	-0.002394 
2050.331408  	-0.002094 
2052.260224  	-0.002914 
2054.189040  	-0.003033 
2056.117856  	-0.003362 
2058.046672  	-0.003131 
2059.975488  	-0.003021 
2061.904304  	-0.002572 
2063.833120  	-0.002580 
2065.761936  	-0.002390 
2067.690752  	-0.002749 
2069.619568  	-0.002577 
2071.548384  	-0.002519 
2073.477200  	-0.002746 
2075.406016  	-0.002939 
2077.334832  	-0.002250 
2079.263648  	-0.002329 
2081.192464  	-0.002005 
2083.121280  	-0.002079 
2085.050096  	-0.002105 
2086.978912  	-0.002434 
2088.907728  	-0.002120 
2090.836544  	-0.002332 
2092.765360  	-0.002392 
2094.694176  	-0.002197 
2096.622992  	-0.001952 
2098.551808  	-0.002187 
2100.480624  	-0.001968 
2102.409440  	-0.001915 
2104.338256  	-0.001950 
2106.267072  	-0.001766 
2108.195888  	-0.001191 
2110.124704  	-0.001592 
2112.053520  	-0.001874 
2113.982336  	-0.001911 
2115.911152  	-0.001683 
2117.839968  	-0.001844 
2119.768784  	-0.001964 
2121.697600  	-0.002595 
2123.626416  	-0.002387 
2125.555232  	-0.002393 
2127.484048  	-0.002255 
2129.412864  	-0.002487 
2131.341680  	-0.002579 
2133.270496  	-0.003007 
2135.199312  	-0.002653 
2137.128128  	-0.001713 
2139.056944  	-0.001063 
2140.985760  	-0.001941 
2142.914576  	-0.001880 
2144.843392  	-0.001184 
2146.772208  	-0.000451 
2148.701024  	-0.001425 
2150.629840  	-0.001163 
2152.558656  	-0.001602 
2154.487472  	-0.001813 
2156.416288  	-0.002097 
2158.345104  	-0.000848 
2160.273920  	0.000395 
2162.202736  	0.001587 
2164.131552  	0.000555 
2166.060368  	0.000249 
2167.989184  	0.000173 
2169.918000  	0.000671 
2171.846816  	-0.000119 
2173.775632  	0.000288 
2175.704448  	0.000078 
2177.633264  	-0.000120 
2179.562080  	-0.000424 
2181.490896  	-0.000852 
2183.419712  	-0.001768 
2185.348528  	-0.001179 
2187.277344  	-0.001113 
2189.206160  	-0.000832 
2191.134976  	-0.001030 
2193.063792  	-0.000896 
2194.992608  	-0.001468 
2196.921424  	-0.001502 
2198.850240  	-0.001379 
2200.779056  	-0.001510 
2202.707872  	-0.001927 
2204.636688  	-0.001981 
2206.565504  	-0.001883 
2208.494320  	-0.002337 
2210.423136  	-0.002909 
2212.351952  	-0.002520 
2214.280768  	-0.003009 
2216.209584  	-0.002872 
2218.138400  	-0.002799 
2220.067216  	-0.002606 
2221.996032  	-0.002678 
2223.924848  	-0.002268 
2225.853664  	-0.002057 
2227.782480  	-0.001924 
2229.711296  	-0.002400 
2231.640112  	-0.002739 
2233.568928  	-0.002882 
2235.497744  	-0.002292 
2237.426560  	-0.002611 
2239.355376  	-0.002974 
2241.284192  	-0.003217 
2243.213008  	-0.003185 
2245.141824  	-0.003321 
2247.070640  	-0.002908 
2248.999456  	-0.002468 
2250.928272  	-0.002944 
2252.857088  	-0.003780 
2254.785904  	-0.003664 
2256.714720  	-0.003867 
2258.643536  	-0.003961 
2260.572352  	-0.004026 
2262.501168  	-0.003962 
2264.429984  	-0.003882 
2266.358800  	-0.003465 
2268.287616  	-0.003407 
2270.216432  	-0.003428 
2272.145248  	-0.003481 
2274.074064  	-0.003352 
2276.002880  	-0.003411 
2277.931696  	-0.003037 
2279.860512  	-0.002694 
2281.789328  	-0.002534 
2283.718144  	-0.002655 
2285.646960  	-0.002562 
2287.575776  	-0.002365 
2289.504592  	-0.002352 
2291.433408  	-0.002642 
2293.362224  	-0.002500 
2295.291040  	-0.002008 
2297.219856  	-0.001487 
2299.148672  	-0.001405 
2301.077488  	-0.001240 
2303.006304  	-0.001012 
2304.935120  	-0.000606 
2306.863936  	-0.000304 
2308.792752  	-0.000073 
2310.721568  	-0.000318 
2312.650384  	-0.000835 
2314.579200  	-0.001790 
2316.508016  	-0.002491 
2318.436832  	-0.002980 
2320.365648  	-0.003785 
2322.294464  	-0.005022 
2324.223280  	-0.006488 
2326.152096  	-0.008480 
2328.080912  	-0.009899 
2330.009728  	-0.011546 
2331.938544  	-0.013487 
2333.867360  	-0.015040 
2335.796176  	-0.016120 
2337.724992  	-0.016877 
2339.653808  	-0.016858 
2341.582624  	-0.017036 
2343.511440  	-0.016006 
2345.440256  	-0.013785 
2347.369072  	-0.009617 
2349.297888  	-0.006748 
2351.226704  	-0.008686 
2353.155520  	-0.013385 
2355.084336  	-0.016948 
2357.013152  	-0.020026 
2358.941968  	-0.021765 
2360.870784  	-0.022904 
2362.799600  	-0.022210 
2364.728416  	-0.021213 
2366.657232  	-0.019069 
2368.586048  	-0.015783 
2370.514864  	-0.012776 
2372.443680  	-0.010288 
2374.372496  	-0.007452 
2376.301312  	-0.004952 
2378.230128  	-0.003017 
2380.158944  	-0.002256 
2382.087760  	-0.002217 
2384.016576  	-0.002655 
2385.945392  	-0.003128 
2387.874208  	-0.003532 
2389.803024  	-0.003830 
2391.731840  	-0.004052 
2393.660656  	-0.004027 
2395.589472  	-0.003909 
2397.518288  	-0.003632 
2399.447104  	-0.003855 
2401.375920  	-0.004070 
2403.304736  	-0.004245 
2405.233552  	-0.004269 
2407.162368  	-0.004263 
2409.091184  	-0.004125 
2411.020000  	-0.004143 
2412.948816  	-0.004178 
2414.877632  	-0.004163 
2416.806448  	-0.003931 
2418.735264  	-0.003845 
2420.664080  	-0.003991 
2422.592896  	-0.004192 
2424.521712  	-0.004117 
2426.450528  	-0.004101 
2428.379344  	-0.003849 
2430.308160  	-0.003633 
2432.236976  	-0.003622 
2434.165792  	-0.003842 
2436.094608  	-0.003835 
2438.023424  	-0.003638 
2439.952240  	-0.003461 
2441.881056  	-0.003503 
2443.809872  	-0.003547 
2445.738688  	-0.003395 
2447.667504  	-0.003148 
2449.596320  	-0.003224 
2451.525136  	-0.003198 
2453.453952  	-0.003073 
2455.382768  	-0.003089 
2457.311584  	-0.003251 
2459.240400  	-0.003386 
2461.169216  	-0.003517 
2463.098032  	-0.003408 
2465.026848  	-0.003304 
2466.955664  	-0.003523 
2468.884480  	-0.003577 
2470.813296  	-0.003449 
2472.742112  	-0.003529 
2474.670928  	-0.003589 
2476.599744  	-0.003583 
2478.528560  	-0.003372 
2480.457376  	-0.003308 
2482.386192  	-0.003290 
2484.315008  	-0.003250 
2486.243824  	-0.003316 
2488.172640  	-0.003417 
2490.101456  	-0.003228 
2492.030272  	-0.003109 
2493.959088  	-0.002961 
2495.887904  	-0.003004 
2497.816720  	-0.003038 
2499.745536  	-0.002898 
2501.674352  	-0.002602 
2503.603168  	-0.002374 
2505.531984  	-0.002333 
2507.460800  	-0.002520 
2509.389616  	-0.002528 
2511.318432  	-0.002613 
2513.247248  	-0.002590 
2515.176064  	-0.002336 
2517.104880  	-0.002261 
2519.033696  	-0.002646 
2520.962512  	-0.002619 
2522.891328  	-0.002398 
2524.820144  	-0.002418 
2526.748960  	-0.002330 
2528.677776  	-0.002228 
2530.606592  	-0.002410 
2532.535408  	-0.002343 
2534.464224  	-0.002189 
2536.393040  	-0.002283 
2538.321856  	-0.002329 
2540.250672  	-0.002033 
2542.179488  	-0.001747 
2544.108304  	-0.001737 
2546.037120  	-0.001832 
2547.965936  	-0.001888 
2549.894752  	-0.001810 
2551.823568  	-0.001689 
2553.752384  	-0.001597 
2555.681200  	-0.001344 
2557.610016  	-0.001432 
2559.538832  	-0.001320 
2561.467648  	-0.001172 
2563.396464  	-0.001101 
2565.325280  	-0.000995 
2567.254096  	-0.001024 
2569.182912  	-0.000999 
2571.111728  	-0.000832 
2573.040544  	-0.000806 
2574.969360  	-0.000610 
2576.898176  	-0.000399 
2578.826992  	-0.000441 
2580.755808  	-0.000460 
2582.684624  	-0.000383 
2584.613440  	-0.000344 
2586.542256  	-0.000463 
2588.471072  	-0.000433 
2590.399888  	-0.000129 
2592.328704  	0.000012 
2594.257520  	-0.000142 
2596.186336  	-0.000078 
2598.115152  	0.000001 
2600.043968  	-0.000074 
2601.972784  	0.000161 
2603.901600  	0.000274 
2605.830416  	0.000376 
2607.759232  	0.000515 
2609.688048  	0.000620 
2611.616864  	0.000766 
2613.545680  	0.000837 
2615.474496  	0.000904 
2617.403312  	0.001122 
2619.332128  	0.001252 
2621.260944  	0.001297 
2623.189760  	0.001344 
2625.118576  	0.001477 
2627.047392  	0.001582 
2628.976208  	0.001722 
2630.905024  	0.001818 
2632.833840  	0.001807 
2634.762656  	0.001857 
2636.691472  	0.001853 
2638.620288  	0.002029 
2640.549104  	0.002297 
2642.477920  	0.002231 
2644.406736  	0.002329 
2646.335552  	0.002549 
2648.264368  	0.002717 
2650.193184  	0.002733 
2652.122000  	0.002813 
2654.050816  	0.002972 
2655.979632  	0.003087 
2657.908448  	0.003147 
2659.837264  	0.003305 
2661.766080  	0.003463 
2663.694896  	0.003506 
2665.623712  	0.003584 
2667.552528  	0.003837 
2669.481344  	0.004036 
2671.410160  	0.004086 
2673.338976  	0.004136 
2675.267792  	0.004338 
2677.196608  	0.004587 
2679.125424  	0.004752 
2681.054240  	0.004849 
2682.983056  	0.004967 
2684.911872  	0.004956 
2686.840688  	0.005047 
2688.769504  	0.005223 
2690.698320  	0.005313 
2692.627136  	0.005384 
2694.555952  	0.005447 
2696.484768  	0.005510 
2698.413584  	0.005621 
2700.342400  	0.005717 
2702.271216  	0.005849 
2704.200032  	0.005948 
2706.128848  	0.005992 
2708.057664  	0.006005 
2709.986480  	0.006108 
2711.915296  	0.006227 
2713.844112  	0.006429 
2715.772928  	0.006521 
2717.701744  	0.006587 
2719.630560  	0.006811 
2721.559376  	0.007008 
2723.488192  	0.007140 
2725.417008  	0.007307 
2727.345824  	0.007487 
2729.274640  	0.007628 
2731.203456  	0.007787 
2733.132272  	0.008006 
2735.061088  	0.008072 
2736.989904  	0.008195 
2738.918720  	0.008294 
2740.847536  	0.008296 
2742.776352  	0.008327 
2744.705168  	0.008453 
2746.633984  	0.008535 
2748.562800  	0.008575 
2750.491616  	0.008697 
2752.420432  	0.008922 
2754.349248  	0.008886 
2756.278064  	0.008795 
2758.206880  	0.008627 
2760.135696  	0.008491 
2762.064512  	0.008574 
2763.993328  	0.008734 
2765.922144  	0.008691 
2767.850960  	0.008683 
2769.779776  	0.008696 
2771.708592  	0.008744 
2773.637408  	0.008668 
2775.566224  	0.008658 
2777.495040  	0.008682 
2779.423856  	0.008680 
2781.352672  	0.008686 
2783.281488  	0.008691 
2785.210304  	0.008651 
2787.139120  	0.008760 
2789.067936  	0.008834 
2790.996752  	0.008811 
2792.925568  	0.008765 
2794.854384  	0.008686 
2796.783200  	0.008640 
2798.712016  	0.008606 
2800.640832  	0.008582 
2802.569648  	0.008762 
2804.498464  	0.008880 
2806.427280  	0.008752 
2808.356096  	0.008624 
2810.284912  	0.008645 
2812.213728  	0.008687 
2814.142544  	0.008682 
2816.071360  	0.008636 
2818.000176  	0.008425 
2819.928992  	0.008382 
2821.857808  	0.008363 
2823.786624  	0.008210 
2825.715440  	0.008120 
2827.644256  	0.007994 
2829.573072  	0.007886 
2831.501888  	0.007579 
2833.430704  	0.007137 
2835.359520  	0.006943 
2837.288336  	0.006829 
2839.217152  	0.006585 
2841.145968  	0.006238 
2843.074784  	0.005985 
2845.003600  	0.005654 
2846.932416  	0.005379 
2848.861232  	0.005294 
2850.790048  	0.004950 
2852.718864  	0.004312 
2854.647680  	0.003778 
2856.576496  	0.003232 
2858.505312  	0.002614 
2860.434128  	0.002058 
2862.362944  	0.001328 
2864.291760  	0.000454 
2866.220576  	-0.000158 
2868.149392  	-0.000361 
2870.078208  	-0.000588 
2872.007024  	-0.000755 
2873.935840  	-0.000656 
2875.864656  	-0.000514 
2877.793472  	-0.000624 
2879.722288  	-0.000963 
2881.651104  	-0.001392 
2883.579920  	-0.001421 
2885.508736  	-0.001200 
2887.437552  	-0.000926 
2889.366368  	-0.000842 
2891.295184  	-0.001160 
2893.224000  	-0.001388 
2895.152816  	-0.001195 
2897.081632  	-0.001372 
2899.010448  	-0.003028 
2900.939264  	-0.004438 
2902.868080  	-0.003164 
2904.796896  	-0.001848 
2906.725712  	-0.001282 
2908.654528  	-0.000687 
2910.583344  	-0.000160 
2912.512160  	0.000596 
2914.440976  	0.001796 
2916.369792  	0.002713 
2918.298608  	0.003254 
2920.227424  	0.003689 
2922.156240  	0.004313 
2924.085056  	0.004984 
2926.013872  	0.005706 
2927.942688  	0.006556 
2929.871504  	0.007390 
2931.800320  	0.008196 
2933.729136  	0.008976 
2935.657952  	0.009498 
2937.586768  	0.010082 
2939.515584  	0.010726 
2941.444400  	0.010958 
2943.373216  	0.010982 
2945.302032  	0.011230 
2947.230848  	0.011504 
2949.159664  	0.011312 
2951.088480  	0.010751 
2953.017296  	0.010243 
2954.946112  	0.009689 
2956.874928  	0.009093 
2958.803744  	0.008337 
2960.732560  	0.007782 
2962.661376  	0.007209 
2964.590192  	0.006413 
2966.519008  	0.005236 
2968.447824  	0.004158 
2970.376640  	0.003374 
2972.305456  	0.002884 
2974.234272  	0.003148 
2976.163088  	0.003401 
2978.091904  	0.003273 
2980.020720  	0.003254 
2981.949536  	0.003519 
2983.878352  	0.003458 
2985.807168  	0.002705 
2987.735984  	0.001705 
2989.664800  	0.001940 
2991.593616  	0.004840 
2993.522432  	0.006826 
2995.451248  	0.007460 
2997.380064  	0.008220 
2999.308880  	0.009284 
3001.237696  	0.010509 
3003.166512  	0.011992 
3005.095328  	0.013436 
3007.024144  	0.014719 
3008.952960  	0.016082 
3010.881776  	0.017533 
3012.810592  	0.018793 
3014.739408  	0.020061 
3016.668224  	0.021239 
3018.597040  	0.022455 
3020.525856  	0.023644 
3022.454672  	0.024661 
3024.383488  	0.025731 
3026.312304  	0.026768 
3028.241120  	0.027818 
3030.169936  	0.028834 
3032.098752  	0.029594 
3034.027568  	0.030337 
3035.956384  	0.031297 
3037.885200  	0.032248 
3039.814016  	0.032942 
3041.742832  	0.033496 
3043.671648  	0.033949 
3045.600464  	0.034706 
3047.529280  	0.035295 
3049.458096  	0.035754 
3051.386912  	0.036426 
3053.315728  	0.036935 
3055.244544  	0.037470 
3057.173360  	0.038148 
3059.102176  	0.038676 
3061.030992  	0.039385 
3062.959808  	0.040190 
3064.888624  	0.040885 
3066.817440  	0.041544 
3068.746256  	0.042461 
3070.675072  	0.043383 
3072.603888  	0.044058 
3074.532704  	0.044776 
3076.461520  	0.045543 
3078.390336  	0.046323 
3080.319152  	0.047038 
3082.247968  	0.047921 
3084.176784  	0.048678 
3086.105600  	0.049374 
3088.034416  	0.050280 
3089.963232  	0.051284 
3091.892048  	0.052015 
3093.820864  	0.052662 
3095.749680  	0.053373 
3097.678496  	0.054236 
3099.607312  	0.055148 
3101.536128  	0.056077 
3103.464944  	0.056850 
3105.393760  	0.057413 
3107.322576  	0.058207 
3109.251392  	0.059119 
3111.180208  	0.059847 
3113.109024  	0.060573 
3115.037840  	0.061274 
3116.966656  	0.062031 
3118.895472  	0.062617 
3120.824288  	0.063180 
3122.753104  	0.063919 
3124.681920  	0.064515 
3126.610736  	0.065003 
3128.539552  	0.065793 
3130.468368  	0.066497 
3132.397184  	0.066914 
3134.326000  	0.067569 
3136.254816  	0.068268 
3138.183632  	0.068993 
3140.112448  	0.069722 
3142.041264  	0.070378 
3143.970080  	0.071008 
3145.898896  	0.071541 
3147.827712  	0.072226 
3149.756528  	0.072674 
3151.685344  	0.073190 
3153.614160  	0.073993 
3155.542976  	0.074780 
3157.471792  	0.075495 
3159.400608  	0.076221 
3161.329424  	0.076881 
3163.258240  	0.077220 
3165.187056  	0.077775 
3167.115872  	0.078350 
3169.044688  	0.078700 
3170.973504  	0.079071 
3172.902320  	0.079597 
3174.831136  	0.080232 
3176.759952  	0.080766 
3178.688768  	0.080925 
3180.617584  	0.081315 
3182.546400  	0.081801 
3184.475216  	0.082012 
3186.404032  	0.081916 
3188.332848  	0.082048 
3190.261664  	0.082365 
3192.190480  	0.082697 
3194.119296  	0.082710 
3196.048112  	0.082712 
3197.976928  	0.082734 
3199.905744  	0.082756 
3201.834560  	0.082664 
3203.763376  	0.082841 
3205.692192  	0.082970 
3207.621008  	0.082574 
3209.549824  	0.082361 
3211.478640  	0.082405 
3213.407456  	0.082517 
3215.336272  	0.082334 
3217.265088  	0.082051 
3219.193904  	0.081902 
3221.122720  	0.081826 
3223.051536  	0.081789 
3224.980352  	0.081788 
3226.909168  	0.081553 
3228.837984  	0.081011 
3230.766800  	0.080853 
3232.695616  	0.081076 
3234.624432  	0.081068 
3236.553248  	0.081038 
3238.482064  	0.081182 
3240.410880  	0.081137 
3242.339696  	0.081028 
3244.268512  	0.081031 
3246.197328  	0.081248 
3248.126144  	0.081483 
3250.054960  	0.081634 
3251.983776  	0.081835 
3253.912592  	0.081956 
3255.841408  	0.082109 
3257.770224  	0.082310 
3259.699040  	0.082716 
3261.627856  	0.083258 
3263.556672  	0.083432 
3265.485488  	0.083478 
3267.414304  	0.083711 
3269.343120  	0.084074 
3271.271936  	0.084213 
3273.200752  	0.084050 
3275.129568  	0.083976 
3277.058384  	0.084369 
3278.987200  	0.084894 
3280.916016  	0.085183 
3282.844832  	0.085236 
3284.773648  	0.085307 
3286.702464  	0.085659 
3288.631280  	0.085934 
3290.560096  	0.086165 
3292.488912  	0.086614 
3294.417728  	0.086846 
3296.346544  	0.086994 
3298.275360  	0.087225 
3300.204176  	0.087667 
3302.132992  	0.088148 
3304.061808  	0.088352 
3305.990624  	0.088632 
3307.919440  	0.088912 
3309.848256  	0.089120 
3311.777072  	0.089447 
3313.705888  	0.089851 
3315.634704  	0.090484 
3317.563520  	0.090860 
3319.492336  	0.091000 
3321.421152  	0.091091 
3323.349968  	0.091200 
3325.278784  	0.091401 
3327.207600  	0.091521 
3329.136416  	0.091495 
3331.065232  	0.091644 
3332.994048  	0.091889 
3334.922864  	0.092066 
3336.851680  	0.092019 
3338.780496  	0.091846 
3340.709312  	0.091829 
3342.638128  	0.091706 
3344.566944  	0.091214 
3346.495760  	0.090854 
3348.424576  	0.090741 
3350.353392  	0.090509 
3352.282208  	0.090110 
3354.211024  	0.089799 
3356.139840  	0.089559 
3358.068656  	0.089352 
3359.997472  	0.088991 
3361.926288  	0.088445 
3363.855104  	0.088177 
3365.783920  	0.087926 
3367.712736  	0.087547 
3369.641552  	0.087111 
3371.570368  	0.086659 
3373.499184  	0.086296 
3375.428000  	0.085932 
3377.356816  	0.085698 
3379.285632  	0.085502 
3381.214448  	0.085137 
3383.143264  	0.084717 
3385.072080  	0.084260 
3387.000896  	0.083699 
3388.929712  	0.083327 
3390.858528  	0.083106 
3392.787344  	0.082778 
3394.716160  	0.082404 
3396.644976  	0.081995 
3398.573792  	0.081513 
3400.502608  	0.080959 
3402.431424  	0.080442 
3404.360240  	0.079962 
3406.289056  	0.079355 
3408.217872  	0.078797 
3410.146688  	0.078364 
3412.075504  	0.077922 
3414.004320  	0.077337 
3415.933136  	0.076870 
3417.861952  	0.076470 
3419.790768  	0.076009 
3421.719584  	0.075395 
3423.648400  	0.074963 
3425.577216  	0.074327 
3427.506032  	0.073695 
3429.434848  	0.073217 
3431.363664  	0.072758 
3433.292480  	0.072097 
3435.221296  	0.071404 
3437.150112  	0.070934 
3439.078928  	0.070503 
3441.007744  	0.069949 
3442.936560  	0.069613 
3444.865376  	0.069328 
3446.794192  	0.068472 
3448.723008  	0.067441 
3450.651824  	0.066649 
3452.580640  	0.065984 
3454.509456  	0.065568 
3456.438272  	0.065041 
3458.367088  	0.064506 
3460.295904  	0.063864 
3462.224720  	0.062969 
3464.153536  	0.062093 
3466.082352  	0.061281 
3468.011168  	0.060391 
3469.939984  	0.059704 
3471.868800  	0.059162 
3473.797616  	0.058389 
3475.726432  	0.057549 
3477.655248  	0.056783 
3479.584064  	0.056318 
3481.512880  	0.055716 
3483.441696  	0.054677 
3485.370512  	0.053907 
3487.299328  	0.052877 
3489.228144  	0.051930 
3491.156960  	0.051194 
3493.085776  	0.050551 
3495.014592  	0.049901 
3496.943408  	0.049267 
3498.872224  	0.048717 
3500.801040  	0.048520 
3502.729856  	0.047852 
3504.658672  	0.046663 
3506.587488  	0.046081 
3508.516304  	0.045725 
3510.445120  	0.044869 
3512.373936  	0.043977 
3514.302752  	0.043208 
3516.231568  	0.042732 
3518.160384  	0.042159 
3520.089200  	0.041633 
3522.018016  	0.041478 
3523.946832  	0.041369 
3525.875648  	0.040643 
3527.804464  	0.039255 
3529.733280  	0.038138 
3531.662096  	0.037503 
3533.590912  	0.036982 
3535.519728  	0.036890 
3537.448544  	0.036326 
3539.377360  	0.035256 
3541.306176  	0.034720 
3543.234992  	0.034823 
3545.163808  	0.035172 
3547.092624  	0.034273 
3549.021440  	0.032618 
3550.950256  	0.031806 
3552.879072  	0.031154 
3554.807888  	0.030466 
3556.736704  	0.029852 
3558.665520  	0.029593 
3560.594336  	0.029302 
3562.523152  	0.028474 
3564.451968  	0.028678 
3566.380784  	0.029267 
3568.309600  	0.027390 
3570.238416  	0.025857 
3572.167232  	0.025140 
3574.096048  	0.024060 
3576.024864  	0.023161 
3577.953680  	0.022941 
3579.882496  	0.022336 
3581.811312  	0.021596 
3583.740128  	0.021134 
3585.668944  	0.021416 
3587.597760  	0.020595 
3589.526576  	0.018808 
3591.455392  	0.017832 
3593.384208  	0.017320 
3595.313024  	0.016478 
3597.241840  	0.015235 
3599.170656  	0.013993 
3601.099472  	0.013004 
3603.028288  	0.012799 
3604.957104  	0.012864 
3606.885920  	0.012363 
3608.814736  	0.011061 
3610.743552  	0.010643 
3612.672368  	0.009679 
3614.601184  	0.008394 
3616.530000  	0.008164 
3618.458816  	0.006264 
3620.387632  	0.004568 
3622.316448  	0.004735 
3624.245264  	0.004513 
3626.174080  	0.004399 
3628.102896  	0.002180 
3630.031712  	-0.001232 
3631.960528  	0.000138 
3633.889344  	-0.000148 
3635.818160  	-0.001084 
3637.746976  	-0.002113 
3639.675792  	-0.002699 
3641.604608  	-0.002806 
3643.533424  	-0.003044 
3645.462240  	-0.003547 
3647.391056  	-0.005868 
3649.319872  	-0.010122 
3651.248688  	-0.011815 
3653.177504  	-0.009542 
3655.106320  	-0.009993 
3657.035136  	-0.012377 
3658.963952  	-0.012170 
3660.892768  	-0.012263 
3662.821584  	-0.012435 
3664.750400  	-0.012198 
3666.679216  	-0.012167 
3668.608032  	-0.014057 
3670.536848  	-0.016870 
3672.465664  	-0.015147 
3674.394480  	-0.016236 
3676.323296  	-0.020332 
3678.252112  	-0.016960 
3680.180928  	-0.015309 
3682.109744  	-0.014912 
3684.038560  	-0.014970 
3685.967376  	-0.014851 
3687.896192  	-0.017321 
3689.825008  	-0.020067 
3691.753824  	-0.018844 
3693.682640  	-0.016592 
3695.611456  	-0.015397 
3697.540272  	-0.014556 
3699.469088  	-0.013973 
3701.397904  	-0.014891 
3703.326720  	-0.014734 
3705.255536  	-0.013259 
3707.184352  	-0.012920 
3709.113168  	-0.014151 
3711.041984  	-0.015873 
3712.970800  	-0.015095 
3714.899616  	-0.012534 
3716.828432  	-0.011899 
3718.757248  	-0.012128 
3720.686064  	-0.012459 
3722.614880  	-0.012837 
3724.543696  	-0.012358 
3726.472512  	-0.012739 
3728.401328  	-0.012798 
3730.330144  	-0.013210 
3732.258960  	-0.014586 
3734.187776  	-0.013382 
3736.116592  	-0.014066 
3738.045408  	-0.014269 
3739.974224  	-0.012590 
3741.903040  	-0.011357 
3743.831856  	-0.013589 
3745.760672  	-0.015560 
3747.689488  	-0.013719 
3749.618304  	-0.016094 
3751.547120  	-0.017731 
3753.475936  	-0.015504 
3755.404752  	-0.013009 
3757.333568  	-0.012639 
3759.262384  	-0.013434 
3761.191200  	-0.013476 
3763.120016  	-0.012072 
3765.048832  	-0.012502 
3766.977648  	-0.012318 
3768.906464  	-0.013025 
3770.835280  	-0.013890 
3772.764096  	-0.012545 
3774.692912  	-0.011751 
3776.621728  	-0.011601 
3778.550544  	-0.012893 
3780.479360  	-0.013880 
3782.408176  	-0.012524 
3784.336992  	-0.012688 
3786.265808  	-0.012565 
3788.194624  	-0.012177 
3790.123440  	-0.012123 
3792.052256  	-0.012139 
3793.981072  	-0.012033 
3795.909888  	-0.012923 
3797.838704  	-0.012742 
3799.767520  	-0.013101 
3801.696336  	-0.016809 
3803.625152  	-0.014962 
3805.553968  	-0.013783 
3807.482784  	-0.015366 
3809.411600  	-0.013141 
3811.340416  	-0.011768 
3813.269232  	-0.011552 
3815.198048  	-0.014017 
3817.126864  	-0.015325 
3819.055680  	-0.013645 
3820.984496  	-0.016359 
3822.913312  	-0.015209 
3824.842128  	-0.012870 
3826.770944  	-0.013310 
3828.699760  	-0.012637 
3830.628576  	-0.012674 
3832.557392  	-0.013488 
3834.486208  	-0.013384 
3836.415024  	-0.014131 
3838.343840  	-0.015367 
3840.272656  	-0.014726 
3842.201472  	-0.013677 
3844.130288  	-0.013442 
3846.059104  	-0.012478 
3847.987920  	-0.011606 
3849.916736  	-0.011406 
3851.845552  	-0.013305 
3853.774368  	-0.018469 
3855.703184  	-0.015813 
3857.632000  	-0.012862 
3859.560816  	-0.011809 
3861.489632  	-0.011924 
3863.418448  	-0.012553 
3865.347264  	-0.012969 
3867.276080  	-0.011697 
3869.204896  	-0.012755 
3871.133712  	-0.013192 
3873.062528  	-0.012421 
3874.991344  	-0.012961 
3876.920160  	-0.011493 
3878.848976  	-0.010977 
3880.777792  	-0.011763 
3882.706608  	-0.011221 
3884.635424  	-0.011468 
3886.564240  	-0.012743 
3888.493056  	-0.011921 
3890.421872  	-0.012339 
3892.350688  	-0.013045 
3894.279504  	-0.011960 
3896.208320  	-0.011053 
3898.137136  	-0.010700 
3900.065952  	-0.010828 
3901.994768  	-0.010748 
3903.923584  	-0.011711 
3905.852400  	-0.012240 
3907.781216  	-0.012053 
3909.710032  	-0.011917 
3911.638848  	-0.011845 
3913.567664  	-0.011593 
3915.496480  	-0.011053 
3917.425296  	-0.011108 
3919.354112  	-0.011441 
3921.282928  	-0.011361 
3923.211744  	-0.010870 
3925.140560  	-0.010945 
3927.069376  	-0.011238 
3928.998192  	-0.011221 
3930.927008  	-0.010604 
3932.855824  	-0.010554 
3934.784640  	-0.011198 
3936.713456  	-0.011462 
3938.642272  	-0.011125 
3940.571088  	-0.010715 
3942.499904  	-0.010599 
3944.428720  	-0.010841 
3946.357536  	-0.010598 
3948.286352  	-0.010373 
3950.215168  	-0.010997 
3952.143984  	-0.011765 
3954.072800  	-0.011850 
3956.001616  	-0.011452 
3957.930432  	-0.011365 
3959.859248  	-0.011298 
3961.788064  	-0.011400 
3963.716880  	-0.011780 
3965.645696  	-0.011973 
3967.574512  	-0.011735 
3969.503328  	-0.011311 
3971.432144  	-0.011414 
3973.360960  	-0.011517 
3975.289776  	-0.011390 
3977.218592  	-0.011434 
3979.147408  	-0.011554 
3981.076224  	-0.011528 
3983.005040  	-0.011542 
3984.933856  	-0.011640 
3986.862672  	-0.011671 
3988.791488  	-0.011435 
3990.720304  	-0.011207 
3992.649120  	-0.011342 
3994.577936  	-0.011584 
3996.506752  	-0.011535 
3998.435568  	-0.011502 
4000.364384  	-0.011601 