##TITLE=No Description
##DATA TYPE=INFRARED SPECTRUM
##XUNITS=1/CM
##YUNITS=Abs
399.264912  	0.575645 
401.193728  	0.601431 
403.122544  	0.629291 
405.051360  	0.618863 
406.980176  	0.597463 
408.908992  	0.577768 
410.837808  	0.581432 
412.766624  	0.569506 
414.695440  	0.566861 
416.624256  	0.557233 
418.553072  	0.558171 
420.481888  	0.563522 
422.410704  	0.564875 
424.339520  	0.549127 
426.268336  	0.547284 
428.197152  	0.546090 
430.125968  	0.554576 
432.054784  	0.554963 
433.983600  	0.556345 
435.912416  	0.553882 
437.841232  	0.552993 
439.770048  	0.545444 
441.698864  	0.544248 
443.627680  	0.538613 
445.556496  	0.533866 
447.485312  	0.528218 
449.414128  	0.532694 
451.342944  	0.533537 
453.271760  	0.533046 
455.200576  	0.532051 
457.129392  	0.536733 
459.058208  	0.536126 
460.987024  	0.538590 
462.915840  	0.531314 
464.844656  	0.528613 
466.773472  	0.527130 
468.702288  	0.531189 
470.631104  	0.525048 
472.559920  	0.524642 
474.488736  	0.525365 
476.417552  	0.528907 
478.346368  	0.527451 
480.275184  	0.523045 
482.204000  	0.513367 
484.132816  	0.514199 
486.061632  	0.516973 
487.990448  	0.517266 
489.919264  	0.515250 
491.848080  	0.518018 
493.776896  	0.515198 
495.705712  	0.511992 
497.634528  	0.509902 
499.563344  	0.510191 
501.492160  	0.506349 
503.420976  	0.508559 
505.349792  	0.508943 
507.278608  	0.508493 
509.207424  	0.507990 
511.136240  	0.508465 
513.065056  	0.507126 
514.993872  	0.510951 
516.922688  	0.513603 
518.851504  	0.516760 
520.780320  	0.514843 
522.709136  	0.514980 
524.637952  	0.513453 
526.566768  	0.510937 
528.495584  	0.507893 
530.424400  	0.508121 
532.353216  	0.504662 
534.282032  	0.499844 
536.210848  	0.491827 
538.139664  	0.485893 
540.068480  	0.481757 
541.997296  	0.478683 
543.926112  	0.473892 
545.854928  	0.470354 
547.783744  	0.465902 
549.712560  	0.463178 
551.641376  	0.460378 
553.570192  	0.457567 
555.499008  	0.452631 
557.427824  	0.450398 
559.356640  	0.446945 
561.285456  	0.443184 
563.214272  	0.439459 
565.143088  	0.436466 
567.071904  	0.432244 
569.000720  	0.428905 
570.929536  	0.425901 
572.858352  	0.423714 
574.787168  	0.420946 
576.715984  	0.418909 
578.644800  	0.414709 
580.573616  	0.410402 
582.502432  	0.405514 
584.431248  	0.401728 
586.360064  	0.398136 
588.288880  	0.396846 
590.217696  	0.394706 
592.146512  	0.392078 
594.075328  	0.388848 
596.004144  	0.386964 
597.932960  	0.385016 
599.861776  	0.383382 
601.790592  	0.381770 
603.719408  	0.380342 
605.648224  	0.378500 
607.577040  	0.377807 
609.505856  	0.376217 
611.434672  	0.374033 
613.363488  	0.371477 
615.292304  	0.370048 
617.221120  	0.367941 
619.149936  	0.366851 
621.078752  	0.365788 
623.007568  	0.365176 
624.936384  	0.363712 
626.865200  	0.362407 
628.794016  	0.360690 
630.722832  	0.360154 
632.651648  	0.360001 
634.580464  	0.359598 
636.509280  	0.358973 
638.438096  	0.358725 
640.366912  	0.357939 
642.295728  	0.356255 
644.224544  	0.353878 
646.153360  	0.350668 
648.082176  	0.346121 
650.010992  	0.342413 
651.939808  	0.338637 
653.868624  	0.335040 
655.797440  	0.331329 
657.726256  	0.327491 
659.655072  	0.323518 
661.583888  	0.320051 
663.512704  	0.316377 
665.441520  	0.313283 
667.370336  	0.306266 
669.299152  	0.300573 
671.227968  	0.299816 
673.156784  	0.297414 
675.085600  	0.294561 
677.014416  	0.291794 
678.943232  	0.289993 
680.872048  	0.288303 
682.800864  	0.285945 
684.729680  	0.283861 
686.658496  	0.282476 
688.587312  	0.281703 
690.516128  	0.280374 
692.444944  	0.279026 
694.373760  	0.277616 
696.302576  	0.276396 
698.231392  	0.274236 
700.160208  	0.271104 
702.089024  	0.268600 
704.017840  	0.266711 
705.946656  	0.264430 
707.875472  	0.262318 
709.804288  	0.260229 
711.733104  	0.257934 
713.661920  	0.255660 
715.590736  	0.254331 
717.519552  	0.253989 
719.448368  	0.254228 
721.377184  	0.254244 
723.306000  	0.254781 
725.234816  	0.255132 
727.163632  	0.254380 
729.092448  	0.252103 
731.021264  	0.248910 
732.950080  	0.245538 
734.878896  	0.242451 
736.807712  	0.239616 
738.736528  	0.237437 
740.665344  	0.234951 
742.594160  	0.233093 
744.522976  	0.231623 
746.451792  	0.230136 
748.380608  	0.228487 
750.309424  	0.226929 
752.238240  	0.225822 
754.167056  	0.225025 
756.095872  	0.223599 
758.024688  	0.222638 
759.953504  	0.221992 
761.882320  	0.222153 
763.811136  	0.222663 
765.739952  	0.221890 
767.668768  	0.219519 
769.597584  	0.217005 
771.526400  	0.216009 
773.455216  	0.217377 
775.384032  	0.220121 
777.312848  	0.224551 
779.241664  	0.228750 
781.170480  	0.229012 
783.099296  	0.225325 
785.028112  	0.219965 
786.956928  	0.214118 
788.885744  	0.209521 
790.814560  	0.205794 
792.743376  	0.203040 
794.672192  	0.201485 
796.601008  	0.200345 
798.529824  	0.197681 
800.458640  	0.193273 
802.387456  	0.189681 
804.316272  	0.187811 
806.245088  	0.186564 
808.173904  	0.185471 
810.102720  	0.184876 
812.031536  	0.185113 
813.960352  	0.185483 
815.889168  	0.185631 
817.817984  	0.185662 
819.746800  	0.185615 
821.675616  	0.186105 
823.604432  	0.186144 
825.533248  	0.185674 
827.462064  	0.185322 
829.390880  	0.184518 
831.319696  	0.183158 
833.248512  	0.181541 
835.177328  	0.179589 
837.106144  	0.177165 
839.034960  	0.174120 
840.963776  	0.169985 
842.892592  	0.166038 
844.821408  	0.162504 
846.750224  	0.159648 
848.679040  	0.157223 
850.607856  	0.154917 
852.536672  	0.152997 
854.465488  	0.151226 
856.394304  	0.149832 
858.323120  	0.148424 
860.251936  	0.146541 
862.180752  	0.144338 
864.109568  	0.141963 
866.038384  	0.139356 
867.967200  	0.137255 
869.896016  	0.135473 
871.824832  	0.134187 
873.753648  	0.133865 
875.682464  	0.134419 
877.611280  	0.134938 
879.540096  	0.135942 
881.468912  	0.138170 
883.397728  	0.139717 
885.326544  	0.140886 
887.255360  	0.141362 
889.184176  	0.140378 
891.112992  	0.138370 
893.041808  	0.136694 
894.970624  	0.134375 
896.899440  	0.130861 
898.828256  	0.126602 
900.757072  	0.122535 
902.685888  	0.119287 
904.614704  	0.117422 
906.543520  	0.117367 
908.472336  	0.118590 
910.401152  	0.121026 
912.329968  	0.123664 
914.258784  	0.126361 
916.187600  	0.129031 
918.116416  	0.131256 
920.045232  	0.132899 
921.974048  	0.133994 
923.902864  	0.134570 
925.831680  	0.134601 
927.760496  	0.134669 
929.689312  	0.134922 
931.618128  	0.135650 
933.546944  	0.136319 
935.475760  	0.136670 
937.404576  	0.136410 
939.333392  	0.135810 
941.262208  	0.135646 
943.191024  	0.136663 
945.119840  	0.139851 
947.048656  	0.145233 
948.977472  	0.152482 
950.906288  	0.161476 
952.835104  	0.171836 
954.763920  	0.182866 
956.692736  	0.193550 
958.621552  	0.203197 
960.550368  	0.210062 
962.479184  	0.213609 
964.408000  	0.213323 
966.336816  	0.209160 
968.265632  	0.201063 
970.194448  	0.190133 
972.123264  	0.177192 
974.052080  	0.163573 
975.980896  	0.150225 
977.909712  	0.137913 
979.838528  	0.126861 
981.767344  	0.117586 
983.696160  	0.110329 
985.624976  	0.105625 
987.553792  	0.103615 
989.482608  	0.104151 
991.411424  	0.107000 
993.340240  	0.111625 
995.269056  	0.117394 
997.197872  	0.123730 
999.126688  	0.130302 
1001.055504  	0.137014 
1002.984320  	0.143716 
1004.913136  	0.150157 
1006.841952  	0.156356 
1008.770768  	0.161728 
1010.699584  	0.165576 
1012.628400  	0.168022 
1014.557216  	0.168927 
1016.486032  	0.168913 
1018.414848  	0.168493 
1020.343664  	0.167971 
1022.272480  	0.167107 
1024.201296  	0.165508 
1026.130112  	0.162334 
1028.058928  	0.161283 
1029.987744  	0.164045 
1031.916560  	0.166005 
1033.845376  	0.167299 
1035.774192  	0.168697 
1037.703008  	0.171789 
1039.631824  	0.178444 
1041.560640  	0.187533 
1043.489456  	0.199588 
1045.418272  	0.214232 
1047.347088  	0.230498 
1049.275904  	0.245745 
1051.204720  	0.257806 
1053.133536  	0.265078 
1055.062352  	0.268158 
1056.991168  	0.267805 
1058.919984  	0.268808 
1060.848800  	0.269568 
1062.777616  	0.267209 
1064.706432  	0.261427 
1066.635248  	0.256216 
1068.564064  	0.254038 
1070.492880  	0.249323 
1072.421696  	0.241740 
1074.350512  	0.236455 
1076.279328  	0.235025 
1078.208144  	0.237592 
1080.136960  	0.242742 
1082.065776  	0.249080 
1083.994592  	0.253652 
1085.923408  	0.254891 
1087.852224  	0.252515 
1089.781040  	0.248113 
1091.709856  	0.242016 
1093.638672  	0.233408 
1095.567488  	0.221847 
1097.496304  	0.209203 
1099.425120  	0.196187 
1101.353936  	0.183062 
1103.282752  	0.170290 
1105.211568  	0.158212 
1107.140384  	0.146662 
1109.069200  	0.135946 
1110.998016  	0.126082 
1112.926832  	0.117289 
1114.855648  	0.109242 
1116.784464  	0.101512 
1118.713280  	0.094381 
1120.642096  	0.087639 
1122.570912  	0.081262 
1124.499728  	0.075213 
1126.428544  	0.069939 
1128.357360  	0.065181 
1130.286176  	0.061198 
1132.214992  	0.057804 
1134.143808  	0.055137 
1136.072624  	0.053076 
1138.001440  	0.051259 
1139.930256  	0.049063 
1141.859072  	0.046793 
1143.787888  	0.044363 
1145.716704  	0.042296 
1147.645520  	0.040366 
1149.574336  	0.038750 
1151.503152  	0.037366 
1153.431968  	0.036655 
1155.360784  	0.036635 
1157.289600  	0.037635 
1159.218416  	0.039095 
1161.147232  	0.040961 
1163.076048  	0.043034 
1165.004864  	0.045387 
1166.933680  	0.047557 
1168.862496  	0.049923 
1170.791312  	0.052324 
1172.720128  	0.055147 
1174.648944  	0.057852 
1176.577760  	0.060734 
1178.506576  	0.063538 
1180.435392  	0.066317 
1182.364208  	0.068892 
1184.293024  	0.072006 
1186.221840  	0.075353 
1188.150656  	0.079214 
1190.079472  	0.083655 
1192.008288  	0.089154 
1193.937104  	0.095679 
1195.865920  	0.103157 
1197.794736  	0.111331 
1199.723552  	0.120398 
1201.652368  	0.129703 
1203.581184  	0.139065 
1205.510000  	0.148323 
1207.438816  	0.157023 
1209.367632  	0.165028 
1211.296448  	0.172033 
1213.225264  	0.177751 
1215.154080  	0.182030 
1217.082896  	0.185261 
1219.011712  	0.187451 
1220.940528  	0.188781 
1222.869344  	0.189447 
1224.798160  	0.189499 
1226.726976  	0.188653 
1228.655792  	0.187561 
1230.584608  	0.185528 
1232.513424  	0.182989 
1234.442240  	0.180090 
1236.371056  	0.176401 
1238.299872  	0.171347 
1240.228688  	0.164208 
1242.157504  	0.157086 
1244.086320  	0.151052 
1246.015136  	0.143558 
1247.943952  	0.135249 
1249.872768  	0.127104 
1251.801584  	0.120141 
1253.730400  	0.113189 
1255.659216  	0.106367 
1257.588032  	0.099889 
1259.516848  	0.093801 
1261.445664  	0.088077 
1263.374480  	0.082869 
1265.303296  	0.078478 
1267.232112  	0.074927 
1269.160928  	0.072292 
1271.089744  	0.070399 
1273.018560  	0.069452 
1274.947376  	0.069323 
1276.876192  	0.069650 
1278.805008  	0.069572 
1280.733824  	0.068621 
1282.662640  	0.066765 
1284.591456  	0.064421 
1286.520272  	0.062352 
1288.449088  	0.061009 
1290.377904  	0.060222 
1292.306720  	0.060341 
1294.235536  	0.060448 
1296.164352  	0.059706 
1298.093168  	0.057495 
1300.021984  	0.054695 
1301.950800  	0.051655 
1303.879616  	0.048697 
1305.808432  	0.045544 
1307.737248  	0.042455 
1309.666064  	0.039407 
1311.594880  	0.037324 
1313.523696  	0.035758 
1315.452512  	0.034620 
1317.381328  	0.034040 
1319.310144  	0.033861 
1321.238960  	0.033832 
1323.167776  	0.034427 
1325.096592  	0.035248 
1327.025408  	0.035870 
1328.954224  	0.035823 
1330.883040  	0.035319 
1332.811856  	0.034412 
1334.740672  	0.033956 
1336.669488  	0.034151 
1338.598304  	0.034724 
1340.527120  	0.033389 
1342.455936  	0.031275 
1344.384752  	0.030599 
1346.313568  	0.030847 
1348.242384  	0.031436 
1350.171200  	0.032580 
1352.100016  	0.034059 
1354.028832  	0.035974 
1355.957648  	0.037764 
1357.886464  	0.039649 
1359.815280  	0.041938 
1361.744096  	0.044619 
1363.672912  	0.046032 
1365.601728  	0.046757 
1367.530544  	0.048164 
1369.459360  	0.048787 
1371.388176  	0.048583 
1373.316992  	0.047713 
1375.245808  	0.044800 
1377.174624  	0.042089 
1379.103440  	0.039283 
1381.032256  	0.036234 
1382.961072  	0.033879 
1384.889888  	0.033207 
1386.818704  	0.032958 
1388.747520  	0.031074 
1390.676336  	0.028553 
1392.605152  	0.025533 
1394.533968  	0.024101 
1396.462784  	0.026783 
1398.391600  	0.027808 
1400.320416  	0.026893 
1402.249232  	0.026921 
1404.178048  	0.027692 
1406.106864  	0.028228 
1408.035680  	0.029771 
1409.964496  	0.032197 
1411.893312  	0.035088 
1413.822128  	0.037922 
1415.750944  	0.041686 
1417.679760  	0.044584 
1419.608576  	0.044536 
1421.537392  	0.044499 
1423.466208  	0.044674 
1425.395024  	0.043025 
1427.323840  	0.041595 
1429.252656  	0.039370 
1431.181472  	0.037648 
1433.110288  	0.037506 
1435.039104  	0.038152 
1436.967920  	0.037840 
1438.896736  	0.038327 
1440.825552  	0.039216 
1442.754368  	0.039759 
1444.683184  	0.040018 
1446.612000  	0.040129 
1448.540816  	0.039204 
1450.469632  	0.039478 
1452.398448  	0.040390 
1454.327264  	0.041478 
1456.256080  	0.041251 
1458.184896  	0.039093 
1460.113712  	0.039825 
1462.042528  	0.040817 
1463.971344  	0.040507 
1465.900160  	0.041016 
1467.828976  	0.043465 
1469.757792  	0.046500 
1471.686608  	0.049639 
1473.615424  	0.055224 
1475.544240  	0.061521 
1477.473056  	0.066794 
1479.401872  	0.070429 
1481.330688  	0.073652 
1483.259504  	0.075715 
1485.188320  	0.077322 
1487.117136  	0.077562 
1489.045952  	0.077404 
1490.974768  	0.074377 
1492.903584  	0.071795 
1494.832400  	0.068548 
1496.761216  	0.062378 
1498.690032  	0.056572 
1500.618848  	0.052744 
1502.547664  	0.049035 
1504.476480  	0.044808 
1506.405296  	0.039245 
1508.334112  	0.038009 
1510.262928  	0.037755 
1512.191744  	0.035590 
1514.120560  	0.034370 
1516.049376  	0.033937 
1517.978192  	0.033073 
1519.907008  	0.034121 
1521.835824  	0.034807 
1523.764640  	0.038876 
1525.693456  	0.043111 
1527.622272  	0.045179 
1529.551088  	0.045631 
1531.479904  	0.045278 
1533.408720  	0.041744 
1535.337536  	0.038748 
1537.266352  	0.036609 
1539.195168  	0.029343 
1541.123984  	0.023452 
1543.052800  	0.026235 
1544.981616  	0.026765 
1546.910432  	0.025852 
1548.839248  	0.026217 
1550.768064  	0.026387 
1552.696880  	0.025822 
1554.625696  	0.026196 
1556.554512  	0.026069 
1558.483328  	0.023876 
1560.412144  	0.028342 
1562.340960  	0.034875 
1564.269776  	0.038579 
1566.198592  	0.043539 
1568.127408  	0.047228 
1570.056224  	0.052105 
1571.985040  	0.059020 
1573.913856  	0.063422 
1575.842672  	0.064314 
1577.771488  	0.067505 
1579.700304  	0.069517 
1581.629120  	0.069384 
1583.557936  	0.068742 
1585.486752  	0.069394 
1587.415568  	0.071542 
1589.344384  	0.075776 
1591.273200  	0.081402 
1593.202016  	0.088371 
1595.130832  	0.095683 
1597.059648  	0.103476 
1598.988464  	0.110164 
1600.917280  	0.116086 
1602.846096  	0.119956 
1604.774912  	0.122517 
1606.703728  	0.122924 
1608.632544  	0.122205 
1610.561360  	0.120311 
1612.490176  	0.118940 
1614.418992  	0.116612 
1616.347808  	0.113499 
1618.276624  	0.114688 
1620.205440  	0.119198 
1622.134256  	0.121844 
1624.063072  	0.127209 
1625.991888  	0.134047 
1627.920704  	0.141816 
1629.849520  	0.151318 
1631.778336  	0.160558 
1633.707152  	0.166711 
1635.635968  	0.173733 
1637.564784  	0.184594 
1639.493600  	0.192935 
1641.422416  	0.198419 
1643.351232  	0.202481 
1645.280048  	0.202930 
1647.208864  	0.202622 
1649.137680  	0.204287 
1651.066496  	0.204470 
1652.995312  	0.197549 
1654.924128  	0.197858 
1656.852944  	0.198866 
1658.781760  	0.196949 
1660.710576  	0.193336 
1662.639392  	0.187998 
1664.568208  	0.184060 
1666.497024  	0.181715 
1668.425840  	0.176057 
1670.354656  	0.168951 
1672.283472  	0.166125 
1674.212288  	0.163114 
1676.141104  	0.158305 
1678.069920  	0.157627 
1679.998736  	0.156952 
1681.927552  	0.155238 
1683.856368  	0.150140 
1685.785184  	0.149352 
1687.714000  	0.151513 
1689.642816  	0.150956 
1691.571632  	0.149258 
1693.500448  	0.148186 
1695.429264  	0.144110 
1697.358080  	0.141224 
1699.286896  	0.139179 
1701.215712  	0.134441 
1703.144528  	0.133810 
1705.073344  	0.129900 
1707.002160  	0.124381 
1708.930976  	0.120438 
1710.859792  	0.114879 
1712.788608  	0.108514 
1714.717424  	0.100365 
1716.646240  	0.089598 
1718.575056  	0.076772 
1720.503872  	0.069382 
1722.432688  	0.062833 
1724.361504  	0.053768 
1726.290320  	0.046200 
1728.219136  	0.040109 
1730.147952  	0.034779 
1732.076768  	0.029970 
1734.005584  	0.023368 
1735.934400  	0.018409 
1737.863216  	0.017903 
1739.792032  	0.014239 
1741.720848  	0.013250 
1743.649664  	0.012936 
1745.578480  	0.011904 
1747.507296  	0.010314 
1749.436112  	0.009529 
1751.364928  	0.008379 
1753.293744  	0.007294 
1755.222560  	0.006770 
1757.151376  	0.006291 
1759.080192  	0.005683 
1761.009008  	0.005083 
1762.937824  	0.003711 
1764.866640  	0.004055 
1766.795456  	0.004523 
1768.724272  	0.004114 
1770.653088  	0.001878 
1772.581904  	-0.000455 
1774.510720  	0.000764 
1776.439536  	0.002300 
1778.368352  	0.002455 
1780.297168  	0.002188 
1782.225984  	0.001674 
1784.154800  	0.002129 
1786.083616  	0.001418 
1788.012432  	0.001432 
1789.941248  	0.001783 
1791.870064  	0.000786 
1793.798880  	-0.000285 
1795.727696  	0.001105 
1797.656512  	0.000740 
1799.585328  	0.000526 
1801.514144  	0.000888 
1803.442960  	0.000555 
1805.371776  	-0.000250 
1807.300592  	-0.000004 
1809.229408  	-0.000388 
1811.158224  	-0.000639 
1813.087040  	-0.000813 
1815.015856  	-0.000605 
1816.944672  	-0.000518 
1818.873488  	-0.000394 
1820.802304  	-0.000478 
1822.731120  	-0.000035 
1824.659936  	-0.000633 
1826.588752  	-0.001101 
1828.517568  	-0.001769 
1830.446384  	-0.002038 
1832.375200  	-0.001385 
1834.304016  	-0.000750 
1836.232832  	-0.000787 
1838.161648  	-0.000644 
1840.090464  	-0.000859 
1842.019280  	-0.000344 
1843.948096  	-0.001326 
1845.876912  	-0.001214 
1847.805728  	-0.000717 
1849.734544  	-0.000812 
1851.663360  	-0.001274 
1853.592176  	-0.001331 
1855.520992  	-0.001612 
1857.449808  	-0.001304 
1859.378624  	-0.001378 
1861.307440  	-0.001276 
1863.236256  	-0.001551 
1865.165072  	-0.001355 
1867.093888  	-0.001502 
1869.022704  	-0.001542 
1870.951520  	-0.001778 
1872.880336  	-0.001525 
1874.809152  	-0.001724 
1876.737968  	-0.001764 
1878.666784  	-0.002030 
1880.595600  	-0.001434 
1882.524416  	-0.001663 
1884.453232  	-0.001821 
1886.382048  	-0.002139 
1888.310864  	-0.001706 
1890.239680  	-0.001868 
1892.168496  	-0.001793 
1894.097312  	-0.001965 
1896.026128  	-0.001685 
1897.954944  	-0.001820 
1899.883760  	-0.001634 
1901.812576  	-0.001836 
1903.741392  	-0.002038 
1905.670208  	-0.001893 
1907.599024  	-0.001300 
1909.527840  	-0.001632 
1911.456656  	-0.001432 
1913.385472  	-0.001718 
1915.314288  	-0.001197 
1917.243104  	-0.001343 
1919.171920  	-0.001439 
1921.100736  	-0.001538 
1923.029552  	-0.001113 
1924.958368  	-0.001597 
1926.887184  	-0.001779 
1928.816000  	-0.002504 
1930.744816  	-0.002537 
1932.673632  	-0.002611 
1934.602448  	-0.001999 
1936.531264  	-0.001758 
1938.460080  	-0.001056 
1940.388896  	-0.001167 
1942.317712  	-0.000972 
1944.246528  	-0.001854 
1946.175344  	-0.001302 
1948.104160  	-0.001521 
1950.032976  	-0.001242 
1951.961792  	-0.001473 
1953.890608  	-0.001688 
1955.819424  	-0.002502 
1957.748240  	-0.001655 
1959.677056  	-0.001960 
1961.605872  	-0.001871 
1963.534688  	-0.002424 
1965.463504  	-0.001428 
1967.392320  	-0.001240 
1969.321136  	-0.001030 
1971.249952  	-0.000992 
1973.178768  	-0.000287 
1975.107584  	-0.001405 
1977.036400  	-0.000714 
1978.965216  	0.000036 
1980.894032  	-0.000016 
1982.822848  	-0.001117 
1984.751664  	-0.000944 
1986.680480  	-0.002191 
1988.609296  	-0.001834 
1990.538112  	-0.001948 
1992.466928  	-0.001288 
1994.395744  	-0.002294 
1996.324560  	-0.002458 
1998.253376  	-0.002777 
2000.182192  	-0.003026 
2002.111008  	-0.003038 
2004.039824  	-0.001996 
2005.968640  	-0.002118 
2007.897456  	-0.001254 
2009.826272  	-0.001732 
2011.755088  	-0.000896 
2013.683904  	-0.001187 
2015.612720  	-0.001200 
2017.541536  	-0.001179 
2019.470352  	-0.000635 
2021.399168  	-0.002282 
2023.327984  	-0.001916 
2025.256800  	-0.000939 
2027.185616  	-0.000580 
2029.114432  	-0.000997 
2031.043248  	-0.000300 
2032.972064  	-0.000961 
2034.900880  	-0.000356 
2036.829696  	-0.000546 
2038.758512  	0.000540 
2040.687328  	-0.000645 
2042.616144  	-0.001189 
2044.544960  	-0.001218 
2046.473776  	-0.000441 
2048.402592  	-0.000676 
2050.331408  	-0.000338 
2052.260224  	-0.001323 
2054.189040  	-0.001569 
2056.117856  	-0.001816 
2058.046672  	-0.001666 
2059.975488  	-0.001726 
2061.904304  	-0.001290 
2063.833120  	-0.001125 
2065.761936  	-0.000962 
2067.690752  	-0.001349 
2069.619568  	-0.001061 
2071.548384  	-0.001354 
2073.477200  	-0.001388 
2075.406016  	-0.001237 
2077.334832  	-0.000763 
2079.263648  	-0.001007 
2081.192464  	-0.000904 
2083.121280  	-0.000765 
2085.050096  	-0.000729 
2086.978912  	-0.001110 
2088.907728  	-0.000790 
2090.836544  	-0.000908 
2092.765360  	-0.000879 
2094.694176  	-0.001037 
2096.622992  	-0.000797 
2098.551808  	-0.000526 
2100.480624  	-0.000195 
2102.409440  	-0.000638 
2104.338256  	-0.000928 
2106.267072  	-0.001146 
2108.195888  	-0.000746 
2110.124704  	-0.000640 
2112.053520  	-0.000351 
2113.982336  	-0.000459 
2115.911152  	-0.000154 
2117.839968  	-0.000291 
2119.768784  	-0.000722 
2121.697600  	-0.001117 
2123.626416  	-0.001181 
2125.555232  	-0.001580 
2127.484048  	-0.001397 
2129.412864  	-0.001841 
2131.341680  	-0.002093 
2133.270496  	-0.002024 
2135.199312  	-0.001218 
2137.128128  	-0.000507 
2139.056944  	-0.000052 
2140.985760  	-0.001094 
2142.914576  	-0.001405 
2144.843392  	-0.000720 
2146.772208  	-0.000243 
2148.701024  	-0.001444 
2150.629840  	-0.000609 
2152.558656  	-0.000074 
2154.487472  	-0.000633 
2156.416288  	-0.002057 
2158.345104  	-0.000384 
2160.273920  	0.002026 
2162.202736  	0.003213 
2164.131552  	0.002491 
2166.060368  	0.001739 
2167.989184  	0.002118 
2169.918000  	0.002999 
2171.846816  	0.001739 
2173.775632  	0.001680 
2175.704448  	0.001546 
2177.633264  	0.000958 
2179.562080  	0.000313 
2181.490896  	0.000407 
2183.419712  	-0.000382 
2185.348528  	-0.000368 
2187.277344  	-0.000161 
2189.206160  	-0.000290 
2191.134976  	-0.000836 
2193.063792  	-0.000392 
2194.992608  	-0.000266 
2196.921424  	-0.000427 
2198.850240  	-0.000276 
2200.779056  	0.000226 
2202.707872  	-0.000201 
2204.636688  	-0.000649 
2206.565504  	-0.000367 
2208.494320  	-0.000081 
2210.423136  	-0.000474 
2212.351952  	-0.000394 
2214.280768  	-0.000706 
2216.209584  	-0.000579 
2218.138400  	-0.000911 
2220.067216  	-0.000670 
2221.996032  	-0.000401 
2223.924848  	-0.000201 
2225.853664  	0.000075 
2227.782480  	-0.000019 
2229.711296  	-0.001385 
2231.640112  	-0.002093 
2233.568928  	-0.001754 
2235.497744  	-0.000890 
2237.426560  	-0.001165 
2239.355376  	-0.001147 
2241.284192  	-0.000656 
2243.213008  	-0.000485 
2245.141824  	-0.001355 
2247.070640  	-0.001521 
2248.999456  	-0.001296 
2250.928272  	-0.001656 
2252.857088  	-0.001971 
2254.785904  	-0.002088 
2256.714720  	-0.002585 
2258.643536  	-0.002345 
2260.572352  	-0.002356 
2262.501168  	-0.002570 
2264.429984  	-0.002459 
2266.358800  	-0.002270 
2268.287616  	-0.002205 
2270.216432  	-0.002043 
2272.145248  	-0.002054 
2274.074064  	-0.002122 
2276.002880  	-0.002194 
2277.931696  	-0.001765 
2279.860512  	-0.001508 
2281.789328  	-0.001217 
2283.718144  	-0.001284 
2285.646960  	-0.001084 
2287.575776  	-0.000926 
2289.504592  	-0.001225 
2291.433408  	-0.001649 
2293.362224  	-0.001414 
2295.291040  	-0.001098 
2297.219856  	-0.000841 
2299.148672  	-0.000915 
2301.077488  	-0.000789 
2303.006304  	-0.000762 
2304.935120  	-0.000584 
2306.863936  	-0.000562 
2308.792752  	-0.000589 
2310.721568  	-0.001005 
2312.650384  	-0.001663 
2314.579200  	-0.002398 
2316.508016  	-0.003279 
2318.436832  	-0.004663 
2320.365648  	-0.005921 
2322.294464  	-0.007254 
2324.223280  	-0.008786 
2326.152096  	-0.011009 
2328.080912  	-0.013149 
2330.009728  	-0.015039 
2331.938544  	-0.016747 
2333.867360  	-0.018164 
2335.796176  	-0.019298 
2337.724992  	-0.020414 
2339.653808  	-0.020698 
2341.582624  	-0.020775 
2343.511440  	-0.019629 
2345.440256  	-0.016762 
2347.369072  	-0.011703 
2349.297888  	-0.009093 
2351.226704  	-0.011941 
2353.155520  	-0.017445 
2355.084336  	-0.022220 
2357.013152  	-0.026089 
2358.941968  	-0.027824 
2360.870784  	-0.028913 
2362.799600  	-0.028159 
2364.728416  	-0.026559 
2366.657232  	-0.023751 
2368.586048  	-0.019764 
2370.514864  	-0.016041 
2372.443680  	-0.012461 
2374.372496  	-0.008858 
2376.301312  	-0.005831 
2378.230128  	-0.003428 
2380.158944  	-0.002066 
2382.087760  	-0.001480 
2384.016576  	-0.001466 
2385.945392  	-0.001831 
2387.874208  	-0.002108 
2389.803024  	-0.002250 
2391.731840  	-0.002517 
2393.660656  	-0.002521 
2395.589472  	-0.002481 
2397.518288  	-0.002432 
2399.447104  	-0.002503 
2401.375920  	-0.002589 
2403.304736  	-0.002675 
2405.233552  	-0.002650 
2407.162368  	-0.002686 
2409.091184  	-0.002568 
2411.020000  	-0.002640 
2412.948816  	-0.002539 
2414.877632  	-0.002295 
2416.806448  	-0.002156 
2418.735264  	-0.002360 
2420.664080  	-0.002552 
2422.592896  	-0.002556 
2424.521712  	-0.002568 
2426.450528  	-0.002629 
2428.379344  	-0.002349 
2430.308160  	-0.002109 
2432.236976  	-0.002044 
2434.165792  	-0.002022 
2436.094608  	-0.002022 
2438.023424  	-0.002005 
2439.952240  	-0.001766 
2441.881056  	-0.001781 
2443.809872  	-0.001917 
2445.738688  	-0.001838 
2447.667504  	-0.001606 
2449.596320  	-0.001603 
2451.525136  	-0.001466 
2453.453952  	-0.001389 
2455.382768  	-0.001560 
2457.311584  	-0.001841 
2459.240400  	-0.001935 
2461.169216  	-0.002015 
2463.098032  	-0.002070 
2465.026848  	-0.001984 
2466.955664  	-0.001958 
2468.884480  	-0.002254 
2470.813296  	-0.002205 
2472.742112  	-0.002029 
2474.670928  	-0.002154 
2476.599744  	-0.002302 
2478.528560  	-0.002094 
2480.457376  	-0.001981 
2482.386192  	-0.001925 
2484.315008  	-0.001857 
2486.243824  	-0.001850 
2488.172640  	-0.001867 
2490.101456  	-0.001698 
2492.030272  	-0.001624 
2493.959088  	-0.001400 
2495.887904  	-0.001383 
2497.816720  	-0.001424 
2499.745536  	-0.001315 
2501.674352  	-0.001115 
2503.603168  	-0.000918 
2505.531984  	-0.000901 
2507.460800  	-0.001118 
2509.389616  	-0.001064 
2511.318432  	-0.000916 
2513.247248  	-0.000903 
2515.176064  	-0.000863 
2517.104880  	-0.000822 
2519.033696  	-0.000999 
2520.962512  	-0.000874 
2522.891328  	-0.000594 
2524.820144  	-0.000665 
2526.748960  	-0.000737 
2528.677776  	-0.000413 
2530.606592  	-0.000440 
2532.535408  	-0.000664 
2534.464224  	-0.000771 
2536.393040  	-0.000697 
2538.321856  	-0.000524 
2540.250672  	-0.000319 
2542.179488  	-0.000245 
2544.108304  	-0.000164 
2546.037120  	-0.000160 
2547.965936  	-0.000231 
2549.894752  	-0.000401 
2551.823568  	-0.000343 
2553.752384  	0.000043 
2555.681200  	0.000419 
2557.610016  	0.000482 
2559.538832  	0.000502 
2561.467648  	0.000537 
2563.396464  	0.000558 
2565.325280  	0.000740 
2567.254096  	0.000922 
2569.182912  	0.000858 
2571.111728  	0.000794 
2573.040544  	0.000685 
2574.969360  	0.000753 
2576.898176  	0.001085 
2578.826992  	0.001248 
2580.755808  	0.001261 
2582.684624  	0.001435 
2584.613440  	0.001519 
2586.542256  	0.001522 
2588.471072  	0.001579 
2590.399888  	0.001667 
2592.328704  	0.001723 
2594.257520  	0.001719 
2596.186336  	0.001691 
2598.115152  	0.001703 
2600.043968  	0.001672 
2601.972784  	0.002058 
2603.901600  	0.002396 
2605.830416  	0.002406 
2607.759232  	0.002273 
2609.688048  	0.002294 
2611.616864  	0.002442 
2613.545680  	0.002603 
2615.474496  	0.002818 
2617.403312  	0.003016 
2619.332128  	0.003040 
2621.260944  	0.003109 
2623.189760  	0.003112 
2625.118576  	0.003203 
2627.047392  	0.003217 
2628.976208  	0.003349 
2630.905024  	0.003534 
2632.833840  	0.003738 
2634.762656  	0.003877 
2636.691472  	0.003815 
2638.620288  	0.003924 
2640.549104  	0.004165 
2642.477920  	0.004183 
2644.406736  	0.004290 
2646.335552  	0.004514 
2648.264368  	0.004619 
2650.193184  	0.004650 
2652.122000  	0.004762 
2654.050816  	0.005003 
2655.979632  	0.005126 
2657.908448  	0.005189 
2659.837264  	0.005331 
2661.766080  	0.005410 
2663.694896  	0.005487 
2665.623712  	0.005515 
2667.552528  	0.005664 
2669.481344  	0.005879 
2671.410160  	0.006011 
2673.338976  	0.006112 
2675.267792  	0.006318 
2677.196608  	0.006485 
2679.125424  	0.006508 
2681.054240  	0.006644 
2682.983056  	0.006899 
2684.911872  	0.006973 
2686.840688  	0.007003 
2688.769504  	0.007078 
2690.698320  	0.007117 
2692.627136  	0.007176 
2694.555952  	0.007305 
2696.484768  	0.007403 
2698.413584  	0.007443 
2700.342400  	0.007494 
2702.271216  	0.007656 
2704.200032  	0.007853 
2706.128848  	0.007977 
2708.057664  	0.008036 
2709.986480  	0.008171 
2711.915296  	0.008304 
2713.844112  	0.008413 
2715.772928  	0.008457 
2717.701744  	0.008546 
2719.630560  	0.008715 
2721.559376  	0.008866 
2723.488192  	0.009005 
2725.417008  	0.009226 
2727.345824  	0.009397 
2729.274640  	0.009456 
2731.203456  	0.009569 
2733.132272  	0.009799 
2735.061088  	0.009998 
2736.989904  	0.010154 
2738.918720  	0.010214 
2740.847536  	0.010259 
2742.776352  	0.010331 
2744.705168  	0.010491 
2746.633984  	0.010557 
2748.562800  	0.010619 
2750.491616  	0.010657 
2752.420432  	0.010730 
2754.349248  	0.010636 
2756.278064  	0.010579 
2758.206880  	0.010555 
2760.135696  	0.010544 
2762.064512  	0.010634 
2763.993328  	0.010668 
2765.922144  	0.010632 
2767.850960  	0.010727 
2769.779776  	0.010759 
2771.708592  	0.010775 
2773.637408  	0.010687 
2775.566224  	0.010608 
2777.495040  	0.010552 
2779.423856  	0.010641 
2781.352672  	0.010742 
2783.281488  	0.010728 
2785.210304  	0.010653 
2787.139120  	0.010693 
2789.067936  	0.010747 
2790.996752  	0.010778 
2792.925568  	0.010685 
2794.854384  	0.010639 
2796.783200  	0.010657 
2798.712016  	0.010692 
2800.640832  	0.010693 
2802.569648  	0.010899 
2804.498464  	0.010936 
2806.427280  	0.010685 
2808.356096  	0.010576 
2810.284912  	0.010718 
2812.213728  	0.010742 
2814.142544  	0.010656 
2816.071360  	0.010685 
2818.000176  	0.010603 
2819.928992  	0.010480 
2821.857808  	0.010348 
2823.786624  	0.010210 
2825.715440  	0.010161 
2827.644256  	0.010104 
2829.573072  	0.009994 
2831.501888  	0.009751 
2833.430704  	0.009330 
2835.359520  	0.008967 
2837.288336  	0.008837 
2839.217152  	0.008596 
2841.145968  	0.008321 
2843.074784  	0.008051 
2845.003600  	0.007814 
2846.932416  	0.007488 
2848.861232  	0.007255 
2850.790048  	0.006984 
2852.718864  	0.006439 
2854.647680  	0.005768 
2856.576496  	0.005000 
2858.505312  	0.004384 
2860.434128  	0.003945 
2862.362944  	0.003287 
2864.291760  	0.002483 
2866.220576  	0.001928 
2868.149392  	0.001655 
2870.078208  	0.001414 
2872.007024  	0.001273 
2873.935840  	0.001410 
2875.864656  	0.001506 
2877.793472  	0.001367 
2879.722288  	0.001190 
2881.651104  	0.000808 
2883.579920  	0.000627 
2885.508736  	0.000901 
2887.437552  	0.001255 
2889.366368  	0.001361 
2891.295184  	0.001110 
2893.224000  	0.000947 
2895.152816  	0.001068 
2897.081632  	0.000769 
2899.010448  	-0.000868 
2900.939264  	-0.002225 
2902.868080  	-0.000953 
2904.796896  	0.000323 
2906.725712  	0.000847 
2908.654528  	0.001571 
2910.583344  	0.002134 
2912.512160  	0.002909 
2914.440976  	0.004227 
2916.369792  	0.005219 
2918.298608  	0.005847 
2920.227424  	0.006389 
2922.156240  	0.006906 
2924.085056  	0.007530 
2926.013872  	0.008365 
2927.942688  	0.009171 
2929.871504  	0.009910 
2931.800320  	0.010755 
2933.729136  	0.011537 
2935.657952  	0.012106 
2937.586768  	0.012786 
2939.515584  	0.013394 
2941.444400  	0.013577 
2943.373216  	0.013622 
2945.302032  	0.013988 
2947.230848  	0.014290 
2949.159664  	0.014019 
2951.088480  	0.013538 
2953.017296  	0.013078 
2954.946112  	0.012444 
2956.874928  	0.011732 
2958.803744  	0.011095 
2960.732560  	0.010615 
2962.661376  	0.009947 
2964.590192  	0.009109 
2966.519008  	0.008012 
2968.447824  	0.006883 
2970.376640  	0.005906 
2972.305456  	0.005471 
2974.234272  	0.005842 
2976.163088  	0.006158 
2978.091904  	0.006121 
2980.020720  	0.006178 
2981.949536  	0.006458 
2983.878352  	0.006215 
2985.807168  	0.005219 
2987.735984  	0.004280 
2989.664800  	0.004673 
2991.593616  	0.007670 
2993.522432  	0.009637 
2995.451248  	0.010129 
2997.380064  	0.010874 
2999.308880  	0.011995 
3001.237696  	0.013234 
3003.166512  	0.014636 
3005.095328  	0.015972 
3007.024144  	0.017323 
3008.952960  	0.018824 
3010.881776  	0.020351 
3012.810592  	0.021679 
3014.739408  	0.022855 
3016.668224  	0.024060 
3018.597040  	0.025428 
3020.525856  	0.026556 
3022.454672  	0.027579 
3024.383488  	0.028734 
3026.312304  	0.029848 
3028.241120  	0.030863 
3030.169936  	0.031789 
3032.098752  	0.032699 
3034.027568  	0.033560 
3035.956384  	0.034400 
3037.885200  	0.035300 
3039.814016  	0.036023 
3041.742832  	0.036645 
3043.671648  	0.037199 
3045.600464  	0.037778 
3047.529280  	0.038300 
3049.458096  	0.038929 
3051.386912  	0.039719 
3053.315728  	0.040366 
3055.244544  	0.040897 
3057.173360  	0.041540 
3059.102176  	0.042176 
3061.030992  	0.042939 
3062.959808  	0.043717 
3064.888624  	0.044403 
3066.817440  	0.045224 
3068.746256  	0.046228 
3070.675072  	0.047034 
3072.603888  	0.047693 
3074.532704  	0.048398 
3076.461520  	0.049238 
3078.390336  	0.050133 
3080.319152  	0.051033 
3082.247968  	0.051800 
3084.176784  	0.052518 
3086.105600  	0.053381 
3088.034416  	0.054280 
3089.963232  	0.055075 
3091.892048  	0.055836 
3093.820864  	0.056609 
3095.749680  	0.057443 
3097.678496  	0.058353 
3099.607312  	0.059221 
3101.536128  	0.060227 
3103.464944  	0.061308 
3105.393760  	0.062115 
3107.322576  	0.062877 
3109.251392  	0.063704 
3111.180208  	0.064275 
3113.109024  	0.064912 
3115.037840  	0.065912 
3116.966656  	0.066846 
3118.895472  	0.067444 
3120.824288  	0.068096 
3122.753104  	0.068846 
3124.681920  	0.069520 
3126.610736  	0.070049 
3128.539552  	0.070695 
3130.468368  	0.071281 
3132.397184  	0.071775 
3134.326000  	0.072612 
3136.254816  	0.073517 
3138.183632  	0.074122 
3140.112448  	0.074804 
3142.041264  	0.075495 
3143.970080  	0.076046 
3145.898896  	0.076766 
3147.827712  	0.077460 
3149.756528  	0.077980 
3151.685344  	0.078593 
3153.614160  	0.079445 
3155.542976  	0.080214 
3157.471792  	0.080951 
3159.400608  	0.081700 
3161.329424  	0.082317 
3163.258240  	0.082746 
3165.187056  	0.083173 
3167.115872  	0.083918 
3169.044688  	0.084530 
3170.973504  	0.084931 
3172.902320  	0.085264 
3174.831136  	0.085715 
3176.759952  	0.086214 
3178.688768  	0.086639 
3180.617584  	0.087139 
3182.546400  	0.087516 
3184.475216  	0.087757 
3186.404032  	0.087844 
3188.332848  	0.088002 
3190.261664  	0.088445 
3192.190480  	0.088821 
3194.119296  	0.088807 
3196.048112  	0.088846 
3197.976928  	0.088794 
3199.905744  	0.088733 
3201.834560  	0.088690 
3203.763376  	0.088686 
3205.692192  	0.088657 
3207.621008  	0.088516 
3209.549824  	0.088439 
3211.478640  	0.088413 
3213.407456  	0.088373 
3215.336272  	0.088353 
3217.265088  	0.088130 
3219.193904  	0.087833 
3221.122720  	0.087764 
3223.051536  	0.087737 
3224.980352  	0.087521 
3226.909168  	0.087269 
3228.837984  	0.087004 
3230.766800  	0.086798 
3232.695616  	0.086864 
3234.624432  	0.086852 
3236.553248  	0.086827 
3238.482064  	0.086953 
3240.410880  	0.086961 
3242.339696  	0.086968 
3244.268512  	0.086810 
3246.197328  	0.086900 
3248.126144  	0.087008 
3250.054960  	0.087099 
3251.983776  	0.087481 
3253.912592  	0.087730 
3255.841408  	0.087933 
3257.770224  	0.088273 
3259.699040  	0.088627 
3261.627856  	0.089091 
3263.556672  	0.089353 
3265.485488  	0.089377 
3267.414304  	0.089428 
3269.343120  	0.089965 
3271.271936  	0.090414 
3273.200752  	0.090297 
3275.129568  	0.090242 
3277.058384  	0.090591 
3278.987200  	0.090785 
3280.916016  	0.090924 
3282.844832  	0.091224 
3284.773648  	0.091513 
3286.702464  	0.091739 
3288.631280  	0.092008 
3290.560096  	0.092351 
3292.488912  	0.092672 
3294.417728  	0.092895 
3296.346544  	0.093154 
3298.275360  	0.093471 
3300.204176  	0.093920 
3302.132992  	0.094246 
3304.061808  	0.094491 
3305.990624  	0.094988 
3307.919440  	0.095274 
3309.848256  	0.095411 
3311.777072  	0.095788 
3313.705888  	0.096147 
3315.634704  	0.096573 
3317.563520  	0.097032 
3319.492336  	0.097339 
3321.421152  	0.097489 
3323.349968  	0.097749 
3325.278784  	0.097926 
3327.207600  	0.098070 
3329.136416  	0.098121 
3331.065232  	0.098220 
3332.994048  	0.098374 
3334.922864  	0.098516 
3336.851680  	0.098572 
3338.780496  	0.098413 
3340.709312  	0.098205 
3342.638128  	0.098037 
3344.566944  	0.097736 
3346.495760  	0.097457 
3348.424576  	0.097114 
3350.353392  	0.096739 
3352.282208  	0.096578 
3354.211024  	0.096363 
3356.139840  	0.096181 
3358.068656  	0.095953 
3359.997472  	0.095605 
3361.926288  	0.095127 
3363.855104  	0.094530 
3365.783920  	0.094072 
3367.712736  	0.093694 
3369.641552  	0.093213 
3371.570368  	0.092707 
3373.499184  	0.092391 
3375.428000  	0.092005 
3377.356816  	0.091610 
3379.285632  	0.091514 
3381.214448  	0.091129 
3383.143264  	0.090624 
3385.072080  	0.090263 
3387.000896  	0.089766 
3388.929712  	0.089304 
3390.858528  	0.088930 
3392.787344  	0.088603 
3394.716160  	0.088180 
3396.644976  	0.087827 
3398.573792  	0.087530 
3400.502608  	0.087089 
3402.431424  	0.086483 
3404.360240  	0.085884 
3406.289056  	0.085283 
3408.217872  	0.084693 
3410.146688  	0.084051 
3412.075504  	0.083607 
3414.004320  	0.083276 
3415.933136  	0.082895 
3417.861952  	0.082167 
3419.790768  	0.081605 
3421.719584  	0.081166 
3423.648400  	0.080672 
3425.577216  	0.079876 
3427.506032  	0.079238 
3429.434848  	0.078800 
3431.363664  	0.078252 
3433.292480  	0.077659 
3435.221296  	0.077074 
3437.150112  	0.076518 
3439.078928  	0.076067 
3441.007744  	0.075456 
3442.936560  	0.075064 
3444.865376  	0.074463 
3446.794192  	0.073641 
3448.723008  	0.072770 
3450.651824  	0.072023 
3452.580640  	0.071364 
3454.509456  	0.070811 
3456.438272  	0.070153 
3458.367088  	0.069548 
3460.295904  	0.068943 
3462.224720  	0.068185 
3464.153536  	0.067316 
3466.082352  	0.066407 
3468.011168  	0.065498 
3469.939984  	0.064662 
3471.868800  	0.063953 
3473.797616  	0.063195 
3475.726432  	0.062445 
3477.655248  	0.061458 
3479.584064  	0.060852 
3481.512880  	0.060229 
3483.441696  	0.059130 
3485.370512  	0.058241 
3487.299328  	0.057356 
3489.228144  	0.056602 
3491.156960  	0.055765 
3493.085776  	0.054924 
3495.014592  	0.054340 
3496.943408  	0.053625 
3498.872224  	0.052916 
3500.801040  	0.052762 
3502.729856  	0.052180 
3504.658672  	0.050932 
3506.587488  	0.050182 
3508.516304  	0.049795 
3510.445120  	0.048933 
3512.373936  	0.047792 
3514.302752  	0.047148 
3516.231568  	0.046818 
3518.160384  	0.046316 
3520.089200  	0.045534 
3522.018016  	0.045171 
3523.946832  	0.045325 
3525.875648  	0.044521 
3527.804464  	0.043119 
3529.733280  	0.042112 
3531.662096  	0.041305 
3533.590912  	0.040533 
3535.519728  	0.040224 
3537.448544  	0.039645 
3539.377360  	0.038596 
3541.306176  	0.038030 
3543.234992  	0.038077 
3545.163808  	0.038474 
3547.092624  	0.037750 
3549.021440  	0.036025 
3550.950256  	0.034994 
3552.879072  	0.034443 
3554.807888  	0.033613 
3556.736704  	0.032769 
3558.665520  	0.032495 
3560.594336  	0.032326 
3562.523152  	0.031321 
3564.451968  	0.031072 
3566.380784  	0.031888 
3568.309600  	0.030920 
3570.238416  	0.029057 
3572.167232  	0.027949 
3574.096048  	0.026913 
3576.024864  	0.026094 
3577.953680  	0.025720 
3579.882496  	0.025041 
3581.811312  	0.024293 
3583.740128  	0.023615 
3585.668944  	0.023453 
3587.597760  	0.023220 
3589.526576  	0.021732 
3591.455392  	0.020327 
3593.384208  	0.019710 
3595.313024  	0.019094 
3597.241840  	0.017711 
3599.170656  	0.016281 
3601.099472  	0.015465 
3603.028288  	0.015086 
3604.957104  	0.014630 
3606.885920  	0.013981 
3608.814736  	0.013224 
3610.743552  	0.012807 
3612.672368  	0.011934 
3614.601184  	0.010715 
3616.530000  	0.009683 
3618.458816  	0.007991 
3620.387632  	0.007109 
3622.316448  	0.006843 
3624.245264  	0.005975 
3626.174080  	0.005141 
3628.102896  	0.003186 
3630.031712  	0.001693 
3631.960528  	0.002115 
3633.889344  	0.001474 
3635.818160  	0.000669 
3637.746976  	-0.000385 
3639.675792  	-0.000923 
3641.604608  	-0.001153 
3643.533424  	-0.001730 
3645.462240  	-0.002979 
3647.391056  	-0.005232 
3649.319872  	-0.008211 
3651.248688  	-0.008918 
3653.177504  	-0.007739 
3655.106320  	-0.008751 
3657.035136  	-0.010334 
3658.963952  	-0.010413 
3660.892768  	-0.010726 
3662.821584  	-0.010985 
3664.750400  	-0.011151 
3666.679216  	-0.011692 
3668.608032  	-0.013648 
3670.536848  	-0.015495 
3672.465664  	-0.014509 
3674.394480  	-0.015970 
3676.323296  	-0.017583 
3678.252112  	-0.014534 
3680.180928  	-0.013345 
3682.109744  	-0.013406 
3684.038560  	-0.014040 
3685.967376  	-0.014608 
3687.896192  	-0.016611 
3689.825008  	-0.017954 
3691.753824  	-0.016576 
3693.682640  	-0.014984 
3695.611456  	-0.014404 
3697.540272  	-0.013728 
3699.469088  	-0.013450 
3701.397904  	-0.013958 
3703.326720  	-0.013464 
3705.255536  	-0.012566 
3707.184352  	-0.012751 
3709.113168  	-0.014072 
3711.041984  	-0.015093 
3712.970800  	-0.013255 
3714.899616  	-0.011101 
3716.828432  	-0.011066 
3718.757248  	-0.011607 
3720.686064  	-0.012206 
3722.614880  	-0.012110 
3724.543696  	-0.011345 
3726.472512  	-0.011455 
3728.401328  	-0.011810 
3730.330144  	-0.013194 
3732.258960  	-0.014736 
3734.187776  	-0.013567 
3736.116592  	-0.012817 
3738.045408  	-0.012552 
3739.974224  	-0.011783 
3741.903040  	-0.011580 
3743.831856  	-0.013108 
3745.760672  	-0.013477 
3747.689488  	-0.013256 
3749.618304  	-0.015352 
3751.547120  	-0.015947 
3753.475936  	-0.013390 
3755.404752  	-0.011945 
3757.333568  	-0.011874 
3759.262384  	-0.012131 
3761.191200  	-0.011749 
3763.120016  	-0.010907 
3765.048832  	-0.011207 
3766.977648  	-0.011186 
3768.906464  	-0.012121 
3770.835280  	-0.012146 
3772.764096  	-0.010980 
3774.692912  	-0.010737 
3776.621728  	-0.010894 
3778.550544  	-0.011925 
3780.479360  	-0.012208 
3782.408176  	-0.011267 
3784.336992  	-0.011288 
3786.265808  	-0.010931 
3788.194624  	-0.010845 
3790.123440  	-0.011068 
3792.052256  	-0.011134 
3793.981072  	-0.011378 
3795.909888  	-0.012344 
3797.838704  	-0.012105 
3799.767520  	-0.013046 
3801.696336  	-0.015356 
3803.625152  	-0.013306 
3805.553968  	-0.013020 
3807.482784  	-0.013509 
3809.411600  	-0.011643 
3811.340416  	-0.010889 
3813.269232  	-0.011227 
3815.198048  	-0.013333 
3817.126864  	-0.013741 
3819.055680  	-0.013402 
3820.984496  	-0.015263 
3822.913312  	-0.013142 
3824.842128  	-0.011775 
3826.770944  	-0.012105 
3828.699760  	-0.011629 
3830.628576  	-0.011998 
3832.557392  	-0.012631 
3834.486208  	-0.012947 
3836.415024  	-0.014093 
3838.343840  	-0.014403 
3840.272656  	-0.013187 
3842.201472  	-0.012349 
3844.130288  	-0.011881 
3846.059104  	-0.011062 
3847.987920  	-0.010906 
3849.916736  	-0.011509 
3851.845552  	-0.013917 
3853.774368  	-0.016403 
3855.703184  	-0.013119 
3857.632000  	-0.011241 
3859.560816  	-0.010844 
3861.489632  	-0.011158 
3863.418448  	-0.011724 
3865.347264  	-0.011550 
3867.276080  	-0.011120 
3869.204896  	-0.012045 
3871.133712  	-0.011276 
3873.062528  	-0.010963 
3874.991344  	-0.011172 
3876.920160  	-0.010542 
3878.848976  	-0.010539 
3880.777792  	-0.010470 
3882.706608  	-0.010122 
3884.635424  	-0.010649 
3886.564240  	-0.010705 
3888.493056  	-0.010653 
3890.421872  	-0.011443 
3892.350688  	-0.011292 
3894.279504  	-0.010349 
3896.208320  	-0.010303 
3898.137136  	-0.010401 
3900.065952  	-0.010137 
3901.994768  	-0.009909 
3903.923584  	-0.010380 
3905.852400  	-0.010605 
3907.781216  	-0.010552 
3909.710032  	-0.010587 
3911.638848  	-0.010570 
3913.567664  	-0.010377 
3915.496480  	-0.009958 
3917.425296  	-0.009743 
3919.354112  	-0.010051 
3921.282928  	-0.010075 
3923.211744  	-0.009742 
3925.140560  	-0.009499 
3927.069376  	-0.009828 
3928.998192  	-0.010001 
3930.927008  	-0.009407 
3932.855824  	-0.009024 
3934.784640  	-0.009683 
3936.713456  	-0.010200 
3938.642272  	-0.009956 
3940.571088  	-0.009738 
3942.499904  	-0.009495 
3944.428720  	-0.009568 
3946.357536  	-0.009602 
3948.286352  	-0.009256 
3950.215168  	-0.009648 
3952.143984  	-0.010320 
3954.072800  	-0.010456 
3956.001616  	-0.010279 
3957.930432  	-0.010298 
3959.859248  	-0.010362 
3961.788064  	-0.010244 
3963.716880  	-0.010447 
3965.645696  	-0.010835 
3967.574512  	-0.010639 
3969.503328  	-0.010289 
3971.432144  	-0.010383 
3973.360960  	-0.010398 
3975.289776  	-0.010277 
3977.218592  	-0.010296 
3979.147408  	-0.010348 
3981.076224  	-0.010345 
3983.005040  	-0.010310 
3984.933856  	-0.010272 
3986.862672  	-0.010323 
3988.791488  	-0.010247 
3990.720304  	-0.010007 
3992.649120  	-0.010133 
3994.577936  	-0.010389 
3996.506752  	-0.010404 
3998.435568  	-0.010414 
4000.364384  	-0.010413 