##TITLE=No Description
##DATA TYPE=INFRARED SPECTRUM
##XUNITS=1/CM
##YUNITS=Abs
399.264912  	0.597519 
401.193728  	0.603102 
403.122544  	0.603816 
405.051360  	0.589942 
406.980176  	0.584684 
408.908992  	0.566697 
410.837808  	0.561961 
412.766624  	0.569610 
414.695440  	0.580995 
416.624256  	0.583422 
418.553072  	0.584734 
420.481888  	0.558476 
422.410704  	0.569527 
424.339520  	0.563831 
426.268336  	0.547390 
428.197152  	0.539355 
430.125968  	0.545663 
432.054784  	0.541176 
433.983600  	0.543134 
435.912416  	0.543252 
437.841232  	0.541848 
439.770048  	0.536509 
441.698864  	0.534716 
443.627680  	0.530947 
445.556496  	0.529688 
447.485312  	0.525815 
449.414128  	0.524073 
451.342944  	0.526847 
453.271760  	0.531945 
455.200576  	0.525568 
457.129392  	0.526337 
459.058208  	0.526491 
460.987024  	0.529913 
462.915840  	0.523988 
464.844656  	0.522378 
466.773472  	0.517642 
468.702288  	0.520599 
470.631104  	0.524861 
472.559920  	0.528742 
474.488736  	0.523333 
476.417552  	0.524777 
478.346368  	0.522259 
480.275184  	0.519868 
482.204000  	0.513465 
484.132816  	0.514970 
486.061632  	0.514450 
487.990448  	0.513353 
489.919264  	0.513375 
491.848080  	0.514993 
493.776896  	0.511260 
495.705712  	0.507649 
497.634528  	0.503274 
499.563344  	0.502615 
501.492160  	0.500356 
503.420976  	0.501344 
505.349792  	0.500178 
507.278608  	0.504969 
509.207424  	0.504765 
511.136240  	0.502667 
513.065056  	0.500817 
514.993872  	0.504046 
516.922688  	0.506181 
518.851504  	0.507591 
520.780320  	0.507025 
522.709136  	0.506868 
524.637952  	0.505836 
526.566768  	0.503756 
528.495584  	0.499856 
530.424400  	0.502654 
532.353216  	0.498359 
534.282032  	0.492309 
536.210848  	0.487028 
538.139664  	0.482098 
540.068480  	0.474920 
541.997296  	0.470846 
543.926112  	0.467793 
545.854928  	0.465648 
547.783744  	0.461665 
549.712560  	0.458120 
551.641376  	0.453762 
553.570192  	0.451805 
555.499008  	0.447890 
557.427824  	0.444079 
559.356640  	0.439320 
561.285456  	0.435268 
563.214272  	0.431412 
565.143088  	0.428831 
567.071904  	0.426206 
569.000720  	0.423193 
570.929536  	0.419061 
572.858352  	0.417416 
574.787168  	0.414952 
576.715984  	0.412446 
578.644800  	0.409027 
580.573616  	0.404914 
582.502432  	0.399016 
584.431248  	0.396157 
586.360064  	0.392880 
588.288880  	0.390557 
590.217696  	0.388626 
592.146512  	0.385856 
594.075328  	0.383055 
596.004144  	0.381629 
597.932960  	0.379473 
599.861776  	0.377449 
601.790592  	0.375228 
603.719408  	0.374421 
605.648224  	0.373619 
607.577040  	0.372330 
609.505856  	0.369972 
611.434672  	0.367962 
613.363488  	0.366025 
615.292304  	0.365435 
617.221120  	0.364313 
619.149936  	0.362287 
621.078752  	0.359869 
623.007568  	0.358727 
624.936384  	0.357519 
626.865200  	0.356357 
628.794016  	0.354713 
630.722832  	0.354029 
632.651648  	0.353480 
634.580464  	0.353439 
636.509280  	0.353460 
638.438096  	0.353889 
640.366912  	0.352802 
642.295728  	0.351300 
644.224544  	0.348203 
646.153360  	0.344495 
648.082176  	0.341105 
650.010992  	0.337633 
651.939808  	0.333650 
653.868624  	0.329486 
655.797440  	0.325372 
657.726256  	0.322461 
659.655072  	0.319300 
661.583888  	0.315100 
663.512704  	0.310909 
665.441520  	0.308107 
667.370336  	0.301651 
669.299152  	0.295389 
671.227968  	0.295127 
673.156784  	0.292845 
675.085600  	0.289678 
677.014416  	0.286463 
678.943232  	0.284101 
680.872048  	0.283266 
682.800864  	0.281979 
684.729680  	0.279971 
686.658496  	0.278462 
688.587312  	0.277357 
690.516128  	0.275897 
692.444944  	0.274788 
694.373760  	0.273598 
696.302576  	0.271539 
698.231392  	0.268927 
700.160208  	0.266906 
702.089024  	0.264853 
704.017840  	0.262168 
705.946656  	0.259305 
707.875472  	0.256926 
709.804288  	0.254894 
711.733104  	0.253212 
713.661920  	0.251507 
715.590736  	0.250685 
717.519552  	0.250188 
719.448368  	0.250019 
721.377184  	0.249927 
723.306000  	0.250290 
725.234816  	0.250349 
727.163632  	0.249811 
729.092448  	0.247939 
731.021264  	0.244741 
732.950080  	0.241357 
734.878896  	0.238282 
736.807712  	0.235331 
738.736528  	0.233035 
740.665344  	0.231204 
742.594160  	0.229398 
744.522976  	0.227561 
746.451792  	0.225793 
748.380608  	0.223871 
750.309424  	0.222564 
752.238240  	0.221865 
754.167056  	0.220995 
756.095872  	0.219561 
758.024688  	0.218669 
759.953504  	0.218056 
761.882320  	0.218535 
763.811136  	0.218890 
765.739952  	0.217813 
767.668768  	0.215440 
769.597584  	0.212928 
771.526400  	0.211677 
773.455216  	0.212679 
775.384032  	0.215635 
777.312848  	0.219907 
779.241664  	0.223733 
781.170480  	0.224076 
783.099296  	0.220756 
785.028112  	0.215447 
786.956928  	0.209919 
788.885744  	0.205254 
790.814560  	0.201684 
792.743376  	0.199140 
794.672192  	0.197551 
796.601008  	0.196628 
798.529824  	0.193866 
800.458640  	0.189449 
802.387456  	0.185944 
804.316272  	0.183919 
806.245088  	0.182543 
808.173904  	0.181569 
810.102720  	0.181125 
812.031536  	0.181215 
813.960352  	0.181569 
815.889168  	0.181486 
817.817984  	0.181434 
819.746800  	0.181652 
821.675616  	0.181887 
823.604432  	0.181757 
825.533248  	0.181454 
827.462064  	0.180850 
829.390880  	0.180017 
831.319696  	0.178698 
833.248512  	0.176948 
835.177328  	0.174776 
837.106144  	0.172204 
839.034960  	0.169294 
840.963776  	0.165836 
842.892592  	0.162109 
844.821408  	0.158595 
846.750224  	0.155462 
848.679040  	0.152773 
850.607856  	0.150617 
852.536672  	0.148864 
854.465488  	0.147228 
856.394304  	0.145725 
858.323120  	0.144414 
860.251936  	0.142826 
862.180752  	0.140528 
864.109568  	0.137893 
866.038384  	0.135347 
867.967200  	0.133076 
869.896016  	0.131201 
871.824832  	0.129994 
873.753648  	0.129487 
875.682464  	0.130287 
877.611280  	0.130923 
879.540096  	0.131616 
881.468912  	0.133438 
883.397728  	0.134850 
885.326544  	0.135932 
887.255360  	0.136374 
889.184176  	0.135632 
891.112992  	0.133819 
893.041808  	0.131838 
894.970624  	0.129472 
896.899440  	0.126432 
898.828256  	0.122406 
900.757072  	0.118302 
902.685888  	0.114991 
904.614704  	0.113230 
906.543520  	0.113281 
908.472336  	0.114483 
910.401152  	0.116781 
912.329968  	0.119374 
914.258784  	0.122212 
916.187600  	0.124776 
918.116416  	0.127041 
920.045232  	0.128704 
921.974048  	0.129678 
923.902864  	0.130030 
925.831680  	0.129995 
927.760496  	0.130175 
929.689312  	0.130549 
931.618128  	0.131295 
933.546944  	0.131830 
935.475760  	0.132129 
937.404576  	0.132023 
939.333392  	0.131607 
941.262208  	0.131484 
943.191024  	0.132572 
945.119840  	0.135759 
947.048656  	0.141037 
948.977472  	0.148138 
950.906288  	0.156839 
952.835104  	0.166745 
954.763920  	0.177479 
956.692736  	0.187932 
958.621552  	0.197057 
960.550368  	0.203470 
962.479184  	0.206558 
964.408000  	0.206094 
966.336816  	0.202211 
968.265632  	0.194534 
970.194448  	0.183940 
972.123264  	0.171710 
974.052080  	0.158719 
975.980896  	0.145795 
977.909712  	0.133774 
979.838528  	0.123072 
981.767344  	0.113843 
983.696160  	0.106675 
985.624976  	0.102138 
987.553792  	0.100300 
989.482608  	0.100885 
991.411424  	0.103693 
993.340240  	0.108165 
995.269056  	0.113771 
997.197872  	0.119914 
999.126688  	0.126367 
1001.055504  	0.132815 
1002.984320  	0.139217 
1004.913136  	0.145550 
1006.841952  	0.151683 
1008.770768  	0.156907 
1010.699584  	0.160562 
1012.628400  	0.162631 
1014.557216  	0.163247 
1016.486032  	0.163289 
1018.414848  	0.162953 
1020.343664  	0.162508 
1022.272480  	0.161716 
1024.201296  	0.160356 
1026.130112  	0.157095 
1028.058928  	0.155857 
1029.987744  	0.158594 
1031.916560  	0.160357 
1033.845376  	0.161567 
1035.774192  	0.162854 
1037.703008  	0.165501 
1039.631824  	0.171487 
1041.560640  	0.180264 
1043.489456  	0.192040 
1045.418272  	0.206207 
1047.347088  	0.221813 
1049.275904  	0.236371 
1051.204720  	0.248015 
1053.133536  	0.255344 
1055.062352  	0.258560 
1056.991168  	0.258382 
1058.919984  	0.259255 
1060.848800  	0.260072 
1062.777616  	0.257832 
1064.706432  	0.252023 
1066.635248  	0.247085 
1068.564064  	0.245377 
1070.492880  	0.240976 
1072.421696  	0.233789 
1074.350512  	0.228650 
1076.279328  	0.226959 
1078.208144  	0.229310 
1080.136960  	0.234451 
1082.065776  	0.240268 
1083.994592  	0.244572 
1085.923408  	0.246124 
1087.852224  	0.244014 
1089.781040  	0.239709 
1091.709856  	0.233894 
1093.638672  	0.225760 
1095.567488  	0.214892 
1097.496304  	0.202739 
1099.425120  	0.190311 
1101.353936  	0.177755 
1103.282752  	0.165039 
1105.211568  	0.153346 
1107.140384  	0.142220 
1109.069200  	0.131542 
1110.998016  	0.121950 
1112.926832  	0.113462 
1114.855648  	0.105703 
1116.784464  	0.098111 
1118.713280  	0.090938 
1120.642096  	0.084451 
1122.570912  	0.078389 
1124.499728  	0.072444 
1126.428544  	0.067281 
1128.357360  	0.062612 
1130.286176  	0.058701 
1132.214992  	0.055431 
1134.143808  	0.052953 
1136.072624  	0.050858 
1138.001440  	0.049023 
1139.930256  	0.046764 
1141.859072  	0.044541 
1143.787888  	0.042264 
1145.716704  	0.040222 
1147.645520  	0.038140 
1149.574336  	0.036365 
1151.503152  	0.035091 
1153.431968  	0.034631 
1155.360784  	0.034667 
1157.289600  	0.035507 
1159.218416  	0.036761 
1161.147232  	0.038667 
1163.076048  	0.040801 
1165.004864  	0.042979 
1166.933680  	0.044939 
1168.862496  	0.047266 
1170.791312  	0.049687 
1172.720128  	0.052574 
1174.648944  	0.055148 
1176.577760  	0.057716 
1178.506576  	0.060229 
1180.435392  	0.063007 
1182.364208  	0.065598 
1184.293024  	0.068576 
1186.221840  	0.071824 
1188.150656  	0.075591 
1190.079472  	0.079926 
1192.008288  	0.085196 
1193.937104  	0.091419 
1195.865920  	0.098721 
1197.794736  	0.106639 
1199.723552  	0.115310 
1201.652368  	0.124226 
1203.581184  	0.133312 
1205.510000  	0.142292 
1207.438816  	0.150593 
1209.367632  	0.158247 
1211.296448  	0.165128 
1213.225264  	0.170812 
1215.154080  	0.175030 
1217.082896  	0.178215 
1219.011712  	0.180303 
1220.940528  	0.181625 
1222.869344  	0.182464 
1224.798160  	0.182515 
1226.726976  	0.181714 
1228.655792  	0.180577 
1230.584608  	0.178877 
1232.513424  	0.176525 
1234.442240  	0.173650 
1236.371056  	0.170268 
1238.299872  	0.165513 
1240.228688  	0.158611 
1242.157504  	0.151762 
1244.086320  	0.145940 
1246.015136  	0.138680 
1247.943952  	0.130670 
1249.872768  	0.122686 
1251.801584  	0.115786 
1253.730400  	0.109200 
1255.659216  	0.102548 
1257.588032  	0.096207 
1259.516848  	0.090161 
1261.445664  	0.084655 
1263.374480  	0.079571 
1265.303296  	0.075293 
1267.232112  	0.071933 
1269.160928  	0.069478 
1271.089744  	0.067579 
1273.018560  	0.066508 
1274.947376  	0.066233 
1276.876192  	0.066474 
1278.805008  	0.066479 
1280.733824  	0.065546 
1282.662640  	0.063487 
1284.591456  	0.061164 
1286.520272  	0.059328 
1288.449088  	0.058091 
1290.377904  	0.057295 
1292.306720  	0.057385 
1294.235536  	0.057524 
1296.164352  	0.056795 
1298.093168  	0.054582 
1300.021984  	0.051828 
1301.950800  	0.048899 
1303.879616  	0.046062 
1305.808432  	0.042957 
1307.737248  	0.040019 
1309.666064  	0.037187 
1311.594880  	0.035256 
1313.523696  	0.033691 
1315.452512  	0.032571 
1317.381328  	0.032010 
1319.310144  	0.031876 
1321.238960  	0.031793 
1323.167776  	0.032331 
1325.096592  	0.033102 
1327.025408  	0.033622 
1328.954224  	0.033669 
1330.883040  	0.033305 
1332.811856  	0.032359 
1334.740672  	0.031958 
1336.669488  	0.032221 
1338.598304  	0.032812 
1340.527120  	0.031374 
1342.455936  	0.029282 
1344.384752  	0.028687 
1346.313568  	0.028921 
1348.242384  	0.029496 
1350.171200  	0.030642 
1352.100016  	0.032061 
1354.028832  	0.034012 
1355.957648  	0.035735 
1357.886464  	0.037679 
1359.815280  	0.040068 
1361.744096  	0.042707 
1363.672912  	0.043805 
1365.601728  	0.044442 
1367.530544  	0.045817 
1369.459360  	0.046316 
1371.388176  	0.046236 
1373.316992  	0.045493 
1375.245808  	0.042239 
1377.174624  	0.039531 
1379.103440  	0.036712 
1381.032256  	0.033672 
1382.961072  	0.031449 
1384.889888  	0.031001 
1386.818704  	0.030756 
1388.747520  	0.028724 
1390.676336  	0.026360 
1392.605152  	0.023585 
1394.533968  	0.022039 
1396.462784  	0.024647 
1398.391600  	0.025712 
1400.320416  	0.024603 
1402.249232  	0.024813 
1404.178048  	0.025563 
1406.106864  	0.025923 
1408.035680  	0.027541 
1409.964496  	0.030097 
1411.893312  	0.032889 
1413.822128  	0.035759 
1415.750944  	0.039778 
1417.679760  	0.042592 
1419.608576  	0.041661 
1421.537392  	0.041763 
1423.466208  	0.042321 
1425.395024  	0.040573 
1427.323840  	0.039349 
1429.252656  	0.037085 
1431.181472  	0.035290 
1433.110288  	0.035338 
1435.039104  	0.036396 
1436.967920  	0.035457 
1438.896736  	0.035609 
1440.825552  	0.036733 
1442.754368  	0.037331 
1444.683184  	0.037694 
1446.612000  	0.037829 
1448.540816  	0.036563 
1450.469632  	0.036895 
1452.398448  	0.037962 
1454.327264  	0.039465 
1456.256080  	0.039364 
1458.184896  	0.036016 
1460.113712  	0.036897 
1462.042528  	0.038415 
1463.971344  	0.038230 
1465.900160  	0.038343 
1467.828976  	0.041002 
1469.757792  	0.044513 
1471.686608  	0.047744 
1473.615424  	0.052597 
1475.544240  	0.058611 
1477.473056  	0.063678 
1479.401872  	0.067451 
1481.330688  	0.070588 
1483.259504  	0.072462 
1485.188320  	0.074134 
1487.117136  	0.074479 
1489.045952  	0.074159 
1490.974768  	0.070576 
1492.903584  	0.068248 
1494.832400  	0.065632 
1496.761216  	0.059252 
1498.690032  	0.053274 
1500.618848  	0.049754 
1502.547664  	0.046687 
1504.476480  	0.043469 
1506.405296  	0.037708 
1508.334112  	0.035104 
1510.262928  	0.035219 
1512.191744  	0.033266 
1514.120560  	0.032508 
1516.049376  	0.032213 
1517.978192  	0.030932 
1519.907008  	0.032478 
1521.835824  	0.032331 
1523.764640  	0.036091 
1525.693456  	0.040468 
1527.622272  	0.042412 
1529.551088  	0.043110 
1531.479904  	0.043314 
1533.408720  	0.039431 
1535.337536  	0.036320 
1537.266352  	0.035206 
1539.195168  	0.027877 
1541.123984  	0.020765 
1543.052800  	0.023901 
1544.981616  	0.024417 
1546.910432  	0.023654 
1548.839248  	0.024423 
1550.768064  	0.024408 
1552.696880  	0.024302 
1554.625696  	0.024676 
1556.554512  	0.024907 
1558.483328  	0.022477 
1560.412144  	0.024948 
1562.340960  	0.032250 
1564.269776  	0.036164 
1566.198592  	0.041073 
1568.127408  	0.045140 
1570.056224  	0.049339 
1571.985040  	0.056055 
1573.913856  	0.060893 
1575.842672  	0.061370 
1577.771488  	0.063788 
1579.700304  	0.066212 
1581.629120  	0.066169 
1583.557936  	0.065522 
1585.486752  	0.066171 
1587.415568  	0.068367 
1589.344384  	0.072499 
1591.273200  	0.077988 
1593.202016  	0.084735 
1595.130832  	0.091768 
1597.059648  	0.099205 
1598.988464  	0.105759 
1600.917280  	0.111570 
1602.846096  	0.115261 
1604.774912  	0.117662 
1606.703728  	0.118054 
1608.632544  	0.117170 
1610.561360  	0.115229 
1612.490176  	0.113984 
1614.418992  	0.112235 
1616.347808  	0.108887 
1618.276624  	0.109546 
1620.205440  	0.114520 
1622.134256  	0.117325 
1624.063072  	0.121964 
1625.991888  	0.128658 
1627.920704  	0.136111 
1629.849520  	0.145376 
1631.778336  	0.154851 
1633.707152  	0.161381 
1635.635968  	0.167388 
1637.564784  	0.176985 
1639.493600  	0.185646 
1641.422416  	0.191210 
1643.351232  	0.195495 
1645.280048  	0.196095 
1647.208864  	0.194651 
1649.137680  	0.196565 
1651.066496  	0.198276 
1652.995312  	0.190410 
1654.924128  	0.189011 
1656.852944  	0.190988 
1658.781760  	0.189584 
1660.710576  	0.186298 
1662.639392  	0.180787 
1664.568208  	0.176810 
1666.497024  	0.175283 
1668.425840  	0.169945 
1670.354656  	0.162425 
1672.283472  	0.159835 
1674.212288  	0.157285 
1676.141104  	0.151985 
1678.069920  	0.151790 
1679.998736  	0.151607 
1681.927552  	0.150449 
1683.856368  	0.144500 
1685.785184  	0.142735 
1687.714000  	0.145771 
1689.642816  	0.145356 
1691.571632  	0.143653 
1693.500448  	0.143094 
1695.429264  	0.138998 
1697.358080  	0.135844 
1699.286896  	0.133843 
1701.215712  	0.127750 
1703.144528  	0.128330 
1705.073344  	0.124624 
1707.002160  	0.118658 
1708.930976  	0.115193 
1710.859792  	0.110051 
1712.788608  	0.104176 
1714.717424  	0.096511 
1716.646240  	0.085785 
1718.575056  	0.072014 
1720.503872  	0.065196 
1722.432688  	0.059507 
1724.361504  	0.050782 
1726.290320  	0.043527 
1728.219136  	0.037793 
1730.147952  	0.032703 
1732.076768  	0.028418 
1734.005584  	0.021110 
1735.934400  	0.015670 
1737.863216  	0.016164 
1739.792032  	0.012516 
1741.720848  	0.011434 
1743.649664  	0.011260 
1745.578480  	0.010496 
1747.507296  	0.008985 
1749.436112  	0.008023 
1751.364928  	0.006581 
1753.293744  	0.005665 
1755.222560  	0.005648 
1757.151376  	0.004916 
1759.080192  	0.004406 
1761.009008  	0.003996 
1762.937824  	0.002189 
1764.866640  	0.002686 
1766.795456  	0.003538 
1768.724272  	0.003138 
1770.653088  	0.001103 
1772.581904  	-0.001736 
1774.510720  	-0.000748 
1776.439536  	0.000903 
1778.368352  	0.001291 
1780.297168  	0.001035 
1782.225984  	0.000403 
1784.154800  	0.000919 
1786.083616  	0.000263 
1788.012432  	0.000488 
1789.941248  	0.001192 
1791.870064  	-0.000142 
1793.798880  	-0.001810 
1795.727696  	-0.000276 
1797.656512  	-0.000506 
1799.585328  	-0.000624 
1801.514144  	-0.000338 
1803.442960  	-0.000467 
1805.371776  	-0.001144 
1807.300592  	-0.000690 
1809.229408  	-0.001107 
1811.158224  	-0.001685 
1813.087040  	-0.002104 
1815.015856  	-0.001839 
1816.944672  	-0.001694 
1818.873488  	-0.001522 
1820.802304  	-0.001603 
1822.731120  	-0.000848 
1824.659936  	-0.001461 
1826.588752  	-0.002082 
1828.517568  	-0.002392 
1830.446384  	-0.003020 
1832.375200  	-0.002608 
1834.304016  	-0.001827 
1836.232832  	-0.001896 
1838.161648  	-0.001841 
1840.090464  	-0.002104 
1842.019280  	-0.001214 
1843.948096  	-0.002465 
1845.876912  	-0.002690 
1847.805728  	-0.001852 
1849.734544  	-0.002031 
1851.663360  	-0.002375 
1853.592176  	-0.002313 
1855.520992  	-0.002556 
1857.449808  	-0.002326 
1859.378624  	-0.002400 
1861.307440  	-0.002336 
1863.236256  	-0.002557 
1865.165072  	-0.002190 
1867.093888  	-0.002249 
1869.022704  	-0.002744 
1870.951520  	-0.003134 
1872.880336  	-0.002746 
1874.809152  	-0.002957 
1876.737968  	-0.002724 
1878.666784  	-0.003022 
1880.595600  	-0.002692 
1882.524416  	-0.002790 
1884.453232  	-0.002607 
1886.382048  	-0.002836 
1888.310864  	-0.002617 
1890.239680  	-0.003096 
1892.168496  	-0.002410 
1894.097312  	-0.002282 
1896.026128  	-0.002517 
1897.954944  	-0.002839 
1899.883760  	-0.002550 
1901.812576  	-0.002766 
1903.741392  	-0.002924 
1905.670208  	-0.003029 
1907.599024  	-0.002449 
1909.527840  	-0.002559 
1911.456656  	-0.002545 
1913.385472  	-0.002862 
1915.314288  	-0.002218 
1917.243104  	-0.002575 
1919.171920  	-0.002973 
1921.100736  	-0.002644 
1923.029552  	-0.002268 
1924.958368  	-0.002981 
1926.887184  	-0.002781 
1928.816000  	-0.002941 
1930.744816  	-0.002799 
1932.673632  	-0.003035 
1934.602448  	-0.002678 
1936.531264  	-0.002618 
1938.460080  	-0.002160 
1940.388896  	-0.002296 
1942.317712  	-0.002455 
1944.246528  	-0.003401 
1946.175344  	-0.002549 
1948.104160  	-0.002715 
1950.032976  	-0.002621 
1951.961792  	-0.002884 
1953.890608  	-0.002520 
1955.819424  	-0.002645 
1957.748240  	-0.002262 
1959.677056  	-0.003675 
1961.605872  	-0.003062 
1963.534688  	-0.002773 
1965.463504  	-0.001902 
1967.392320  	-0.002422 
1969.321136  	-0.003015 
1971.249952  	-0.003958 
1973.178768  	-0.002533 
1975.107584  	-0.001913 
1977.036400  	-0.001350 
1978.965216  	-0.001485 
1980.894032  	-0.001681 
1982.822848  	-0.002215 
1984.751664  	-0.001690 
1986.680480  	-0.003033 
1988.609296  	-0.002709 
1990.538112  	-0.002730 
1992.466928  	-0.002155 
1994.395744  	-0.002706 
1996.324560  	-0.002387 
1998.253376  	-0.002925 
2000.182192  	-0.003047 
2002.111008  	-0.002822 
2004.039824  	-0.002182 
2005.968640  	-0.002481 
2007.897456  	-0.001878 
2009.826272  	-0.002516 
2011.755088  	-0.001858 
2013.683904  	-0.002547 
2015.612720  	-0.002424 
2017.541536  	-0.002669 
2019.470352  	-0.001960 
2021.399168  	-0.002866 
2023.327984  	-0.002665 
2025.256800  	-0.002339 
2027.185616  	-0.001426 
2029.114432  	-0.001828 
2031.043248  	-0.001346 
2032.972064  	-0.001132 
2034.900880  	-0.000965 
2036.829696  	-0.001783 
2038.758512  	-0.001017 
2040.687328  	-0.001814 
2042.616144  	-0.001509 
2044.544960  	-0.001906 
2046.473776  	-0.001571 
2048.402592  	-0.001633 
2050.331408  	-0.001438 
2052.260224  	-0.002560 
2054.189040  	-0.002722 
2056.117856  	-0.003122 
2058.046672  	-0.002824 
2059.975488  	-0.003230 
2061.904304  	-0.003052 
2063.833120  	-0.002631 
2065.761936  	-0.002221 
2067.690752  	-0.002720 
2069.619568  	-0.002566 
2071.548384  	-0.002550 
2073.477200  	-0.002174 
2075.406016  	-0.001879 
2077.334832  	-0.001844 
2079.263648  	-0.001885 
2081.192464  	-0.001345 
2083.121280  	-0.001876 
2085.050096  	-0.002205 
2086.978912  	-0.002401 
2088.907728  	-0.002180 
2090.836544  	-0.002272 
2092.765360  	-0.002114 
2094.694176  	-0.002140 
2096.622992  	-0.002197 
2098.551808  	-0.002281 
2100.480624  	-0.001560 
2102.409440  	-0.001800 
2104.338256  	-0.001759 
2106.267072  	-0.001381 
2108.195888  	-0.001114 
2110.124704  	-0.001338 
2112.053520  	-0.001452 
2113.982336  	-0.001716 
2115.911152  	-0.001416 
2117.839968  	-0.001627 
2119.768784  	-0.001747 
2121.697600  	-0.001841 
2123.626416  	-0.001821 
2125.555232  	-0.002439 
2127.484048  	-0.002102 
2129.412864  	-0.002093 
2131.341680  	-0.002306 
2133.270496  	-0.002416 
2135.199312  	-0.001564 
2137.128128  	-0.001683 
2139.056944  	-0.001354 
2140.985760  	-0.001126 
2142.914576  	-0.001103 
2144.843392  	-0.001677 
2146.772208  	-0.002066 
2148.701024  	-0.002372 
2150.629840  	-0.001508 
2152.558656  	-0.002090 
2154.487472  	-0.001868 
2156.416288  	-0.002152 
2158.345104  	-0.000636 
2160.273920  	0.001493 
2162.202736  	0.002050 
2164.131552  	0.000361 
2166.060368  	0.000029 
2167.989184  	0.000360 
2169.918000  	0.001042 
2171.846816  	-0.000285 
2173.775632  	-0.000224 
2175.704448  	0.000330 
2177.633264  	0.000492 
2179.562080  	-0.000716 
2181.490896  	-0.000301 
2183.419712  	-0.000893 
2185.348528  	-0.001367 
2187.277344  	-0.001479 
2189.206160  	-0.000909 
2191.134976  	-0.001240 
2193.063792  	-0.001002 
2194.992608  	-0.001196 
2196.921424  	-0.001310 
2198.850240  	-0.001283 
2200.779056  	-0.001380 
2202.707872  	-0.001768 
2204.636688  	-0.001694 
2206.565504  	-0.001408 
2208.494320  	-0.001258 
2210.423136  	-0.001931 
2212.351952  	-0.001925 
2214.280768  	-0.002369 
2216.209584  	-0.002007 
2218.138400  	-0.002035 
2220.067216  	-0.002360 
2221.996032  	-0.002663 
2223.924848  	-0.001953 
2225.853664  	-0.001422 
2227.782480  	-0.001645 
2229.711296  	-0.002504 
2231.640112  	-0.002848 
2233.568928  	-0.003265 
2235.497744  	-0.002871 
2237.426560  	-0.002945 
2239.355376  	-0.002906 
2241.284192  	-0.002651 
2243.213008  	-0.002502 
2245.141824  	-0.002791 
2247.070640  	-0.002552 
2248.999456  	-0.002696 
2250.928272  	-0.002814 
2252.857088  	-0.003022 
2254.785904  	-0.003221 
2256.714720  	-0.003586 
2258.643536  	-0.003464 
2260.572352  	-0.003380 
2262.501168  	-0.003298 
2264.429984  	-0.003408 
2266.358800  	-0.003367 
2268.287616  	-0.003404 
2270.216432  	-0.003155 
2272.145248  	-0.003270 
2274.074064  	-0.003460 
2276.002880  	-0.003367 
2277.931696  	-0.002854 
2279.860512  	-0.002649 
2281.789328  	-0.002536 
2283.718144  	-0.002700 
2285.646960  	-0.002631 
2287.575776  	-0.002515 
2289.504592  	-0.002554 
2291.433408  	-0.002587 
2293.362224  	-0.002229 
2295.291040  	-0.001991 
2297.219856  	-0.001706 
2299.148672  	-0.001654 
2301.077488  	-0.001418 
2303.006304  	-0.001128 
2304.935120  	-0.000839 
2306.863936  	-0.000675 
2308.792752  	-0.000839 
2310.721568  	-0.001246 
2312.650384  	-0.001672 
2314.579200  	-0.002373 
2316.508016  	-0.003214 
2318.436832  	-0.003980 
2320.365648  	-0.004874 
2322.294464  	-0.006178 
2324.223280  	-0.007888 
2326.152096  	-0.010044 
2328.080912  	-0.011715 
2330.009728  	-0.013568 
2331.938544  	-0.015451 
2333.867360  	-0.016755 
2335.796176  	-0.017784 
2337.724992  	-0.018759 
2339.653808  	-0.018939 
2341.582624  	-0.018969 
2343.511440  	-0.018048 
2345.440256  	-0.016100 
2347.369072  	-0.011333 
2349.297888  	-0.008062 
2351.226704  	-0.010320 
2353.155520  	-0.015689 
2355.084336  	-0.019783 
2357.013152  	-0.022994 
2358.941968  	-0.024637 
2360.870784  	-0.025959 
2362.799600  	-0.025323 
2364.728416  	-0.024008 
2366.657232  	-0.021602 
2368.586048  	-0.018232 
2370.514864  	-0.014720 
2372.443680  	-0.011654 
2374.372496  	-0.008487 
2376.301312  	-0.005688 
2378.230128  	-0.003619 
2380.158944  	-0.002669 
2382.087760  	-0.002333 
2384.016576  	-0.002485 
2385.945392  	-0.002809 
2387.874208  	-0.003308 
2389.803024  	-0.003511 
2391.731840  	-0.003827 
2393.660656  	-0.003800 
2395.589472  	-0.003512 
2397.518288  	-0.003313 
2399.447104  	-0.003651 
2401.375920  	-0.003923 
2403.304736  	-0.004154 
2405.233552  	-0.004059 
2407.162368  	-0.004114 
2409.091184  	-0.004067 
2411.020000  	-0.003943 
2412.948816  	-0.003780 
2414.877632  	-0.003789 
2416.806448  	-0.003833 
2418.735264  	-0.003911 
2420.664080  	-0.003892 
2422.592896  	-0.003792 
2424.521712  	-0.003659 
2426.450528  	-0.003948 
2428.379344  	-0.003733 
2430.308160  	-0.003270 
2432.236976  	-0.003067 
2434.165792  	-0.003266 
2436.094608  	-0.003397 
2438.023424  	-0.003428 
2439.952240  	-0.003222 
2441.881056  	-0.003076 
2443.809872  	-0.003034 
2445.738688  	-0.003061 
2447.667504  	-0.002892 
2449.596320  	-0.002916 
2451.525136  	-0.002859 
2453.453952  	-0.002846 
2455.382768  	-0.002966 
2457.311584  	-0.003153 
2459.240400  	-0.003332 
2461.169216  	-0.003498 
2463.098032  	-0.003519 
2465.026848  	-0.003521 
2466.955664  	-0.003334 
2468.884480  	-0.003354 
2470.813296  	-0.003434 
2472.742112  	-0.003415 
2474.670928  	-0.003300 
2476.599744  	-0.003178 
2478.528560  	-0.003073 
2480.457376  	-0.003144 
2482.386192  	-0.003112 
2484.315008  	-0.003162 
2486.243824  	-0.003190 
2488.172640  	-0.003207 
2490.101456  	-0.002957 
2492.030272  	-0.002646 
2493.959088  	-0.002634 
2495.887904  	-0.002726 
2497.816720  	-0.002678 
2499.745536  	-0.002640 
2501.674352  	-0.002469 
2503.603168  	-0.002049 
2505.531984  	-0.002080 
2507.460800  	-0.002476 
2509.389616  	-0.002375 
2511.318432  	-0.002342 
2513.247248  	-0.002227 
2515.176064  	-0.002122 
2517.104880  	-0.001976 
2519.033696  	-0.002198 
2520.962512  	-0.002316 
2522.891328  	-0.002270 
2524.820144  	-0.002360 
2526.748960  	-0.002128 
2528.677776  	-0.001864 
2530.606592  	-0.001865 
2532.535408  	-0.001735 
2534.464224  	-0.001839 
2536.393040  	-0.001968 
2538.321856  	-0.001827 
2540.250672  	-0.001501 
2542.179488  	-0.001511 
2544.108304  	-0.001605 
2546.037120  	-0.001672 
2547.965936  	-0.001523 
2549.894752  	-0.001330 
2551.823568  	-0.001271 
2553.752384  	-0.001363 
2555.681200  	-0.001164 
2557.610016  	-0.000974 
2559.538832  	-0.000846 
2561.467648  	-0.000697 
2563.396464  	-0.000553 
2565.325280  	-0.000552 
2567.254096  	-0.000520 
2569.182912  	-0.000515 
2571.111728  	-0.000525 
2573.040544  	-0.000536 
2574.969360  	-0.000500 
2576.898176  	-0.000304 
2578.826992  	-0.000229 
2580.755808  	-0.000454 
2582.684624  	-0.000400 
2584.613440  	-0.000157 
2586.542256  	-0.000042 
2588.471072  	-0.000090 
2590.399888  	-0.000030 
2592.328704  	0.000019 
2594.257520  	0.000093 
2596.186336  	0.000353 
2598.115152  	0.000522 
2600.043968  	0.000382 
2601.972784  	0.000498 
2603.901600  	0.000563 
2605.830416  	0.000677 
2607.759232  	0.000832 
2609.688048  	0.000864 
2611.616864  	0.000947 
2613.545680  	0.001121 
2615.474496  	0.001181 
2617.403312  	0.001297 
2619.332128  	0.001569 
2621.260944  	0.001790 
2623.189760  	0.001779 
2625.118576  	0.001835 
2627.047392  	0.001796 
2628.976208  	0.001850 
2630.905024  	0.002063 
2632.833840  	0.002242 
2634.762656  	0.002332 
2636.691472  	0.002342 
2638.620288  	0.002376 
2640.549104  	0.002465 
2642.477920  	0.002546 
2644.406736  	0.002735 
2646.335552  	0.002778 
2648.264368  	0.002901 
2650.193184  	0.002996 
2652.122000  	0.003130 
2654.050816  	0.003357 
2655.979632  	0.003479 
2657.908448  	0.003510 
2659.837264  	0.003635 
2661.766080  	0.003752 
2663.694896  	0.003838 
2665.623712  	0.003899 
2667.552528  	0.004169 
2669.481344  	0.004393 
2671.410160  	0.004339 
2673.338976  	0.004402 
2675.267792  	0.004707 
2677.196608  	0.004905 
2679.125424  	0.004930 
2681.054240  	0.005079 
2682.983056  	0.005275 
2684.911872  	0.005280 
2686.840688  	0.005321 
2688.769504  	0.005423 
2690.698320  	0.005522 
2692.627136  	0.005563 
2694.555952  	0.005655 
2696.484768  	0.005704 
2698.413584  	0.005705 
2700.342400  	0.005743 
2702.271216  	0.005985 
2704.200032  	0.006193 
2706.128848  	0.006278 
2708.057664  	0.006255 
2709.986480  	0.006421 
2711.915296  	0.006585 
2713.844112  	0.006655 
2715.772928  	0.006753 
2717.701744  	0.006937 
2719.630560  	0.007184 
2721.559376  	0.007275 
2723.488192  	0.007448 
2725.417008  	0.007601 
2727.345824  	0.007670 
2729.274640  	0.007678 
2731.203456  	0.007871 
2733.132272  	0.008227 
2735.061088  	0.008342 
2736.989904  	0.008419 
2738.918720  	0.008556 
2740.847536  	0.008627 
2742.776352  	0.008601 
2744.705168  	0.008759 
2746.633984  	0.008910 
2748.562800  	0.008953 
2750.491616  	0.008996 
2752.420432  	0.009102 
2754.349248  	0.009061 
2756.278064  	0.008916 
2758.206880  	0.008798 
2760.135696  	0.008767 
2762.064512  	0.008805 
2763.993328  	0.008897 
2765.922144  	0.008905 
2767.850960  	0.008873 
2769.779776  	0.008889 
2771.708592  	0.008983 
2773.637408  	0.008897 
2775.566224  	0.008856 
2777.495040  	0.008868 
2779.423856  	0.008991 
2781.352672  	0.009062 
2783.281488  	0.008951 
2785.210304  	0.008806 
2787.139120  	0.008847 
2789.067936  	0.009015 
2790.996752  	0.009130 
2792.925568  	0.009041 
2794.854384  	0.009025 
2796.783200  	0.008978 
2798.712016  	0.008935 
2800.640832  	0.008931 
2802.569648  	0.008990 
2804.498464  	0.009051 
2806.427280  	0.008969 
2808.356096  	0.008885 
2810.284912  	0.008988 
2812.213728  	0.009047 
2814.142544  	0.008919 
2816.071360  	0.008798 
2818.000176  	0.008668 
2819.928992  	0.008628 
2821.857808  	0.008609 
2823.786624  	0.008503 
2825.715440  	0.008420 
2827.644256  	0.008256 
2829.573072  	0.008147 
2831.501888  	0.007893 
2833.430704  	0.007609 
2835.359520  	0.007399 
2837.288336  	0.007163 
2839.217152  	0.006912 
2841.145968  	0.006593 
2843.074784  	0.006205 
2845.003600  	0.005801 
2846.932416  	0.005535 
2848.861232  	0.005575 
2850.790048  	0.005276 
2852.718864  	0.004672 
2854.647680  	0.004101 
2856.576496  	0.003447 
2858.505312  	0.002797 
2860.434128  	0.002201 
2862.362944  	0.001507 
2864.291760  	0.000777 
2866.220576  	0.000174 
2868.149392  	-0.000114 
2870.078208  	-0.000416 
2872.007024  	-0.000525 
2873.935840  	-0.000316 
2875.864656  	-0.000295 
2877.793472  	-0.000502 
2879.722288  	-0.000702 
2881.651104  	-0.001103 
2883.579920  	-0.001136 
2885.508736  	-0.000865 
2887.437552  	-0.000652 
2889.366368  	-0.000556 
2891.295184  	-0.000727 
2893.224000  	-0.000962 
2895.152816  	-0.001023 
2897.081632  	-0.001261 
2899.010448  	-0.002713 
2900.939264  	-0.004158 
2902.868080  	-0.002989 
2904.796896  	-0.001707 
2906.725712  	-0.001069 
2908.654528  	-0.000396 
2910.583344  	0.000029 
2912.512160  	0.000709 
2914.440976  	0.002004 
2916.369792  	0.003029 
2918.298608  	0.003542 
2920.227424  	0.003923 
2922.156240  	0.004557 
2924.085056  	0.005255 
2926.013872  	0.006026 
2927.942688  	0.006894 
2929.871504  	0.007738 
2931.800320  	0.008541 
2933.729136  	0.009313 
2935.657952  	0.009848 
2937.586768  	0.010408 
2939.515584  	0.011022 
2941.444400  	0.011181 
2943.373216  	0.011238 
2945.302032  	0.011593 
2947.230848  	0.011814 
2949.159664  	0.011578 
2951.088480  	0.011040 
2953.017296  	0.010585 
2954.946112  	0.010047 
2956.874928  	0.009359 
2958.803744  	0.008599 
2960.732560  	0.008047 
2962.661376  	0.007530 
2964.590192  	0.006704 
2966.519008  	0.005499 
2968.447824  	0.004428 
2970.376640  	0.003611 
2972.305456  	0.003086 
2974.234272  	0.003331 
2976.163088  	0.003732 
2978.091904  	0.003841 
2980.020720  	0.003928 
2981.949536  	0.004136 
2983.878352  	0.003828 
2985.807168  	0.002867 
2987.735984  	0.002010 
2989.664800  	0.002336 
2991.593616  	0.005187 
2993.522432  	0.007042 
2995.451248  	0.007568 
2997.380064  	0.008325 
2999.308880  	0.009561 
3001.237696  	0.010884 
3003.166512  	0.012266 
3005.095328  	0.013599 
3007.024144  	0.014904 
3008.952960  	0.016303 
3010.881776  	0.017858 
3012.810592  	0.019271 
3014.739408  	0.020470 
3016.668224  	0.021553 
3018.597040  	0.022824 
3020.525856  	0.024129 
3022.454672  	0.025266 
3024.383488  	0.026193 
3026.312304  	0.026991 
3028.241120  	0.028002 
3030.169936  	0.028999 
3032.098752  	0.029868 
3034.027568  	0.030683 
3035.956384  	0.031595 
3037.885200  	0.032462 
3039.814016  	0.033110 
3041.742832  	0.033725 
3043.671648  	0.034148 
3045.600464  	0.034708 
3047.529280  	0.035289 
3049.458096  	0.035910 
3051.386912  	0.036618 
3053.315728  	0.037174 
3055.244544  	0.037759 
3057.173360  	0.038398 
3059.102176  	0.038994 
3061.030992  	0.039737 
3062.959808  	0.040461 
3064.888624  	0.041111 
3066.817440  	0.041783 
3068.746256  	0.042648 
3070.675072  	0.043588 
3072.603888  	0.044300 
3074.532704  	0.045036 
3076.461520  	0.045866 
3078.390336  	0.046674 
3080.319152  	0.047416 
3082.247968  	0.048213 
3084.176784  	0.048974 
3086.105600  	0.049704 
3088.034416  	0.050435 
3089.963232  	0.051320 
3091.892048  	0.052111 
3093.820864  	0.052830 
3095.749680  	0.053633 
3097.678496  	0.054569 
3099.607312  	0.055436 
3101.536128  	0.056300 
3103.464944  	0.057274 
3105.393760  	0.058004 
3107.322576  	0.058708 
3109.251392  	0.059446 
3111.180208  	0.060002 
3113.109024  	0.060604 
3115.037840  	0.061350 
3116.966656  	0.062269 
3118.895472  	0.062988 
3120.824288  	0.063612 
3122.753104  	0.064277 
3124.681920  	0.064755 
3126.610736  	0.065147 
3128.539552  	0.065979 
3130.468368  	0.066882 
3132.397184  	0.067390 
3134.326000  	0.067997 
3136.254816  	0.068624 
3138.183632  	0.069207 
3140.112448  	0.069845 
3142.041264  	0.070445 
3143.970080  	0.071177 
3145.898896  	0.071835 
3147.827712  	0.072449 
3149.756528  	0.073023 
3151.685344  	0.073593 
3153.614160  	0.074279 
3155.542976  	0.075075 
3157.471792  	0.075795 
3159.400608  	0.076464 
3161.329424  	0.077127 
3163.258240  	0.077493 
3165.187056  	0.077841 
3167.115872  	0.078522 
3169.044688  	0.079174 
3170.973504  	0.079619 
3172.902320  	0.080039 
3174.831136  	0.080591 
3176.759952  	0.081005 
3178.688768  	0.081263 
3180.617584  	0.081669 
3182.546400  	0.082035 
3184.475216  	0.082301 
3186.404032  	0.082407 
3188.332848  	0.082528 
3190.261664  	0.082848 
3192.190480  	0.083065 
3194.119296  	0.083036 
3196.048112  	0.083163 
3197.976928  	0.083138 
3199.905744  	0.083105 
3201.834560  	0.083114 
3203.763376  	0.083227 
3205.692192  	0.083222 
3207.621008  	0.083040 
3209.549824  	0.082915 
3211.478640  	0.082925 
3213.407456  	0.082874 
3215.336272  	0.082617 
3217.265088  	0.082557 
3219.193904  	0.082378 
3221.122720  	0.082011 
3223.051536  	0.081914 
3224.980352  	0.081980 
3226.909168  	0.081774 
3228.837984  	0.081464 
3230.766800  	0.081370 
3232.695616  	0.081409 
3234.624432  	0.081233 
3236.553248  	0.081104 
3238.482064  	0.081091 
3240.410880  	0.081209 
3242.339696  	0.081466 
3244.268512  	0.081380 
3246.197328  	0.081413 
3248.126144  	0.081766 
3250.054960  	0.081832 
3251.983776  	0.082048 
3253.912592  	0.082351 
3255.841408  	0.082657 
3257.770224  	0.082788 
3259.699040  	0.082939 
3261.627856  	0.083197 
3263.556672  	0.083479 
3265.485488  	0.083793 
3267.414304  	0.083988 
3269.343120  	0.084401 
3271.271936  	0.084659 
3273.200752  	0.084650 
3275.129568  	0.084640 
3277.058384  	0.084988 
3278.987200  	0.085301 
3280.916016  	0.085481 
3282.844832  	0.085667 
3284.773648  	0.085774 
3286.702464  	0.085966 
3288.631280  	0.086236 
3290.560096  	0.086579 
3292.488912  	0.086993 
3294.417728  	0.087177 
3296.346544  	0.087484 
3298.275360  	0.087763 
3300.204176  	0.088001 
3302.132992  	0.088335 
3304.061808  	0.088625 
3305.990624  	0.088812 
3307.919440  	0.089246 
3309.848256  	0.089565 
3311.777072  	0.089765 
3313.705888  	0.090160 
3315.634704  	0.090717 
3317.563520  	0.091204 
3319.492336  	0.091468 
3321.421152  	0.091562 
3323.349968  	0.091783 
3325.278784  	0.091848 
3327.207600  	0.092093 
3329.136416  	0.092211 
3331.065232  	0.092327 
3332.994048  	0.092580 
3334.922864  	0.092695 
3336.851680  	0.092689 
3338.780496  	0.092555 
3340.709312  	0.092442 
3342.638128  	0.092329 
3344.566944  	0.091880 
3346.495760  	0.091378 
3348.424576  	0.091120 
3350.353392  	0.091009 
3352.282208  	0.090755 
3354.211024  	0.090428 
3356.139840  	0.090184 
3358.068656  	0.089882 
3359.997472  	0.089476 
3361.926288  	0.089158 
3363.855104  	0.088783 
3365.783920  	0.088257 
3367.712736  	0.087849 
3369.641552  	0.087523 
3371.570368  	0.086995 
3373.499184  	0.086446 
3375.428000  	0.086081 
3377.356816  	0.085893 
3379.285632  	0.085840 
3381.214448  	0.085465 
3383.143264  	0.085098 
3385.072080  	0.084673 
3387.000896  	0.084206 
3388.929712  	0.083769 
3390.858528  	0.083299 
3392.787344  	0.082790 
3394.716160  	0.082397 
3396.644976  	0.082271 
3398.573792  	0.081941 
3400.502608  	0.081498 
3402.431424  	0.080843 
3404.360240  	0.080387 
3406.289056  	0.079816 
3408.217872  	0.079179 
3410.146688  	0.078723 
3412.075504  	0.078358 
3414.004320  	0.077745 
3415.933136  	0.077335 
3417.861952  	0.076765 
3419.790768  	0.076286 
3421.719584  	0.075897 
3423.648400  	0.075478 
3425.577216  	0.074820 
3427.506032  	0.074254 
3429.434848  	0.073761 
3431.363664  	0.073133 
3433.292480  	0.072427 
3435.221296  	0.071779 
3437.150112  	0.071320 
3439.078928  	0.071017 
3441.007744  	0.070495 
3442.936560  	0.069981 
3444.865376  	0.069665 
3446.794192  	0.068768 
3448.723008  	0.067656 
3450.651824  	0.067043 
3452.580640  	0.066369 
3454.509456  	0.065827 
3456.438272  	0.065390 
3458.367088  	0.064750 
3460.295904  	0.064048 
3462.224720  	0.063254 
3464.153536  	0.062543 
3466.082352  	0.061776 
3468.011168  	0.060798 
3469.939984  	0.059855 
3471.868800  	0.059163 
3473.797616  	0.058474 
3475.726432  	0.057928 
3477.655248  	0.057294 
3479.584064  	0.056727 
3481.512880  	0.056017 
3483.441696  	0.054865 
3485.370512  	0.054165 
3487.299328  	0.053214 
3489.228144  	0.052321 
3491.156960  	0.051638 
3493.085776  	0.051013 
3495.014592  	0.050325 
3496.943408  	0.049595 
3498.872224  	0.048972 
3500.801040  	0.048893 
3502.729856  	0.048245 
3504.658672  	0.046870 
3506.587488  	0.046262 
3508.516304  	0.045919 
3510.445120  	0.045094 
3512.373936  	0.044149 
3514.302752  	0.043561 
3516.231568  	0.043195 
3518.160384  	0.042796 
3520.089200  	0.042234 
3522.018016  	0.042038 
3523.946832  	0.041868 
3525.875648  	0.040911 
3527.804464  	0.039587 
3529.733280  	0.038469 
3531.662096  	0.037690 
3533.590912  	0.037175 
3535.519728  	0.036949 
3537.448544  	0.036509 
3539.377360  	0.035678 
3541.306176  	0.035245 
3543.234992  	0.035347 
3545.163808  	0.035578 
3547.092624  	0.034753 
3549.021440  	0.033116 
3550.950256  	0.032130 
3552.879072  	0.031358 
3554.807888  	0.030636 
3556.736704  	0.030078 
3558.665520  	0.030007 
3560.594336  	0.029650 
3562.523152  	0.028832 
3564.451968  	0.029109 
3566.380784  	0.029592 
3568.309600  	0.027481 
3570.238416  	0.025807 
3572.167232  	0.025127 
3574.096048  	0.024376 
3576.024864  	0.023561 
3577.953680  	0.023159 
3579.882496  	0.022517 
3581.811312  	0.021786 
3583.740128  	0.021405 
3585.668944  	0.021670 
3587.597760  	0.020667 
3589.526576  	0.018838 
3591.455392  	0.018117 
3593.384208  	0.017709 
3595.313024  	0.016849 
3597.241840  	0.015562 
3599.170656  	0.014072 
3601.099472  	0.013114 
3603.028288  	0.013040 
3604.957104  	0.013036 
3606.885920  	0.012677 
3608.814736  	0.011550 
3610.743552  	0.011072 
3612.672368  	0.009825 
3614.601184  	0.008360 
3616.530000  	0.008212 
3618.458816  	0.006395 
3620.387632  	0.004537 
3622.316448  	0.004572 
3624.245264  	0.004438 
3626.174080  	0.004331 
3628.102896  	0.002050 
3630.031712  	-0.001247 
3631.960528  	0.000125 
3633.889344  	-0.000189 
3635.818160  	-0.001117 
3637.746976  	-0.002092 
3639.675792  	-0.002355 
3641.604608  	-0.002369 
3643.533424  	-0.002736 
3645.462240  	-0.003178 
3647.391056  	-0.005981 
3649.319872  	-0.010533 
3651.248688  	-0.011766 
3653.177504  	-0.009310 
3655.106320  	-0.009638 
3657.035136  	-0.012038 
3658.963952  	-0.011925 
3660.892768  	-0.011871 
3662.821584  	-0.012089 
3664.750400  	-0.012113 
3666.679216  	-0.012253 
3668.608032  	-0.014032 
3670.536848  	-0.016922 
3672.465664  	-0.014993 
3674.394480  	-0.015858 
3676.323296  	-0.020110 
3678.252112  	-0.016736 
3680.180928  	-0.015129 
3682.109744  	-0.014871 
3684.038560  	-0.014907 
3685.967376  	-0.014592 
3687.896192  	-0.017012 
3689.825008  	-0.019975 
3691.753824  	-0.018918 
3693.682640  	-0.016565 
3695.611456  	-0.015450 
3697.540272  	-0.014751 
3699.469088  	-0.014065 
3701.397904  	-0.014762 
3703.326720  	-0.014775 
3705.255536  	-0.013485 
3707.184352  	-0.013137 
3709.113168  	-0.014280 
3711.041984  	-0.016059 
3712.970800  	-0.015278 
3714.899616  	-0.012651 
3716.828432  	-0.012034 
3718.757248  	-0.012388 
3720.686064  	-0.012593 
3722.614880  	-0.012774 
3724.543696  	-0.012178 
3726.472512  	-0.012589 
3728.401328  	-0.012774 
3730.330144  	-0.013170 
3732.258960  	-0.014550 
3734.187776  	-0.013760 
3736.116592  	-0.014491 
3738.045408  	-0.014335 
3739.974224  	-0.012626 
3741.903040  	-0.011291 
3743.831856  	-0.013169 
3745.760672  	-0.015150 
3747.689488  	-0.013480 
3749.618304  	-0.015869 
3751.547120  	-0.017635 
3753.475936  	-0.015314 
3755.404752  	-0.012911 
3757.333568  	-0.012575 
3759.262384  	-0.013449 
3761.191200  	-0.013406 
3763.120016  	-0.011611 
3765.048832  	-0.012078 
3766.977648  	-0.012259 
3768.906464  	-0.013026 
3770.835280  	-0.013850 
3772.764096  	-0.012412 
3774.692912  	-0.011668 
3776.621728  	-0.011485 
3778.550544  	-0.012831 
3780.479360  	-0.013734 
3782.408176  	-0.012204 
3784.336992  	-0.012323 
3786.265808  	-0.012452 
3788.194624  	-0.012108 
3790.123440  	-0.012044 
3792.052256  	-0.012009 
3793.981072  	-0.011678 
3795.909888  	-0.012824 
3797.838704  	-0.012823 
3799.767520  	-0.013035 
3801.696336  	-0.016680 
3803.625152  	-0.014774 
3805.553968  	-0.013620 
3807.482784  	-0.015259 
3809.411600  	-0.013115 
3811.340416  	-0.011732 
3813.269232  	-0.011358 
3815.198048  	-0.013671 
3817.126864  	-0.015174 
3819.055680  	-0.013700 
3820.984496  	-0.016494 
3822.913312  	-0.015373 
3824.842128  	-0.012812 
3826.770944  	-0.013188 
3828.699760  	-0.012434 
3830.628576  	-0.012641 
3832.557392  	-0.013586 
3834.486208  	-0.013492 
3836.415024  	-0.014495 
3838.343840  	-0.015710 
3840.272656  	-0.014766 
3842.201472  	-0.013506 
3844.130288  	-0.013382 
3846.059104  	-0.012545 
3847.987920  	-0.011622 
3849.916736  	-0.011397 
3851.845552  	-0.013410 
3853.774368  	-0.018497 
3855.703184  	-0.015765 
3857.632000  	-0.012850 
3859.560816  	-0.011733 
3861.489632  	-0.011734 
3863.418448  	-0.012526 
3865.347264  	-0.013102 
3867.276080  	-0.011807 
3869.204896  	-0.012701 
3871.133712  	-0.012995 
3873.062528  	-0.012315 
3874.991344  	-0.013178 
3876.920160  	-0.011673 
3878.848976  	-0.010886 
3880.777792  	-0.011527 
3882.706608  	-0.010953 
3884.635424  	-0.011214 
3886.564240  	-0.012485 
3888.493056  	-0.011625 
3890.421872  	-0.011942 
3892.350688  	-0.012677 
3894.279504  	-0.011648 
3896.208320  	-0.010750 
3898.137136  	-0.010525 
3900.065952  	-0.010894 
3901.994768  	-0.010927 
3903.923584  	-0.011664 
3905.852400  	-0.012065 
3907.781216  	-0.011807 
3909.710032  	-0.011708 
3911.638848  	-0.011677 
3913.567664  	-0.011263 
3915.496480  	-0.010639 
3917.425296  	-0.010880 
3919.354112  	-0.011295 
3921.282928  	-0.011063 
3923.211744  	-0.010503 
3925.140560  	-0.010671 
3927.069376  	-0.011035 
3928.998192  	-0.010973 
3930.927008  	-0.010405 
3932.855824  	-0.010317 
3934.784640  	-0.010880 
3936.713456  	-0.011230 
3938.642272  	-0.011059 
3940.571088  	-0.010636 
3942.499904  	-0.010573 
3944.428720  	-0.010901 
3946.357536  	-0.010434 
3948.286352  	-0.010127 
3950.215168  	-0.010847 
3952.143984  	-0.011528 
3954.072800  	-0.011574 
3956.001616  	-0.011254 
3957.930432  	-0.011172 
3959.859248  	-0.011104 
3961.788064  	-0.011060 
3963.716880  	-0.011455 
3965.645696  	-0.011691 
3967.574512  	-0.011557 
3969.503328  	-0.011327 
3971.432144  	-0.011354 
3973.360960  	-0.011253 
3975.289776  	-0.011107 
3977.218592  	-0.011264 
3979.147408  	-0.011390 
3981.076224  	-0.011315 
3983.005040  	-0.011211 
3984.933856  	-0.011196 
3986.862672  	-0.011294 
3988.791488  	-0.011198 
3990.720304  	-0.011016 
3992.649120  	-0.011117 
3994.577936  	-0.011342 
3996.506752  	-0.011396 
3998.435568  	-0.011505 
4000.364384  	-0.011421 