##TITLE=No Description
##DATA TYPE=INFRARED SPECTRUM
##XUNITS=1/CM
##YUNITS=Abs
399.264912  	0.605567 
401.193728  	0.592038 
403.122544  	0.603075 
405.051360  	0.600789 
406.980176  	0.606245 
408.908992  	0.596382 
410.837808  	0.595264 
412.766624  	0.587452 
414.695440  	0.581636 
416.624256  	0.572976 
418.553072  	0.568417 
420.481888  	0.569862 
422.410704  	0.572257 
424.339520  	0.557895 
426.268336  	0.552926 
428.197152  	0.548990 
430.125968  	0.550344 
432.054784  	0.546641 
433.983600  	0.547038 
435.912416  	0.542356 
437.841232  	0.543061 
439.770048  	0.538683 
441.698864  	0.538333 
443.627680  	0.537200 
445.556496  	0.537634 
447.485312  	0.534421 
449.414128  	0.537945 
451.342944  	0.536055 
453.271760  	0.532240 
455.200576  	0.531463 
457.129392  	0.538103 
459.058208  	0.533365 
460.987024  	0.534190 
462.915840  	0.529555 
464.844656  	0.528939 
466.773472  	0.530047 
468.702288  	0.534857 
470.631104  	0.529457 
472.559920  	0.532353 
474.488736  	0.533287 
476.417552  	0.528910 
478.346368  	0.519954 
480.275184  	0.524064 
482.204000  	0.522780 
484.132816  	0.519394 
486.061632  	0.519161 
487.990448  	0.520823 
489.919264  	0.519697 
491.848080  	0.521381 
493.776896  	0.516638 
495.705712  	0.513302 
497.634528  	0.512925 
499.563344  	0.518318 
501.492160  	0.518141 
503.420976  	0.515760 
505.349792  	0.513782 
507.278608  	0.515106 
509.207424  	0.512327 
511.136240  	0.511667 
513.065056  	0.512404 
514.993872  	0.517346 
516.922688  	0.518896 
518.851504  	0.519971 
520.780320  	0.516150 
522.709136  	0.515523 
524.637952  	0.515196 
526.566768  	0.514446 
528.495584  	0.512057 
530.424400  	0.511258 
532.353216  	0.505078 
534.282032  	0.500003 
536.210848  	0.495350 
538.139664  	0.491393 
540.068480  	0.487050 
541.997296  	0.481822 
543.926112  	0.475014 
545.854928  	0.471455 
547.783744  	0.467120 
549.712560  	0.463596 
551.641376  	0.460346 
553.570192  	0.457581 
555.499008  	0.453629 
557.427824  	0.450670 
559.356640  	0.447363 
561.285456  	0.443460 
563.214272  	0.439946 
565.143088  	0.438022 
567.071904  	0.434557 
569.000720  	0.430753 
570.929536  	0.426620 
572.858352  	0.424410 
574.787168  	0.421627 
576.715984  	0.418580 
578.644800  	0.414711 
580.573616  	0.411126 
582.502432  	0.406372 
584.431248  	0.403387 
586.360064  	0.399809 
588.288880  	0.397788 
590.217696  	0.395075 
592.146512  	0.391989 
594.075328  	0.388974 
596.004144  	0.387126 
597.932960  	0.385301 
599.861776  	0.383844 
601.790592  	0.381492 
603.719408  	0.380041 
605.648224  	0.379202 
607.577040  	0.378204 
609.505856  	0.376314 
611.434672  	0.374722 
613.363488  	0.372825 
615.292304  	0.371608 
617.221120  	0.369792 
619.149936  	0.368334 
621.078752  	0.366907 
623.007568  	0.365978 
624.936384  	0.364734 
626.865200  	0.363658 
628.794016  	0.361932 
630.722832  	0.361460 
632.651648  	0.360959 
634.580464  	0.360707 
636.509280  	0.360756 
638.438096  	0.360585 
640.366912  	0.359574 
642.295728  	0.358437 
644.224544  	0.356297 
646.153360  	0.352588 
648.082176  	0.347174 
650.010992  	0.342761 
651.939808  	0.339056 
653.868624  	0.335597 
655.797440  	0.331680 
657.726256  	0.327785 
659.655072  	0.323864 
661.583888  	0.320070 
663.512704  	0.316752 
665.441520  	0.314014 
667.370336  	0.306672 
669.299152  	0.298804 
671.227968  	0.298892 
673.156784  	0.296739 
675.085600  	0.293718 
677.014416  	0.291316 
678.943232  	0.289433 
680.872048  	0.287650 
682.800864  	0.285945 
684.729680  	0.284321 
686.658496  	0.282865 
688.587312  	0.282215 
690.516128  	0.280753 
692.444944  	0.279195 
694.373760  	0.278604 
696.302576  	0.276662 
698.231392  	0.274055 
700.160208  	0.271845 
702.089024  	0.269806 
704.017840  	0.267639 
705.946656  	0.265288 
707.875472  	0.263093 
709.804288  	0.260960 
711.733104  	0.258878 
713.661920  	0.256652 
715.590736  	0.255335 
717.519552  	0.254779 
719.448368  	0.254804 
721.377184  	0.254815 
723.306000  	0.255606 
725.234816  	0.256177 
727.163632  	0.255729 
729.092448  	0.253498 
731.021264  	0.250266 
732.950080  	0.247212 
734.878896  	0.244145 
736.807712  	0.240727 
738.736528  	0.237899 
740.665344  	0.235836 
742.594160  	0.234379 
744.522976  	0.233027 
746.451792  	0.231493 
748.380608  	0.229635 
750.309424  	0.228096 
752.238240  	0.227434 
754.167056  	0.226571 
756.095872  	0.225201 
758.024688  	0.224274 
759.953504  	0.223520 
761.882320  	0.224196 
763.811136  	0.225075 
765.739952  	0.224000 
767.668768  	0.221076 
769.597584  	0.218675 
771.526400  	0.217875 
773.455216  	0.219241 
775.384032  	0.222573 
777.312848  	0.227462 
779.241664  	0.231525 
781.170480  	0.231985 
783.099296  	0.228668 
785.028112  	0.222874 
786.956928  	0.216715 
788.885744  	0.211542 
790.814560  	0.208022 
792.743376  	0.205480 
794.672192  	0.204247 
796.601008  	0.203702 
798.529824  	0.201184 
800.458640  	0.196408 
802.387456  	0.192596 
804.316272  	0.190776 
806.245088  	0.189688 
808.173904  	0.188708 
810.102720  	0.188052 
812.031536  	0.188072 
813.960352  	0.188385 
815.889168  	0.188497 
817.817984  	0.188669 
819.746800  	0.188634 
821.675616  	0.188868 
823.604432  	0.189018 
825.533248  	0.188929 
827.462064  	0.188556 
829.390880  	0.187572 
831.319696  	0.186147 
833.248512  	0.184162 
835.177328  	0.181825 
837.106144  	0.179221 
839.034960  	0.175965 
840.963776  	0.172441 
842.892592  	0.168889 
844.821408  	0.165293 
846.750224  	0.161873 
848.679040  	0.159090 
850.607856  	0.157020 
852.536672  	0.155154 
854.465488  	0.153176 
856.394304  	0.151881 
858.323120  	0.150875 
860.251936  	0.148746 
862.180752  	0.146225 
864.109568  	0.143456 
866.038384  	0.140739 
867.967200  	0.138707 
869.896016  	0.136680 
871.824832  	0.135297 
873.753648  	0.134900 
875.682464  	0.135598 
877.611280  	0.136249 
879.540096  	0.137343 
881.468912  	0.139440 
883.397728  	0.140946 
885.326544  	0.142138 
887.255360  	0.142452 
889.184176  	0.141330 
891.112992  	0.139166 
893.041808  	0.137330 
894.970624  	0.134910 
896.899440  	0.131508 
898.828256  	0.127304 
900.757072  	0.123193 
902.685888  	0.120029 
904.614704  	0.118147 
906.543520  	0.118102 
908.472336  	0.119420 
910.401152  	0.121992 
912.329968  	0.124833 
914.258784  	0.127902 
916.187600  	0.130805 
918.116416  	0.133384 
920.045232  	0.135249 
921.974048  	0.136445 
923.902864  	0.136912 
925.831680  	0.136690 
927.760496  	0.136793 
929.689312  	0.137500 
931.618128  	0.138469 
933.546944  	0.139192 
935.475760  	0.139553 
937.404576  	0.139489 
939.333392  	0.139178 
941.262208  	0.139168 
943.191024  	0.140542 
945.119840  	0.144287 
947.048656  	0.150149 
948.977472  	0.157818 
950.906288  	0.167407 
952.835104  	0.178443 
954.763920  	0.190136 
956.692736  	0.201275 
958.621552  	0.211043 
960.550368  	0.218051 
962.479184  	0.221684 
964.408000  	0.221344 
966.336816  	0.216522 
968.265632  	0.208040 
970.194448  	0.196650 
972.123264  	0.183310 
974.052080  	0.169240 
975.980896  	0.155450 
977.909712  	0.142638 
979.838528  	0.131322 
981.767344  	0.121790 
983.696160  	0.114229 
985.624976  	0.109375 
987.553792  	0.107377 
989.482608  	0.108192 
991.411424  	0.111481 
993.340240  	0.116511 
995.269056  	0.122771 
997.197872  	0.129512 
999.126688  	0.136435 
1001.055504  	0.143453 
1002.984320  	0.150532 
1004.913136  	0.157365 
1006.841952  	0.164054 
1008.770768  	0.169737 
1010.699584  	0.173929 
1012.628400  	0.176146 
1014.557216  	0.176806 
1016.486032  	0.177005 
1018.414848  	0.176688 
1020.343664  	0.176110 
1022.272480  	0.175252 
1024.201296  	0.173907 
1026.130112  	0.170547 
1028.058928  	0.169425 
1029.987744  	0.172581 
1031.916560  	0.174629 
1033.845376  	0.176041 
1035.774192  	0.177583 
1037.703008  	0.180734 
1039.631824  	0.187683 
1041.560640  	0.197067 
1043.489456  	0.209363 
1045.418272  	0.224628 
1047.347088  	0.241618 
1049.275904  	0.257403 
1051.204720  	0.269845 
1053.133536  	0.277525 
1055.062352  	0.280570 
1056.991168  	0.280036 
1058.919984  	0.280686 
1060.848800  	0.281100 
1062.777616  	0.278540 
1064.706432  	0.272215 
1066.635248  	0.266645 
1068.564064  	0.264271 
1070.492880  	0.259228 
1072.421696  	0.251437 
1074.350512  	0.245789 
1076.279328  	0.243950 
1078.208144  	0.246394 
1080.136960  	0.251539 
1082.065776  	0.257581 
1083.994592  	0.261579 
1085.923408  	0.262388 
1087.852224  	0.259838 
1089.781040  	0.255143 
1091.709856  	0.248646 
1093.638672  	0.239326 
1095.567488  	0.227729 
1097.496304  	0.215029 
1099.425120  	0.201449 
1101.353936  	0.187939 
1103.282752  	0.174996 
1105.211568  	0.162582 
1107.140384  	0.150747 
1109.069200  	0.139534 
1110.998016  	0.129260 
1112.926832  	0.120194 
1114.855648  	0.111776 
1116.784464  	0.103806 
1118.713280  	0.096509 
1120.642096  	0.089644 
1122.570912  	0.083171 
1124.499728  	0.076981 
1126.428544  	0.071380 
1128.357360  	0.066390 
1130.286176  	0.062463 
1132.214992  	0.058918 
1134.143808  	0.056250 
1136.072624  	0.053996 
1138.001440  	0.052069 
1139.930256  	0.049686 
1141.859072  	0.047293 
1143.787888  	0.044971 
1145.716704  	0.042813 
1147.645520  	0.040665 
1149.574336  	0.039012 
1151.503152  	0.037688 
1153.431968  	0.037049 
1155.360784  	0.037162 
1157.289600  	0.037988 
1159.218416  	0.039468 
1161.147232  	0.041638 
1163.076048  	0.043790 
1165.004864  	0.046094 
1166.933680  	0.048314 
1168.862496  	0.051128 
1170.791312  	0.053762 
1172.720128  	0.056768 
1174.648944  	0.059541 
1176.577760  	0.062398 
1178.506576  	0.065239 
1180.435392  	0.068280 
1182.364208  	0.071052 
1184.293024  	0.074377 
1186.221840  	0.077973 
1188.150656  	0.082203 
1190.079472  	0.087039 
1192.008288  	0.092729 
1193.937104  	0.099439 
1195.865920  	0.107321 
1197.794736  	0.115973 
1199.723552  	0.125269 
1201.652368  	0.134836 
1203.581184  	0.144638 
1205.510000  	0.154012 
1207.438816  	0.162971 
1209.367632  	0.171359 
1211.296448  	0.178542 
1213.225264  	0.184553 
1215.154080  	0.189075 
1217.082896  	0.192383 
1219.011712  	0.194361 
1220.940528  	0.195586 
1222.869344  	0.196278 
1224.798160  	0.196224 
1226.726976  	0.195225 
1228.655792  	0.193953 
1230.584608  	0.192071 
1232.513424  	0.189533 
1234.442240  	0.186307 
1236.371056  	0.182432 
1238.299872  	0.177268 
1240.228688  	0.169768 
1242.157504  	0.162255 
1244.086320  	0.155919 
1246.015136  	0.148271 
1247.943952  	0.139693 
1249.872768  	0.131263 
1251.801584  	0.123962 
1253.730400  	0.116676 
1255.659216  	0.109475 
1257.588032  	0.102871 
1259.516848  	0.096461 
1261.445664  	0.090468 
1263.374480  	0.085052 
1265.303296  	0.080630 
1267.232112  	0.077010 
1269.160928  	0.074342 
1271.089744  	0.072369 
1273.018560  	0.071333 
1274.947376  	0.071100 
1276.876192  	0.071331 
1278.805008  	0.071175 
1280.733824  	0.070116 
1282.662640  	0.068051 
1284.591456  	0.065634 
1286.520272  	0.063586 
1288.449088  	0.062244 
1290.377904  	0.061468 
1292.306720  	0.061641 
1294.235536  	0.061766 
1296.164352  	0.060930 
1298.093168  	0.058470 
1300.021984  	0.055483 
1301.950800  	0.052381 
1303.879616  	0.049522 
1305.808432  	0.046386 
1307.737248  	0.043318 
1309.666064  	0.040275 
1311.594880  	0.038185 
1313.523696  	0.036489 
1315.452512  	0.035302 
1317.381328  	0.034665 
1319.310144  	0.034473 
1321.238960  	0.034512 
1323.167776  	0.035210 
1325.096592  	0.036019 
1327.025408  	0.036684 
1328.954224  	0.036688 
1330.883040  	0.036216 
1332.811856  	0.035326 
1334.740672  	0.034891 
1336.669488  	0.035023 
1338.598304  	0.035489 
1340.527120  	0.033840 
1342.455936  	0.031773 
1344.384752  	0.031255 
1346.313568  	0.031572 
1348.242384  	0.032230 
1350.171200  	0.033544 
1352.100016  	0.035180 
1354.028832  	0.037256 
1355.957648  	0.039149 
1357.886464  	0.041332 
1359.815280  	0.043963 
1361.744096  	0.046653 
1363.672912  	0.047599 
1365.601728  	0.048567 
1367.530544  	0.050160 
1369.459360  	0.050714 
1371.388176  	0.050736 
1373.316992  	0.049613 
1375.245808  	0.045880 
1377.174624  	0.043172 
1379.103440  	0.040183 
1381.032256  	0.037082 
1382.961072  	0.034761 
1384.889888  	0.034294 
1386.818704  	0.033820 
1388.747520  	0.031517 
1390.676336  	0.029174 
1392.605152  	0.026436 
1394.533968  	0.024470 
1396.462784  	0.026949 
1398.391600  	0.028138 
1400.320416  	0.026972 
1402.249232  	0.027539 
1404.178048  	0.028413 
1406.106864  	0.028735 
1408.035680  	0.030542 
1409.964496  	0.033234 
1411.893312  	0.036134 
1413.822128  	0.039290 
1415.750944  	0.043699 
1417.679760  	0.046745 
1419.608576  	0.045349 
1421.537392  	0.045470 
1423.466208  	0.046083 
1425.395024  	0.044081 
1427.323840  	0.042985 
1429.252656  	0.040491 
1431.181472  	0.038474 
1433.110288  	0.038591 
1435.039104  	0.039742 
1436.967920  	0.038214 
1438.896736  	0.038615 
1440.825552  	0.040160 
1442.754368  	0.040858 
1444.683184  	0.041206 
1446.612000  	0.041255 
1448.540816  	0.039680 
1450.469632  	0.040259 
1452.398448  	0.041518 
1454.327264  	0.043331 
1456.256080  	0.042981 
1458.184896  	0.038471 
1460.113712  	0.039902 
1462.042528  	0.042128 
1463.971344  	0.041881 
1465.900160  	0.041652 
1467.828976  	0.044750 
1469.757792  	0.048892 
1471.686608  	0.052299 
1473.615424  	0.057078 
1475.544240  	0.063855 
1477.473056  	0.069280 
1479.401872  	0.073366 
1481.330688  	0.076491 
1483.259504  	0.078479 
1485.188320  	0.080519 
1487.117136  	0.080705 
1489.045952  	0.079858 
1490.974768  	0.075723 
1492.903584  	0.073857 
1494.832400  	0.071396 
1496.761216  	0.063905 
1498.690032  	0.057206 
1500.618848  	0.053603 
1502.547664  	0.050710 
1504.476480  	0.047593 
1506.405296  	0.040745 
1508.334112  	0.037309 
1510.262928  	0.038070 
1512.191744  	0.036258 
1514.120560  	0.035629 
1516.049376  	0.035272 
1517.978192  	0.033778 
1519.907008  	0.035656 
1521.835824  	0.034762 
1523.764640  	0.039105 
1525.693456  	0.043997 
1527.622272  	0.045946 
1529.551088  	0.047022 
1531.479904  	0.047639 
1533.408720  	0.043059 
1535.337536  	0.039614 
1537.266352  	0.039090 
1539.195168  	0.031263 
1541.123984  	0.022460 
1543.052800  	0.025527 
1544.981616  	0.026391 
1546.910432  	0.026105 
1548.839248  	0.027104 
1550.768064  	0.026892 
1552.696880  	0.026929 
1554.625696  	0.027329 
1556.554512  	0.028123 
1558.483328  	0.024815 
1560.412144  	0.026261 
1562.340960  	0.035217 
1564.269776  	0.039833 
1566.198592  	0.045258 
1568.127408  	0.049789 
1570.056224  	0.053760 
1571.985040  	0.061255 
1573.913856  	0.066969 
1575.842672  	0.066765 
1577.771488  	0.068839 
1579.700304  	0.072119 
1581.629120  	0.072396 
1583.557936  	0.071845 
1585.486752  	0.072525 
1587.415568  	0.074861 
1589.344384  	0.079266 
1591.273200  	0.085185 
1593.202016  	0.092436 
1595.130832  	0.100104 
1597.059648  	0.108284 
1598.988464  	0.115332 
1600.917280  	0.121376 
1602.846096  	0.125290 
1604.774912  	0.127964 
1606.703728  	0.128280 
1608.632544  	0.127058 
1610.561360  	0.124852 
1612.490176  	0.123703 
1614.418992  	0.122348 
1616.347808  	0.118475 
1618.276624  	0.118724 
1620.205440  	0.124613 
1622.134256  	0.127716 
1624.063072  	0.131934 
1625.991888  	0.139353 
1627.920704  	0.147558 
1629.849520  	0.157696 
1631.778336  	0.168440 
1633.707152  	0.176125 
1635.635968  	0.181671 
1637.564784  	0.190687 
1639.493600  	0.200321 
1641.422416  	0.206260 
1643.351232  	0.211300 
1645.280048  	0.212239 
1647.208864  	0.209176 
1649.137680  	0.211230 
1651.066496  	0.214910 
1652.995312  	0.205505 
1654.924128  	0.201233 
1656.852944  	0.204091 
1658.781760  	0.202978 
1660.710576  	0.199597 
1662.639392  	0.193087 
1664.568208  	0.188704 
1666.497024  	0.187947 
1668.425840  	0.182269 
1670.354656  	0.173069 
1672.283472  	0.170434 
1674.212288  	0.168222 
1676.141104  	0.161819 
1678.069920  	0.162171 
1679.998736  	0.162123 
1681.927552  	0.161473 
1683.856368  	0.154814 
1685.785184  	0.151186 
1687.714000  	0.155318 
1689.642816  	0.154904 
1691.571632  	0.153099 
1693.500448  	0.153227 
1695.429264  	0.148414 
1697.358080  	0.144343 
1699.286896  	0.143145 
1701.215712  	0.135046 
1703.144528  	0.136045 
1705.073344  	0.132226 
1707.002160  	0.125661 
1708.930976  	0.122183 
1710.859792  	0.116692 
1712.788608  	0.110672 
1714.717424  	0.102521 
1716.646240  	0.090816 
1718.575056  	0.075613 
1720.503872  	0.068783 
1722.432688  	0.063156 
1724.361504  	0.053894 
1726.290320  	0.046461 
1728.219136  	0.040632 
1730.147952  	0.035199 
1732.076768  	0.030783 
1734.005584  	0.022514 
1735.934400  	0.016665 
1737.863216  	0.017815 
1739.792032  	0.013650 
1741.720848  	0.012528 
1743.649664  	0.012320 
1745.578480  	0.011582 
1747.507296  	0.009981 
1749.436112  	0.008781 
1751.364928  	0.006891 
1753.293744  	0.006242 
1755.222560  	0.006657 
1757.151376  	0.005736 
1759.080192  	0.005242 
1761.009008  	0.004667 
1762.937824  	0.002516 
1764.866640  	0.003350 
1766.795456  	0.004216 
1768.724272  	0.003553 
1770.653088  	0.001602 
1772.581904  	-0.001810 
1774.510720  	-0.000639 
1776.439536  	0.001555 
1778.368352  	0.002063 
1780.297168  	0.001641 
1782.225984  	0.000955 
1784.154800  	0.001638 
1786.083616  	0.000839 
1788.012432  	0.001181 
1789.941248  	0.001973 
1791.870064  	0.000437 
1793.798880  	-0.001533 
1795.727696  	0.000354 
1797.656512  	0.000103 
1799.585328  	-0.000126 
1801.514144  	0.000045 
1803.442960  	-0.000112 
1805.371776  	-0.000675 
1807.300592  	-0.000088 
1809.229408  	-0.000598 
1811.158224  	-0.001185 
1813.087040  	-0.001423 
1815.015856  	-0.000844 
1816.944672  	-0.000658 
1818.873488  	-0.000744 
1820.802304  	-0.001100 
1822.731120  	-0.000198 
1824.659936  	-0.000809 
1826.588752  	-0.001470 
1828.517568  	-0.001770 
1830.446384  	-0.002783 
1832.375200  	-0.002067 
1834.304016  	-0.001018 
1836.232832  	-0.001245 
1838.161648  	-0.001215 
1840.090464  	-0.001253 
1842.019280  	0.000060 
1843.948096  	-0.001349 
1845.876912  	-0.001884 
1847.805728  	-0.001223 
1849.734544  	-0.001298 
1851.663360  	-0.001531 
1853.592176  	-0.001510 
1855.520992  	-0.001486 
1857.449808  	-0.001199 
1859.378624  	-0.001427 
1861.307440  	-0.001420 
1863.236256  	-0.001627 
1865.165072  	-0.001106 
1867.093888  	-0.001109 
1869.022704  	-0.001897 
1870.951520  	-0.002447 
1872.880336  	-0.001645 
1874.809152  	-0.001875 
1876.737968  	-0.001863 
1878.666784  	-0.002247 
1880.595600  	-0.001796 
1882.524416  	-0.002022 
1884.453232  	-0.001918 
1886.382048  	-0.001877 
1888.310864  	-0.001601 
1890.239680  	-0.002625 
1892.168496  	-0.002121 
1894.097312  	-0.001736 
1896.026128  	-0.001682 
1897.954944  	-0.001969 
1899.883760  	-0.001721 
1901.812576  	-0.002095 
1903.741392  	-0.002080 
1905.670208  	-0.001980 
1907.599024  	-0.001493 
1909.527840  	-0.001786 
1911.456656  	-0.001448 
1913.385472  	-0.001338 
1915.314288  	-0.000573 
1917.243104  	-0.000909 
1919.171920  	-0.001589 
1921.100736  	-0.001662 
1923.029552  	-0.001184 
1924.958368  	-0.001885 
1926.887184  	-0.001443 
1928.816000  	-0.001655 
1930.744816  	-0.001811 
1932.673632  	-0.002060 
1934.602448  	-0.001567 
1936.531264  	-0.001516 
1938.460080  	-0.000721 
1940.388896  	-0.000516 
1942.317712  	-0.000712 
1944.246528  	-0.001839 
1946.175344  	-0.000955 
1948.104160  	-0.000962 
1950.032976  	-0.000670 
1951.961792  	-0.001264 
1953.890608  	-0.000915 
1955.819424  	-0.001142 
1957.748240  	-0.000080 
1959.677056  	-0.000446 
1961.605872  	-0.000314 
1963.534688  	-0.000573 
1965.463504  	-0.000073 
1967.392320  	-0.001369 
1969.321136  	-0.001200 
1971.249952  	-0.000958 
1973.178768  	0.000229 
1975.107584  	-0.000266 
1977.036400  	0.000608 
1978.965216  	0.001043 
1980.894032  	0.001364 
1982.822848  	0.000066 
1984.751664  	-0.000346 
1986.680480  	-0.001094 
1988.609296  	0.000106 
1990.538112  	-0.000407 
1992.466928  	-0.000404 
1994.395744  	-0.001296 
1996.324560  	-0.000961 
1998.253376  	-0.001692 
2000.182192  	-0.001733 
2002.111008  	-0.001753 
2004.039824  	-0.000811 
2005.968640  	-0.000367 
2007.897456  	0.000504 
2009.826272  	0.000182 
2011.755088  	0.000907 
2013.683904  	-0.000629 
2015.612720  	-0.000172 
2017.541536  	-0.000171 
2019.470352  	0.000626 
2021.399168  	-0.001178 
2023.327984  	-0.001349 
2025.256800  	-0.000147 
2027.185616  	0.000948 
2029.114432  	0.000204 
2031.043248  	0.000847 
2032.972064  	0.000343 
2034.900880  	0.000126 
2036.829696  	-0.001299 
2038.758512  	0.000140 
2040.687328  	0.001059 
2042.616144  	0.000821 
2044.544960  	-0.000726 
2046.473776  	-0.000207 
2048.402592  	-0.000668 
2050.331408  	-0.000518 
2052.260224  	-0.001561 
2054.189040  	-0.001648 
2056.117856  	-0.002151 
2058.046672  	-0.002065 
2059.975488  	-0.002014 
2061.904304  	-0.001734 
2063.833120  	-0.001514 
2065.761936  	-0.001359 
2067.690752  	-0.001991 
2069.619568  	-0.001787 
2071.548384  	-0.001904 
2073.477200  	-0.002003 
2075.406016  	-0.001878 
2077.334832  	-0.001298 
2079.263648  	-0.001325 
2081.192464  	-0.001188 
2083.121280  	-0.001581 
2085.050096  	-0.001842 
2086.978912  	-0.001965 
2088.907728  	-0.001445 
2090.836544  	-0.001408 
2092.765360  	-0.001178 
2094.694176  	-0.001301 
2096.622992  	-0.001422 
2098.551808  	-0.001526 
2100.480624  	-0.001038 
2102.409440  	-0.001438 
2104.338256  	-0.001477 
2106.267072  	-0.001157 
2108.195888  	-0.000671 
2110.124704  	-0.000875 
2112.053520  	-0.000777 
2113.982336  	-0.001003 
2115.911152  	-0.000810 
2117.839968  	-0.001178 
2119.768784  	-0.001451 
2121.697600  	-0.001463 
2123.626416  	-0.001213 
2125.555232  	-0.001571 
2127.484048  	-0.001020 
2129.412864  	-0.000933 
2131.341680  	-0.000807 
2133.270496  	-0.001047 
2135.199312  	-0.000342 
2137.128128  	0.000063 
2139.056944  	-0.000285 
2140.985760  	-0.000769 
2142.914576  	-0.000027 
2144.843392  	-0.000111 
2146.772208  	0.000493 
2148.701024  	0.000681 
2150.629840  	0.001673 
2152.558656  	0.001179 
2154.487472  	0.001196 
2156.416288  	0.000852 
2158.345104  	0.001945 
2160.273920  	0.003815 
2162.202736  	0.004687 
2164.131552  	0.003390 
2166.060368  	0.003334 
2167.989184  	0.004108 
2169.918000  	0.004648 
2171.846816  	0.002232 
2173.775632  	0.001347 
2175.704448  	0.001311 
2177.633264  	0.001632 
2179.562080  	0.001738 
2181.490896  	0.002594 
2183.419712  	0.001315 
2185.348528  	0.000625 
2187.277344  	0.000896 
2189.206160  	0.001250 
2191.134976  	0.000756 
2193.063792  	0.001067 
2194.992608  	0.000953 
2196.921424  	0.000780 
2198.850240  	0.000862 
2200.779056  	0.001019 
2202.707872  	0.000298 
2204.636688  	0.000286 
2206.565504  	0.000672 
2208.494320  	0.000959 
2210.423136  	0.000474 
2212.351952  	-0.000108 
2214.280768  	-0.000437 
2216.209584  	0.000067 
2218.138400  	-0.000316 
2220.067216  	-0.000372 
2221.996032  	-0.000317 
2223.924848  	0.000035 
2225.853664  	-0.000015 
2227.782480  	-0.000316 
2229.711296  	-0.001249 
2231.640112  	-0.001465 
2233.568928  	-0.001240 
2235.497744  	-0.001264 
2237.426560  	-0.001777 
2239.355376  	-0.001411 
2241.284192  	-0.001184 
2243.213008  	-0.001117 
2245.141824  	-0.001621 
2247.070640  	-0.001594 
2248.999456  	-0.001829 
2250.928272  	-0.002231 
2252.857088  	-0.002411 
2254.785904  	-0.002328 
2256.714720  	-0.002686 
2258.643536  	-0.002615 
2260.572352  	-0.002602 
2262.501168  	-0.002838 
2264.429984  	-0.003181 
2266.358800  	-0.002827 
2268.287616  	-0.002838 
2270.216432  	-0.002718 
2272.145248  	-0.002495 
2274.074064  	-0.002796 
2276.002880  	-0.002945 
2277.931696  	-0.002484 
2279.860512  	-0.002459 
2281.789328  	-0.002414 
2283.718144  	-0.002431 
2285.646960  	-0.002188 
2287.575776  	-0.002264 
2289.504592  	-0.002442 
2291.433408  	-0.002569 
2293.362224  	-0.002199 
2295.291040  	-0.001739 
2297.219856  	-0.001502 
2299.148672  	-0.001767 
2301.077488  	-0.001500 
2303.006304  	-0.001276 
2304.935120  	-0.001122 
2306.863936  	-0.001106 
2308.792752  	-0.001403 
2310.721568  	-0.001871 
2312.650384  	-0.002372 
2314.579200  	-0.003239 
2316.508016  	-0.004079 
2318.436832  	-0.005410 
2320.365648  	-0.007085 
2322.294464  	-0.008706 
2324.223280  	-0.010455 
2326.152096  	-0.012780 
2328.080912  	-0.014640 
2330.009728  	-0.016709 
2331.938544  	-0.018631 
2333.867360  	-0.020030 
2335.796176  	-0.021297 
2337.724992  	-0.022643 
2339.653808  	-0.022880 
2341.582624  	-0.023277 
2343.511440  	-0.022418 
2345.440256  	-0.019929 
2347.369072  	-0.014379 
2349.297888  	-0.010458 
2351.226704  	-0.012979 
2353.155520  	-0.019307 
2355.084336  	-0.024137 
2357.013152  	-0.028115 
2358.941968  	-0.030470 
2360.870784  	-0.031645 
2362.799600  	-0.030596 
2364.728416  	-0.029161 
2366.657232  	-0.026138 
2368.586048  	-0.022117 
2370.514864  	-0.018234 
2372.443680  	-0.014506 
2374.372496  	-0.010659 
2376.301312  	-0.007246 
2378.230128  	-0.004650 
2380.158944  	-0.003160 
2382.087760  	-0.002450 
2384.016576  	-0.002389 
2385.945392  	-0.002574 
2387.874208  	-0.002788 
2389.803024  	-0.002920 
2391.731840  	-0.003265 
2393.660656  	-0.003286 
2395.589472  	-0.003282 
2397.518288  	-0.003055 
2399.447104  	-0.003149 
2401.375920  	-0.003397 
2403.304736  	-0.003724 
2405.233552  	-0.003600 
2407.162368  	-0.003521 
2409.091184  	-0.003341 
2411.020000  	-0.003317 
2412.948816  	-0.003274 
2414.877632  	-0.003052 
2416.806448  	-0.002904 
2418.735264  	-0.003049 
2420.664080  	-0.003157 
2422.592896  	-0.003156 
2424.521712  	-0.003088 
2426.450528  	-0.003255 
2428.379344  	-0.003195 
2430.308160  	-0.003048 
2432.236976  	-0.002913 
2434.165792  	-0.003053 
2436.094608  	-0.003051 
2438.023424  	-0.003057 
2439.952240  	-0.002761 
2441.881056  	-0.002731 
2443.809872  	-0.002706 
2445.738688  	-0.002590 
2447.667504  	-0.002259 
2449.596320  	-0.002226 
2451.525136  	-0.002095 
2453.453952  	-0.002175 
2455.382768  	-0.002264 
2457.311584  	-0.002262 
2459.240400  	-0.002352 
2461.169216  	-0.002479 
2463.098032  	-0.002513 
2465.026848  	-0.002586 
2466.955664  	-0.002445 
2468.884480  	-0.002555 
2470.813296  	-0.002683 
2472.742112  	-0.002634 
2474.670928  	-0.002572 
2476.599744  	-0.002405 
2478.528560  	-0.002126 
2480.457376  	-0.002253 
2482.386192  	-0.002382 
2484.315008  	-0.002291 
2486.243824  	-0.002225 
2488.172640  	-0.002279 
2490.101456  	-0.002053 
2492.030272  	-0.001871 
2493.959088  	-0.001855 
2495.887904  	-0.001882 
2497.816720  	-0.001722 
2499.745536  	-0.001596 
2501.674352  	-0.001403 
2503.603168  	-0.001143 
2505.531984  	-0.001154 
2507.460800  	-0.001506 
2509.389616  	-0.001476 
2511.318432  	-0.001248 
2513.247248  	-0.001086 
2515.176064  	-0.001172 
2517.104880  	-0.001134 
2519.033696  	-0.001179 
2520.962512  	-0.001209 
2522.891328  	-0.001115 
2524.820144  	-0.001083 
2526.748960  	-0.001190 
2528.677776  	-0.001010 
2530.606592  	-0.000826 
2532.535408  	-0.000719 
2534.464224  	-0.000718 
2536.393040  	-0.000721 
2538.321856  	-0.000707 
2540.250672  	-0.000497 
2542.179488  	-0.000416 
2544.108304  	-0.000470 
2546.037120  	-0.000428 
2547.965936  	-0.000378 
2549.894752  	-0.000352 
2551.823568  	-0.000243 
2553.752384  	0.000052 
2555.681200  	0.000424 
2557.610016  	0.000315 
2559.538832  	0.000263 
2561.467648  	0.000497 
2563.396464  	0.000783 
2565.325280  	0.000789 
2567.254096  	0.000623 
2569.182912  	0.000554 
2571.111728  	0.000748 
2573.040544  	0.000825 
2574.969360  	0.000962 
2576.898176  	0.001250 
2578.826992  	0.001205 
2580.755808  	0.001191 
2582.684624  	0.001421 
2584.613440  	0.001346 
2586.542256  	0.001317 
2588.471072  	0.001517 
2590.399888  	0.001635 
2592.328704  	0.001643 
2594.257520  	0.001521 
2596.186336  	0.001519 
2598.115152  	0.001768 
2600.043968  	0.001840 
2601.972784  	0.001975 
2603.901600  	0.002021 
2605.830416  	0.002171 
2607.759232  	0.002319 
2609.688048  	0.002325 
2611.616864  	0.002378 
2613.545680  	0.002606 
2615.474496  	0.002730 
2617.403312  	0.002805 
2619.332128  	0.002905 
2621.260944  	0.002991 
2623.189760  	0.003094 
2625.118576  	0.003228 
2627.047392  	0.003155 
2628.976208  	0.003209 
2630.905024  	0.003251 
2632.833840  	0.003257 
2634.762656  	0.003425 
2636.691472  	0.003582 
2638.620288  	0.003592 
2640.549104  	0.003697 
2642.477920  	0.003844 
2644.406736  	0.003978 
2646.335552  	0.003988 
2648.264368  	0.004096 
2650.193184  	0.004216 
2652.122000  	0.004414 
2654.050816  	0.004627 
2655.979632  	0.004799 
2657.908448  	0.004845 
2659.837264  	0.004958 
2661.766080  	0.005116 
2663.694896  	0.005265 
2665.623712  	0.005312 
2667.552528  	0.005467 
2669.481344  	0.005742 
2671.410160  	0.005835 
2673.338976  	0.005926 
2675.267792  	0.006161 
2677.196608  	0.006371 
2679.125424  	0.006562 
2681.054240  	0.006691 
2682.983056  	0.006749 
2684.911872  	0.006830 
2686.840688  	0.006944 
2688.769504  	0.007042 
2690.698320  	0.007163 
2692.627136  	0.007222 
2694.555952  	0.007337 
2696.484768  	0.007342 
2698.413584  	0.007330 
2700.342400  	0.007468 
2702.271216  	0.007746 
2704.200032  	0.007870 
2706.128848  	0.007879 
2708.057664  	0.007900 
2709.986480  	0.008008 
2711.915296  	0.008168 
2713.844112  	0.008398 
2715.772928  	0.008515 
2717.701744  	0.008697 
2719.630560  	0.008951 
2721.559376  	0.009132 
2723.488192  	0.009308 
2725.417008  	0.009524 
2727.345824  	0.009676 
2729.274640  	0.009702 
2731.203456  	0.009845 
2733.132272  	0.010124 
2735.061088  	0.010323 
2736.989904  	0.010410 
2738.918720  	0.010489 
2740.847536  	0.010597 
2742.776352  	0.010586 
2744.705168  	0.010633 
2746.633984  	0.010725 
2748.562800  	0.010834 
2750.491616  	0.010910 
2752.420432  	0.011077 
2754.349248  	0.011131 
2756.278064  	0.011071 
2758.206880  	0.010903 
2760.135696  	0.010823 
2762.064512  	0.010884 
2763.993328  	0.010992 
2765.922144  	0.011003 
2767.850960  	0.010996 
2769.779776  	0.011080 
2771.708592  	0.011078 
2773.637408  	0.010963 
2775.566224  	0.011021 
2777.495040  	0.010988 
2779.423856  	0.011044 
2781.352672  	0.011136 
2783.281488  	0.011082 
2785.210304  	0.011066 
2787.139120  	0.011108 
2789.067936  	0.011175 
2790.996752  	0.011243 
2792.925568  	0.011133 
2794.854384  	0.011087 
2796.783200  	0.011117 
2798.712016  	0.011080 
2800.640832  	0.010972 
2802.569648  	0.011030 
2804.498464  	0.011247 
2806.427280  	0.011190 
2808.356096  	0.011023 
2810.284912  	0.011132 
2812.213728  	0.011164 
2814.142544  	0.011055 
2816.071360  	0.011027 
2818.000176  	0.010906 
2819.928992  	0.010801 
2821.857808  	0.010749 
2823.786624  	0.010683 
2825.715440  	0.010659 
2827.644256  	0.010491 
2829.573072  	0.010335 
2831.501888  	0.010066 
2833.430704  	0.009694 
2835.359520  	0.009400 
2837.288336  	0.009123 
2839.217152  	0.008804 
2841.145968  	0.008538 
2843.074784  	0.008311 
2845.003600  	0.008012 
2846.932416  	0.007863 
2848.861232  	0.007758 
2850.790048  	0.007365 
2852.718864  	0.006750 
2854.647680  	0.006199 
2856.576496  	0.005491 
2858.505312  	0.004793 
2860.434128  	0.004223 
2862.362944  	0.003503 
2864.291760  	0.002815 
2866.220576  	0.002225 
2868.149392  	0.001844 
2870.078208  	0.001560 
2872.007024  	0.001472 
2873.935840  	0.001621 
2875.864656  	0.001735 
2877.793472  	0.001629 
2879.722288  	0.001392 
2881.651104  	0.001032 
2883.579920  	0.000926 
2885.508736  	0.001100 
2887.437552  	0.001370 
2889.366368  	0.001424 
2891.295184  	0.001222 
2893.224000  	0.001102 
2895.152816  	0.001180 
2897.081632  	0.000834 
2899.010448  	-0.000797 
2900.939264  	-0.002224 
2902.868080  	-0.000949 
2904.796896  	0.000482 
2906.725712  	0.001182 
2908.654528  	0.001865 
2910.583344  	0.002369 
2912.512160  	0.003146 
2914.440976  	0.004509 
2916.369792  	0.005552 
2918.298608  	0.006121 
2920.227424  	0.006644 
2922.156240  	0.007321 
2924.085056  	0.008058 
2926.013872  	0.008908 
2927.942688  	0.009788 
2929.871504  	0.010619 
2931.800320  	0.011476 
2933.729136  	0.012191 
2935.657952  	0.012672 
2937.586768  	0.013323 
2939.515584  	0.013958 
2941.444400  	0.014199 
2943.373216  	0.014230 
2945.302032  	0.014501 
2947.230848  	0.014795 
2949.159664  	0.014594 
2951.088480  	0.014082 
2953.017296  	0.013579 
2954.946112  	0.013036 
2956.874928  	0.012366 
2958.803744  	0.011532 
2960.732560  	0.011035 
2962.661376  	0.010415 
2964.590192  	0.009438 
2966.519008  	0.008196 
2968.447824  	0.007155 
2970.376640  	0.006301 
2972.305456  	0.005811 
2974.234272  	0.006012 
2976.163088  	0.006245 
2978.091904  	0.006218 
2980.020720  	0.006264 
2981.949536  	0.006541 
2983.878352  	0.006359 
2985.807168  	0.005452 
2987.735984  	0.004501 
2989.664800  	0.004717 
2991.593616  	0.007706 
2993.522432  	0.009773 
2995.451248  	0.010383 
2997.380064  	0.011248 
2999.308880  	0.012386 
3001.237696  	0.013739 
3003.166512  	0.015336 
3005.095328  	0.016771 
3007.024144  	0.018102 
3008.952960  	0.019546 
3010.881776  	0.021062 
3012.810592  	0.022564 
3014.739408  	0.023873 
3016.668224  	0.024991 
3018.597040  	0.026164 
3020.525856  	0.027441 
3022.454672  	0.028664 
3024.383488  	0.029839 
3026.312304  	0.030956 
3028.241120  	0.032111 
3030.169936  	0.033074 
3032.098752  	0.033774 
3034.027568  	0.034508 
3035.956384  	0.035449 
3037.885200  	0.036490 
3039.814016  	0.037240 
3041.742832  	0.037898 
3043.671648  	0.038532 
3045.600464  	0.039205 
3047.529280  	0.039695 
3049.458096  	0.040160 
3051.386912  	0.040883 
3053.315728  	0.041605 
3055.244544  	0.042328 
3057.173360  	0.042973 
3059.102176  	0.043607 
3061.030992  	0.044440 
3062.959808  	0.045303 
3064.888624  	0.046017 
3066.817440  	0.046754 
3068.746256  	0.047601 
3070.675072  	0.048386 
3072.603888  	0.049258 
3074.532704  	0.050206 
3076.461520  	0.050926 
3078.390336  	0.051577 
3080.319152  	0.052412 
3082.247968  	0.053380 
3084.176784  	0.054345 
3086.105600  	0.055198 
3088.034416  	0.055946 
3089.963232  	0.056769 
3091.892048  	0.057528 
3093.820864  	0.058475 
3095.749680  	0.059347 
3097.678496  	0.060176 
3099.607312  	0.061064 
3101.536128  	0.061978 
3103.464944  	0.062893 
3105.393760  	0.063646 
3107.322576  	0.064480 
3109.251392  	0.065371 
3111.180208  	0.066215 
3113.109024  	0.066907 
3115.037840  	0.067577 
3116.966656  	0.068447 
3118.895472  	0.069082 
3120.824288  	0.069831 
3122.753104  	0.070565 
3124.681920  	0.071146 
3126.610736  	0.071760 
3128.539552  	0.072434 
3130.468368  	0.073141 
3132.397184  	0.073755 
3134.326000  	0.074514 
3136.254816  	0.075280 
3138.183632  	0.075829 
3140.112448  	0.076502 
3142.041264  	0.077288 
3143.970080  	0.078003 
3145.898896  	0.078634 
3147.827712  	0.079206 
3149.756528  	0.079705 
3151.685344  	0.080242 
3153.614160  	0.081057 
3155.542976  	0.081905 
3157.471792  	0.082763 
3159.400608  	0.083566 
3161.329424  	0.084250 
3163.258240  	0.084743 
3165.187056  	0.085227 
3167.115872  	0.085761 
3169.044688  	0.086224 
3170.973504  	0.086810 
3172.902320  	0.087276 
3174.831136  	0.087838 
3176.759952  	0.088338 
3178.688768  	0.088555 
3180.617584  	0.088821 
3182.546400  	0.089189 
3184.475216  	0.089560 
3186.404032  	0.089641 
3188.332848  	0.089891 
3190.261664  	0.090162 
3192.190480  	0.090406 
3194.119296  	0.090560 
3196.048112  	0.090730 
3197.976928  	0.090425 
3199.905744  	0.090285 
3201.834560  	0.090335 
3203.763376  	0.090429 
3205.692192  	0.090534 
3207.621008  	0.090391 
3209.549824  	0.090264 
3211.478640  	0.090270 
3213.407456  	0.090128 
3215.336272  	0.089827 
3217.265088  	0.089769 
3219.193904  	0.089591 
3221.122720  	0.089333 
3223.051536  	0.089176 
3224.980352  	0.089110 
3226.909168  	0.089002 
3228.837984  	0.088643 
3230.766800  	0.088453 
3232.695616  	0.088474 
3234.624432  	0.088338 
3236.553248  	0.088077 
3238.482064  	0.088071 
3240.410880  	0.088170 
3242.339696  	0.088261 
3244.268512  	0.088190 
3246.197328  	0.088276 
3248.126144  	0.088779 
3250.054960  	0.088937 
3251.983776  	0.088970 
3253.912592  	0.089222 
3255.841408  	0.089588 
3257.770224  	0.089967 
3259.699040  	0.090285 
3261.627856  	0.090421 
3263.556672  	0.090509 
3265.485488  	0.090719 
3267.414304  	0.090977 
3269.343120  	0.091437 
3271.271936  	0.091726 
3273.200752  	0.091683 
3275.129568  	0.091706 
3277.058384  	0.092008 
3278.987200  	0.092303 
3280.916016  	0.092476 
3282.844832  	0.092758 
3284.773648  	0.093093 
3286.702464  	0.093367 
3288.631280  	0.093491 
3290.560096  	0.093728 
3292.488912  	0.094075 
3294.417728  	0.094358 
3296.346544  	0.094769 
3298.275360  	0.094959 
3300.204176  	0.095084 
3302.132992  	0.095517 
3304.061808  	0.095985 
3305.990624  	0.096505 
3307.919440  	0.096878 
3309.848256  	0.097080 
3311.777072  	0.097347 
3313.705888  	0.097542 
3315.634704  	0.098042 
3317.563520  	0.098653 
3319.492336  	0.099001 
3321.421152  	0.099080 
3323.349968  	0.099218 
3325.278784  	0.099373 
3327.207600  	0.099466 
3329.136416  	0.099516 
3331.065232  	0.099615 
3332.994048  	0.099720 
3334.922864  	0.099782 
3336.851680  	0.099823 
3338.780496  	0.099790 
3340.709312  	0.099756 
3342.638128  	0.099575 
3344.566944  	0.099100 
3346.495760  	0.098667 
3348.424576  	0.098360 
3350.353392  	0.098150 
3352.282208  	0.097861 
3354.211024  	0.097518 
3356.139840  	0.097250 
3358.068656  	0.097096 
3359.997472  	0.096754 
3361.926288  	0.096233 
3363.855104  	0.095773 
3365.783920  	0.095296 
3367.712736  	0.094846 
3369.641552  	0.094366 
3371.570368  	0.093843 
3373.499184  	0.093515 
3375.428000  	0.093160 
3377.356816  	0.092754 
3379.285632  	0.092486 
3381.214448  	0.092168 
3383.143264  	0.091771 
3385.072080  	0.091221 
3387.000896  	0.090768 
3388.929712  	0.090475 
3390.858528  	0.090176 
3392.787344  	0.089671 
3394.716160  	0.089116 
3396.644976  	0.088733 
3398.573792  	0.088433 
3400.502608  	0.088035 
3402.431424  	0.087424 
3404.360240  	0.086702 
3406.289056  	0.086164 
3408.217872  	0.085664 
3410.146688  	0.085146 
3412.075504  	0.084808 
3414.004320  	0.084304 
3415.933136  	0.083685 
3417.861952  	0.083077 
3419.790768  	0.082602 
3421.719584  	0.081986 
3423.648400  	0.081377 
3425.577216  	0.080713 
3427.506032  	0.080188 
3429.434848  	0.079660 
3431.363664  	0.078938 
3433.292480  	0.078288 
3435.221296  	0.077626 
3437.150112  	0.077067 
3439.078928  	0.076792 
3441.007744  	0.076423 
3442.936560  	0.075799 
3444.865376  	0.075395 
3446.794192  	0.074312 
3448.723008  	0.073218 
3450.651824  	0.072740 
3452.580640  	0.071936 
3454.509456  	0.071413 
3456.438272  	0.070899 
3458.367088  	0.070251 
3460.295904  	0.069491 
3462.224720  	0.068513 
3464.153536  	0.067662 
3466.082352  	0.066953 
3468.011168  	0.066037 
3469.939984  	0.065140 
3471.868800  	0.064482 
3473.797616  	0.063677 
3475.726432  	0.062632 
3477.655248  	0.061879 
3479.584064  	0.061461 
3481.512880  	0.060482 
3483.441696  	0.059236 
3485.370512  	0.058562 
3487.299328  	0.057432 
3489.228144  	0.056472 
3491.156960  	0.055822 
3493.085776  	0.055150 
3495.014592  	0.054299 
3496.943408  	0.053642 
3498.872224  	0.053371 
3500.801040  	0.053302 
3502.729856  	0.052393 
3504.658672  	0.050888 
3506.587488  	0.050418 
3508.516304  	0.050057 
3510.445120  	0.048779 
3512.373936  	0.047703 
3514.302752  	0.047190 
3516.231568  	0.046938 
3518.160384  	0.046283 
3520.089200  	0.045639 
3522.018016  	0.045591 
3523.946832  	0.045434 
3525.875648  	0.044540 
3527.804464  	0.042980 
3529.733280  	0.041783 
3531.662096  	0.041116 
3533.590912  	0.040670 
3535.519728  	0.040564 
3537.448544  	0.039799 
3539.377360  	0.038694 
3541.306176  	0.038365 
3543.234992  	0.038574 
3545.163808  	0.038678 
3547.092624  	0.037373 
3549.021440  	0.035776 
3550.950256  	0.035046 
3552.879072  	0.033968 
3554.807888  	0.033286 
3556.736704  	0.032931 
3558.665520  	0.032683 
3560.594336  	0.032353 
3562.523152  	0.031805 
3564.451968  	0.032299 
3566.380784  	0.032267 
3568.309600  	0.029263 
3570.238416  	0.027905 
3572.167232  	0.027572 
3574.096048  	0.026839 
3576.024864  	0.025914 
3577.953680  	0.025332 
3579.882496  	0.024731 
3581.811312  	0.024188 
3583.740128  	0.024084 
3585.668944  	0.024592 
3587.597760  	0.022645 
3589.526576  	0.020295 
3591.455392  	0.020015 
3593.384208  	0.019727 
3595.313024  	0.018463 
3597.241840  	0.016815 
3599.170656  	0.015341 
3601.099472  	0.014318 
3603.028288  	0.014474 
3604.957104  	0.014820 
3606.885920  	0.014331 
3608.814736  	0.012671 
3610.743552  	0.012377 
3612.672368  	0.011359 
3614.601184  	0.009826 
3616.530000  	0.009848 
3618.458816  	0.007705 
3620.387632  	0.005268 
3622.316448  	0.005484 
3624.245264  	0.005868 
3626.174080  	0.006353 
3628.102896  	0.003519 
3630.031712  	-0.001453 
3631.960528  	0.000616 
3633.889344  	0.000312 
3635.818160  	-0.000658 
3637.746976  	-0.001503 
3639.675792  	-0.001761 
3641.604608  	-0.001570 
3643.533424  	-0.001505 
3645.462240  	-0.001531 
3647.391056  	-0.004640 
3649.319872  	-0.010246 
3651.248688  	-0.012438 
3653.177504  	-0.009142 
3655.106320  	-0.009162 
3657.035136  	-0.012607 
3658.963952  	-0.012380 
3660.892768  	-0.011958 
3662.821584  	-0.012186 
3664.750400  	-0.012025 
3666.679216  	-0.011599 
3668.608032  	-0.013532 
3670.536848  	-0.017582 
3672.465664  	-0.015004 
3674.394480  	-0.016029 
3676.323296  	-0.021913 
3678.252112  	-0.017426 
3680.180928  	-0.015478 
3682.109744  	-0.014812 
3684.038560  	-0.014621 
3685.967376  	-0.014119 
3687.896192  	-0.016838 
3689.825008  	-0.020616 
3691.753824  	-0.019514 
3693.682640  	-0.016667 
3695.611456  	-0.015334 
3697.540272  	-0.014630 
3699.469088  	-0.013719 
3701.397904  	-0.014725 
3703.326720  	-0.014912 
3705.255536  	-0.013112 
3707.184352  	-0.012362 
3709.113168  	-0.013658 
3711.041984  	-0.016227 
3712.970800  	-0.015860 
3714.899616  	-0.012650 
3716.828432  	-0.011586 
3718.757248  	-0.012071 
3720.686064  	-0.012710 
3722.614880  	-0.013218 
3724.543696  	-0.012532 
3726.472512  	-0.013218 
3728.401328  	-0.013175 
3730.330144  	-0.013110 
3732.258960  	-0.014585 
3734.187776  	-0.013559 
3736.116592  	-0.015110 
3738.045408  	-0.014969 
3739.974224  	-0.012552 
3741.903040  	-0.010655 
3743.831856  	-0.013511 
3745.760672  	-0.016619 
3747.689488  	-0.013483 
3749.618304  	-0.015804 
3751.547120  	-0.018455 
3753.475936  	-0.016385 
3755.404752  	-0.013162 
3757.333568  	-0.012760 
3759.262384  	-0.013879 
3761.191200  	-0.013935 
3763.120016  	-0.011604 
3765.048832  	-0.012099 
3766.977648  	-0.012015 
3768.906464  	-0.012628 
3770.835280  	-0.014102 
3772.764096  	-0.012445 
3774.692912  	-0.011435 
3776.621728  	-0.011201 
3778.550544  	-0.012655 
3780.479360  	-0.014228 
3782.408176  	-0.012577 
3784.336992  	-0.012448 
3786.265808  	-0.012263 
3788.194624  	-0.011838 
3790.123440  	-0.012009 
3792.052256  	-0.012173 
3793.981072  	-0.011763 
3795.909888  	-0.012685 
3797.838704  	-0.012448 
3799.767520  	-0.012451 
3801.696336  	-0.017556 
3803.625152  	-0.015611 
3805.553968  	-0.013456 
3807.482784  	-0.015408 
3809.411600  	-0.013082 
3811.340416  	-0.011486 
3813.269232  	-0.010882 
3815.198048  	-0.013715 
3817.126864  	-0.015855 
3819.055680  	-0.013431 
3820.984496  	-0.016780 
3822.913312  	-0.015507 
3824.842128  	-0.012114 
3826.770944  	-0.013042 
3828.699760  	-0.012500 
3830.628576  	-0.012298 
3832.557392  	-0.013095 
3834.486208  	-0.012883 
3836.415024  	-0.014036 
3838.343840  	-0.016007 
3840.272656  	-0.015338 
3842.201472  	-0.013749 
3844.130288  	-0.013622 
3846.059104  	-0.012378 
3847.987920  	-0.010974 
3849.916736  	-0.010340 
3851.845552  	-0.012256 
3853.774368  	-0.019315 
3855.703184  	-0.016812 
3857.632000  	-0.012927 
3859.560816  	-0.010949 
3861.489632  	-0.011062 
3863.418448  	-0.012346 
3865.347264  	-0.013228 
3867.276080  	-0.011154 
3869.204896  	-0.012258 
3871.133712  	-0.013552 
3873.062528  	-0.012356 
3874.991344  	-0.013165 
3876.920160  	-0.010940 
3878.848976  	-0.010148 
3880.777792  	-0.011705 
3882.706608  	-0.010763 
3884.635424  	-0.010676 
3886.564240  	-0.012709 
3888.493056  	-0.011320 
3890.421872  	-0.011741 
3892.350688  	-0.013093 
3894.279504  	-0.011572 
3896.208320  	-0.010114 
3898.137136  	-0.009889 
3900.065952  	-0.010576 
3901.994768  	-0.010537 
3903.923584  	-0.012065 
3905.852400  	-0.013035 
3907.781216  	-0.012126 
3909.710032  	-0.011413 
3911.638848  	-0.011152 
3913.567664  	-0.010593 
3915.496480  	-0.009934 
3917.425296  	-0.010514 
3919.354112  	-0.011105 
3921.282928  	-0.010927 
3923.211744  	-0.010191 
3925.140560  	-0.010504 
3927.069376  	-0.010765 
3928.998192  	-0.010616 
3930.927008  	-0.010126 
3932.855824  	-0.010250 
3934.784640  	-0.010806 
3936.713456  	-0.010956 
3938.642272  	-0.010720 
3940.571088  	-0.010114 
3942.499904  	-0.010001 
3944.428720  	-0.010291 
3946.357536  	-0.009947 
3948.286352  	-0.009884 
3950.215168  	-0.010555 
3952.143984  	-0.011178 
3954.072800  	-0.011340 
3956.001616  	-0.011108 
3957.930432  	-0.011076 
3959.859248  	-0.010859 
3961.788064  	-0.010754 
3963.716880  	-0.011216 
3965.645696  	-0.011481 
3967.574512  	-0.011257 
3969.503328  	-0.010968 
3971.432144  	-0.011001 
3973.360960  	-0.011128 
3975.289776  	-0.010931 
3977.218592  	-0.010790 
3979.147408  	-0.010861 
3981.076224  	-0.010946 
3983.005040  	-0.010985 
3984.933856  	-0.011024 
3986.862672  	-0.011072 
3988.791488  	-0.010813 
3990.720304  	-0.010595 
3992.649120  	-0.010804 
3994.577936  	-0.011065 
3996.506752  	-0.010998 
3998.435568  	-0.011005 
4000.364384  	-0.011069 