##TITLE=No Description
##DATA TYPE=INFRARED SPECTRUM
##XUNITS=1/CM
##YUNITS=Abs
399.264912  	0.649177 
401.193728  	0.622516 
403.122544  	0.613853 
405.051360  	0.607320 
406.980176  	0.604940 
408.908992  	0.607597 
410.837808  	0.622466 
412.766624  	0.619966 
414.695440  	0.609976 
416.624256  	0.588785 
418.553072  	0.598144 
420.481888  	0.590969 
422.410704  	0.582605 
424.339520  	0.577304 
426.268336  	0.579914 
428.197152  	0.574400 
430.125968  	0.573661 
432.054784  	0.576970 
433.983600  	0.579282 
435.912416  	0.570393 
437.841232  	0.567019 
439.770048  	0.561222 
441.698864  	0.563050 
443.627680  	0.555020 
445.556496  	0.555088 
447.485312  	0.555539 
449.414128  	0.555258 
451.342944  	0.554564 
453.271760  	0.555938 
455.200576  	0.549130 
457.129392  	0.547752 
459.058208  	0.547745 
460.987024  	0.554554 
462.915840  	0.551647 
464.844656  	0.549000 
466.773472  	0.541803 
468.702288  	0.542196 
470.631104  	0.545405 
472.559920  	0.548200 
474.488736  	0.539064 
476.417552  	0.541128 
478.346368  	0.541972 
480.275184  	0.544460 
482.204000  	0.538050 
484.132816  	0.533291 
486.061632  	0.535179 
487.990448  	0.538313 
489.919264  	0.533506 
491.848080  	0.536144 
493.776896  	0.536294 
495.705712  	0.533427 
497.634528  	0.529828 
499.563344  	0.532696 
501.492160  	0.529057 
503.420976  	0.528496 
505.349792  	0.525310 
507.278608  	0.526079 
509.207424  	0.526025 
511.136240  	0.527170 
513.065056  	0.526246 
514.993872  	0.529112 
516.922688  	0.530291 
518.851504  	0.531252 
520.780320  	0.529456 
522.709136  	0.531085 
524.637952  	0.531367 
526.566768  	0.529866 
528.495584  	0.525354 
530.424400  	0.524087 
532.353216  	0.520835 
534.282032  	0.517744 
536.210848  	0.510716 
538.139664  	0.505159 
540.068480  	0.500337 
541.997296  	0.497049 
543.926112  	0.492081 
545.854928  	0.488193 
547.783744  	0.483976 
549.712560  	0.481645 
551.641376  	0.477336 
553.570192  	0.473434 
555.499008  	0.469572 
557.427824  	0.467577 
559.356640  	0.464780 
561.285456  	0.461339 
563.214272  	0.456122 
565.143088  	0.453156 
567.071904  	0.449510 
569.000720  	0.446480 
570.929536  	0.444372 
572.858352  	0.443006 
574.787168  	0.439809 
576.715984  	0.436841 
578.644800  	0.433153 
580.573616  	0.430083 
582.502432  	0.425035 
584.431248  	0.421695 
586.360064  	0.417996 
588.288880  	0.415747 
590.217696  	0.413509 
592.146512  	0.411139 
594.075328  	0.407512 
596.004144  	0.406347 
597.932960  	0.404142 
599.861776  	0.402837 
601.790592  	0.400425 
603.719408  	0.398851 
605.648224  	0.397401 
607.577040  	0.396082 
609.505856  	0.394108 
611.434672  	0.392550 
613.363488  	0.390156 
615.292304  	0.388295 
617.221120  	0.385946 
619.149936  	0.385007 
621.078752  	0.384204 
623.007568  	0.383385 
624.936384  	0.381418 
626.865200  	0.379037 
628.794016  	0.377114 
630.722832  	0.376629 
632.651648  	0.376023 
634.580464  	0.375825 
636.509280  	0.375328 
638.438096  	0.374208 
640.366912  	0.372658 
642.295728  	0.371674 
644.224544  	0.369166 
646.153360  	0.365700 
648.082176  	0.360889 
650.010992  	0.357199 
651.939808  	0.353687 
653.868624  	0.349942 
655.797440  	0.345946 
657.726256  	0.342585 
659.655072  	0.338833 
661.583888  	0.335120 
663.512704  	0.331766 
665.441520  	0.329245 
667.370336  	0.321394 
669.299152  	0.314792 
671.227968  	0.314705 
673.156784  	0.312055 
675.085600  	0.308813 
677.014416  	0.305793 
678.943232  	0.303361 
680.872048  	0.301727 
682.800864  	0.299694 
684.729680  	0.298093 
686.658496  	0.296631 
688.587312  	0.295881 
690.516128  	0.294368 
692.444944  	0.292636 
694.373760  	0.291334 
696.302576  	0.289824 
698.231392  	0.287821 
700.160208  	0.285380 
702.089024  	0.282750 
704.017840  	0.280466 
705.946656  	0.278150 
707.875472  	0.275881 
709.804288  	0.273300 
711.733104  	0.271182 
713.661920  	0.269375 
715.590736  	0.268113 
717.519552  	0.267021 
719.448368  	0.266231 
721.377184  	0.266032 
723.306000  	0.266583 
725.234816  	0.266352 
727.163632  	0.265553 
729.092448  	0.263067 
731.021264  	0.259853 
732.950080  	0.256844 
734.878896  	0.253947 
736.807712  	0.251024 
738.736528  	0.248317 
740.665344  	0.246237 
742.594160  	0.244237 
744.522976  	0.242615 
746.451792  	0.240934 
748.380608  	0.238972 
750.309424  	0.237481 
752.238240  	0.236257 
754.167056  	0.235138 
756.095872  	0.233596 
758.024688  	0.232459 
759.953504  	0.231836 
761.882320  	0.232078 
763.811136  	0.232103 
765.739952  	0.231026 
767.668768  	0.228526 
769.597584  	0.225621 
771.526400  	0.224063 
773.455216  	0.224909 
775.384032  	0.227381 
777.312848  	0.230986 
779.241664  	0.233916 
781.170480  	0.233776 
783.099296  	0.230353 
785.028112  	0.225318 
786.956928  	0.219768 
788.885744  	0.215142 
790.814560  	0.211687 
792.743376  	0.209178 
794.672192  	0.207459 
796.601008  	0.206323 
798.529824  	0.203461 
800.458640  	0.199253 
802.387456  	0.195664 
804.316272  	0.193060 
806.245088  	0.191373 
808.173904  	0.190634 
810.102720  	0.189803 
812.031536  	0.189077 
813.960352  	0.189096 
815.889168  	0.189006 
817.817984  	0.188704 
819.746800  	0.188579 
821.675616  	0.188332 
823.604432  	0.187697 
825.533248  	0.187021 
827.462064  	0.186379 
829.390880  	0.185099 
831.319696  	0.183443 
833.248512  	0.181657 
835.177328  	0.179509 
837.106144  	0.176855 
839.034960  	0.173679 
840.963776  	0.170451 
842.892592  	0.167204 
844.821408  	0.163840 
846.750224  	0.160652 
848.679040  	0.157943 
850.607856  	0.155645 
852.536672  	0.153537 
854.465488  	0.151731 
856.394304  	0.150203 
858.323120  	0.148615 
860.251936  	0.146563 
862.180752  	0.144216 
864.109568  	0.141679 
866.038384  	0.139044 
867.967200  	0.136886 
869.896016  	0.134797 
871.824832  	0.133690 
873.753648  	0.133281 
875.682464  	0.133430 
877.611280  	0.133478 
879.540096  	0.133820 
881.468912  	0.135428 
883.397728  	0.136707 
885.326544  	0.137428 
887.255360  	0.137532 
889.184176  	0.136447 
891.112992  	0.134469 
893.041808  	0.132834 
894.970624  	0.130479 
896.899440  	0.127277 
898.828256  	0.123488 
900.757072  	0.119838 
902.685888  	0.116841 
904.614704  	0.115051 
906.543520  	0.114937 
908.472336  	0.116078 
910.401152  	0.118097 
912.329968  	0.120319 
914.258784  	0.122773 
916.187600  	0.125147 
918.116416  	0.127249 
920.045232  	0.128612 
921.974048  	0.129296 
923.902864  	0.129575 
925.831680  	0.129376 
927.760496  	0.129334 
929.689312  	0.129522 
931.618128  	0.130075 
933.546944  	0.130428 
935.475760  	0.130608 
937.404576  	0.130525 
939.333392  	0.129999 
941.262208  	0.129678 
943.191024  	0.130468 
945.119840  	0.133080 
947.048656  	0.137694 
948.977472  	0.143795 
950.906288  	0.151274 
952.835104  	0.159969 
954.763920  	0.169359 
956.692736  	0.178470 
958.621552  	0.186426 
960.550368  	0.192107 
962.479184  	0.195112 
964.408000  	0.194783 
966.336816  	0.190984 
968.265632  	0.184088 
970.194448  	0.174390 
972.123264  	0.162946 
974.052080  	0.151116 
975.980896  	0.139285 
977.909712  	0.128013 
979.838528  	0.117789 
981.767344  	0.109135 
983.696160  	0.102591 
985.624976  	0.098063 
987.553792  	0.095835 
989.482608  	0.096189 
991.411424  	0.098487 
993.340240  	0.102265 
995.269056  	0.107073 
997.197872  	0.112296 
999.126688  	0.117775 
1001.055504  	0.123355 
1002.984320  	0.128991 
1004.913136  	0.134483 
1006.841952  	0.139734 
1008.770768  	0.144203 
1010.699584  	0.147469 
1012.628400  	0.149324 
1014.557216  	0.149927 
1016.486032  	0.149881 
1018.414848  	0.149605 
1020.343664  	0.149134 
1022.272480  	0.148296 
1024.201296  	0.146977 
1026.130112  	0.143680 
1028.058928  	0.142308 
1029.987744  	0.145069 
1031.916560  	0.146588 
1033.845376  	0.147199 
1035.774192  	0.147894 
1037.703008  	0.149922 
1039.631824  	0.155152 
1041.560640  	0.162488 
1043.489456  	0.172350 
1045.418272  	0.184873 
1047.347088  	0.199141 
1049.275904  	0.212603 
1051.204720  	0.223798 
1053.133536  	0.231602 
1055.062352  	0.235641 
1056.991168  	0.236092 
1058.919984  	0.237865 
1060.848800  	0.239854 
1062.777616  	0.238195 
1064.706432  	0.232781 
1066.635248  	0.228377 
1068.564064  	0.227532 
1070.492880  	0.223734 
1072.421696  	0.216735 
1074.350512  	0.211786 
1076.279328  	0.210334 
1078.208144  	0.212362 
1080.136960  	0.217158 
1082.065776  	0.223226 
1083.994592  	0.227648 
1085.923408  	0.229671 
1087.852224  	0.228781 
1089.781040  	0.225778 
1091.709856  	0.221559 
1093.638672  	0.214900 
1095.567488  	0.205142 
1097.496304  	0.194238 
1099.425120  	0.182747 
1101.353936  	0.170746 
1103.282752  	0.159069 
1105.211568  	0.148326 
1107.140384  	0.137974 
1109.069200  	0.128026 
1110.998016  	0.118800 
1112.926832  	0.110390 
1114.855648  	0.102875 
1116.784464  	0.095806 
1118.713280  	0.089024 
1120.642096  	0.082866 
1122.570912  	0.076997 
1124.499728  	0.071179 
1126.428544  	0.066169 
1128.357360  	0.061663 
1130.286176  	0.058022 
1132.214992  	0.054921 
1134.143808  	0.052369 
1136.072624  	0.050195 
1138.001440  	0.048418 
1139.930256  	0.046335 
1141.859072  	0.044205 
1143.787888  	0.042109 
1145.716704  	0.040119 
1147.645520  	0.038137 
1149.574336  	0.036576 
1151.503152  	0.035142 
1153.431968  	0.034384 
1155.360784  	0.034364 
1157.289600  	0.035104 
1159.218416  	0.036306 
1161.147232  	0.038021 
1163.076048  	0.039796 
1165.004864  	0.041779 
1166.933680  	0.043557 
1168.862496  	0.045630 
1170.791312  	0.047726 
1172.720128  	0.050224 
1174.648944  	0.052580 
1176.577760  	0.054917 
1178.506576  	0.057029 
1180.435392  	0.059357 
1182.364208  	0.061786 
1184.293024  	0.064546 
1186.221840  	0.067328 
1188.150656  	0.070684 
1190.079472  	0.074477 
1192.008288  	0.078961 
1193.937104  	0.084651 
1195.865920  	0.091368 
1197.794736  	0.098526 
1199.723552  	0.106262 
1201.652368  	0.114201 
1203.581184  	0.122275 
1205.510000  	0.130152 
1207.438816  	0.137780 
1209.367632  	0.145073 
1211.296448  	0.151630 
1213.225264  	0.156948 
1215.154080  	0.161070 
1217.082896  	0.164175 
1219.011712  	0.166293 
1220.940528  	0.168014 
1222.869344  	0.169090 
1224.798160  	0.169255 
1226.726976  	0.168918 
1228.655792  	0.168231 
1230.584608  	0.166943 
1232.513424  	0.165153 
1234.442240  	0.162807 
1236.371056  	0.159755 
1238.299872  	0.155559 
1240.228688  	0.149111 
1242.157504  	0.142736 
1244.086320  	0.137371 
1246.015136  	0.130558 
1247.943952  	0.122920 
1249.872768  	0.115415 
1251.801584  	0.109098 
1253.730400  	0.102722 
1255.659216  	0.096365 
1257.588032  	0.090419 
1259.516848  	0.084635 
1261.445664  	0.079291 
1263.374480  	0.074468 
1265.303296  	0.070468 
1267.232112  	0.067230 
1269.160928  	0.064823 
1271.089744  	0.063002 
1273.018560  	0.061992 
1274.947376  	0.061686 
1276.876192  	0.061898 
1278.805008  	0.061752 
1280.733824  	0.060913 
1282.662640  	0.059194 
1284.591456  	0.056985 
1286.520272  	0.055094 
1288.449088  	0.053836 
1290.377904  	0.053007 
1292.306720  	0.052995 
1294.235536  	0.053009 
1296.164352  	0.052297 
1298.093168  	0.050279 
1300.021984  	0.047710 
1301.950800  	0.044923 
1303.879616  	0.042323 
1305.808432  	0.039443 
1307.737248  	0.036609 
1309.666064  	0.034001 
1311.594880  	0.032285 
1313.523696  	0.030794 
1315.452512  	0.029695 
1317.381328  	0.029115 
1319.310144  	0.028957 
1321.238960  	0.028886 
1323.167776  	0.029376 
1325.096592  	0.030066 
1327.025408  	0.030615 
1328.954224  	0.030550 
1330.883040  	0.030083 
1332.811856  	0.029263 
1334.740672  	0.028930 
1336.669488  	0.029234 
1338.598304  	0.029740 
1340.527120  	0.028229 
1342.455936  	0.026218 
1344.384752  	0.025648 
1346.313568  	0.025827 
1348.242384  	0.026269 
1350.171200  	0.027351 
1352.100016  	0.028861 
1354.028832  	0.030689 
1355.957648  	0.032162 
1357.886464  	0.033990 
1359.815280  	0.036274 
1361.744096  	0.038636 
1363.672912  	0.039353 
1365.601728  	0.040027 
1367.530544  	0.041315 
1369.459360  	0.041610 
1371.388176  	0.041459 
1373.316992  	0.040512 
1375.245808  	0.037273 
1377.174624  	0.034884 
1379.103440  	0.032245 
1381.032256  	0.029478 
1382.961072  	0.027406 
1384.889888  	0.026999 
1386.818704  	0.026611 
1388.747520  	0.024689 
1390.676336  	0.022563 
1392.605152  	0.019752 
1394.533968  	0.017936 
1396.462784  	0.020672 
1398.391600  	0.021714 
1400.320416  	0.020507 
1402.249232  	0.020800 
1404.178048  	0.021413 
1406.106864  	0.021719 
1408.035680  	0.023438 
1409.964496  	0.025914 
1411.893312  	0.028553 
1413.822128  	0.031325 
1415.750944  	0.035319 
1417.679760  	0.037988 
1419.608576  	0.036718 
1421.537392  	0.037091 
1423.466208  	0.037847 
1425.395024  	0.036240 
1427.323840  	0.035308 
1429.252656  	0.033054 
1431.181472  	0.031406 
1433.110288  	0.031612 
1435.039104  	0.032457 
1436.967920  	0.031049 
1438.896736  	0.031393 
1440.825552  	0.032767 
1442.754368  	0.033363 
1444.683184  	0.033656 
1446.612000  	0.033615 
1448.540816  	0.032195 
1450.469632  	0.032673 
1452.398448  	0.033697 
1454.327264  	0.035029 
1456.256080  	0.034301 
1458.184896  	0.030576 
1460.113712  	0.032339 
1462.042528  	0.034402 
1463.971344  	0.034054 
1465.900160  	0.033844 
1467.828976  	0.036669 
1469.757792  	0.040131 
1471.686608  	0.042534 
1473.615424  	0.046503 
1475.544240  	0.052682 
1477.473056  	0.057624 
1479.401872  	0.061315 
1481.330688  	0.064138 
1483.259504  	0.066080 
1485.188320  	0.067931 
1487.117136  	0.067929 
1489.045952  	0.067119 
1490.974768  	0.063578 
1492.903584  	0.062152 
1494.832400  	0.060050 
1496.761216  	0.053480 
1498.690032  	0.047820 
1500.618848  	0.045025 
1502.547664  	0.042372 
1504.476480  	0.038928 
1506.405296  	0.032330 
1508.334112  	0.030433 
1510.262928  	0.031398 
1512.191744  	0.029725 
1514.120560  	0.029032 
1516.049376  	0.028360 
1517.978192  	0.026852 
1519.907008  	0.028243 
1521.835824  	0.027197 
1523.764640  	0.031396 
1525.693456  	0.035860 
1527.622272  	0.037672 
1529.551088  	0.038553 
1531.479904  	0.038996 
1533.408720  	0.034808 
1535.337536  	0.032178 
1537.266352  	0.031459 
1539.195168  	0.023346 
1541.123984  	0.015688 
1543.052800  	0.019606 
1544.981616  	0.020905 
1546.910432  	0.020685 
1548.839248  	0.021466 
1550.768064  	0.021299 
1552.696880  	0.021043 
1554.625696  	0.020971 
1556.554512  	0.020917 
1558.483328  	0.016703 
1560.412144  	0.019246 
1562.340960  	0.027687 
1564.269776  	0.031601 
1566.198592  	0.036205 
1568.127408  	0.039834 
1570.056224  	0.042978 
1571.985040  	0.049822 
1573.913856  	0.054740 
1575.842672  	0.054327 
1577.771488  	0.056480 
1579.700304  	0.059599 
1581.629120  	0.059819 
1583.557936  	0.059291 
1585.486752  	0.059846 
1587.415568  	0.061809 
1589.344384  	0.065511 
1591.273200  	0.070561 
1593.202016  	0.076685 
1595.130832  	0.083080 
1597.059648  	0.090157 
1598.988464  	0.096508 
1600.917280  	0.101834 
1602.846096  	0.105278 
1604.774912  	0.107700 
1606.703728  	0.108201 
1608.632544  	0.107183 
1610.561360  	0.105445 
1612.490176  	0.104595 
1614.418992  	0.103148 
1616.347808  	0.098913 
1618.276624  	0.099044 
1620.205440  	0.104802 
1622.134256  	0.107383 
1624.063072  	0.110861 
1625.991888  	0.117706 
1627.920704  	0.124648 
1629.849520  	0.133356 
1631.778336  	0.143085 
1633.707152  	0.149826 
1635.635968  	0.153955 
1637.564784  	0.162941 
1639.493600  	0.173039 
1641.422416  	0.179352 
1643.351232  	0.184618 
1645.280048  	0.185791 
1647.208864  	0.183039 
1649.137680  	0.185844 
1651.066496  	0.189825 
1652.995312  	0.180084 
1654.924128  	0.177842 
1656.852944  	0.182521 
1658.781760  	0.182386 
1660.710576  	0.179606 
1662.639392  	0.173742 
1664.568208  	0.170024 
1666.497024  	0.169720 
1668.425840  	0.164359 
1670.354656  	0.155951 
1672.283472  	0.154097 
1674.212288  	0.152217 
1676.141104  	0.146496 
1678.069920  	0.147302 
1679.998736  	0.147338 
1681.927552  	0.146282 
1683.856368  	0.139085 
1685.785184  	0.136901 
1687.714000  	0.141725 
1689.642816  	0.141690 
1691.571632  	0.140221 
1693.500448  	0.140444 
1695.429264  	0.135855 
1697.358080  	0.132180 
1699.286896  	0.131038 
1701.215712  	0.123936 
1703.144528  	0.125239 
1705.073344  	0.121618 
1707.002160  	0.115846 
1708.930976  	0.113234 
1710.859792  	0.108493 
1712.788608  	0.102789 
1714.717424  	0.094954 
1716.646240  	0.083833 
1718.575056  	0.070212 
1720.503872  	0.064348 
1722.432688  	0.059003 
1724.361504  	0.050301 
1726.290320  	0.043218 
1728.219136  	0.037510 
1730.147952  	0.032297 
1732.076768  	0.027730 
1734.005584  	0.019841 
1735.934400  	0.014940 
1737.863216  	0.015701 
1739.792032  	0.011704 
1741.720848  	0.010774 
1743.649664  	0.010503 
1745.578480  	0.009589 
1747.507296  	0.007813 
1749.436112  	0.006767 
1751.364928  	0.005472 
1753.293744  	0.004952 
1755.222560  	0.005006 
1757.151376  	0.004368 
1759.080192  	0.003862 
1761.009008  	0.003016 
1762.937824  	0.001326 
1764.866640  	0.002124 
1766.795456  	0.002769 
1768.724272  	0.002233 
1770.653088  	-0.000172 
1772.581904  	-0.003198 
1774.510720  	-0.001540 
1776.439536  	0.000400 
1778.368352  	0.000752 
1780.297168  	0.000275 
1782.225984  	-0.000234 
1784.154800  	0.000371 
1786.083616  	-0.000309 
1788.012432  	0.000033 
1789.941248  	0.000429 
1791.870064  	-0.001375 
1793.798880  	-0.002710 
1795.727696  	-0.000728 
1797.656512  	-0.000961 
1799.585328  	-0.001316 
1801.514144  	-0.001003 
1803.442960  	-0.001071 
1805.371776  	-0.001631 
1807.300592  	-0.001226 
1809.229408  	-0.001863 
1811.158224  	-0.002333 
1813.087040  	-0.002448 
1815.015856  	-0.002010 
1816.944672  	-0.001921 
1818.873488  	-0.001863 
1820.802304  	-0.002039 
1822.731120  	-0.001380 
1824.659936  	-0.002215 
1826.588752  	-0.002820 
1828.517568  	-0.003384 
1830.446384  	-0.003979 
1832.375200  	-0.002952 
1834.304016  	-0.002060 
1836.232832  	-0.002282 
1838.161648  	-0.002289 
1840.090464  	-0.002279 
1842.019280  	-0.001348 
1843.948096  	-0.002946 
1845.876912  	-0.003085 
1847.805728  	-0.002272 
1849.734544  	-0.002421 
1851.663360  	-0.002657 
1853.592176  	-0.002634 
1855.520992  	-0.003012 
1857.449808  	-0.002729 
1859.378624  	-0.002793 
1861.307440  	-0.002773 
1863.236256  	-0.003050 
1865.165072  	-0.002740 
1867.093888  	-0.003034 
1869.022704  	-0.003612 
1870.951520  	-0.003899 
1872.880336  	-0.003222 
1874.809152  	-0.003321 
1876.737968  	-0.003230 
1878.666784  	-0.003442 
1880.595600  	-0.002898 
1882.524416  	-0.003213 
1884.453232  	-0.003227 
1886.382048  	-0.003325 
1888.310864  	-0.003138 
1890.239680  	-0.003884 
1892.168496  	-0.003504 
1894.097312  	-0.003170 
1896.026128  	-0.003060 
1897.954944  	-0.003309 
1899.883760  	-0.002919 
1901.812576  	-0.003166 
1903.741392  	-0.003306 
1905.670208  	-0.003531 
1907.599024  	-0.002924 
1909.527840  	-0.003157 
1911.456656  	-0.003032 
1913.385472  	-0.003121 
1915.314288  	-0.002689 
1917.243104  	-0.003523 
1919.171920  	-0.003711 
1921.100736  	-0.003202 
1923.029552  	-0.002900 
1924.958368  	-0.003603 
1926.887184  	-0.003233 
1928.816000  	-0.003504 
1930.744816  	-0.003470 
1932.673632  	-0.003518 
1934.602448  	-0.002846 
1936.531264  	-0.002972 
1938.460080  	-0.002630 
1940.388896  	-0.002863 
1942.317712  	-0.003097 
1944.246528  	-0.003535 
1946.175344  	-0.002292 
1948.104160  	-0.002701 
1950.032976  	-0.003104 
1951.961792  	-0.003566 
1953.890608  	-0.003231 
1955.819424  	-0.003940 
1957.748240  	-0.003388 
1959.677056  	-0.003764 
1961.605872  	-0.003460 
1963.534688  	-0.003356 
1965.463504  	-0.002424 
1967.392320  	-0.003343 
1969.321136  	-0.002801 
1971.249952  	-0.002225 
1973.178768  	-0.001357 
1975.107584  	-0.001958 
1977.036400  	-0.000962 
1978.965216  	-0.000175 
1980.894032  	-0.001066 
1982.822848  	-0.002240 
1984.751664  	-0.001244 
1986.680480  	-0.002510 
1988.609296  	-0.002303 
1990.538112  	-0.002922 
1992.466928  	-0.001966 
1994.395744  	-0.002304 
1996.324560  	-0.002245 
1998.253376  	-0.003122 
2000.182192  	-0.003191 
2002.111008  	-0.003278 
2004.039824  	-0.002093 
2005.968640  	-0.002195 
2007.897456  	-0.001533 
2009.826272  	-0.002541 
2011.755088  	-0.002627 
2013.683904  	-0.002474 
2015.612720  	-0.001345 
2017.541536  	-0.002165 
2019.470352  	-0.001195 
2021.399168  	-0.002110 
2023.327984  	-0.002703 
2025.256800  	-0.001547 
2027.185616  	0.000536 
2029.114432  	0.000110 
2031.043248  	0.000007 
2032.972064  	-0.000473 
2034.900880  	-0.000295 
2036.829696  	-0.001275 
2038.758512  	-0.001065 
2040.687328  	-0.001154 
2042.616144  	-0.000806 
2044.544960  	-0.000955 
2046.473776  	-0.000707 
2048.402592  	-0.001483 
2050.331408  	-0.001599 
2052.260224  	-0.002215 
2054.189040  	-0.002722 
2056.117856  	-0.003224 
2058.046672  	-0.002902 
2059.975488  	-0.003215 
2061.904304  	-0.003018 
2063.833120  	-0.002852 
2065.761936  	-0.002674 
2067.690752  	-0.003251 
2069.619568  	-0.002626 
2071.548384  	-0.002140 
2073.477200  	-0.002143 
2075.406016  	-0.002338 
2077.334832  	-0.002194 
2079.263648  	-0.002591 
2081.192464  	-0.002339 
2083.121280  	-0.002186 
2085.050096  	-0.002441 
2086.978912  	-0.002601 
2088.907728  	-0.001945 
2090.836544  	-0.002308 
2092.765360  	-0.002138 
2094.694176  	-0.002222 
2096.622992  	-0.002090 
2098.551808  	-0.002019 
2100.480624  	-0.001831 
2102.409440  	-0.002118 
2104.338256  	-0.002448 
2106.267072  	-0.002562 
2108.195888  	-0.002259 
2110.124704  	-0.002329 
2112.053520  	-0.001896 
2113.982336  	-0.002085 
2115.911152  	-0.002071 
2117.839968  	-0.002006 
2119.768784  	-0.001994 
2121.697600  	-0.002258 
2123.626416  	-0.002455 
2125.555232  	-0.003054 
2127.484048  	-0.002394 
2129.412864  	-0.002423 
2131.341680  	-0.002766 
2133.270496  	-0.003014 
2135.199312  	-0.002432 
2137.128128  	-0.002237 
2139.056944  	-0.001944 
2140.985760  	-0.001890 
2142.914576  	-0.001047 
2144.843392  	-0.000984 
2146.772208  	-0.001176 
2148.701024  	-0.001233 
2150.629840  	-0.001068 
2152.558656  	-0.001839 
2154.487472  	-0.001734 
2156.416288  	-0.001776 
2158.345104  	-0.000520 
2160.273920  	0.001948 
2162.202736  	0.003556 
2164.131552  	0.002486 
2166.060368  	0.001243 
2167.989184  	0.001286 
2169.918000  	0.002323 
2171.846816  	0.000538 
2173.775632  	0.000518 
2175.704448  	0.001714 
2177.633264  	0.001744 
2179.562080  	0.000486 
2181.490896  	0.000766 
2183.419712  	-0.000152 
2185.348528  	0.000074 
2187.277344  	0.000097 
2189.206160  	-0.000114 
2191.134976  	-0.000408 
2193.063792  	-0.000494 
2194.992608  	-0.001172 
2196.921424  	-0.000985 
2198.850240  	-0.000406 
2200.779056  	-0.000145 
2202.707872  	-0.000719 
2204.636688  	-0.000870 
2206.565504  	-0.000511 
2208.494320  	-0.000431 
2210.423136  	-0.000558 
2212.351952  	-0.000847 
2214.280768  	-0.001844 
2216.209584  	-0.001848 
2218.138400  	-0.001867 
2220.067216  	-0.001473 
2221.996032  	-0.000924 
2223.924848  	-0.000854 
2225.853664  	-0.001069 
2227.782480  	-0.001113 
2229.711296  	-0.001787 
2231.640112  	-0.002246 
2233.568928  	-0.002740 
2235.497744  	-0.002131 
2237.426560  	-0.002069 
2239.355376  	-0.002090 
2241.284192  	-0.002006 
2243.213008  	-0.001972 
2245.141824  	-0.002524 
2247.070640  	-0.002270 
2248.999456  	-0.002118 
2250.928272  	-0.002273 
2252.857088  	-0.002570 
2254.785904  	-0.002608 
2256.714720  	-0.003127 
2258.643536  	-0.003184 
2260.572352  	-0.003317 
2262.501168  	-0.003441 
2264.429984  	-0.003701 
2266.358800  	-0.003512 
2268.287616  	-0.003573 
2270.216432  	-0.003231 
2272.145248  	-0.002957 
2274.074064  	-0.003164 
2276.002880  	-0.003294 
2277.931696  	-0.002930 
2279.860512  	-0.002858 
2281.789328  	-0.002588 
2283.718144  	-0.002380 
2285.646960  	-0.002117 
2287.575776  	-0.001936 
2289.504592  	-0.002236 
2291.433408  	-0.002840 
2293.362224  	-0.002831 
2295.291040  	-0.002416 
2297.219856  	-0.001920 
2299.148672  	-0.001914 
2301.077488  	-0.001966 
2303.006304  	-0.002047 
2304.935120  	-0.002024 
2306.863936  	-0.002101 
2308.792752  	-0.002210 
2310.721568  	-0.002968 
2312.650384  	-0.003767 
2314.579200  	-0.004489 
2316.508016  	-0.005642 
2318.436832  	-0.007068 
2320.365648  	-0.008845 
2322.294464  	-0.010816 
2324.223280  	-0.012690 
2326.152096  	-0.014944 
2328.080912  	-0.016914 
2330.009728  	-0.019233 
2331.938544  	-0.021313 
2333.867360  	-0.022878 
2335.796176  	-0.024328 
2337.724992  	-0.025464 
2339.653808  	-0.025735 
2341.582624  	-0.026057 
2343.511440  	-0.024883 
2345.440256  	-0.021723 
2347.369072  	-0.015703 
2349.297888  	-0.012101 
2351.226704  	-0.015351 
2353.155520  	-0.022042 
2355.084336  	-0.027212 
2357.013152  	-0.031235 
2358.941968  	-0.033453 
2360.870784  	-0.034558 
2362.799600  	-0.033562 
2364.728416  	-0.031569 
2366.657232  	-0.028280 
2368.586048  	-0.023903 
2370.514864  	-0.019765 
2372.443680  	-0.016091 
2374.372496  	-0.012194 
2376.301312  	-0.008645 
2378.230128  	-0.005705 
2380.158944  	-0.003798 
2382.087760  	-0.002907 
2384.016576  	-0.002804 
2385.945392  	-0.002935 
2387.874208  	-0.003145 
2389.803024  	-0.003326 
2391.731840  	-0.003640 
2393.660656  	-0.003692 
2395.589472  	-0.003646 
2397.518288  	-0.003403 
2399.447104  	-0.003429 
2401.375920  	-0.003511 
2403.304736  	-0.003700 
2405.233552  	-0.003608 
2407.162368  	-0.003635 
2409.091184  	-0.003633 
2411.020000  	-0.003685 
2412.948816  	-0.003633 
2414.877632  	-0.003470 
2416.806448  	-0.003189 
2418.735264  	-0.003387 
2420.664080  	-0.003525 
2422.592896  	-0.003408 
2424.521712  	-0.003333 
2426.450528  	-0.003625 
2428.379344  	-0.003553 
2430.308160  	-0.003271 
2432.236976  	-0.003044 
2434.165792  	-0.003086 
2436.094608  	-0.003172 
2438.023424  	-0.003010 
2439.952240  	-0.002768 
2441.881056  	-0.002792 
2443.809872  	-0.002950 
2445.738688  	-0.002929 
2447.667504  	-0.002680 
2449.596320  	-0.002683 
2451.525136  	-0.002517 
2453.453952  	-0.002412 
2455.382768  	-0.002602 
2457.311584  	-0.002853 
2459.240400  	-0.002922 
2461.169216  	-0.002847 
2463.098032  	-0.002906 
2465.026848  	-0.002892 
2466.955664  	-0.002883 
2468.884480  	-0.003176 
2470.813296  	-0.003165 
2472.742112  	-0.003082 
2474.670928  	-0.002977 
2476.599744  	-0.002943 
2478.528560  	-0.002888 
2480.457376  	-0.002983 
2482.386192  	-0.002965 
2484.315008  	-0.002824 
2486.243824  	-0.002734 
2488.172640  	-0.002751 
2490.101456  	-0.002499 
2492.030272  	-0.002369 
2493.959088  	-0.002337 
2495.887904  	-0.002427 
2497.816720  	-0.002357 
2499.745536  	-0.002217 
2501.674352  	-0.001952 
2503.603168  	-0.001679 
2505.531984  	-0.001737 
2507.460800  	-0.002123 
2509.389616  	-0.002035 
2511.318432  	-0.001840 
2513.247248  	-0.001803 
2515.176064  	-0.001798 
2517.104880  	-0.001790 
2519.033696  	-0.001981 
2520.962512  	-0.001803 
2522.891328  	-0.001652 
2524.820144  	-0.001725 
2526.748960  	-0.001828 
2528.677776  	-0.001572 
2530.606592  	-0.001524 
2532.535408  	-0.001768 
2534.464224  	-0.001713 
2536.393040  	-0.001442 
2538.321856  	-0.001258 
2540.250672  	-0.001249 
2542.179488  	-0.001373 
2544.108304  	-0.001196 
2546.037120  	-0.001056 
2547.965936  	-0.001127 
2549.894752  	-0.001094 
2551.823568  	-0.001044 
2553.752384  	-0.000901 
2555.681200  	-0.000419 
2557.610016  	-0.000289 
2559.538832  	-0.000286 
2561.467648  	-0.000138 
2563.396464  	0.000010 
2565.325280  	-0.000135 
2567.254096  	-0.000232 
2569.182912  	-0.000135 
2571.111728  	0.000023 
2573.040544  	-0.000007 
2574.969360  	0.000049 
2576.898176  	0.000242 
2578.826992  	0.000240 
2580.755808  	0.000232 
2582.684624  	0.000259 
2584.613440  	0.000160 
2586.542256  	0.000138 
2588.471072  	0.000304 
2590.399888  	0.000507 
2592.328704  	0.000614 
2594.257520  	0.000661 
2596.186336  	0.000633 
2598.115152  	0.000717 
2600.043968  	0.000820 
2601.972784  	0.000964 
2603.901600  	0.000922 
2605.830416  	0.000959 
2607.759232  	0.001093 
2609.688048  	0.001258 
2611.616864  	0.001432 
2613.545680  	0.001513 
2615.474496  	0.001523 
2617.403312  	0.001663 
2619.332128  	0.001707 
2621.260944  	0.001616 
2623.189760  	0.001622 
2625.118576  	0.001743 
2627.047392  	0.001770 
2628.976208  	0.001940 
2630.905024  	0.002023 
2632.833840  	0.002109 
2634.762656  	0.002268 
2636.691472  	0.002286 
2638.620288  	0.002342 
2640.549104  	0.002487 
2642.477920  	0.002575 
2644.406736  	0.002747 
2646.335552  	0.002829 
2648.264368  	0.002879 
2650.193184  	0.002937 
2652.122000  	0.003043 
2654.050816  	0.003157 
2655.979632  	0.003225 
2657.908448  	0.003281 
2659.837264  	0.003431 
2661.766080  	0.003555 
2663.694896  	0.003640 
2665.623712  	0.003657 
2667.552528  	0.003837 
2669.481344  	0.004093 
2671.410160  	0.004216 
2673.338976  	0.004182 
2675.267792  	0.004300 
2677.196608  	0.004521 
2679.125424  	0.004653 
2681.054240  	0.004783 
2682.983056  	0.004911 
2684.911872  	0.005021 
2686.840688  	0.005115 
2688.769504  	0.005118 
2690.698320  	0.005104 
2692.627136  	0.005188 
2694.555952  	0.005339 
2696.484768  	0.005396 
2698.413584  	0.005408 
2700.342400  	0.005436 
2702.271216  	0.005649 
2704.200032  	0.005880 
2706.128848  	0.005978 
2708.057664  	0.005918 
2709.986480  	0.005968 
2711.915296  	0.006083 
2713.844112  	0.006200 
2715.772928  	0.006314 
2717.701744  	0.006428 
2719.630560  	0.006653 
2721.559376  	0.006749 
2723.488192  	0.006900 
2725.417008  	0.007248 
2727.345824  	0.007342 
2729.274640  	0.007294 
2731.203456  	0.007388 
2733.132272  	0.007664 
2735.061088  	0.007841 
2736.989904  	0.007928 
2738.918720  	0.007953 
2740.847536  	0.007948 
2742.776352  	0.007997 
2744.705168  	0.008110 
2746.633984  	0.008260 
2748.562800  	0.008314 
2750.491616  	0.008413 
2752.420432  	0.008564 
2754.349248  	0.008434 
2756.278064  	0.008335 
2758.206880  	0.008211 
2760.135696  	0.008146 
2762.064512  	0.008223 
2763.993328  	0.008289 
2765.922144  	0.008294 
2767.850960  	0.008354 
2769.779776  	0.008385 
2771.708592  	0.008393 
2773.637408  	0.008317 
2775.566224  	0.008287 
2777.495040  	0.008283 
2779.423856  	0.008410 
2781.352672  	0.008526 
2783.281488  	0.008435 
2785.210304  	0.008373 
2787.139120  	0.008512 
2789.067936  	0.008622 
2790.996752  	0.008586 
2792.925568  	0.008489 
2794.854384  	0.008495 
2796.783200  	0.008459 
2798.712016  	0.008476 
2800.640832  	0.008468 
2802.569648  	0.008487 
2804.498464  	0.008509 
2806.427280  	0.008492 
2808.356096  	0.008418 
2810.284912  	0.008434 
2812.213728  	0.008464 
2814.142544  	0.008409 
2816.071360  	0.008373 
2818.000176  	0.008182 
2819.928992  	0.008070 
2821.857808  	0.008066 
2823.786624  	0.007978 
2825.715440  	0.007829 
2827.644256  	0.007655 
2829.573072  	0.007514 
2831.501888  	0.007290 
2833.430704  	0.007043 
2835.359520  	0.006852 
2837.288336  	0.006660 
2839.217152  	0.006430 
2841.145968  	0.006148 
2843.074784  	0.005799 
2845.003600  	0.005480 
2846.932416  	0.005295 
2848.861232  	0.005196 
2850.790048  	0.004892 
2852.718864  	0.004331 
2854.647680  	0.003720 
2856.576496  	0.002978 
2858.505312  	0.002201 
2860.434128  	0.001490 
2862.362944  	0.000663 
2864.291760  	-0.000156 
2866.220576  	-0.000816 
2868.149392  	-0.001237 
2870.078208  	-0.001510 
2872.007024  	-0.001596 
2873.935840  	-0.001554 
2875.864656  	-0.001577 
2877.793472  	-0.001807 
2879.722288  	-0.002080 
2881.651104  	-0.002552 
2883.579920  	-0.002764 
2885.508736  	-0.002563 
2887.437552  	-0.002316 
2889.366368  	-0.002255 
2891.295184  	-0.002406 
2893.224000  	-0.002567 
2895.152816  	-0.002627 
2897.081632  	-0.002902 
2899.010448  	-0.004552 
2900.939264  	-0.006012 
2902.868080  	-0.004613 
2904.796896  	-0.003187 
2906.725712  	-0.002530 
2908.654528  	-0.001874 
2910.583344  	-0.001413 
2912.512160  	-0.000679 
2914.440976  	0.000632 
2916.369792  	0.001663 
2918.298608  	0.002362 
2920.227424  	0.002816 
2922.156240  	0.003299 
2924.085056  	0.003952 
2926.013872  	0.004708 
2927.942688  	0.005354 
2929.871504  	0.006061 
2931.800320  	0.006951 
2933.729136  	0.007598 
2935.657952  	0.007955 
2937.586768  	0.008487 
2939.515584  	0.009067 
2941.444400  	0.009262 
2943.373216  	0.009303 
2945.302032  	0.009560 
2947.230848  	0.009734 
2949.159664  	0.009460 
2951.088480  	0.008933 
2953.017296  	0.008411 
2954.946112  	0.007814 
2956.874928  	0.007074 
2958.803744  	0.006301 
2960.732560  	0.005719 
2962.661376  	0.005073 
2964.590192  	0.004212 
2966.519008  	0.003088 
2968.447824  	0.001976 
2970.376640  	0.001053 
2972.305456  	0.000566 
2974.234272  	0.000785 
2976.163088  	0.001188 
2978.091904  	0.001232 
2980.020720  	0.001106 
2981.949536  	0.001325 
2983.878352  	0.001266 
2985.807168  	0.000356 
2987.735984  	-0.000695 
2989.664800  	-0.000409 
2991.593616  	0.002624 
2993.522432  	0.004630 
2995.451248  	0.005217 
2997.380064  	0.006029 
2999.308880  	0.007244 
3001.237696  	0.008600 
3003.166512  	0.010035 
3005.095328  	0.011402 
3007.024144  	0.012772 
3008.952960  	0.014205 
3010.881776  	0.015756 
3012.810592  	0.017185 
3014.739408  	0.018412 
3016.668224  	0.019512 
3018.597040  	0.020782 
3020.525856  	0.022039 
3022.454672  	0.023079 
3024.383488  	0.024150 
3026.312304  	0.025177 
3028.241120  	0.026287 
3030.169936  	0.027331 
3032.098752  	0.028060 
3034.027568  	0.028719 
3035.956384  	0.029579 
3037.885200  	0.030384 
3039.814016  	0.031026 
3041.742832  	0.031713 
3043.671648  	0.032220 
3045.600464  	0.032801 
3047.529280  	0.033289 
3049.458096  	0.033756 
3051.386912  	0.034447 
3053.315728  	0.035060 
3055.244544  	0.035558 
3057.173360  	0.036174 
3059.102176  	0.036686 
3061.030992  	0.037267 
3062.959808  	0.038129 
3064.888624  	0.038856 
3066.817440  	0.039414 
3068.746256  	0.040206 
3070.675072  	0.040994 
3072.603888  	0.041590 
3074.532704  	0.042394 
3076.461520  	0.043284 
3078.390336  	0.044013 
3080.319152  	0.044602 
3082.247968  	0.045352 
3084.176784  	0.046149 
3086.105600  	0.047038 
3088.034416  	0.047719 
3089.963232  	0.048367 
3091.892048  	0.049091 
3093.820864  	0.049696 
3095.749680  	0.050341 
3097.678496  	0.051236 
3099.607312  	0.052118 
3101.536128  	0.052912 
3103.464944  	0.053783 
3105.393760  	0.054526 
3107.322576  	0.055185 
3109.251392  	0.056030 
3111.180208  	0.056710 
3113.109024  	0.057395 
3115.037840  	0.058063 
3116.966656  	0.058664 
3118.895472  	0.059384 
3120.824288  	0.060155 
3122.753104  	0.060796 
3124.681920  	0.061325 
3126.610736  	0.061862 
3128.539552  	0.062526 
3130.468368  	0.063214 
3132.397184  	0.063748 
3134.326000  	0.064434 
3136.254816  	0.065171 
3138.183632  	0.065936 
3140.112448  	0.066525 
3142.041264  	0.066989 
3143.970080  	0.067569 
3145.898896  	0.068213 
3147.827712  	0.068828 
3149.756528  	0.069402 
3151.685344  	0.070072 
3153.614160  	0.070894 
3155.542976  	0.071556 
3157.471792  	0.072145 
3159.400608  	0.073007 
3161.329424  	0.073635 
3163.258240  	0.074039 
3165.187056  	0.074653 
3167.115872  	0.075136 
3169.044688  	0.075455 
3170.973504  	0.075958 
3172.902320  	0.076521 
3174.831136  	0.077050 
3176.759952  	0.077624 
3178.688768  	0.077947 
3180.617584  	0.078412 
3182.546400  	0.078968 
3184.475216  	0.079178 
3186.404032  	0.079238 
3188.332848  	0.079540 
3190.261664  	0.079856 
3192.190480  	0.080020 
3194.119296  	0.080061 
3196.048112  	0.080326 
3197.976928  	0.080418 
3199.905744  	0.080424 
3201.834560  	0.080528 
3203.763376  	0.080571 
3205.692192  	0.080546 
3207.621008  	0.080467 
3209.549824  	0.080378 
3211.478640  	0.080317 
3213.407456  	0.080294 
3215.336272  	0.080245 
3217.265088  	0.080205 
3219.193904  	0.079964 
3221.122720  	0.079768 
3223.051536  	0.079731 
3224.980352  	0.079515 
3226.909168  	0.079185 
3228.837984  	0.078938 
3230.766800  	0.078949 
3232.695616  	0.079014 
3234.624432  	0.079065 
3236.553248  	0.078972 
3238.482064  	0.078940 
3240.410880  	0.078925 
3242.339696  	0.079048 
3244.268512  	0.078970 
3246.197328  	0.079019 
3248.126144  	0.079389 
3250.054960  	0.079565 
3251.983776  	0.079852 
3253.912592  	0.080153 
3255.841408  	0.080445 
3257.770224  	0.080576 
3259.699040  	0.080677 
3261.627856  	0.080986 
3263.556672  	0.081369 
3265.485488  	0.081471 
3267.414304  	0.081602 
3269.343120  	0.081979 
3271.271936  	0.082338 
3273.200752  	0.082342 
3275.129568  	0.082369 
3277.058384  	0.082829 
3278.987200  	0.083203 
3280.916016  	0.083492 
3282.844832  	0.083739 
3284.773648  	0.083920 
3286.702464  	0.084184 
3288.631280  	0.084382 
3290.560096  	0.084667 
3292.488912  	0.085113 
3294.417728  	0.085420 
3296.346544  	0.085706 
3298.275360  	0.085992 
3300.204176  	0.086422 
3302.132992  	0.086794 
3304.061808  	0.087048 
3305.990624  	0.087416 
3307.919440  	0.087761 
3309.848256  	0.088082 
3311.777072  	0.088492 
3313.705888  	0.088965 
3315.634704  	0.089658 
3317.563520  	0.090076 
3319.492336  	0.090264 
3321.421152  	0.090498 
3323.349968  	0.090798 
3325.278784  	0.090937 
3327.207600  	0.091103 
3329.136416  	0.091271 
3331.065232  	0.091576 
3332.994048  	0.091917 
3334.922864  	0.091976 
3336.851680  	0.092025 
3338.780496  	0.091903 
3340.709312  	0.091710 
3342.638128  	0.091618 
3344.566944  	0.091344 
3346.495760  	0.091093 
3348.424576  	0.090895 
3350.353392  	0.090670 
3352.282208  	0.090465 
3354.211024  	0.090254 
3356.139840  	0.090068 
3358.068656  	0.089908 
3359.997472  	0.089573 
3361.926288  	0.089070 
3363.855104  	0.088657 
3365.783920  	0.088360 
3367.712736  	0.087950 
3369.641552  	0.087634 
3371.570368  	0.087303 
3373.499184  	0.087070 
3375.428000  	0.086852 
3377.356816  	0.086421 
3379.285632  	0.086169 
3381.214448  	0.085909 
3383.143264  	0.085445 
3385.072080  	0.084863 
3387.000896  	0.084403 
3388.929712  	0.084210 
3390.858528  	0.084123 
3392.787344  	0.083649 
3394.716160  	0.083200 
3396.644976  	0.082940 
3398.573792  	0.082542 
3400.502608  	0.082112 
3402.431424  	0.081438 
3404.360240  	0.080996 
3406.289056  	0.080398 
3408.217872  	0.079859 
3410.146688  	0.079485 
3412.075504  	0.079203 
3414.004320  	0.078818 
3415.933136  	0.078413 
3417.861952  	0.077813 
3419.790768  	0.077207 
3421.719584  	0.076644 
3423.648400  	0.076230 
3425.577216  	0.075591 
3427.506032  	0.074928 
3429.434848  	0.074512 
3431.363664  	0.074059 
3433.292480  	0.073440 
3435.221296  	0.072784 
3437.150112  	0.072365 
3439.078928  	0.072103 
3441.007744  	0.071601 
3442.936560  	0.070937 
3444.865376  	0.070562 
3446.794192  	0.069759 
3448.723008  	0.068717 
3450.651824  	0.068128 
3452.580640  	0.067608 
3454.509456  	0.067138 
3456.438272  	0.066502 
3458.367088  	0.065940 
3460.295904  	0.065464 
3462.224720  	0.064613 
3464.153536  	0.063639 
3466.082352  	0.062904 
3468.011168  	0.061982 
3469.939984  	0.061136 
3471.868800  	0.060367 
3473.797616  	0.059567 
3475.726432  	0.058806 
3477.655248  	0.058235 
3479.584064  	0.057858 
3481.512880  	0.057081 
3483.441696  	0.055983 
3485.370512  	0.055446 
3487.299328  	0.054455 
3489.228144  	0.053531 
3491.156960  	0.052840 
3493.085776  	0.052039 
3495.014592  	0.051330 
3496.943408  	0.050585 
3498.872224  	0.050140 
3500.801040  	0.050168 
3502.729856  	0.049329 
3504.658672  	0.047856 
3506.587488  	0.047419 
3508.516304  	0.047106 
3510.445120  	0.046001 
3512.373936  	0.045003 
3514.302752  	0.044488 
3516.231568  	0.044194 
3518.160384  	0.043706 
3520.089200  	0.043113 
3522.018016  	0.042917 
3523.946832  	0.042909 
3525.875648  	0.042033 
3527.804464  	0.040362 
3529.733280  	0.039272 
3531.662096  	0.038733 
3533.590912  	0.038254 
3535.519728  	0.037997 
3537.448544  	0.037503 
3539.377360  	0.036588 
3541.306176  	0.036128 
3543.234992  	0.036305 
3545.163808  	0.036562 
3547.092624  	0.035489 
3549.021440  	0.033957 
3550.950256  	0.033250 
3552.879072  	0.032338 
3554.807888  	0.031567 
3556.736704  	0.031126 
3558.665520  	0.031043 
3560.594336  	0.030569 
3562.523152  	0.029662 
3564.451968  	0.029894 
3566.380784  	0.030151 
3568.309600  	0.027913 
3570.238416  	0.026701 
3572.167232  	0.026417 
3574.096048  	0.025486 
3576.024864  	0.024519 
3577.953680  	0.024138 
3579.882496  	0.023572 
3581.811312  	0.022882 
3583.740128  	0.022255 
3585.668944  	0.022368 
3587.597760  	0.021074 
3589.526576  	0.019265 
3591.455392  	0.018808 
3593.384208  	0.018407 
3595.313024  	0.017351 
3597.241840  	0.016005 
3599.170656  	0.014721 
3601.099472  	0.013528 
3603.028288  	0.013371 
3604.957104  	0.013579 
3606.885920  	0.013089 
3608.814736  	0.011855 
3610.743552  	0.011549 
3612.672368  	0.010396 
3614.601184  	0.008974 
3616.530000  	0.008850 
3618.458816  	0.006894 
3620.387632  	0.005010 
3622.316448  	0.004987 
3624.245264  	0.004839 
3626.174080  	0.004793 
3628.102896  	0.002343 
3630.031712  	-0.001067 
3631.960528  	0.000616 
3633.889344  	0.000422 
3635.818160  	-0.000455 
3637.746976  	-0.001244 
3639.675792  	-0.001543 
3641.604608  	-0.001671 
3643.533424  	-0.002040 
3645.462240  	-0.002780 
3647.391056  	-0.006105 
3649.319872  	-0.010870 
3651.248688  	-0.011812 
3653.177504  	-0.008744 
3655.106320  	-0.009071 
3657.035136  	-0.011564 
3658.963952  	-0.011185 
3660.892768  	-0.011076 
3662.821584  	-0.011328 
3664.750400  	-0.011394 
3666.679216  	-0.011573 
3668.608032  	-0.013723 
3670.536848  	-0.016686 
3672.465664  	-0.014585 
3674.394480  	-0.016130 
3676.323296  	-0.020427 
3678.252112  	-0.016431 
3680.180928  	-0.014500 
3682.109744  	-0.013751 
3684.038560  	-0.014007 
3685.967376  	-0.014146 
3687.896192  	-0.017040 
3689.825008  	-0.019774 
3691.753824  	-0.018072 
3693.682640  	-0.015502 
3695.611456  	-0.014514 
3697.540272  	-0.013869 
3699.469088  	-0.013283 
3701.397904  	-0.014103 
3703.326720  	-0.013730 
3705.255536  	-0.012330 
3707.184352  	-0.012166 
3709.113168  	-0.013973 
3711.041984  	-0.016071 
3712.970800  	-0.014448 
3714.899616  	-0.011228 
3716.828432  	-0.010612 
3718.757248  	-0.011361 
3720.686064  	-0.012061 
3722.614880  	-0.012448 
3724.543696  	-0.011746 
3726.472512  	-0.012026 
3728.401328  	-0.012002 
3730.330144  	-0.012692 
3732.258960  	-0.014551 
3734.187776  	-0.013749 
3736.116592  	-0.014238 
3738.045408  	-0.013661 
3739.974224  	-0.011652 
3741.903040  	-0.010565 
3743.831856  	-0.013070 
3745.760672  	-0.014800 
3747.689488  	-0.013292 
3749.618304  	-0.016183 
3751.547120  	-0.017808 
3753.475936  	-0.014927 
3755.404752  	-0.012171 
3757.333568  	-0.011884 
3759.262384  	-0.012783 
3761.191200  	-0.012247 
3763.120016  	-0.010343 
3765.048832  	-0.011124 
3766.977648  	-0.011197 
3768.906464  	-0.011956 
3770.835280  	-0.012550 
3772.764096  	-0.010913 
3774.692912  	-0.010254 
3776.621728  	-0.010275 
3778.550544  	-0.011736 
3780.479360  	-0.012477 
3782.408176  	-0.010819 
3784.336992  	-0.011049 
3786.265808  	-0.011012 
3788.194624  	-0.010587 
3790.123440  	-0.010614 
3792.052256  	-0.010648 
3793.981072  	-0.010533 
3795.909888  	-0.012055 
3797.838704  	-0.012155 
3799.767520  	-0.012659 
3801.696336  	-0.016474 
3803.625152  	-0.014070 
3805.553968  	-0.012871 
3807.482784  	-0.014448 
3809.411600  	-0.012046 
3811.340416  	-0.010560 
3813.269232  	-0.010322 
3815.198048  	-0.013083 
3817.126864  	-0.014301 
3819.055680  	-0.013009 
3820.984496  	-0.016333 
3822.913312  	-0.014456 
3824.842128  	-0.011703 
3826.770944  	-0.012153 
3828.699760  	-0.011465 
3830.628576  	-0.011711 
3832.557392  	-0.012500 
3834.486208  	-0.012513 
3836.415024  	-0.013760 
3838.343840  	-0.015091 
3840.272656  	-0.013894 
3842.201472  	-0.012416 
3844.130288  	-0.012050 
3846.059104  	-0.010908 
3847.987920  	-0.010221 
3849.916736  	-0.010476 
3851.845552  	-0.013180 
3853.774368  	-0.018240 
3855.703184  	-0.014806 
3857.632000  	-0.011710 
3859.560816  	-0.010499 
3861.489632  	-0.010620 
3863.418448  	-0.011490 
3865.347264  	-0.011997 
3867.276080  	-0.010559 
3869.204896  	-0.011799 
3871.133712  	-0.011984 
3873.062528  	-0.011178 
3874.991344  	-0.011742 
3876.920160  	-0.010066 
3878.848976  	-0.009717 
3880.777792  	-0.010546 
3882.706608  	-0.009686 
3884.635424  	-0.010188 
3886.564240  	-0.011489 
3888.493056  	-0.010339 
3890.421872  	-0.010937 
3892.350688  	-0.011703 
3894.279504  	-0.010265 
3896.208320  	-0.009382 
3898.137136  	-0.009550 
3900.065952  	-0.009894 
3901.994768  	-0.009681 
3903.923584  	-0.010542 
3905.852400  	-0.010960 
3907.781216  	-0.010609 
3909.710032  	-0.010315 
3911.638848  	-0.010034 
3913.567664  	-0.009674 
3915.496480  	-0.009289 
3917.425296  	-0.009545 
3919.354112  	-0.009851 
3921.282928  	-0.009567 
3923.211744  	-0.008963 
3925.140560  	-0.009105 
3927.069376  	-0.009432 
3928.998192  	-0.009580 
3930.927008  	-0.009125 
3932.855824  	-0.008848 
3934.784640  	-0.009327 
3936.713456  	-0.009593 
3938.642272  	-0.009340 
3940.571088  	-0.008917 
3942.499904  	-0.008851 
3944.428720  	-0.009210 
3946.357536  	-0.008955 
3948.286352  	-0.008666 
3950.215168  	-0.009272 
3952.143984  	-0.010009 
3954.072800  	-0.010090 
3956.001616  	-0.009764 
3957.930432  	-0.009706 
3959.859248  	-0.009716 
3961.788064  	-0.009662 
3963.716880  	-0.009914 
3965.645696  	-0.010135 
3967.574512  	-0.009983 
3969.503328  	-0.009710 
3971.432144  	-0.009668 
3973.360960  	-0.009673 
3975.289776  	-0.009520 
3977.218592  	-0.009524 
3979.147408  	-0.009713 
3981.076224  	-0.009899 
3983.005040  	-0.009829 
3984.933856  	-0.009786 
3986.862672  	-0.009754 
3988.791488  	-0.009575 
3990.720304  	-0.009430 
3992.649120  	-0.009538 
3994.577936  	-0.009769 
3996.506752  	-0.009923 
3998.435568  	-0.010019 
4000.364384  	-0.009936 