##TITLE=No Description
##DATA TYPE=INFRARED SPECTRUM
##XUNITS=1/CM
##YUNITS=Abs
399.264912  	0.631883 
401.193728  	0.607463 
403.122544  	0.597185 
405.051360  	0.587666 
406.980176  	0.589194 
408.908992  	0.581472 
410.837808  	0.596314 
412.766624  	0.602353 
414.695440  	0.601585 
416.624256  	0.592527 
418.553072  	0.591171 
420.481888  	0.568970 
422.410704  	0.568847 
424.339520  	0.567330 
426.268336  	0.566906 
428.197152  	0.560462 
430.125968  	0.559240 
432.054784  	0.556868 
433.983600  	0.556572 
435.912416  	0.552483 
437.841232  	0.557788 
439.770048  	0.554392 
441.698864  	0.552783 
443.627680  	0.543612 
445.556496  	0.538841 
447.485312  	0.538080 
449.414128  	0.541125 
451.342944  	0.538984 
453.271760  	0.540108 
455.200576  	0.538016 
457.129392  	0.542043 
459.058208  	0.538545 
460.987024  	0.537588 
462.915840  	0.535591 
464.844656  	0.535121 
466.773472  	0.533151 
468.702288  	0.536152 
470.631104  	0.536913 
472.559920  	0.538123 
474.488736  	0.532612 
476.417552  	0.533870 
478.346368  	0.532188 
480.275184  	0.535255 
482.204000  	0.530607 
484.132816  	0.525695 
486.061632  	0.524802 
487.990448  	0.527750 
489.919264  	0.525279 
491.848080  	0.523823 
493.776896  	0.521978 
495.705712  	0.522561 
497.634528  	0.522566 
499.563344  	0.523146 
501.492160  	0.520084 
503.420976  	0.518134 
505.349792  	0.516097 
507.278608  	0.517670 
509.207424  	0.515985 
511.136240  	0.517233 
513.065056  	0.516659 
514.993872  	0.521248 
516.922688  	0.523507 
518.851504  	0.523473 
520.780320  	0.520378 
522.709136  	0.520342 
524.637952  	0.518891 
526.566768  	0.517894 
528.495584  	0.515622 
530.424400  	0.515499 
532.353216  	0.510377 
534.282032  	0.505248 
536.210848  	0.499576 
538.139664  	0.494659 
540.068480  	0.489732 
541.997296  	0.485502 
543.926112  	0.480122 
545.854928  	0.477226 
547.783744  	0.472749 
549.712560  	0.468939 
551.641376  	0.464706 
553.570192  	0.461101 
555.499008  	0.457782 
557.427824  	0.454223 
559.356640  	0.449040 
561.285456  	0.446740 
563.214272  	0.443365 
565.143088  	0.440149 
567.071904  	0.436467 
569.000720  	0.433967 
570.929536  	0.430220 
572.858352  	0.427455 
574.787168  	0.424040 
576.715984  	0.420878 
578.644800  	0.417272 
580.573616  	0.414689 
582.502432  	0.409963 
584.431248  	0.406059 
586.360064  	0.402616 
588.288880  	0.399909 
590.217696  	0.398014 
592.146512  	0.396191 
594.075328  	0.392319 
596.004144  	0.390076 
597.932960  	0.388035 
599.861776  	0.386814 
601.790592  	0.384864 
603.719408  	0.383499 
605.648224  	0.382179 
607.577040  	0.380572 
609.505856  	0.378510 
611.434672  	0.376976 
613.363488  	0.374890 
615.292304  	0.374206 
617.221120  	0.372330 
619.149936  	0.371137 
621.078752  	0.370216 
623.007568  	0.368733 
624.936384  	0.366657 
626.865200  	0.365058 
628.794016  	0.364097 
630.722832  	0.363403 
632.651648  	0.363414 
634.580464  	0.363376 
636.509280  	0.363150 
638.438096  	0.363692 
640.366912  	0.362158 
642.295728  	0.360062 
644.224544  	0.357414 
646.153360  	0.353842 
648.082176  	0.348996 
650.010992  	0.345194 
651.939808  	0.341872 
653.868624  	0.338373 
655.797440  	0.334487 
657.726256  	0.330488 
659.655072  	0.326213 
661.583888  	0.322500 
663.512704  	0.318613 
665.441520  	0.315731 
667.370336  	0.308255 
669.299152  	0.300704 
671.227968  	0.301028 
673.156784  	0.298953 
675.085600  	0.296288 
677.014416  	0.294009 
678.943232  	0.291887 
680.872048  	0.290352 
682.800864  	0.288192 
684.729680  	0.286146 
686.658496  	0.285148 
688.587312  	0.284156 
690.516128  	0.282657 
692.444944  	0.281318 
694.373760  	0.280101 
696.302576  	0.278090 
698.231392  	0.275456 
700.160208  	0.273167 
702.089024  	0.271369 
704.017840  	0.269141 
705.946656  	0.266690 
707.875472  	0.264234 
709.804288  	0.261941 
711.733104  	0.260178 
713.661920  	0.258477 
715.590736  	0.257026 
717.519552  	0.256475 
719.448368  	0.256838 
721.377184  	0.257199 
723.306000  	0.257863 
725.234816  	0.257803 
727.163632  	0.257269 
729.092448  	0.255506 
731.021264  	0.252237 
732.950080  	0.248589 
734.878896  	0.245353 
736.807712  	0.242435 
738.736528  	0.239958 
740.665344  	0.237806 
742.594160  	0.235783 
744.522976  	0.234470 
746.451792  	0.232991 
748.380608  	0.231067 
750.309424  	0.229545 
752.238240  	0.228519 
754.167056  	0.227752 
756.095872  	0.226473 
758.024688  	0.225396 
759.953504  	0.224942 
761.882320  	0.225717 
763.811136  	0.226421 
765.739952  	0.225654 
767.668768  	0.223148 
769.597584  	0.220509 
771.526400  	0.219243 
773.455216  	0.220528 
775.384032  	0.224336 
777.312848  	0.229350 
779.241664  	0.233643 
781.170480  	0.234057 
783.099296  	0.230130 
785.028112  	0.224519 
786.956928  	0.218737 
788.885744  	0.213831 
790.814560  	0.210125 
792.743376  	0.207365 
794.672192  	0.205881 
796.601008  	0.205085 
798.529824  	0.202370 
800.458640  	0.197675 
802.387456  	0.193724 
804.316272  	0.191545 
806.245088  	0.190511 
808.173904  	0.190014 
810.102720  	0.189570 
812.031536  	0.189045 
813.960352  	0.189191 
815.889168  	0.189555 
817.817984  	0.189881 
819.746800  	0.190176 
821.675616  	0.190402 
823.604432  	0.190394 
825.533248  	0.189941 
827.462064  	0.189156 
829.390880  	0.188197 
831.319696  	0.187064 
833.248512  	0.185400 
835.177328  	0.183005 
837.106144  	0.180136 
839.034960  	0.176853 
840.963776  	0.173444 
842.892592  	0.169789 
844.821408  	0.166079 
846.750224  	0.162923 
848.679040  	0.160096 
850.607856  	0.157636 
852.536672  	0.155823 
854.465488  	0.154241 
856.394304  	0.152939 
858.323120  	0.151525 
860.251936  	0.149324 
862.180752  	0.146769 
864.109568  	0.144138 
866.038384  	0.141572 
867.967200  	0.139276 
869.896016  	0.137191 
871.824832  	0.136043 
873.753648  	0.135759 
875.682464  	0.136436 
877.611280  	0.136992 
879.540096  	0.137808 
881.468912  	0.139629 
883.397728  	0.140954 
885.326544  	0.142093 
887.255360  	0.142464 
889.184176  	0.141478 
891.112992  	0.139395 
893.041808  	0.137550 
894.970624  	0.135223 
896.899440  	0.131841 
898.828256  	0.127735 
900.757072  	0.123902 
902.685888  	0.120551 
904.614704  	0.118567 
906.543520  	0.118673 
908.472336  	0.119999 
910.401152  	0.122493 
912.329968  	0.125518 
914.258784  	0.128854 
916.187600  	0.131830 
918.116416  	0.134463 
920.045232  	0.136300 
921.974048  	0.137272 
923.902864  	0.137572 
925.831680  	0.137464 
927.760496  	0.137607 
929.689312  	0.138104 
931.618128  	0.138961 
933.546944  	0.139639 
935.475760  	0.140016 
937.404576  	0.140014 
939.333392  	0.139792 
941.262208  	0.139965 
943.191024  	0.141408 
945.119840  	0.145023 
947.048656  	0.150911 
948.977472  	0.158765 
950.906288  	0.168370 
952.835104  	0.179168 
954.763920  	0.190604 
956.692736  	0.201490 
958.621552  	0.210988 
960.550368  	0.217698 
962.479184  	0.221057 
964.408000  	0.220487 
966.336816  	0.215976 
968.265632  	0.207571 
970.194448  	0.196101 
972.123264  	0.182817 
974.052080  	0.169042 
975.980896  	0.155506 
977.909712  	0.142801 
979.838528  	0.131472 
981.767344  	0.122109 
983.696160  	0.114859 
985.624976  	0.110136 
987.553792  	0.108212 
989.482608  	0.109292 
991.411424  	0.112703 
993.340240  	0.117736 
995.269056  	0.124052 
997.197872  	0.131099 
999.126688  	0.138247 
1001.055504  	0.145282 
1002.984320  	0.152545 
1004.913136  	0.159566 
1006.841952  	0.166188 
1008.770768  	0.171723 
1010.699584  	0.175745 
1012.628400  	0.178158 
1014.557216  	0.178951 
1016.486032  	0.178990 
1018.414848  	0.178653 
1020.343664  	0.178217 
1022.272480  	0.177307 
1024.201296  	0.175876 
1026.130112  	0.172632 
1028.058928  	0.171328 
1029.987744  	0.174266 
1031.916560  	0.176301 
1033.845376  	0.177713 
1035.774192  	0.179222 
1037.703008  	0.182221 
1039.631824  	0.188871 
1041.560640  	0.198186 
1043.489456  	0.210252 
1045.418272  	0.225282 
1047.347088  	0.242124 
1049.275904  	0.258047 
1051.204720  	0.270819 
1053.133536  	0.278995 
1055.062352  	0.282743 
1056.991168  	0.282377 
1058.919984  	0.283397 
1060.848800  	0.284312 
1062.777616  	0.281573 
1064.706432  	0.275039 
1066.635248  	0.269391 
1068.564064  	0.266917 
1070.492880  	0.261747 
1072.421696  	0.253612 
1074.350512  	0.247722 
1076.279328  	0.245562 
1078.208144  	0.247584 
1080.136960  	0.252398 
1082.065776  	0.258044 
1083.994592  	0.261928 
1085.923408  	0.262836 
1087.852224  	0.260170 
1089.781040  	0.255560 
1091.709856  	0.249325 
1093.638672  	0.240469 
1095.567488  	0.229049 
1097.496304  	0.216220 
1099.425120  	0.202717 
1101.353936  	0.189508 
1103.282752  	0.176698 
1105.211568  	0.164342 
1107.140384  	0.152229 
1109.069200  	0.140841 
1110.998016  	0.130565 
1112.926832  	0.121338 
1114.855648  	0.112843 
1116.784464  	0.104882 
1118.713280  	0.097540 
1120.642096  	0.090798 
1122.570912  	0.084267 
1124.499728  	0.077816 
1126.428544  	0.072213 
1128.357360  	0.067220 
1130.286176  	0.063168 
1132.214992  	0.059640 
1134.143808  	0.056783 
1136.072624  	0.054336 
1138.001440  	0.052347 
1139.930256  	0.049963 
1141.859072  	0.047715 
1143.787888  	0.045326 
1145.716704  	0.042984 
1147.645520  	0.040692 
1149.574336  	0.038923 
1151.503152  	0.037614 
1153.431968  	0.037118 
1155.360784  	0.037238 
1157.289600  	0.038083 
1159.218416  	0.039377 
1161.147232  	0.041367 
1163.076048  	0.043631 
1165.004864  	0.046217 
1166.933680  	0.048498 
1168.862496  	0.050976 
1170.791312  	0.053438 
1172.720128  	0.056429 
1174.648944  	0.059248 
1176.577760  	0.062161 
1178.506576  	0.064802 
1180.435392  	0.067640 
1182.364208  	0.070586 
1184.293024  	0.073953 
1186.221840  	0.077413 
1188.150656  	0.081400 
1190.079472  	0.086096 
1192.008288  	0.091773 
1193.937104  	0.098495 
1195.865920  	0.106514 
1197.794736  	0.115263 
1199.723552  	0.124511 
1201.652368  	0.133846 
1203.581184  	0.143511 
1205.510000  	0.153074 
1207.438816  	0.162214 
1209.367632  	0.170694 
1211.296448  	0.178001 
1213.225264  	0.184064 
1215.154080  	0.188657 
1217.082896  	0.192117 
1219.011712  	0.194332 
1220.940528  	0.195846 
1222.869344  	0.196844 
1224.798160  	0.196889 
1226.726976  	0.196088 
1228.655792  	0.194641 
1230.584608  	0.192442 
1232.513424  	0.190082 
1234.442240  	0.187087 
1236.371056  	0.183273 
1238.299872  	0.178215 
1240.228688  	0.170589 
1242.157504  	0.163156 
1244.086320  	0.156805 
1246.015136  	0.148953 
1247.943952  	0.140370 
1249.872768  	0.131943 
1251.801584  	0.124688 
1253.730400  	0.117361 
1255.659216  	0.110085 
1257.588032  	0.103343 
1259.516848  	0.096984 
1261.445664  	0.091122 
1263.374480  	0.085606 
1265.303296  	0.081039 
1267.232112  	0.077494 
1269.160928  	0.074827 
1271.089744  	0.072657 
1273.018560  	0.071507 
1274.947376  	0.071262 
1276.876192  	0.071432 
1278.805008  	0.071254 
1280.733824  	0.070217 
1282.662640  	0.068164 
1284.591456  	0.065737 
1286.520272  	0.063665 
1288.449088  	0.062222 
1290.377904  	0.061360 
1292.306720  	0.061485 
1294.235536  	0.061534 
1296.164352  	0.060676 
1298.093168  	0.058281 
1300.021984  	0.055306 
1301.950800  	0.052155 
1303.879616  	0.049197 
1305.808432  	0.045975 
1307.737248  	0.042890 
1309.666064  	0.039864 
1311.594880  	0.037802 
1313.523696  	0.036085 
1315.452512  	0.034894 
1317.381328  	0.034333 
1319.310144  	0.034203 
1321.238960  	0.034204 
1323.167776  	0.034897 
1325.096592  	0.035758 
1327.025408  	0.036346 
1328.954224  	0.036316 
1330.883040  	0.035862 
1332.811856  	0.034948 
1334.740672  	0.034556 
1336.669488  	0.034832 
1338.598304  	0.035254 
1340.527120  	0.033597 
1342.455936  	0.031565 
1344.384752  	0.031014 
1346.313568  	0.031320 
1348.242384  	0.031938 
1350.171200  	0.033192 
1352.100016  	0.034883 
1354.028832  	0.037068 
1355.957648  	0.038927 
1357.886464  	0.041086 
1359.815280  	0.043847 
1361.744096  	0.046618 
1363.672912  	0.047556 
1365.601728  	0.048445 
1367.530544  	0.049869 
1369.459360  	0.050284 
1371.388176  	0.050221 
1373.316992  	0.049126 
1375.245808  	0.045444 
1377.174624  	0.042797 
1379.103440  	0.039979 
1381.032256  	0.036883 
1382.961072  	0.034476 
1384.889888  	0.033907 
1386.818704  	0.033375 
1388.747520  	0.031129 
1390.676336  	0.028756 
1392.605152  	0.025930 
1394.533968  	0.024056 
1396.462784  	0.026742 
1398.391600  	0.027967 
1400.320416  	0.026736 
1402.249232  	0.027242 
1404.178048  	0.028226 
1406.106864  	0.028633 
1408.035680  	0.030440 
1409.964496  	0.033100 
1411.893312  	0.035959 
1413.822128  	0.039091 
1415.750944  	0.043412 
1417.679760  	0.046420 
1419.608576  	0.045074 
1421.537392  	0.045265 
1423.466208  	0.045835 
1425.395024  	0.043779 
1427.323840  	0.042573 
1429.252656  	0.040088 
1431.181472  	0.038156 
1433.110288  	0.038286 
1435.039104  	0.039517 
1436.967920  	0.038130 
1438.896736  	0.038303 
1440.825552  	0.039664 
1442.754368  	0.040228 
1444.683184  	0.040506 
1446.612000  	0.040730 
1448.540816  	0.039316 
1450.469632  	0.039741 
1452.398448  	0.040953 
1454.327264  	0.042718 
1456.256080  	0.042357 
1458.184896  	0.038093 
1460.113712  	0.039577 
1462.042528  	0.041750 
1463.971344  	0.041556 
1465.900160  	0.041492 
1467.828976  	0.044707 
1469.757792  	0.048898 
1471.686608  	0.052265 
1473.615424  	0.056997 
1475.544240  	0.063620 
1477.473056  	0.069135 
1479.401872  	0.073279 
1481.330688  	0.076488 
1483.259504  	0.078398 
1485.188320  	0.080149 
1487.117136  	0.080221 
1489.045952  	0.079358 
1490.974768  	0.075137 
1492.903584  	0.073031 
1494.832400  	0.070395 
1496.761216  	0.063229 
1498.690032  	0.056733 
1500.618848  	0.053118 
1502.547664  	0.050089 
1504.476480  	0.046853 
1506.405296  	0.040025 
1508.334112  	0.036830 
1510.262928  	0.037379 
1512.191744  	0.035597 
1514.120560  	0.035011 
1516.049376  	0.034621 
1517.978192  	0.033193 
1519.907008  	0.035086 
1521.835824  	0.034425 
1523.764640  	0.038806 
1525.693456  	0.043639 
1527.622272  	0.045611 
1529.551088  	0.046519 
1531.479904  	0.046988 
1533.408720  	0.042404 
1535.337536  	0.039144 
1537.266352  	0.038611 
1539.195168  	0.030822 
1541.123984  	0.022379 
1543.052800  	0.025605 
1544.981616  	0.026328 
1546.910432  	0.025814 
1548.839248  	0.026643 
1550.768064  	0.026469 
1552.696880  	0.026548 
1554.625696  	0.026921 
1556.554512  	0.027702 
1558.483328  	0.024609 
1560.412144  	0.026379 
1562.340960  	0.035090 
1564.269776  	0.039642 
1566.198592  	0.045126 
1568.127408  	0.049686 
1570.056224  	0.053767 
1571.985040  	0.061251 
1573.913856  	0.066931 
1575.842672  	0.067040 
1577.771488  	0.069118 
1579.700304  	0.072027 
1581.629120  	0.072134 
1583.557936  	0.071547 
1585.486752  	0.072286 
1587.415568  	0.074722 
1589.344384  	0.079252 
1591.273200  	0.085338 
1593.202016  	0.092618 
1595.130832  	0.100135 
1597.059648  	0.108194 
1598.988464  	0.115199 
1600.917280  	0.121302 
1602.846096  	0.125178 
1604.774912  	0.127587 
1606.703728  	0.127838 
1608.632544  	0.126702 
1610.561360  	0.124471 
1612.490176  	0.123226 
1614.418992  	0.121662 
1616.347808  	0.117876 
1618.276624  	0.118438 
1620.205440  	0.124375 
1622.134256  	0.127580 
1624.063072  	0.132487 
1625.991888  	0.140225 
1627.920704  	0.148406 
1629.849520  	0.158365 
1631.778336  	0.168899 
1633.707152  	0.176160 
1635.635968  	0.181880 
1637.564784  	0.191779 
1639.493600  	0.201447 
1641.422416  	0.207274 
1643.351232  	0.211981 
1645.280048  	0.212611 
1647.208864  	0.209857 
1649.137680  	0.211759 
1651.066496  	0.214699 
1652.995312  	0.204978 
1654.924128  	0.201713 
1656.852944  	0.204542 
1658.781760  	0.203271 
1660.710576  	0.199716 
1662.639392  	0.193146 
1664.568208  	0.188654 
1666.497024  	0.187586 
1668.425840  	0.181905 
1670.354656  	0.173192 
1672.283472  	0.170579 
1674.212288  	0.168272 
1676.141104  	0.162129 
1678.069920  	0.162377 
1679.998736  	0.162380 
1681.927552  	0.161515 
1683.856368  	0.154758 
1685.785184  	0.151790 
1687.714000  	0.155791 
1689.642816  	0.155326 
1691.571632  	0.153521 
1693.500448  	0.153438 
1695.429264  	0.148714 
1697.358080  	0.144607 
1699.286896  	0.142884 
1701.215712  	0.134841 
1703.144528  	0.135565 
1705.073344  	0.131483 
1707.002160  	0.124677 
1708.930976  	0.121021 
1710.859792  	0.115482 
1712.788608  	0.109323 
1714.717424  	0.101157 
1716.646240  	0.089547 
1718.575056  	0.074590 
1720.503872  	0.067835 
1722.432688  	0.062201 
1724.361504  	0.053030 
1726.290320  	0.045643 
1728.219136  	0.039731 
1730.147952  	0.034386 
1732.076768  	0.030154 
1734.005584  	0.022068 
1735.934400  	0.016329 
1737.863216  	0.017347 
1739.792032  	0.013216 
1741.720848  	0.012065 
1743.649664  	0.011834 
1745.578480  	0.011054 
1747.507296  	0.009353 
1749.436112  	0.008314 
1751.364928  	0.006572 
1753.293744  	0.005741 
1755.222560  	0.005935 
1757.151376  	0.005029 
1759.080192  	0.004656 
1761.009008  	0.004208 
1762.937824  	0.002168 
1764.866640  	0.002982 
1766.795456  	0.003881 
1768.724272  	0.003270 
1770.653088  	0.001250 
1772.581904  	-0.002079 
1774.510720  	-0.000958 
1776.439536  	0.001036 
1778.368352  	0.001458 
1780.297168  	0.001028 
1782.225984  	0.000382 
1784.154800  	0.001009 
1786.083616  	0.000161 
1788.012432  	0.000638 
1789.941248  	0.001395 
1791.870064  	-0.000199 
1793.798880  	-0.002060 
1795.727696  	-0.000292 
1797.656512  	-0.000488 
1799.585328  	-0.000656 
1801.514144  	-0.000551 
1803.442960  	-0.000618 
1805.371776  	-0.001052 
1807.300592  	-0.000516 
1809.229408  	-0.001110 
1811.158224  	-0.001621 
1813.087040  	-0.001834 
1815.015856  	-0.001178 
1816.944672  	-0.001037 
1818.873488  	-0.001228 
1820.802304  	-0.001546 
1822.731120  	-0.000699 
1824.659936  	-0.001272 
1826.588752  	-0.001914 
1828.517568  	-0.002332 
1830.446384  	-0.003314 
1832.375200  	-0.002587 
1834.304016  	-0.001570 
1836.232832  	-0.001715 
1838.161648  	-0.001532 
1840.090464  	-0.001634 
1842.019280  	-0.000604 
1843.948096  	-0.002049 
1845.876912  	-0.002454 
1847.805728  	-0.001653 
1849.734544  	-0.001667 
1851.663360  	-0.002102 
1853.592176  	-0.002032 
1855.520992  	-0.002083 
1857.449808  	-0.001862 
1859.378624  	-0.001919 
1861.307440  	-0.001776 
1863.236256  	-0.002033 
1865.165072  	-0.001678 
1867.093888  	-0.001711 
1869.022704  	-0.002496 
1870.951520  	-0.003093 
1872.880336  	-0.002386 
1874.809152  	-0.002486 
1876.737968  	-0.002469 
1878.666784  	-0.002734 
1880.595600  	-0.002031 
1882.524416  	-0.002360 
1884.453232  	-0.002471 
1886.382048  	-0.002620 
1888.310864  	-0.002321 
1890.239680  	-0.003202 
1892.168496  	-0.002598 
1894.097312  	-0.002398 
1896.026128  	-0.002380 
1897.954944  	-0.002513 
1899.883760  	-0.002054 
1901.812576  	-0.002439 
1903.741392  	-0.002839 
1905.670208  	-0.002818 
1907.599024  	-0.001907 
1909.527840  	-0.002139 
1911.456656  	-0.002142 
1913.385472  	-0.002152 
1915.314288  	-0.001581 
1917.243104  	-0.002282 
1919.171920  	-0.002747 
1921.100736  	-0.002354 
1923.029552  	-0.002219 
1924.958368  	-0.002852 
1926.887184  	-0.002483 
1928.816000  	-0.002764 
1930.744816  	-0.002520 
1932.673632  	-0.002658 
1934.602448  	-0.002380 
1936.531264  	-0.002463 
1938.460080  	-0.001875 
1940.388896  	-0.001610 
1942.317712  	-0.001724 
1944.246528  	-0.003170 
1946.175344  	-0.002456 
1948.104160  	-0.002116 
1950.032976  	-0.002012 
1951.961792  	-0.002248 
1953.890608  	-0.001774 
1955.819424  	-0.002133 
1957.748240  	-0.001491 
1959.677056  	-0.002250 
1961.605872  	-0.002259 
1963.534688  	-0.002663 
1965.463504  	-0.001330 
1967.392320  	-0.001867 
1969.321136  	-0.001687 
1971.249952  	-0.001123 
1973.178768  	0.000798 
1975.107584  	-0.000203 
1977.036400  	-0.000746 
1978.965216  	-0.000422 
1980.894032  	-0.000217 
1982.822848  	-0.001364 
1984.751664  	-0.001397 
1986.680480  	-0.002426 
1988.609296  	-0.001225 
1990.538112  	-0.000962 
1992.466928  	-0.000716 
1994.395744  	-0.002008 
1996.324560  	-0.001995 
1998.253376  	-0.002750 
2000.182192  	-0.002722 
2002.111008  	-0.001317 
2004.039824  	0.000275 
2005.968640  	-0.000985 
2007.897456  	-0.000347 
2009.826272  	-0.001039 
2011.755088  	-0.001187 
2013.683904  	-0.002197 
2015.612720  	-0.001538 
2017.541536  	-0.001292 
2019.470352  	-0.000509 
2021.399168  	-0.002130 
2023.327984  	-0.002088 
2025.256800  	-0.001252 
2027.185616  	-0.000471 
2029.114432  	-0.000556 
2031.043248  	0.000422 
2032.972064  	-0.000124 
2034.900880  	-0.000102 
2036.829696  	-0.001050 
2038.758512  	0.000388 
2040.687328  	-0.000150 
2042.616144  	-0.000530 
2044.544960  	-0.001286 
2046.473776  	-0.000544 
2048.402592  	-0.000742 
2050.331408  	-0.001210 
2052.260224  	-0.002168 
2054.189040  	-0.002620 
2056.117856  	-0.003264 
2058.046672  	-0.002213 
2059.975488  	-0.001951 
2061.904304  	-0.002024 
2063.833120  	-0.002524 
2065.761936  	-0.002554 
2067.690752  	-0.002736 
2069.619568  	-0.001965 
2071.548384  	-0.001824 
2073.477200  	-0.002238 
2075.406016  	-0.002246 
2077.334832  	-0.001794 
2079.263648  	-0.001864 
2081.192464  	-0.001688 
2083.121280  	-0.001943 
2085.050096  	-0.001991 
2086.978912  	-0.002373 
2088.907728  	-0.001921 
2090.836544  	-0.001972 
2092.765360  	-0.001955 
2094.694176  	-0.001794 
2096.622992  	-0.001321 
2098.551808  	-0.001635 
2100.480624  	-0.001590 
2102.409440  	-0.001726 
2104.338256  	-0.001883 
2106.267072  	-0.001757 
2108.195888  	-0.001286 
2110.124704  	-0.001597 
2112.053520  	-0.001511 
2113.982336  	-0.001685 
2115.911152  	-0.001506 
2117.839968  	-0.001286 
2119.768784  	-0.001210 
2121.697600  	-0.001923 
2123.626416  	-0.001850 
2125.555232  	-0.001881 
2127.484048  	-0.001628 
2129.412864  	-0.001889 
2131.341680  	-0.002057 
2133.270496  	-0.001919 
2135.199312  	-0.001009 
2137.128128  	-0.000677 
2139.056944  	-0.000511 
2140.985760  	-0.000773 
2142.914576  	-0.000359 
2144.843392  	-0.000712 
2146.772208  	-0.000645 
2148.701024  	-0.001004 
2150.629840  	0.000123 
2152.558656  	0.000495 
2154.487472  	0.000507 
2156.416288  	-0.000927 
2158.345104  	-0.000649 
2160.273920  	0.001901 
2162.202736  	0.003252 
2164.131552  	0.002020 
2166.060368  	0.001614 
2167.989184  	0.001846 
2169.918000  	0.002641 
2171.846816  	0.000831 
2173.775632  	0.000391 
2175.704448  	0.000995 
2177.633264  	0.001322 
2179.562080  	0.000357 
2181.490896  	0.000436 
2183.419712  	-0.000458 
2185.348528  	-0.000688 
2187.277344  	-0.000074 
2189.206160  	0.000612 
2191.134976  	-0.000353 
2193.063792  	-0.000174 
2194.992608  	-0.000578 
2196.921424  	-0.000766 
2198.850240  	-0.000598 
2200.779056  	-0.000155 
2202.707872  	-0.000546 
2204.636688  	-0.000701 
2206.565504  	-0.000647 
2208.494320  	-0.000407 
2210.423136  	-0.001126 
2212.351952  	-0.001010 
2214.280768  	-0.001253 
2216.209584  	-0.000933 
2218.138400  	-0.001070 
2220.067216  	-0.000899 
2221.996032  	-0.000751 
2223.924848  	-0.000334 
2225.853664  	-0.000682 
2227.782480  	-0.000852 
2229.711296  	-0.001680 
2231.640112  	-0.002000 
2233.568928  	-0.002298 
2235.497744  	-0.002117 
2237.426560  	-0.002132 
2239.355376  	-0.002036 
2241.284192  	-0.002130 
2243.213008  	-0.002070 
2245.141824  	-0.002482 
2247.070640  	-0.002296 
2248.999456  	-0.002205 
2250.928272  	-0.002391 
2252.857088  	-0.002806 
2254.785904  	-0.002872 
2256.714720  	-0.003124 
2258.643536  	-0.003155 
2260.572352  	-0.003353 
2262.501168  	-0.003501 
2264.429984  	-0.003644 
2266.358800  	-0.003404 
2268.287616  	-0.003223 
2270.216432  	-0.002673 
2272.145248  	-0.002692 
2274.074064  	-0.003025 
2276.002880  	-0.003178 
2277.931696  	-0.002939 
2279.860512  	-0.002682 
2281.789328  	-0.002474 
2283.718144  	-0.002651 
2285.646960  	-0.002731 
2287.575776  	-0.002639 
2289.504592  	-0.002672 
2291.433408  	-0.002897 
2293.362224  	-0.002774 
2295.291040  	-0.002478 
2297.219856  	-0.002038 
2299.148672  	-0.002027 
2301.077488  	-0.001879 
2303.006304  	-0.001972 
2304.935120  	-0.001806 
2306.863936  	-0.001815 
2308.792752  	-0.002028 
2310.721568  	-0.002549 
2312.650384  	-0.003101 
2314.579200  	-0.004007 
2316.508016  	-0.004859 
2318.436832  	-0.005765 
2320.365648  	-0.007160 
2322.294464  	-0.008926 
2324.223280  	-0.010858 
2326.152096  	-0.012990 
2328.080912  	-0.014748 
2330.009728  	-0.016720 
2331.938544  	-0.018668 
2333.867360  	-0.020298 
2335.796176  	-0.021642 
2337.724992  	-0.022807 
2339.653808  	-0.022903 
2341.582624  	-0.023004 
2343.511440  	-0.021820 
2345.440256  	-0.019354 
2347.369072  	-0.014114 
2349.297888  	-0.010243 
2351.226704  	-0.012879 
2353.155520  	-0.019012 
2355.084336  	-0.023475 
2357.013152  	-0.027251 
2358.941968  	-0.029684 
2360.870784  	-0.031068 
2362.799600  	-0.030228 
2364.728416  	-0.028759 
2366.657232  	-0.025916 
2368.586048  	-0.022086 
2370.514864  	-0.018244 
2372.443680  	-0.014812 
2374.372496  	-0.011018 
2376.301312  	-0.007735 
2378.230128  	-0.005168 
2380.158944  	-0.003583 
2382.087760  	-0.002853 
2384.016576  	-0.002787 
2385.945392  	-0.002927 
2387.874208  	-0.003087 
2389.803024  	-0.003311 
2391.731840  	-0.003672 
2393.660656  	-0.003717 
2395.589472  	-0.003645 
2397.518288  	-0.003376 
2399.447104  	-0.003538 
2401.375920  	-0.003711 
2403.304736  	-0.003845 
2405.233552  	-0.003859 
2407.162368  	-0.003916 
2409.091184  	-0.003723 
2411.020000  	-0.003601 
2412.948816  	-0.003637 
2414.877632  	-0.003723 
2416.806448  	-0.003586 
2418.735264  	-0.003543 
2420.664080  	-0.003561 
2422.592896  	-0.003736 
2424.521712  	-0.003826 
2426.450528  	-0.003891 
2428.379344  	-0.003673 
2430.308160  	-0.003488 
2432.236976  	-0.003364 
2434.165792  	-0.003479 
2436.094608  	-0.003401 
2438.023424  	-0.003154 
2439.952240  	-0.003004 
2441.881056  	-0.003165 
2443.809872  	-0.003172 
2445.738688  	-0.002999 
2447.667504  	-0.002801 
2449.596320  	-0.002911 
2451.525136  	-0.002841 
2453.453952  	-0.002886 
2455.382768  	-0.003070 
2457.311584  	-0.003148 
2459.240400  	-0.003084 
2461.169216  	-0.003194 
2463.098032  	-0.003373 
2465.026848  	-0.003312 
2466.955664  	-0.003210 
2468.884480  	-0.003461 
2470.813296  	-0.003537 
2472.742112  	-0.003328 
2474.670928  	-0.003319 
2476.599744  	-0.003458 
2478.528560  	-0.003205 
2480.457376  	-0.002902 
2482.386192  	-0.002952 
2484.315008  	-0.002972 
2486.243824  	-0.002941 
2488.172640  	-0.003122 
2490.101456  	-0.002820 
2492.030272  	-0.002501 
2493.959088  	-0.002463 
2495.887904  	-0.002657 
2497.816720  	-0.002601 
2499.745536  	-0.002261 
2501.674352  	-0.002041 
2503.603168  	-0.001892 
2505.531984  	-0.002034 
2507.460800  	-0.002440 
2509.389616  	-0.002322 
2511.318432  	-0.002048 
2513.247248  	-0.001872 
2515.176064  	-0.002092 
2517.104880  	-0.002175 
2519.033696  	-0.002211 
2520.962512  	-0.002029 
2522.891328  	-0.001913 
2524.820144  	-0.002067 
2526.748960  	-0.002001 
2528.677776  	-0.001797 
2530.606592  	-0.001717 
2532.535408  	-0.001575 
2534.464224  	-0.001617 
2536.393040  	-0.001666 
2538.321856  	-0.001733 
2540.250672  	-0.001559 
2542.179488  	-0.001470 
2544.108304  	-0.001384 
2546.037120  	-0.001388 
2547.965936  	-0.001387 
2549.894752  	-0.001295 
2551.823568  	-0.001215 
2553.752384  	-0.001027 
2555.681200  	-0.000719 
2557.610016  	-0.000917 
2559.538832  	-0.000885 
2561.467648  	-0.000467 
2563.396464  	-0.000132 
2565.325280  	-0.000138 
2567.254096  	-0.000359 
2569.182912  	-0.000547 
2571.111728  	-0.000394 
2573.040544  	-0.000235 
2574.969360  	-0.000163 
2576.898176  	-0.000018 
2578.826992  	-0.000104 
2580.755808  	-0.000198 
2582.684624  	0.000201 
2584.613440  	0.000428 
2586.542256  	0.000351 
2588.471072  	0.000304 
2590.399888  	0.000352 
2592.328704  	0.000399 
2594.257520  	0.000476 
2596.186336  	0.000473 
2598.115152  	0.000495 
2600.043968  	0.000457 
2601.972784  	0.000711 
2603.901600  	0.000768 
2605.830416  	0.000804 
2607.759232  	0.000951 
2609.688048  	0.001285 
2611.616864  	0.001461 
2613.545680  	0.001501 
2615.474496  	0.001549 
2617.403312  	0.001669 
2619.332128  	0.001789 
2621.260944  	0.001827 
2623.189760  	0.001891 
2625.118576  	0.002054 
2627.047392  	0.002124 
2628.976208  	0.002210 
2630.905024  	0.002396 
2632.833840  	0.002528 
2634.762656  	0.002573 
2636.691472  	0.002580 
2638.620288  	0.002578 
2640.549104  	0.002641 
2642.477920  	0.002778 
2644.406736  	0.003070 
2646.335552  	0.003198 
2648.264368  	0.003244 
2650.193184  	0.003229 
2652.122000  	0.003418 
2654.050816  	0.003546 
2655.979632  	0.003700 
2657.908448  	0.003879 
2659.837264  	0.004017 
2661.766080  	0.004075 
2663.694896  	0.004233 
2665.623712  	0.004344 
2667.552528  	0.004550 
2669.481344  	0.004682 
2671.410160  	0.004761 
2673.338976  	0.004897 
2675.267792  	0.005128 
2677.196608  	0.005355 
2679.125424  	0.005417 
2681.054240  	0.005469 
2682.983056  	0.005620 
2684.911872  	0.005641 
2686.840688  	0.005721 
2688.769504  	0.005827 
2690.698320  	0.005894 
2692.627136  	0.005996 
2694.555952  	0.006102 
2696.484768  	0.006110 
2698.413584  	0.006190 
2700.342400  	0.006331 
2702.271216  	0.006556 
2704.200032  	0.006685 
2706.128848  	0.006757 
2708.057664  	0.006868 
2709.986480  	0.006987 
2711.915296  	0.007090 
2713.844112  	0.007242 
2715.772928  	0.007363 
2717.701744  	0.007480 
2719.630560  	0.007711 
2721.559376  	0.007852 
2723.488192  	0.008043 
2725.417008  	0.008282 
2727.345824  	0.008442 
2729.274640  	0.008498 
2731.203456  	0.008556 
2733.132272  	0.008728 
2735.061088  	0.008943 
2736.989904  	0.009160 
2738.918720  	0.009281 
2740.847536  	0.009344 
2742.776352  	0.009266 
2744.705168  	0.009396 
2746.633984  	0.009494 
2748.562800  	0.009521 
2750.491616  	0.009689 
2752.420432  	0.009797 
2754.349248  	0.009672 
2756.278064  	0.009608 
2758.206880  	0.009613 
2760.135696  	0.009620 
2762.064512  	0.009630 
2763.993328  	0.009669 
2765.922144  	0.009708 
2767.850960  	0.009723 
2769.779776  	0.009697 
2771.708592  	0.009736 
2773.637408  	0.009753 
2775.566224  	0.009754 
2777.495040  	0.009690 
2779.423856  	0.009765 
2781.352672  	0.009847 
2783.281488  	0.009785 
2785.210304  	0.009844 
2787.139120  	0.009977 
2789.067936  	0.010002 
2790.996752  	0.009995 
2792.925568  	0.009864 
2794.854384  	0.009890 
2796.783200  	0.009872 
2798.712016  	0.009785 
2800.640832  	0.009740 
2802.569648  	0.009821 
2804.498464  	0.009893 
2806.427280  	0.009945 
2808.356096  	0.009924 
2810.284912  	0.009944 
2812.213728  	0.010026 
2814.142544  	0.010003 
2816.071360  	0.009945 
2818.000176  	0.009818 
2819.928992  	0.009771 
2821.857808  	0.009730 
2823.786624  	0.009565 
2825.715440  	0.009480 
2827.644256  	0.009267 
2829.573072  	0.009132 
2831.501888  	0.008929 
2833.430704  	0.008647 
2835.359520  	0.008371 
2837.288336  	0.008039 
2839.217152  	0.007744 
2841.145968  	0.007502 
2843.074784  	0.007227 
2845.003600  	0.006893 
2846.932416  	0.006678 
2848.861232  	0.006643 
2850.790048  	0.006366 
2852.718864  	0.005718 
2854.647680  	0.005126 
2856.576496  	0.004454 
2858.505312  	0.003819 
2860.434128  	0.003292 
2862.362944  	0.002519 
2864.291760  	0.001694 
2866.220576  	0.001051 
2868.149392  	0.000683 
2870.078208  	0.000433 
2872.007024  	0.000456 
2873.935840  	0.000584 
2875.864656  	0.000558 
2877.793472  	0.000426 
2879.722288  	0.000321 
2881.651104  	-0.000008 
2883.579920  	-0.000197 
2885.508736  	0.000033 
2887.437552  	0.000321 
2889.366368  	0.000421 
2891.295184  	0.000300 
2893.224000  	0.000101 
2895.152816  	0.000092 
2897.081632  	-0.000097 
2899.010448  	-0.001752 
2900.939264  	-0.003206 
2902.868080  	-0.001894 
2904.796896  	-0.000549 
2906.725712  	-0.000041 
2908.654528  	0.000699 
2910.583344  	0.001360 
2912.512160  	0.002115 
2914.440976  	0.003505 
2916.369792  	0.004546 
2918.298608  	0.005249 
2920.227424  	0.005842 
2922.156240  	0.006386 
2924.085056  	0.006935 
2926.013872  	0.007718 
2927.942688  	0.008704 
2929.871504  	0.009577 
2931.800320  	0.010361 
2933.729136  	0.010989 
2935.657952  	0.011393 
2937.586768  	0.012026 
2939.515584  	0.012781 
2941.444400  	0.013100 
2943.373216  	0.013113 
2945.302032  	0.013323 
2947.230848  	0.013576 
2949.159664  	0.013229 
2951.088480  	0.012698 
2953.017296  	0.012314 
2954.946112  	0.011755 
2956.874928  	0.011030 
2958.803744  	0.010209 
2960.732560  	0.009543 
2962.661376  	0.008935 
2964.590192  	0.008075 
2966.519008  	0.006924 
2968.447824  	0.005813 
2970.376640  	0.004955 
2972.305456  	0.004442 
2974.234272  	0.004639 
2976.163088  	0.004952 
2978.091904  	0.004953 
2980.020720  	0.004902 
2981.949536  	0.005111 
2983.878352  	0.004887 
2985.807168  	0.003906 
2987.735984  	0.003068 
2989.664800  	0.003452 
2991.593616  	0.006341 
2993.522432  	0.008338 
2995.451248  	0.008950 
2997.380064  	0.009759 
2999.308880  	0.010921 
3001.237696  	0.012274 
3003.166512  	0.013789 
3005.095328  	0.015323 
3007.024144  	0.016730 
3008.952960  	0.017999 
3010.881776  	0.019429 
3012.810592  	0.020909 
3014.739408  	0.022221 
3016.668224  	0.023562 
3018.597040  	0.024968 
3020.525856  	0.026177 
3022.454672  	0.027230 
3024.383488  	0.028225 
3026.312304  	0.029197 
3028.241120  	0.030268 
3030.169936  	0.031266 
3032.098752  	0.031925 
3034.027568  	0.032729 
3035.956384  	0.033739 
3037.885200  	0.034773 
3039.814016  	0.035420 
3041.742832  	0.035972 
3043.671648  	0.036616 
3045.600464  	0.037266 
3047.529280  	0.037786 
3049.458096  	0.038327 
3051.386912  	0.039023 
3053.315728  	0.039773 
3055.244544  	0.040415 
3057.173360  	0.041093 
3059.102176  	0.041659 
3061.030992  	0.042386 
3062.959808  	0.043313 
3064.888624  	0.043944 
3066.817440  	0.044497 
3068.746256  	0.045401 
3070.675072  	0.046303 
3072.603888  	0.047043 
3074.532704  	0.047805 
3076.461520  	0.048567 
3078.390336  	0.049294 
3080.319152  	0.050067 
3082.247968  	0.051119 
3084.176784  	0.051989 
3086.105600  	0.052778 
3088.034416  	0.053535 
3089.963232  	0.054272 
3091.892048  	0.054937 
3093.820864  	0.055742 
3095.749680  	0.056605 
3097.678496  	0.057522 
3099.607312  	0.058476 
3101.536128  	0.059392 
3103.464944  	0.060391 
3105.393760  	0.061253 
3107.322576  	0.061917 
3109.251392  	0.062720 
3111.180208  	0.063444 
3113.109024  	0.064129 
3115.037840  	0.064857 
3116.966656  	0.065665 
3118.895472  	0.066468 
3120.824288  	0.067163 
3122.753104  	0.067711 
3124.681920  	0.068213 
3126.610736  	0.068870 
3128.539552  	0.069722 
3130.468368  	0.070446 
3132.397184  	0.070989 
3134.326000  	0.071651 
3136.254816  	0.072328 
3138.183632  	0.073023 
3140.112448  	0.073665 
3142.041264  	0.074188 
3143.970080  	0.074708 
3145.898896  	0.075261 
3147.827712  	0.075883 
3149.756528  	0.076533 
3151.685344  	0.077201 
3153.614160  	0.078128 
3155.542976  	0.078885 
3157.471792  	0.079416 
3159.400608  	0.080195 
3161.329424  	0.080907 
3163.258240  	0.081331 
3165.187056  	0.081960 
3167.115872  	0.082544 
3169.044688  	0.082908 
3170.973504  	0.083260 
3172.902320  	0.083654 
3174.831136  	0.084278 
3176.759952  	0.084839 
3178.688768  	0.085186 
3180.617584  	0.085565 
3182.546400  	0.085848 
3184.475216  	0.086201 
3186.404032  	0.086393 
3188.332848  	0.086455 
3190.261664  	0.086746 
3192.190480  	0.086904 
3194.119296  	0.086764 
3196.048112  	0.087019 
3197.976928  	0.087169 
3199.905744  	0.087171 
3201.834560  	0.087065 
3203.763376  	0.087007 
3205.692192  	0.086908 
3207.621008  	0.086781 
3209.549824  	0.086711 
3211.478640  	0.086762 
3213.407456  	0.086756 
3215.336272  	0.086574 
3217.265088  	0.086480 
3219.193904  	0.086278 
3221.122720  	0.085944 
3223.051536  	0.085732 
3224.980352  	0.085552 
3226.909168  	0.085460 
3228.837984  	0.085336 
3230.766800  	0.085037 
3232.695616  	0.084936 
3234.624432  	0.084936 
3236.553248  	0.084792 
3238.482064  	0.084807 
3240.410880  	0.084818 
3242.339696  	0.084903 
3244.268512  	0.084907 
3246.197328  	0.084878 
3248.126144  	0.084970 
3250.054960  	0.085084 
3251.983776  	0.085555 
3253.912592  	0.085907 
3255.841408  	0.086144 
3257.770224  	0.086256 
3259.699040  	0.086265 
3261.627856  	0.086453 
3263.556672  	0.086742 
3265.485488  	0.086937 
3267.414304  	0.087184 
3269.343120  	0.087696 
3271.271936  	0.088063 
3273.200752  	0.088102 
3275.129568  	0.088235 
3277.058384  	0.088542 
3278.987200  	0.088654 
3280.916016  	0.088826 
3282.844832  	0.089099 
3284.773648  	0.089248 
3286.702464  	0.089424 
3288.631280  	0.089759 
3290.560096  	0.090146 
3292.488912  	0.090445 
3294.417728  	0.090611 
3296.346544  	0.090856 
3298.275360  	0.091113 
3300.204176  	0.091570 
3302.132992  	0.091948 
3304.061808  	0.092151 
3305.990624  	0.092607 
3307.919440  	0.093030 
3309.848256  	0.093218 
3311.777072  	0.093525 
3313.705888  	0.093879 
3315.634704  	0.094403 
3317.563520  	0.094825 
3319.492336  	0.095001 
3321.421152  	0.095050 
3323.349968  	0.095254 
3325.278784  	0.095537 
3327.207600  	0.095729 
3329.136416  	0.095654 
3331.065232  	0.095619 
3332.994048  	0.095865 
3334.922864  	0.096045 
3336.851680  	0.095971 
3338.780496  	0.095763 
3340.709312  	0.095651 
3342.638128  	0.095679 
3344.566944  	0.095282 
3346.495760  	0.094993 
3348.424576  	0.094890 
3350.353392  	0.094448 
3352.282208  	0.094052 
3354.211024  	0.093838 
3356.139840  	0.093618 
3358.068656  	0.093179 
3359.997472  	0.092809 
3361.926288  	0.092379 
3363.855104  	0.092043 
3365.783920  	0.091566 
3367.712736  	0.091003 
3369.641552  	0.090590 
3371.570368  	0.090150 
3373.499184  	0.089841 
3375.428000  	0.089571 
3377.356816  	0.089224 
3379.285632  	0.088943 
3381.214448  	0.088540 
3383.143264  	0.087960 
3385.072080  	0.087383 
3387.000896  	0.086985 
3388.929712  	0.086691 
3390.858528  	0.086407 
3392.787344  	0.086014 
3394.716160  	0.085413 
3396.644976  	0.085136 
3398.573792  	0.084756 
3400.502608  	0.084270 
3402.431424  	0.083663 
3404.360240  	0.083082 
3406.289056  	0.082480 
3408.217872  	0.082020 
3410.146688  	0.081474 
3412.075504  	0.081007 
3414.004320  	0.080544 
3415.933136  	0.080044 
3417.861952  	0.079530 
3419.790768  	0.079113 
3421.719584  	0.078436 
3423.648400  	0.077804 
3425.577216  	0.077179 
3427.506032  	0.076580 
3429.434848  	0.076063 
3431.363664  	0.075538 
3433.292480  	0.074991 
3435.221296  	0.074381 
3437.150112  	0.073734 
3439.078928  	0.073156 
3441.007744  	0.072655 
3442.936560  	0.072148 
3444.865376  	0.071722 
3446.794192  	0.070924 
3448.723008  	0.069971 
3450.651824  	0.069332 
3452.580640  	0.068771 
3454.509456  	0.068279 
3456.438272  	0.067628 
3458.367088  	0.066909 
3460.295904  	0.066151 
3462.224720  	0.065214 
3464.153536  	0.064426 
3466.082352  	0.063701 
3468.011168  	0.062754 
3469.939984  	0.061934 
3471.868800  	0.061105 
3473.797616  	0.060394 
3475.726432  	0.059692 
3477.655248  	0.058997 
3479.584064  	0.058456 
3481.512880  	0.057615 
3483.441696  	0.056361 
3485.370512  	0.055552 
3487.299328  	0.054665 
3489.228144  	0.053942 
3491.156960  	0.053228 
3493.085776  	0.052512 
3495.014592  	0.051645 
3496.943408  	0.050766 
3498.872224  	0.050413 
3500.801040  	0.050600 
3502.729856  	0.049722 
3504.658672  	0.048079 
3506.587488  	0.047807 
3508.516304  	0.047587 
3510.445120  	0.046397 
3512.373936  	0.045387 
3514.302752  	0.044743 
3516.231568  	0.044434 
3518.160384  	0.043901 
3520.089200  	0.043214 
3522.018016  	0.042985 
3523.946832  	0.042868 
3525.875648  	0.042067 
3527.804464  	0.040545 
3529.733280  	0.039590 
3531.662096  	0.038984 
3533.590912  	0.038442 
3535.519728  	0.038108 
3537.448544  	0.037438 
3539.377360  	0.036511 
3541.306176  	0.036175 
3543.234992  	0.036361 
3545.163808  	0.036563 
3547.092624  	0.035274 
3549.021440  	0.033671 
3550.950256  	0.032967 
3552.879072  	0.032030 
3554.807888  	0.031340 
3556.736704  	0.030950 
3558.665520  	0.030887 
3560.594336  	0.030736 
3562.523152  	0.030090 
3564.451968  	0.030118 
3566.380784  	0.029787 
3568.309600  	0.027296 
3570.238416  	0.026110 
3572.167232  	0.025728 
3574.096048  	0.025040 
3576.024864  	0.024086 
3577.953680  	0.023610 
3579.882496  	0.023050 
3581.811312  	0.022284 
3583.740128  	0.021959 
3585.668944  	0.022383 
3587.597760  	0.020834 
3589.526576  	0.018802 
3591.455392  	0.018518 
3593.384208  	0.018113 
3595.313024  	0.017014 
3597.241840  	0.015653 
3599.170656  	0.014113 
3601.099472  	0.012813 
3603.028288  	0.012766 
3604.957104  	0.013189 
3606.885920  	0.012656 
3608.814736  	0.010960 
3610.743552  	0.010853 
3612.672368  	0.009949 
3614.601184  	0.008470 
3616.530000  	0.008527 
3618.458816  	0.006314 
3620.387632  	0.003828 
3622.316448  	0.004153 
3624.245264  	0.004601 
3626.174080  	0.004935 
3628.102896  	0.001909 
3630.031712  	-0.002741 
3631.960528  	-0.000385 
3633.889344  	-0.000513 
3635.818160  	-0.001528 
3637.746976  	-0.002306 
3639.675792  	-0.002561 
3641.604608  	-0.002670 
3643.533424  	-0.002967 
3645.462240  	-0.003046 
3647.391056  	-0.005887 
3649.319872  	-0.011332 
3651.248688  	-0.013529 
3653.177504  	-0.010147 
3655.106320  	-0.010050 
3657.035136  	-0.013150 
3658.963952  	-0.012774 
3660.892768  	-0.012595 
3662.821584  	-0.012898 
3664.750400  	-0.012685 
3666.679216  	-0.012191 
3668.608032  	-0.014193 
3670.536848  	-0.018527 
3672.465664  	-0.016093 
3674.394480  	-0.016690 
3676.323296  	-0.022138 
3678.252112  	-0.017789 
3680.180928  	-0.015890 
3682.109744  	-0.015330 
3684.038560  	-0.015353 
3685.967376  	-0.015056 
3687.896192  	-0.017829 
3689.825008  	-0.021632 
3691.753824  	-0.020448 
3693.682640  	-0.017533 
3695.611456  	-0.016090 
3697.540272  	-0.015392 
3699.469088  	-0.014518 
3701.397904  	-0.015700 
3703.326720  	-0.015820 
3705.255536  	-0.014065 
3707.184352  	-0.013402 
3709.113168  	-0.014780 
3711.041984  	-0.017506 
3712.970800  	-0.016882 
3714.899616  	-0.013401 
3716.828432  	-0.012204 
3718.757248  	-0.012557 
3720.686064  	-0.013214 
3722.614880  	-0.013961 
3724.543696  	-0.013077 
3726.472512  	-0.013423 
3728.401328  	-0.013480 
3730.330144  	-0.013432 
3732.258960  	-0.015140 
3734.187776  	-0.014549 
3736.116592  	-0.016085 
3738.045408  	-0.015713 
3739.974224  	-0.013173 
3741.903040  	-0.011146 
3743.831856  	-0.013557 
3745.760672  	-0.017011 
3747.689488  	-0.014426 
3749.618304  	-0.016850 
3751.547120  	-0.019279 
3753.475936  	-0.017068 
3755.404752  	-0.013833 
3757.333568  	-0.013407 
3759.262384  	-0.014325 
3761.191200  	-0.014161 
3763.120016  	-0.011957 
3765.048832  	-0.012747 
3766.977648  	-0.013014 
3768.906464  	-0.013621 
3770.835280  	-0.014834 
3772.764096  	-0.013291 
3774.692912  	-0.012293 
3776.621728  	-0.011797 
3778.550544  	-0.013193 
3780.479360  	-0.014657 
3782.408176  	-0.012988 
3784.336992  	-0.013159 
3786.265808  	-0.013191 
3788.194624  	-0.012665 
3790.123440  	-0.012539 
3792.052256  	-0.012424 
3793.981072  	-0.012085 
3795.909888  	-0.013585 
3797.838704  	-0.013599 
3799.767520  	-0.013424 
3801.696336  	-0.018235 
3803.625152  	-0.016144 
3805.553968  	-0.014078 
3807.482784  	-0.016249 
3809.411600  	-0.013813 
3811.340416  	-0.012010 
3813.269232  	-0.011338 
3815.198048  	-0.014179 
3817.126864  	-0.016176 
3819.055680  	-0.013872 
3820.984496  	-0.017708 
3822.913312  	-0.016891 
3824.842128  	-0.013270 
3826.770944  	-0.013664 
3828.699760  	-0.012940 
3830.628576  	-0.012961 
3832.557392  	-0.013885 
3834.486208  	-0.013656 
3836.415024  	-0.014921 
3838.343840  	-0.017042 
3840.272656  	-0.016117 
3842.201472  	-0.014380 
3844.130288  	-0.014265 
3846.059104  	-0.012836 
3847.987920  	-0.011497 
3849.916736  	-0.011262 
3851.845552  	-0.013386 
3853.774368  	-0.020286 
3855.703184  	-0.017474 
3857.632000  	-0.013785 
3859.560816  	-0.012126 
3861.489632  	-0.011995 
3863.418448  	-0.012953 
3865.347264  	-0.013865 
3867.276080  	-0.011957 
3869.204896  	-0.013179 
3871.133712  	-0.014419 
3873.062528  	-0.012958 
3874.991344  	-0.013878 
3876.920160  	-0.011914 
3878.848976  	-0.011006 
3880.777792  	-0.012357 
3882.706608  	-0.011479 
3884.635424  	-0.011507 
3886.564240  	-0.013443 
3888.493056  	-0.011922 
3890.421872  	-0.012443 
3892.350688  	-0.013915 
3894.279504  	-0.012503 
3896.208320  	-0.011057 
3898.137136  	-0.010867 
3900.065952  	-0.011478 
3901.994768  	-0.011495 
3903.923584  	-0.012630 
3905.852400  	-0.013221 
3907.781216  	-0.012512 
3909.710032  	-0.012162 
3911.638848  	-0.012057 
3913.567664  	-0.011513 
3915.496480  	-0.010768 
3917.425296  	-0.011196 
3919.354112  	-0.011890 
3921.282928  	-0.011733 
3923.211744  	-0.011076 
3925.140560  	-0.011568 
3927.069376  	-0.011625 
3928.998192  	-0.011278 
3930.927008  	-0.010827 
3932.855824  	-0.010954 
3934.784640  	-0.011545 
3936.713456  	-0.011605 
3938.642272  	-0.011351 
3940.571088  	-0.010762 
3942.499904  	-0.010829 
3944.428720  	-0.011375 
3946.357536  	-0.010916 
3948.286352  	-0.010763 
3950.215168  	-0.011424 
3952.143984  	-0.012041 
3954.072800  	-0.012083 
3956.001616  	-0.011891 
3957.930432  	-0.011851 
3959.859248  	-0.011654 
3961.788064  	-0.011587 
3963.716880  	-0.011879 
3965.645696  	-0.012215 
3967.574512  	-0.012140 
3969.503328  	-0.011788 
3971.432144  	-0.011759 
3973.360960  	-0.011715 
3975.289776  	-0.011691 
3977.218592  	-0.011789 
3979.147408  	-0.011890 
3981.076224  	-0.011937 
3983.005040  	-0.011877 
3984.933856  	-0.011774 
3986.862672  	-0.011750 
3988.791488  	-0.011580 
3990.720304  	-0.011437 
3992.649120  	-0.011519 
3994.577936  	-0.011732 
3996.506752  	-0.011881 
3998.435568  	-0.011930 
4000.364384  	-0.011912 