##TITLE=No Description
##DATA TYPE=INFRARED SPECTRUM
##XUNITS=1/CM
##YUNITS=Abs
399.264912  	0.627204 
401.193728  	0.620048 
403.122544  	0.604359 
405.051360  	0.582767 
406.980176  	0.580631 
408.908992  	0.584914 
410.837808  	0.594043 
412.766624  	0.586739 
414.695440  	0.592945 
416.624256  	0.591006 
418.553072  	0.590009 
420.481888  	0.571589 
422.410704  	0.576554 
424.339520  	0.572689 
426.268336  	0.563594 
428.197152  	0.551824 
430.125968  	0.552029 
432.054784  	0.548610 
433.983600  	0.555014 
435.912416  	0.548783 
437.841232  	0.542173 
439.770048  	0.536069 
441.698864  	0.543368 
443.627680  	0.548914 
445.556496  	0.550456 
447.485312  	0.541262 
449.414128  	0.537129 
451.342944  	0.533844 
453.271760  	0.532619 
455.200576  	0.531305 
457.129392  	0.539900 
459.058208  	0.537926 
460.987024  	0.541372 
462.915840  	0.537594 
464.844656  	0.533965 
466.773472  	0.533620 
468.702288  	0.536256 
470.631104  	0.528135 
472.559920  	0.530340 
474.488736  	0.533547 
476.417552  	0.536927 
478.346368  	0.529599 
480.275184  	0.524319 
482.204000  	0.523361 
484.132816  	0.527305 
486.061632  	0.523994 
487.990448  	0.517191 
489.919264  	0.511652 
491.848080  	0.516232 
493.776896  	0.515498 
495.705712  	0.514703 
497.634528  	0.511906 
499.563344  	0.514993 
501.492160  	0.512262 
503.420976  	0.510376 
505.349792  	0.507577 
507.278608  	0.510761 
509.207424  	0.512171 
511.136240  	0.512430 
513.065056  	0.509907 
514.993872  	0.512810 
516.922688  	0.515145 
518.851504  	0.519396 
520.780320  	0.515847 
522.709136  	0.512321 
524.637952  	0.510242 
526.566768  	0.510341 
528.495584  	0.509209 
530.424400  	0.509888 
532.353216  	0.505668 
534.282032  	0.500910 
536.210848  	0.494260 
538.139664  	0.489429 
540.068480  	0.484447 
541.997296  	0.480098 
543.926112  	0.475421 
545.854928  	0.472369 
547.783744  	0.469518 
549.712560  	0.465725 
551.641376  	0.460929 
553.570192  	0.459095 
555.499008  	0.456388 
557.427824  	0.452211 
559.356640  	0.447020 
561.285456  	0.443878 
563.214272  	0.439627 
565.143088  	0.437525 
567.071904  	0.434392 
569.000720  	0.431126 
570.929536  	0.427824 
572.858352  	0.425145 
574.787168  	0.421626 
576.715984  	0.420411 
578.644800  	0.417458 
580.573616  	0.413067 
582.502432  	0.408054 
584.431248  	0.405127 
586.360064  	0.402007 
588.288880  	0.399819 
590.217696  	0.396705 
592.146512  	0.393904 
594.075328  	0.391418 
596.004144  	0.389857 
597.932960  	0.387374 
599.861776  	0.385172 
601.790592  	0.383046 
603.719408  	0.382211 
605.648224  	0.381598 
607.577040  	0.380527 
609.505856  	0.377718 
611.434672  	0.375673 
613.363488  	0.374518 
615.292304  	0.374285 
617.221120  	0.372336 
619.149936  	0.369948 
621.078752  	0.368033 
623.007568  	0.367142 
624.936384  	0.365729 
626.865200  	0.364529 
628.794016  	0.362951 
630.722832  	0.362168 
632.651648  	0.361662 
634.580464  	0.361720 
636.509280  	0.361428 
638.438096  	0.361404 
640.366912  	0.360429 
642.295728  	0.358907 
644.224544  	0.355990 
646.153360  	0.352545 
648.082176  	0.347599 
650.010992  	0.344248 
651.939808  	0.340568 
653.868624  	0.336538 
655.797440  	0.332714 
657.726256  	0.328918 
659.655072  	0.325401 
661.583888  	0.322135 
663.512704  	0.318466 
665.441520  	0.315244 
667.370336  	0.308070 
669.299152  	0.301507 
671.227968  	0.301137 
673.156784  	0.298933 
675.085600  	0.295962 
677.014416  	0.293452 
678.943232  	0.291251 
680.872048  	0.289505 
682.800864  	0.288001 
684.729680  	0.286188 
686.658496  	0.284239 
688.587312  	0.283239 
690.516128  	0.281779 
692.444944  	0.280677 
694.373760  	0.279874 
696.302576  	0.277642 
698.231392  	0.275097 
700.160208  	0.273080 
702.089024  	0.271167 
704.017840  	0.268790 
705.946656  	0.266238 
707.875472  	0.263756 
709.804288  	0.261499 
711.733104  	0.259577 
713.661920  	0.257591 
715.590736  	0.256125 
717.519552  	0.255296 
719.448368  	0.255237 
721.377184  	0.255269 
723.306000  	0.255974 
725.234816  	0.256303 
727.163632  	0.255808 
729.092448  	0.253457 
731.021264  	0.250143 
732.950080  	0.246857 
734.878896  	0.243731 
736.807712  	0.240928 
738.736528  	0.238628 
740.665344  	0.236592 
742.594160  	0.234827 
744.522976  	0.233092 
746.451792  	0.231158 
748.380608  	0.229386 
750.309424  	0.228327 
752.238240  	0.227403 
754.167056  	0.226167 
756.095872  	0.224572 
758.024688  	0.223813 
759.953504  	0.223398 
761.882320  	0.223622 
763.811136  	0.223697 
765.739952  	0.222640 
767.668768  	0.220479 
769.597584  	0.218124 
771.526400  	0.216774 
773.455216  	0.217699 
775.384032  	0.220961 
777.312848  	0.225658 
779.241664  	0.229018 
781.170480  	0.228850 
783.099296  	0.225565 
785.028112  	0.220388 
786.956928  	0.214704 
788.885744  	0.209969 
790.814560  	0.206268 
792.743376  	0.203515 
794.672192  	0.202101 
796.601008  	0.201102 
798.529824  	0.198523 
800.458640  	0.194319 
802.387456  	0.190654 
804.316272  	0.188575 
806.245088  	0.187095 
808.173904  	0.186008 
810.102720  	0.185482 
812.031536  	0.185260 
813.960352  	0.185414 
815.889168  	0.185546 
817.817984  	0.185509 
819.746800  	0.185723 
821.675616  	0.185787 
823.604432  	0.185503 
825.533248  	0.184996 
827.462064  	0.184402 
829.390880  	0.183733 
831.319696  	0.182634 
833.248512  	0.180659 
835.177328  	0.178289 
837.106144  	0.175652 
839.034960  	0.172718 
840.963776  	0.169321 
842.892592  	0.165756 
844.821408  	0.162343 
846.750224  	0.159215 
848.679040  	0.156357 
850.607856  	0.154070 
852.536672  	0.152321 
854.465488  	0.150702 
856.394304  	0.149389 
858.323120  	0.148034 
860.251936  	0.145956 
862.180752  	0.143708 
864.109568  	0.141237 
866.038384  	0.138709 
867.967200  	0.136468 
869.896016  	0.134600 
871.824832  	0.133457 
873.753648  	0.132958 
875.682464  	0.133527 
877.611280  	0.133905 
879.540096  	0.134616 
881.468912  	0.136653 
883.397728  	0.138143 
885.326544  	0.139211 
887.255360  	0.139536 
889.184176  	0.138477 
891.112992  	0.136471 
893.041808  	0.134834 
894.970624  	0.132593 
896.899440  	0.129241 
898.828256  	0.125259 
900.757072  	0.121525 
902.685888  	0.118512 
904.614704  	0.116504 
906.543520  	0.116293 
908.472336  	0.117285 
910.401152  	0.119492 
912.329968  	0.122163 
914.258784  	0.124818 
916.187600  	0.127524 
918.116416  	0.129970 
920.045232  	0.131503 
921.974048  	0.132489 
923.902864  	0.132937 
925.831680  	0.132835 
927.760496  	0.132779 
929.689312  	0.133072 
931.618128  	0.133878 
933.546944  	0.134525 
935.475760  	0.134666 
937.404576  	0.134261 
939.333392  	0.133817 
941.262208  	0.133860 
943.191024  	0.134947 
945.119840  	0.138063 
947.048656  	0.143213 
948.977472  	0.150099 
950.906288  	0.158658 
952.835104  	0.168456 
954.763920  	0.179088 
956.692736  	0.189349 
958.621552  	0.198289 
960.550368  	0.204721 
962.479184  	0.208150 
964.408000  	0.207788 
966.336816  	0.203695 
968.265632  	0.195976 
970.194448  	0.185381 
972.123264  	0.173059 
974.052080  	0.160085 
975.980896  	0.147264 
977.909712  	0.135194 
979.838528  	0.124542 
981.767344  	0.115529 
983.696160  	0.108483 
985.624976  	0.103917 
987.553792  	0.101971 
989.482608  	0.102483 
991.411424  	0.105227 
993.340240  	0.109661 
995.269056  	0.115384 
997.197872  	0.121574 
999.126688  	0.127809 
1001.055504  	0.134180 
1002.984320  	0.140616 
1004.913136  	0.146956 
1006.841952  	0.153087 
1008.770768  	0.158271 
1010.699584  	0.162012 
1012.628400  	0.164129 
1014.557216  	0.164926 
1016.486032  	0.165261 
1018.414848  	0.164902 
1020.343664  	0.164223 
1022.272480  	0.163216 
1024.201296  	0.161927 
1026.130112  	0.158706 
1028.058928  	0.157251 
1029.987744  	0.159983 
1031.916560  	0.161923 
1033.845376  	0.163142 
1035.774192  	0.164353 
1037.703008  	0.167079 
1039.631824  	0.173257 
1041.560640  	0.181728 
1043.489456  	0.193035 
1045.418272  	0.207124 
1047.347088  	0.222989 
1049.275904  	0.237748 
1051.204720  	0.249560 
1053.133536  	0.257017 
1055.062352  	0.260137 
1056.991168  	0.260021 
1058.919984  	0.261240 
1060.848800  	0.262262 
1062.777616  	0.260199 
1064.706432  	0.254200 
1066.635248  	0.249103 
1068.564064  	0.247576 
1070.492880  	0.243383 
1072.421696  	0.236080 
1074.350512  	0.230844 
1076.279328  	0.229130 
1078.208144  	0.231470 
1080.136960  	0.236631 
1082.065776  	0.242505 
1083.994592  	0.246734 
1085.923408  	0.248100 
1087.852224  	0.246032 
1089.781040  	0.241940 
1091.709856  	0.236352 
1093.638672  	0.228198 
1095.567488  	0.217210 
1097.496304  	0.205284 
1099.425120  	0.192431 
1101.353936  	0.179543 
1103.282752  	0.167229 
1105.211568  	0.155606 
1107.140384  	0.144413 
1109.069200  	0.134031 
1110.998016  	0.124479 
1112.926832  	0.115732 
1114.855648  	0.107777 
1116.784464  	0.100268 
1118.713280  	0.093162 
1120.642096  	0.086476 
1122.570912  	0.080324 
1124.499728  	0.074356 
1126.428544  	0.068962 
1128.357360  	0.064256 
1130.286176  	0.060492 
1132.214992  	0.057291 
1134.143808  	0.054480 
1136.072624  	0.052173 
1138.001440  	0.050404 
1139.930256  	0.048279 
1141.859072  	0.046134 
1143.787888  	0.043760 
1145.716704  	0.041472 
1147.645520  	0.039455 
1149.574336  	0.037694 
1151.503152  	0.036185 
1153.431968  	0.035712 
1155.360784  	0.035918 
1157.289600  	0.036706 
1159.218416  	0.038073 
1161.147232  	0.040158 
1163.076048  	0.042182 
1165.004864  	0.044356 
1166.933680  	0.046521 
1168.862496  	0.048918 
1170.791312  	0.051249 
1172.720128  	0.053974 
1174.648944  	0.056622 
1176.577760  	0.059359 
1178.506576  	0.061863 
1180.435392  	0.064447 
1182.364208  	0.067105 
1184.293024  	0.070169 
1186.221840  	0.073388 
1188.150656  	0.077225 
1190.079472  	0.081558 
1192.008288  	0.086703 
1193.937104  	0.093022 
1195.865920  	0.100296 
1197.794736  	0.108387 
1199.723552  	0.117256 
1201.652368  	0.126194 
1203.581184  	0.135185 
1205.510000  	0.143807 
1207.438816  	0.152067 
1209.367632  	0.160146 
1211.296448  	0.167141 
1213.225264  	0.172941 
1215.154080  	0.177298 
1217.082896  	0.180472 
1219.011712  	0.182655 
1220.940528  	0.184199 
1222.869344  	0.184976 
1224.798160  	0.185016 
1226.726976  	0.184301 
1228.655792  	0.183236 
1230.584608  	0.181431 
1232.513424  	0.179126 
1234.442240  	0.176307 
1236.371056  	0.172938 
1238.299872  	0.168219 
1240.228688  	0.161127 
1242.157504  	0.154226 
1244.086320  	0.148488 
1246.015136  	0.141158 
1247.943952  	0.133081 
1249.872768  	0.125287 
1251.801584  	0.118441 
1253.730400  	0.111447 
1255.659216  	0.104595 
1257.588032  	0.098303 
1259.516848  	0.092213 
1261.445664  	0.086564 
1263.374480  	0.081467 
1265.303296  	0.077148 
1267.232112  	0.073699 
1269.160928  	0.071145 
1271.089744  	0.069201 
1273.018560  	0.068115 
1274.947376  	0.067884 
1276.876192  	0.068176 
1278.805008  	0.068087 
1280.733824  	0.067045 
1282.662640  	0.065111 
1284.591456  	0.062790 
1286.520272  	0.060794 
1288.449088  	0.059555 
1290.377904  	0.058758 
1292.306720  	0.058832 
1294.235536  	0.058947 
1296.164352  	0.058202 
1298.093168  	0.055982 
1300.021984  	0.053213 
1301.950800  	0.050246 
1303.879616  	0.047437 
1305.808432  	0.044377 
1307.737248  	0.041299 
1309.666064  	0.038384 
1311.594880  	0.036423 
1313.523696  	0.034926 
1315.452512  	0.033839 
1317.381328  	0.033204 
1319.310144  	0.033011 
1321.238960  	0.032987 
1323.167776  	0.033552 
1325.096592  	0.034259 
1327.025408  	0.034764 
1328.954224  	0.034795 
1330.883040  	0.034449 
1332.811856  	0.033561 
1334.740672  	0.033152 
1336.669488  	0.033438 
1338.598304  	0.034006 
1340.527120  	0.032584 
1342.455936  	0.030492 
1344.384752  	0.029859 
1346.313568  	0.030052 
1348.242384  	0.030582 
1350.171200  	0.031685 
1352.100016  	0.033250 
1354.028832  	0.035221 
1355.957648  	0.037005 
1357.886464  	0.038933 
1359.815280  	0.041224 
1361.744096  	0.043974 
1363.672912  	0.045246 
1365.601728  	0.045811 
1367.530544  	0.047095 
1369.459360  	0.047740 
1371.388176  	0.047639 
1373.316992  	0.046744 
1375.245808  	0.043603 
1377.174624  	0.040838 
1379.103440  	0.038026 
1381.032256  	0.035012 
1382.961072  	0.032709 
1384.889888  	0.032101 
1386.818704  	0.031947 
1388.747520  	0.030022 
1390.676336  	0.027509 
1392.605152  	0.024561 
1394.533968  	0.023136 
1396.462784  	0.025895 
1398.391600  	0.026887 
1400.320416  	0.025806 
1402.249232  	0.025837 
1404.178048  	0.026647 
1406.106864  	0.027252 
1408.035680  	0.028770 
1409.964496  	0.031158 
1411.893312  	0.034028 
1413.822128  	0.036942 
1415.750944  	0.040801 
1417.679760  	0.043726 
1419.608576  	0.043314 
1421.537392  	0.043274 
1423.466208  	0.043624 
1425.395024  	0.041872 
1427.323840  	0.040414 
1429.252656  	0.038236 
1431.181472  	0.036584 
1433.110288  	0.036408 
1435.039104  	0.037177 
1436.967920  	0.036744 
1438.896736  	0.036997 
1440.825552  	0.037890 
1442.754368  	0.038486 
1444.683184  	0.038803 
1446.612000  	0.038920 
1448.540816  	0.037897 
1450.469632  	0.038178 
1452.398448  	0.039156 
1454.327264  	0.040469 
1456.256080  	0.040411 
1458.184896  	0.037651 
1460.113712  	0.038409 
1462.042528  	0.039600 
1463.971344  	0.039316 
1465.900160  	0.039743 
1467.828976  	0.042346 
1469.757792  	0.045608 
1471.686608  	0.048902 
1473.615424  	0.054358 
1475.544240  	0.060501 
1477.473056  	0.065609 
1479.401872  	0.069203 
1481.330688  	0.072383 
1483.259504  	0.074380 
1485.188320  	0.076147 
1487.117136  	0.076418 
1489.045952  	0.076077 
1490.974768  	0.072754 
1492.903584  	0.070214 
1494.832400  	0.067215 
1496.761216  	0.060970 
1498.690032  	0.055107 
1500.618848  	0.051437 
1502.547664  	0.048034 
1504.476480  	0.044321 
1506.405296  	0.038992 
1508.334112  	0.037320 
1510.262928  	0.036918 
1512.191744  	0.034625 
1514.120560  	0.033609 
1516.049376  	0.033302 
1517.978192  	0.032133 
1519.907008  	0.033325 
1521.835824  	0.033656 
1523.764640  	0.037677 
1525.693456  	0.042046 
1527.622272  	0.043997 
1529.551088  	0.044524 
1531.479904  	0.044542 
1533.408720  	0.040890 
1535.337536  	0.037791 
1537.266352  	0.036077 
1539.195168  	0.028770 
1541.123984  	0.022357 
1543.052800  	0.025378 
1544.981616  	0.025846 
1546.910432  	0.024870 
1548.839248  	0.025398 
1550.768064  	0.025534 
1552.696880  	0.025117 
1554.625696  	0.025428 
1556.554512  	0.025455 
1558.483328  	0.023260 
1560.412144  	0.027071 
1562.340960  	0.033909 
1564.269776  	0.037614 
1566.198592  	0.042446 
1568.127408  	0.046432 
1570.056224  	0.051191 
1571.985040  	0.057896 
1573.913856  	0.062347 
1575.842672  	0.063045 
1577.771488  	0.066065 
1579.700304  	0.068298 
1581.629120  	0.068306 
1583.557936  	0.067744 
1585.486752  	0.068370 
1587.415568  	0.070356 
1589.344384  	0.074533 
1591.273200  	0.080175 
1593.202016  	0.087042 
1595.130832  	0.094192 
1597.059648  	0.101770 
1598.988464  	0.108373 
1600.917280  	0.114216 
1602.846096  	0.118066 
1604.774912  	0.120616 
1606.703728  	0.120915 
1608.632544  	0.120031 
1610.561360  	0.118116 
1612.490176  	0.116778 
1614.418992  	0.114670 
1616.347808  	0.111527 
1618.276624  	0.112569 
1620.205440  	0.117339 
1622.134256  	0.119965 
1624.063072  	0.124918 
1625.991888  	0.131800 
1627.920704  	0.139466 
1629.849520  	0.148817 
1631.778336  	0.158134 
1633.707152  	0.164428 
1635.635968  	0.171125 
1637.564784  	0.181493 
1639.493600  	0.189941 
1641.422416  	0.195535 
1643.351232  	0.199803 
1645.280048  	0.200574 
1647.208864  	0.200012 
1649.137680  	0.201728 
1651.066496  	0.202560 
1652.995312  	0.194863 
1654.924128  	0.194417 
1656.852944  	0.195959 
1658.781760  	0.194357 
1660.710576  	0.190978 
1662.639392  	0.185609 
1664.568208  	0.181585 
1666.497024  	0.179527 
1668.425840  	0.173945 
1670.354656  	0.166529 
1672.283472  	0.163883 
1674.212288  	0.161204 
1676.141104  	0.156165 
1678.069920  	0.155759 
1679.998736  	0.155265 
1681.927552  	0.153754 
1683.856368  	0.148066 
1685.785184  	0.146694 
1687.714000  	0.149530 
1689.642816  	0.149215 
1691.571632  	0.147552 
1693.500448  	0.146681 
1695.429264  	0.142446 
1697.358080  	0.139311 
1699.286896  	0.137272 
1701.215712  	0.131685 
1703.144528  	0.131634 
1705.073344  	0.127787 
1707.002160  	0.122054 
1708.930976  	0.118337 
1710.859792  	0.112793 
1712.788608  	0.106527 
1714.717424  	0.098667 
1716.646240  	0.088052 
1718.575056  	0.074747 
1720.503872  	0.067611 
1722.432688  	0.061428 
1724.361504  	0.052451 
1726.290320  	0.045048 
1728.219136  	0.039206 
1730.147952  	0.033908 
1732.076768  	0.029090 
1734.005584  	0.022224 
1735.934400  	0.017222 
1737.863216  	0.017200 
1739.792032  	0.013647 
1741.720848  	0.012535 
1743.649664  	0.012226 
1745.578480  	0.011211 
1747.507296  	0.009491 
1749.436112  	0.008701 
1751.364928  	0.007611 
1753.293744  	0.006697 
1755.222560  	0.006323 
1757.151376  	0.005747 
1759.080192  	0.005160 
1761.009008  	0.004533 
1762.937824  	0.002988 
1764.866640  	0.003350 
1766.795456  	0.003862 
1768.724272  	0.003485 
1770.653088  	0.001417 
1772.581904  	-0.000958 
1774.510720  	0.000197 
1776.439536  	0.001707 
1778.368352  	0.001892 
1780.297168  	0.001678 
1782.225984  	0.001144 
1784.154800  	0.001616 
1786.083616  	0.000954 
1788.012432  	0.001032 
1789.941248  	0.001511 
1791.870064  	0.000443 
1793.798880  	-0.000937 
1795.727696  	0.000436 
1797.656512  	0.000083 
1799.585328  	-0.000121 
1801.514144  	0.000303 
1803.442960  	0.000085 
1805.371776  	-0.000638 
1807.300592  	-0.000234 
1809.229408  	-0.000604 
1811.158224  	-0.000967 
1813.087040  	-0.001331 
1815.015856  	-0.001103 
1816.944672  	-0.000907 
1818.873488  	-0.000902 
1820.802304  	-0.001169 
1822.731120  	-0.000560 
1824.659936  	-0.001047 
1826.588752  	-0.001583 
1828.517568  	-0.002113 
1830.446384  	-0.002480 
1832.375200  	-0.001918 
1834.304016  	-0.001345 
1836.232832  	-0.001451 
1838.161648  	-0.001288 
1840.090464  	-0.001517 
1842.019280  	-0.000866 
1843.948096  	-0.001776 
1845.876912  	-0.001871 
1847.805728  	-0.001331 
1849.734544  	-0.001476 
1851.663360  	-0.001984 
1853.592176  	-0.001872 
1855.520992  	-0.001939 
1857.449808  	-0.001671 
1859.378624  	-0.001797 
1861.307440  	-0.001811 
1863.236256  	-0.002074 
1865.165072  	-0.001813 
1867.093888  	-0.001948 
1869.022704  	-0.002308 
1870.951520  	-0.002578 
1872.880336  	-0.002089 
1874.809152  	-0.002441 
1876.737968  	-0.002323 
1878.666784  	-0.002401 
1880.595600  	-0.001960 
1882.524416  	-0.002275 
1884.453232  	-0.002047 
1886.382048  	-0.002173 
1888.310864  	-0.002050 
1890.239680  	-0.002681 
1892.168496  	-0.002409 
1894.097312  	-0.002218 
1896.026128  	-0.001938 
1897.954944  	-0.002511 
1899.883760  	-0.002500 
1901.812576  	-0.002676 
1903.741392  	-0.002832 
1905.670208  	-0.002738 
1907.599024  	-0.001939 
1909.527840  	-0.002162 
1911.456656  	-0.002012 
1913.385472  	-0.002163 
1915.314288  	-0.001811 
1917.243104  	-0.002151 
1919.171920  	-0.002300 
1921.100736  	-0.002404 
1923.029552  	-0.002173 
1924.958368  	-0.002799 
1926.887184  	-0.002545 
1928.816000  	-0.002647 
1930.744816  	-0.002363 
1932.673632  	-0.002714 
1934.602448  	-0.002601 
1936.531264  	-0.002832 
1938.460080  	-0.002202 
1940.388896  	-0.002196 
1942.317712  	-0.002132 
1944.246528  	-0.002844 
1946.175344  	-0.001881 
1948.104160  	-0.001939 
1950.032976  	-0.002015 
1951.961792  	-0.002681 
1953.890608  	-0.002467 
1955.819424  	-0.002919 
1957.748240  	-0.002170 
1959.677056  	-0.002874 
1961.605872  	-0.002434 
1963.534688  	-0.003135 
1965.463504  	-0.003178 
1967.392320  	-0.003906 
1969.321136  	-0.002978 
1971.249952  	-0.002841 
1973.178768  	-0.002181 
1975.107584  	-0.002890 
1977.036400  	-0.001795 
1978.965216  	-0.000477 
1980.894032  	-0.000848 
1982.822848  	-0.002132 
1984.751664  	-0.001314 
1986.680480  	-0.001831 
1988.609296  	-0.001593 
1990.538112  	-0.002547 
1992.466928  	-0.002379 
1994.395744  	-0.002702 
1996.324560  	-0.002557 
1998.253376  	-0.002959 
2000.182192  	-0.003353 
2002.111008  	-0.003652 
2004.039824  	-0.002718 
2005.968640  	-0.003153 
2007.897456  	-0.002699 
2009.826272  	-0.003382 
2011.755088  	-0.003166 
2013.683904  	-0.003784 
2015.612720  	-0.003323 
2017.541536  	-0.003449 
2019.470352  	-0.003219 
2021.399168  	-0.003622 
2023.327984  	-0.003066 
2025.256800  	-0.002871 
2027.185616  	-0.002283 
2029.114432  	-0.002509 
2031.043248  	-0.001820 
2032.972064  	-0.002118 
2034.900880  	-0.001699 
2036.829696  	-0.002342 
2038.758512  	-0.001541 
2040.687328  	-0.002452 
2042.616144  	-0.001785 
2044.544960  	-0.001702 
2046.473776  	-0.001486 
2048.402592  	-0.002341 
2050.331408  	-0.002091 
2052.260224  	-0.002576 
2054.189040  	-0.002514 
2056.117856  	-0.002696 
2058.046672  	-0.002449 
2059.975488  	-0.002752 
2061.904304  	-0.002886 
2063.833120  	-0.002571 
2065.761936  	-0.001848 
2067.690752  	-0.002251 
2069.619568  	-0.001852 
2071.548384  	-0.001935 
2073.477200  	-0.002205 
2075.406016  	-0.002221 
2077.334832  	-0.002067 
2079.263648  	-0.002025 
2081.192464  	-0.001684 
2083.121280  	-0.002069 
2085.050096  	-0.002015 
2086.978912  	-0.001688 
2088.907728  	-0.001280 
2090.836544  	-0.001855 
2092.765360  	-0.001985 
2094.694176  	-0.001532 
2096.622992  	-0.001346 
2098.551808  	-0.001870 
2100.480624  	-0.001199 
2102.409440  	-0.001187 
2104.338256  	-0.001716 
2106.267072  	-0.001477 
2108.195888  	-0.000769 
2110.124704  	-0.001113 
2112.053520  	-0.000955 
2113.982336  	-0.001147 
2115.911152  	-0.001103 
2117.839968  	-0.001125 
2119.768784  	-0.000882 
2121.697600  	-0.001304 
2123.626416  	-0.001671 
2125.555232  	-0.001946 
2127.484048  	-0.001676 
2129.412864  	-0.002258 
2131.341680  	-0.002794 
2133.270496  	-0.002964 
2135.199312  	-0.001856 
2137.128128  	-0.001227 
2139.056944  	-0.000789 
2140.985760  	-0.001198 
2142.914576  	-0.001136 
2144.843392  	-0.001420 
2146.772208  	-0.001242 
2148.701024  	-0.001595 
2150.629840  	-0.000868 
2152.558656  	-0.001049 
2154.487472  	-0.000934 
2156.416288  	-0.001338 
2158.345104  	-0.000001 
2160.273920  	0.001557 
2162.202736  	0.002202 
2164.131552  	0.001583 
2166.060368  	0.001106 
2167.989184  	0.001214 
2169.918000  	0.002069 
2171.846816  	0.000228 
2173.775632  	0.000473 
2175.704448  	0.000533 
2177.633264  	-0.000120 
2179.562080  	-0.000574 
2181.490896  	0.000133 
2183.419712  	-0.000081 
2185.348528  	0.000027 
2187.277344  	0.000250 
2189.206160  	0.000390 
2191.134976  	-0.000745 
2193.063792  	-0.000853 
2194.992608  	-0.000542 
2196.921424  	-0.000517 
2198.850240  	-0.000914 
2200.779056  	-0.000588 
2202.707872  	-0.000695 
2204.636688  	-0.000745 
2206.565504  	-0.000598 
2208.494320  	-0.000919 
2210.423136  	-0.001682 
2212.351952  	-0.001357 
2214.280768  	-0.001300 
2216.209584  	-0.001296 
2218.138400  	-0.001892 
2220.067216  	-0.001601 
2221.996032  	-0.001392 
2223.924848  	-0.001033 
2225.853664  	-0.001107 
2227.782480  	-0.000635 
2229.711296  	-0.000951 
2231.640112  	-0.001837 
2233.568928  	-0.002502 
2235.497744  	-0.001808 
2237.426560  	-0.001671 
2239.355376  	-0.001494 
2241.284192  	-0.001574 
2243.213008  	-0.001688 
2245.141824  	-0.001970 
2247.070640  	-0.001565 
2248.999456  	-0.001734 
2250.928272  	-0.002236 
2252.857088  	-0.002669 
2254.785904  	-0.002553 
2256.714720  	-0.002641 
2258.643536  	-0.002230 
2260.572352  	-0.002215 
2262.501168  	-0.002362 
2264.429984  	-0.002706 
2266.358800  	-0.002850 
2268.287616  	-0.002735 
2270.216432  	-0.002522 
2272.145248  	-0.002699 
2274.074064  	-0.002833 
2276.002880  	-0.002653 
2277.931696  	-0.002151 
2279.860512  	-0.001812 
2281.789328  	-0.001474 
2283.718144  	-0.001639 
2285.646960  	-0.001469 
2287.575776  	-0.001274 
2289.504592  	-0.001328 
2291.433408  	-0.001322 
2293.362224  	-0.001344 
2295.291040  	-0.001260 
2297.219856  	-0.000840 
2299.148672  	-0.000701 
2301.077488  	-0.000644 
2303.006304  	-0.000597 
2304.935120  	-0.000364 
2306.863936  	-0.000249 
2308.792752  	-0.000227 
2310.721568  	-0.000738 
2312.650384  	-0.001385 
2314.579200  	-0.002233 
2316.508016  	-0.003123 
2318.436832  	-0.004101 
2320.365648  	-0.005489 
2322.294464  	-0.006873 
2324.223280  	-0.008465 
2326.152096  	-0.010842 
2328.080912  	-0.012720 
2330.009728  	-0.014432 
2331.938544  	-0.016373 
2333.867360  	-0.017778 
2335.796176  	-0.018838 
2337.724992  	-0.020234 
2339.653808  	-0.020505 
2341.582624  	-0.020686 
2343.511440  	-0.019466 
2345.440256  	-0.016331 
2347.369072  	-0.011341 
2349.297888  	-0.008582 
2351.226704  	-0.011391 
2353.155520  	-0.017199 
2355.084336  	-0.021588 
2357.013152  	-0.024742 
2358.941968  	-0.026421 
2360.870784  	-0.027568 
2362.799600  	-0.026726 
2364.728416  	-0.025514 
2366.657232  	-0.022849 
2368.586048  	-0.019147 
2370.514864  	-0.015500 
2372.443680  	-0.011901 
2374.372496  	-0.008512 
2376.301312  	-0.005725 
2378.230128  	-0.003315 
2380.158944  	-0.002026 
2382.087760  	-0.001584 
2384.016576  	-0.001647 
2385.945392  	-0.001933 
2387.874208  	-0.002237 
2389.803024  	-0.002518 
2391.731840  	-0.002943 
2393.660656  	-0.003004 
2395.589472  	-0.002807 
2397.518288  	-0.002646 
2399.447104  	-0.002765 
2401.375920  	-0.002916 
2403.304736  	-0.003087 
2405.233552  	-0.002923 
2407.162368  	-0.002969 
2409.091184  	-0.002832 
2411.020000  	-0.002778 
2412.948816  	-0.002820 
2414.877632  	-0.002888 
2416.806448  	-0.002712 
2418.735264  	-0.002782 
2420.664080  	-0.002930 
2422.592896  	-0.002973 
2424.521712  	-0.002862 
2426.450528  	-0.002883 
2428.379344  	-0.002745 
2430.308160  	-0.002581 
2432.236976  	-0.002395 
2434.165792  	-0.002214 
2436.094608  	-0.002320 
2438.023424  	-0.002474 
2439.952240  	-0.002306 
2441.881056  	-0.002202 
2443.809872  	-0.002060 
2445.738688  	-0.002046 
2447.667504  	-0.001932 
2449.596320  	-0.001821 
2451.525136  	-0.001669 
2453.453952  	-0.001602 
2455.382768  	-0.001673 
2457.311584  	-0.001845 
2459.240400  	-0.001873 
2461.169216  	-0.001993 
2463.098032  	-0.001995 
2465.026848  	-0.002001 
2466.955664  	-0.002079 
2468.884480  	-0.002296 
2470.813296  	-0.002303 
2472.742112  	-0.002283 
2474.670928  	-0.002231 
2476.599744  	-0.002233 
2478.528560  	-0.002193 
2480.457376  	-0.002100 
2482.386192  	-0.001931 
2484.315008  	-0.001731 
2486.243824  	-0.001746 
2488.172640  	-0.002045 
2490.101456  	-0.002040 
2492.030272  	-0.001776 
2493.959088  	-0.001468 
2495.887904  	-0.001493 
2497.816720  	-0.001520 
2499.745536  	-0.001364 
2501.674352  	-0.001168 
2503.603168  	-0.001023 
2505.531984  	-0.000955 
2507.460800  	-0.001230 
2509.389616  	-0.001222 
2511.318432  	-0.001128 
2513.247248  	-0.001081 
2515.176064  	-0.001158 
2517.104880  	-0.001176 
2519.033696  	-0.001159 
2520.962512  	-0.000988 
2522.891328  	-0.000823 
2524.820144  	-0.000849 
2526.748960  	-0.000888 
2528.677776  	-0.000814 
2530.606592  	-0.000875 
2532.535408  	-0.000847 
2534.464224  	-0.000776 
2536.393040  	-0.000700 
2538.321856  	-0.000715 
2540.250672  	-0.000561 
2542.179488  	-0.000507 
2544.108304  	-0.000624 
2546.037120  	-0.000667 
2547.965936  	-0.000658 
2549.894752  	-0.000545 
2551.823568  	-0.000318 
2553.752384  	-0.000104 
2555.681200  	0.000061 
2557.610016  	-0.000039 
2559.538832  	0.000082 
2561.467648  	0.000346 
2563.396464  	0.000454 
2565.325280  	0.000558 
2567.254096  	0.000551 
2569.182912  	0.000489 
2571.111728  	0.000527 
2573.040544  	0.000544 
2574.969360  	0.000637 
2576.898176  	0.000989 
2578.826992  	0.000977 
2580.755808  	0.000754 
2582.684624  	0.000928 
2584.613440  	0.001006 
2586.542256  	0.001058 
2588.471072  	0.001225 
2590.399888  	0.001354 
2592.328704  	0.001408 
2594.257520  	0.001258 
2596.186336  	0.001196 
2598.115152  	0.001395 
2600.043968  	0.001460 
2601.972784  	0.001653 
2603.901600  	0.001687 
2605.830416  	0.001715 
2607.759232  	0.001938 
2609.688048  	0.002186 
2611.616864  	0.002373 
2613.545680  	0.002498 
2615.474496  	0.002627 
2617.403312  	0.002835 
2619.332128  	0.002888 
2621.260944  	0.002932 
2623.189760  	0.002915 
2625.118576  	0.002931 
2627.047392  	0.003018 
2628.976208  	0.003208 
2630.905024  	0.003265 
2632.833840  	0.003346 
2634.762656  	0.003536 
2636.691472  	0.003625 
2638.620288  	0.003707 
2640.549104  	0.003864 
2642.477920  	0.003880 
2644.406736  	0.003976 
2646.335552  	0.004095 
2648.264368  	0.004259 
2650.193184  	0.004385 
2652.122000  	0.004535 
2654.050816  	0.004690 
2655.979632  	0.004813 
2657.908448  	0.004865 
2659.837264  	0.004940 
2661.766080  	0.005077 
2663.694896  	0.005212 
2665.623712  	0.005253 
2667.552528  	0.005424 
2669.481344  	0.005606 
2671.410160  	0.005711 
2673.338976  	0.005837 
2675.267792  	0.005944 
2677.196608  	0.006079 
2679.125424  	0.006217 
2681.054240  	0.006414 
2682.983056  	0.006613 
2684.911872  	0.006619 
2686.840688  	0.006666 
2688.769504  	0.006747 
2690.698320  	0.006767 
2692.627136  	0.006885 
2694.555952  	0.007060 
2696.484768  	0.007118 
2698.413584  	0.007138 
2700.342400  	0.007239 
2702.271216  	0.007408 
2704.200032  	0.007659 
2706.128848  	0.007771 
2708.057664  	0.007687 
2709.986480  	0.007757 
2711.915296  	0.007962 
2713.844112  	0.008137 
2715.772928  	0.008187 
2717.701744  	0.008292 
2719.630560  	0.008463 
2721.559376  	0.008651 
2723.488192  	0.008787 
2725.417008  	0.008912 
2727.345824  	0.009149 
2729.274640  	0.009317 
2731.203456  	0.009457 
2733.132272  	0.009593 
2735.061088  	0.009679 
2736.989904  	0.009844 
2738.918720  	0.009948 
2740.847536  	0.010010 
2742.776352  	0.010007 
2744.705168  	0.010133 
2746.633984  	0.010243 
2748.562800  	0.010327 
2750.491616  	0.010398 
2752.420432  	0.010532 
2754.349248  	0.010488 
2756.278064  	0.010392 
2758.206880  	0.010270 
2760.135696  	0.010332 
2762.064512  	0.010358 
2763.993328  	0.010364 
2765.922144  	0.010386 
2767.850960  	0.010431 
2769.779776  	0.010441 
2771.708592  	0.010483 
2773.637408  	0.010407 
2775.566224  	0.010362 
2777.495040  	0.010329 
2779.423856  	0.010376 
2781.352672  	0.010409 
2783.281488  	0.010423 
2785.210304  	0.010410 
2787.139120  	0.010383 
2789.067936  	0.010491 
2790.996752  	0.010533 
2792.925568  	0.010418 
2794.854384  	0.010450 
2796.783200  	0.010499 
2798.712016  	0.010459 
2800.640832  	0.010399 
2802.569648  	0.010478 
2804.498464  	0.010549 
2806.427280  	0.010537 
2808.356096  	0.010491 
2810.284912  	0.010488 
2812.213728  	0.010465 
2814.142544  	0.010436 
2816.071360  	0.010400 
2818.000176  	0.010289 
2819.928992  	0.010172 
2821.857808  	0.010167 
2823.786624  	0.010039 
2825.715440  	0.009856 
2827.644256  	0.009765 
2829.573072  	0.009718 
2831.501888  	0.009419 
2833.430704  	0.009008 
2835.359520  	0.008711 
2837.288336  	0.008524 
2839.217152  	0.008223 
2841.145968  	0.007886 
2843.074784  	0.007650 
2845.003600  	0.007386 
2846.932416  	0.007056 
2848.861232  	0.006801 
2850.790048  	0.006518 
2852.718864  	0.006016 
2854.647680  	0.005459 
2856.576496  	0.004853 
2858.505312  	0.004277 
2860.434128  	0.003732 
2862.362944  	0.002990 
2864.291760  	0.002225 
2866.220576  	0.001661 
2868.149392  	0.001380 
2870.078208  	0.001141 
2872.007024  	0.001084 
2873.935840  	0.001226 
2875.864656  	0.001228 
2877.793472  	0.001074 
2879.722288  	0.000978 
2881.651104  	0.000632 
2883.579920  	0.000409 
2885.508736  	0.000659 
2887.437552  	0.000979 
2889.366368  	0.001025 
2891.295184  	0.000843 
2893.224000  	0.000773 
2895.152816  	0.000735 
2897.081632  	0.000372 
2899.010448  	-0.001177 
2900.939264  	-0.002569 
2902.868080  	-0.001414 
2904.796896  	-0.000118 
2906.725712  	0.000510 
2908.654528  	0.001189 
2910.583344  	0.001692 
2912.512160  	0.002340 
2914.440976  	0.003640 
2916.369792  	0.004582 
2918.298608  	0.005102 
2920.227424  	0.005637 
2922.156240  	0.006295 
2924.085056  	0.007053 
2926.013872  	0.007842 
2927.942688  	0.008712 
2929.871504  	0.009685 
2931.800320  	0.010502 
2933.729136  	0.011240 
2935.657952  	0.011828 
2937.586768  	0.012437 
2939.515584  	0.013056 
2941.444400  	0.013248 
2943.373216  	0.013245 
2945.302032  	0.013516 
2947.230848  	0.013793 
2949.159664  	0.013587 
2951.088480  	0.013078 
2953.017296  	0.012583 
2954.946112  	0.012003 
2956.874928  	0.011387 
2958.803744  	0.010623 
2960.732560  	0.010075 
2962.661376  	0.009469 
2964.590192  	0.008582 
2966.519008  	0.007382 
2968.447824  	0.006327 
2970.376640  	0.005607 
2972.305456  	0.005221 
2974.234272  	0.005381 
2976.163088  	0.005604 
2978.091904  	0.005709 
2980.020720  	0.005813 
2981.949536  	0.005987 
2983.878352  	0.005770 
2985.807168  	0.004837 
2987.735984  	0.003897 
2989.664800  	0.004281 
2991.593616  	0.007167 
2993.522432  	0.009111 
2995.451248  	0.009772 
2997.380064  	0.010549 
2999.308880  	0.011657 
3001.237696  	0.012894 
3003.166512  	0.014349 
3005.095328  	0.015729 
3007.024144  	0.017067 
3008.952960  	0.018534 
3010.881776  	0.020045 
3012.810592  	0.021382 
3014.739408  	0.022531 
3016.668224  	0.023684 
3018.597040  	0.025035 
3020.525856  	0.026237 
3022.454672  	0.027202 
3024.383488  	0.028255 
3026.312304  	0.029302 
3028.241120  	0.030373 
3030.169936  	0.031337 
3032.098752  	0.032064 
3034.027568  	0.032749 
3035.956384  	0.033625 
3037.885200  	0.034536 
3039.814016  	0.035198 
3041.742832  	0.035858 
3043.671648  	0.036457 
3045.600464  	0.037260 
3047.529280  	0.037735 
3049.458096  	0.038183 
3051.386912  	0.038979 
3053.315728  	0.039617 
3055.244544  	0.040186 
3057.173360  	0.040884 
3059.102176  	0.041553 
3061.030992  	0.042353 
3062.959808  	0.043136 
3064.888624  	0.043732 
3066.817440  	0.044404 
3068.746256  	0.045411 
3070.675072  	0.046236 
3072.603888  	0.046871 
3074.532704  	0.047711 
3076.461520  	0.048566 
3078.390336  	0.049328 
3080.319152  	0.050003 
3082.247968  	0.050838 
3084.176784  	0.051824 
3086.105600  	0.052596 
3088.034416  	0.053262 
3089.963232  	0.054263 
3091.892048  	0.054963 
3093.820864  	0.055609 
3095.749680  	0.056474 
3097.678496  	0.057402 
3099.607312  	0.058309 
3101.536128  	0.059346 
3103.464944  	0.060360 
3105.393760  	0.061019 
3107.322576  	0.061686 
3109.251392  	0.062506 
3111.180208  	0.063333 
3113.109024  	0.063993 
3115.037840  	0.064573 
3116.966656  	0.065368 
3118.895472  	0.066090 
3120.824288  	0.066761 
3122.753104  	0.067559 
3124.681920  	0.068137 
3126.610736  	0.068491 
3128.539552  	0.069217 
3130.468368  	0.070118 
3132.397184  	0.070898 
3134.326000  	0.071636 
3136.254816  	0.072235 
3138.183632  	0.072791 
3140.112448  	0.073330 
3142.041264  	0.073932 
3143.970080  	0.074638 
3145.898896  	0.075447 
3147.827712  	0.076137 
3149.756528  	0.076604 
3151.685344  	0.077113 
3153.614160  	0.078010 
3155.542976  	0.078907 
3157.471792  	0.079550 
3159.400608  	0.080093 
3161.329424  	0.080685 
3163.258240  	0.081333 
3165.187056  	0.081892 
3167.115872  	0.082436 
3169.044688  	0.082959 
3170.973504  	0.083431 
3172.902320  	0.083891 
3174.831136  	0.084379 
3176.759952  	0.084958 
3178.688768  	0.085326 
3180.617584  	0.085581 
3182.546400  	0.085984 
3184.475216  	0.086311 
3186.404032  	0.086390 
3188.332848  	0.086547 
3190.261664  	0.086885 
3192.190480  	0.087204 
3194.119296  	0.087245 
3196.048112  	0.087341 
3197.976928  	0.087175 
3199.905744  	0.087132 
3201.834560  	0.087165 
3203.763376  	0.087263 
3205.692192  	0.087223 
3207.621008  	0.086977 
3209.549824  	0.086878 
3211.478640  	0.086984 
3213.407456  	0.087000 
3215.336272  	0.086876 
3217.265088  	0.086706 
3219.193904  	0.086613 
3221.122720  	0.086473 
3223.051536  	0.086334 
3224.980352  	0.086218 
3226.909168  	0.086024 
3228.837984  	0.085678 
3230.766800  	0.085559 
3232.695616  	0.085640 
3234.624432  	0.085543 
3236.553248  	0.085348 
3238.482064  	0.085283 
3240.410880  	0.085285 
3242.339696  	0.085455 
3244.268512  	0.085343 
3246.197328  	0.085591 
3248.126144  	0.086049 
3250.054960  	0.086102 
3251.983776  	0.086226 
3253.912592  	0.086571 
3255.841408  	0.086890 
3257.770224  	0.087038 
3259.699040  	0.087250 
3261.627856  	0.087729 
3263.556672  	0.088026 
3265.485488  	0.088030 
3267.414304  	0.088139 
3269.343120  	0.088513 
3271.271936  	0.088874 
3273.200752  	0.088880 
3275.129568  	0.088797 
3277.058384  	0.089256 
3278.987200  	0.089516 
3280.916016  	0.089726 
3282.844832  	0.090007 
3284.773648  	0.090247 
3286.702464  	0.090464 
3288.631280  	0.090678 
3290.560096  	0.090839 
3292.488912  	0.091210 
3294.417728  	0.091642 
3296.346544  	0.092116 
3298.275360  	0.092366 
3300.204176  	0.092630 
3302.132992  	0.093006 
3304.061808  	0.093168 
3305.990624  	0.093398 
3307.919440  	0.093900 
3309.848256  	0.094341 
3311.777072  	0.094533 
3313.705888  	0.094714 
3315.634704  	0.095301 
3317.563520  	0.095736 
3319.492336  	0.095969 
3321.421152  	0.096155 
3323.349968  	0.096475 
3325.278784  	0.096792 
3327.207600  	0.096950 
3329.136416  	0.096837 
3331.065232  	0.096869 
3332.994048  	0.097042 
3334.922864  	0.097230 
3336.851680  	0.097289 
3338.780496  	0.097361 
3340.709312  	0.097287 
3342.638128  	0.097032 
3344.566944  	0.096556 
3346.495760  	0.096277 
3348.424576  	0.096093 
3350.353392  	0.095798 
3352.282208  	0.095466 
3354.211024  	0.095242 
3356.139840  	0.094977 
3358.068656  	0.094580 
3359.997472  	0.094298 
3361.926288  	0.093936 
3363.855104  	0.093614 
3365.783920  	0.093230 
3367.712736  	0.092775 
3369.641552  	0.092264 
3371.570368  	0.091685 
3373.499184  	0.091376 
3375.428000  	0.090976 
3377.356816  	0.090799 
3379.285632  	0.090674 
3381.214448  	0.090149 
3383.143264  	0.089728 
3385.072080  	0.089390 
3387.000896  	0.088836 
3388.929712  	0.088465 
3390.858528  	0.088265 
3392.787344  	0.087819 
3394.716160  	0.087222 
3396.644976  	0.086836 
3398.573792  	0.086406 
3400.502608  	0.085979 
3402.431424  	0.085436 
3404.360240  	0.084821 
3406.289056  	0.084200 
3408.217872  	0.083658 
3410.146688  	0.083288 
3412.075504  	0.082976 
3414.004320  	0.082436 
3415.933136  	0.081888 
3417.861952  	0.081343 
3419.790768  	0.080853 
3421.719584  	0.080272 
3423.648400  	0.079647 
3425.577216  	0.078982 
3427.506032  	0.078530 
3429.434848  	0.078077 
3431.363664  	0.077549 
3433.292480  	0.076825 
3435.221296  	0.076084 
3437.150112  	0.075725 
3439.078928  	0.075302 
3441.007744  	0.074560 
3442.936560  	0.074050 
3444.865376  	0.073608 
3446.794192  	0.072921 
3448.723008  	0.072100 
3450.651824  	0.071284 
3452.580640  	0.070614 
3454.509456  	0.070243 
3456.438272  	0.069692 
3458.367088  	0.069020 
3460.295904  	0.068220 
3462.224720  	0.067263 
3464.153536  	0.066517 
3466.082352  	0.065922 
3468.011168  	0.064963 
3469.939984  	0.063975 
3471.868800  	0.063154 
3473.797616  	0.062251 
3475.726432  	0.061362 
3477.655248  	0.060759 
3479.584064  	0.060438 
3481.512880  	0.059793 
3483.441696  	0.058601 
3485.370512  	0.057632 
3487.299328  	0.056659 
3489.228144  	0.055917 
3491.156960  	0.055215 
3493.085776  	0.054535 
3495.014592  	0.053745 
3496.943408  	0.052947 
3498.872224  	0.052323 
3500.801040  	0.052175 
3502.729856  	0.051553 
3504.658672  	0.050249 
3506.587488  	0.049552 
3508.516304  	0.049268 
3510.445120  	0.048496 
3512.373936  	0.047331 
3514.302752  	0.046593 
3516.231568  	0.046403 
3518.160384  	0.045940 
3520.089200  	0.045201 
3522.018016  	0.044846 
3523.946832  	0.044860 
3525.875648  	0.043962 
3527.804464  	0.042558 
3529.733280  	0.041628 
3531.662096  	0.040878 
3533.590912  	0.040176 
3535.519728  	0.040070 
3537.448544  	0.039623 
3539.377360  	0.038437 
3541.306176  	0.037765 
3543.234992  	0.037880 
3545.163808  	0.038243 
3547.092624  	0.037468 
3549.021440  	0.035836 
3550.950256  	0.035002 
3552.879072  	0.034287 
3554.807888  	0.033407 
3556.736704  	0.032572 
3558.665520  	0.032252 
3560.594336  	0.032105 
3562.523152  	0.031171 
3564.451968  	0.031138 
3566.380784  	0.031908 
3568.309600  	0.030660 
3570.238416  	0.028703 
3572.167232  	0.027656 
3574.096048  	0.026725 
3576.024864  	0.025864 
3577.953680  	0.025457 
3579.882496  	0.024853 
3581.811312  	0.024044 
3583.740128  	0.023317 
3585.668944  	0.023397 
3587.597760  	0.022915 
3589.526576  	0.021348 
3591.455392  	0.020166 
3593.384208  	0.019670 
3595.313024  	0.018843 
3597.241840  	0.017494 
3599.170656  	0.016290 
3601.099472  	0.015472 
3603.028288  	0.015114 
3604.957104  	0.014799 
3606.885920  	0.014078 
3608.814736  	0.013132 
3610.743552  	0.012838 
3612.672368  	0.011841 
3614.601184  	0.010516 
3616.530000  	0.009895 
3618.458816  	0.008176 
3620.387632  	0.006573 
3622.316448  	0.006195 
3624.245264  	0.005632 
3626.174080  	0.005128 
3628.102896  	0.003337 
3630.031712  	0.001273 
3631.960528  	0.001940 
3633.889344  	0.001645 
3635.818160  	0.000809 
3637.746976  	-0.000226 
3639.675792  	-0.000707 
3641.604608  	-0.000980 
3643.533424  	-0.001728 
3645.462240  	-0.002878 
3647.391056  	-0.005272 
3649.319872  	-0.008620 
3651.248688  	-0.009508 
3653.177504  	-0.008015 
3655.106320  	-0.008715 
3657.035136  	-0.010412 
3658.963952  	-0.010237 
3660.892768  	-0.010417 
3662.821584  	-0.011064 
3664.750400  	-0.011281 
3666.679216  	-0.011622 
3668.608032  	-0.013537 
3670.536848  	-0.015387 
3672.465664  	-0.013977 
3674.394480  	-0.015549 
3676.323296  	-0.018108 
3678.252112  	-0.015044 
3680.180928  	-0.013868 
3682.109744  	-0.013734 
3684.038560  	-0.013974 
3685.967376  	-0.014201 
3687.896192  	-0.016556 
3689.825008  	-0.018596 
3691.753824  	-0.016984 
3693.682640  	-0.015121 
3695.611456  	-0.014305 
3697.540272  	-0.013412 
3699.469088  	-0.013054 
3701.397904  	-0.013693 
3703.326720  	-0.013310 
3705.255536  	-0.012300 
3707.184352  	-0.012366 
3709.113168  	-0.013626 
3711.041984  	-0.014912 
3712.970800  	-0.013339 
3714.899616  	-0.010803 
3716.828432  	-0.010588 
3718.757248  	-0.011256 
3720.686064  	-0.011874 
3722.614880  	-0.011974 
3724.543696  	-0.011302 
3726.472512  	-0.011512 
3728.401328  	-0.011762 
3730.330144  	-0.012943 
3732.258960  	-0.014506 
3734.187776  	-0.013122 
3736.116592  	-0.012602 
3738.045408  	-0.012607 
3739.974224  	-0.011665 
3741.903040  	-0.011348 
3743.831856  	-0.013148 
3745.760672  	-0.013543 
3747.689488  	-0.012764 
3749.618304  	-0.015196 
3751.547120  	-0.016122 
3753.475936  	-0.013645 
3755.404752  	-0.011720 
3757.333568  	-0.011507 
3759.262384  	-0.012071 
3761.191200  	-0.011769 
3763.120016  	-0.010702 
3765.048832  	-0.011153 
3766.977648  	-0.011149 
3768.906464  	-0.011973 
3770.835280  	-0.012162 
3772.764096  	-0.011010 
3774.692912  	-0.010664 
3776.621728  	-0.010762 
3778.550544  	-0.011770 
3780.479360  	-0.012041 
3782.408176  	-0.011060 
3784.336992  	-0.011297 
3786.265808  	-0.010944 
3788.194624  	-0.010657 
3790.123440  	-0.010824 
3792.052256  	-0.010832 
3793.981072  	-0.010801 
3795.909888  	-0.011835 
3797.838704  	-0.011842 
3799.767520  	-0.012661 
3801.696336  	-0.015159 
3803.625152  	-0.013216 
3805.553968  	-0.012714 
3807.482784  	-0.013341 
3809.411600  	-0.011570 
3811.340416  	-0.010816 
3813.269232  	-0.010935 
3815.198048  	-0.013016 
3817.126864  	-0.013403 
3819.055680  	-0.012632 
3820.984496  	-0.014997 
3822.913312  	-0.013167 
3824.842128  	-0.011405 
3826.770944  	-0.011738 
3828.699760  	-0.011317 
3830.628576  	-0.011743 
3832.557392  	-0.012360 
3834.486208  	-0.012599 
3836.415024  	-0.013511 
3838.343840  	-0.014024 
3840.272656  	-0.012803 
3842.201472  	-0.011795 
3844.130288  	-0.011746 
3846.059104  	-0.010928 
3847.987920  	-0.010542 
3849.916736  	-0.011041 
3851.845552  	-0.013346 
3853.774368  	-0.016200 
3855.703184  	-0.013120 
3857.632000  	-0.011143 
3859.560816  	-0.010599 
3861.489632  	-0.010703 
3863.418448  	-0.011093 
3865.347264  	-0.011084 
3867.276080  	-0.010581 
3869.204896  	-0.011764 
3871.133712  	-0.011400 
3873.062528  	-0.011062 
3874.991344  	-0.011362 
3876.920160  	-0.010204 
3878.848976  	-0.009943 
3880.777792  	-0.010361 
3882.706608  	-0.009890 
3884.635424  	-0.010284 
3886.564240  	-0.010951 
3888.493056  	-0.010590 
3890.421872  	-0.011091 
3892.350688  	-0.011250 
3894.279504  	-0.010342 
3896.208320  	-0.009932 
3898.137136  	-0.009736 
3900.065952  	-0.009600 
3901.994768  	-0.009375 
3903.923584  	-0.009967 
3905.852400  	-0.010166 
3907.781216  	-0.010286 
3909.710032  	-0.010373 
3911.638848  	-0.010342 
3913.567664  	-0.010145 
3915.496480  	-0.009658 
3917.425296  	-0.009599 
3919.354112  	-0.009916 
3921.282928  	-0.009795 
3923.211744  	-0.009377 
3925.140560  	-0.009249 
3927.069376  	-0.009636 
3928.998192  	-0.009655 
3930.927008  	-0.009049 
3932.855824  	-0.008875 
3934.784640  	-0.009436 
3936.713456  	-0.009855 
3938.642272  	-0.009820 
3940.571088  	-0.009590 
3942.499904  	-0.009149 
3944.428720  	-0.009157 
3946.357536  	-0.009039 
3948.286352  	-0.008782 
3950.215168  	-0.009403 
3952.143984  	-0.010206 
3954.072800  	-0.010209 
3956.001616  	-0.009860 
3957.930432  	-0.009843 
3959.859248  	-0.009840 
3961.788064  	-0.009828 
3963.716880  	-0.010085 
3965.645696  	-0.010345 
3967.574512  	-0.010168 
3969.503328  	-0.009890 
3971.432144  	-0.010003 
3973.360960  	-0.010100 
3975.289776  	-0.009997 
3977.218592  	-0.009855 
3979.147408  	-0.009903 
3981.076224  	-0.009945 
3983.005040  	-0.009937 
3984.933856  	-0.010035 
3986.862672  	-0.010068 
3988.791488  	-0.009791 
3990.720304  	-0.009496 
3992.649120  	-0.009719 
3994.577936  	-0.009919 
3996.506752  	-0.009922 
3998.435568  	-0.010115 
4000.364384  	-0.010089 