##TITLE=No Description
##DATA TYPE=INFRARED SPECTRUM
##XUNITS=1/CM
##YUNITS=Abs
399.264912  	0.605861 
401.193728  	0.589637 
403.122544  	0.576443 
405.051360  	0.576503 
406.980176  	0.582817 
408.908992  	0.570667 
410.837808  	0.574284 
412.766624  	0.578052 
414.695440  	0.585612 
416.624256  	0.576399 
418.553072  	0.572017 
420.481888  	0.560929 
422.410704  	0.562355 
424.339520  	0.559710 
426.268336  	0.556702 
428.197152  	0.544751 
430.125968  	0.546418 
432.054784  	0.545284 
433.983600  	0.545463 
435.912416  	0.539173 
437.841232  	0.538390 
439.770048  	0.533807 
441.698864  	0.536188 
443.627680  	0.533697 
445.556496  	0.530828 
447.485312  	0.518072 
449.414128  	0.516960 
451.342944  	0.521749 
453.271760  	0.522304 
455.200576  	0.513853 
457.129392  	0.520400 
459.058208  	0.522142 
460.987024  	0.520804 
462.915840  	0.515101 
464.844656  	0.513353 
466.773472  	0.510261 
468.702288  	0.516110 
470.631104  	0.513379 
472.559920  	0.515630 
474.488736  	0.513873 
476.417552  	0.514860 
478.346368  	0.509828 
480.275184  	0.507761 
482.204000  	0.502819 
484.132816  	0.502648 
486.061632  	0.504301 
487.990448  	0.511018 
489.919264  	0.509490 
491.848080  	0.506860 
493.776896  	0.500187 
495.705712  	0.500000 
497.634528  	0.501441 
499.563344  	0.502477 
501.492160  	0.496339 
503.420976  	0.497024 
505.349792  	0.496363 
507.278608  	0.497587 
509.207424  	0.497020 
511.136240  	0.497218 
513.065056  	0.498410 
514.993872  	0.500924 
516.922688  	0.499044 
518.851504  	0.500009 
520.780320  	0.499230 
522.709136  	0.499032 
524.637952  	0.497530 
526.566768  	0.498867 
528.495584  	0.497773 
530.424400  	0.496722 
532.353216  	0.491883 
534.282032  	0.488027 
536.210848  	0.480874 
538.139664  	0.475971 
540.068480  	0.470629 
541.997296  	0.466287 
543.926112  	0.463714 
545.854928  	0.461056 
547.783744  	0.455101 
549.712560  	0.452283 
551.641376  	0.448828 
553.570192  	0.445609 
555.499008  	0.442382 
557.427824  	0.439253 
559.356640  	0.434352 
561.285456  	0.431583 
563.214272  	0.428348 
565.143088  	0.425232 
567.071904  	0.420994 
569.000720  	0.418840 
570.929536  	0.415965 
572.858352  	0.412808 
574.787168  	0.410822 
576.715984  	0.409505 
578.644800  	0.405483 
580.573616  	0.401045 
582.502432  	0.395687 
584.431248  	0.392710 
586.360064  	0.389604 
588.288880  	0.387436 
590.217696  	0.385274 
592.146512  	0.382627 
594.075328  	0.379733 
596.004144  	0.377913 
597.932960  	0.375783 
599.861776  	0.375006 
601.790592  	0.372706 
603.719408  	0.370356 
605.648224  	0.369403 
607.577040  	0.368550 
609.505856  	0.366780 
611.434672  	0.365608 
613.363488  	0.364067 
615.292304  	0.363071 
617.221120  	0.360826 
619.149936  	0.358901 
621.078752  	0.357097 
623.007568  	0.356514 
624.936384  	0.355291 
626.865200  	0.354047 
628.794016  	0.352564 
630.722832  	0.352193 
632.651648  	0.351880 
634.580464  	0.351679 
636.509280  	0.351128 
638.438096  	0.350550 
640.366912  	0.349348 
642.295728  	0.347924 
644.224544  	0.345233 
646.153360  	0.341954 
648.082176  	0.337527 
650.010992  	0.333672 
651.939808  	0.330269 
653.868624  	0.326751 
655.797440  	0.322742 
657.726256  	0.319106 
659.655072  	0.315969 
661.583888  	0.312427 
663.512704  	0.308843 
665.441520  	0.306243 
667.370336  	0.299248 
669.299152  	0.292609 
671.227968  	0.292362 
673.156784  	0.290170 
675.085600  	0.287455 
677.014416  	0.284622 
678.943232  	0.281788 
680.872048  	0.279988 
682.800864  	0.278303 
684.729680  	0.276568 
686.658496  	0.275487 
688.587312  	0.274624 
690.516128  	0.273233 
692.444944  	0.272223 
694.373760  	0.271238 
696.302576  	0.269297 
698.231392  	0.267278 
700.160208  	0.265331 
702.089024  	0.263243 
704.017840  	0.260903 
705.946656  	0.258166 
707.875472  	0.255681 
709.804288  	0.253960 
711.733104  	0.252540 
713.661920  	0.250446 
715.590736  	0.248905 
717.519552  	0.247967 
719.448368  	0.247821 
721.377184  	0.248162 
723.306000  	0.249174 
725.234816  	0.249245 
727.163632  	0.248472 
729.092448  	0.246314 
731.021264  	0.243175 
732.950080  	0.240093 
734.878896  	0.236990 
736.807712  	0.233688 
738.736528  	0.231396 
740.665344  	0.229454 
742.594160  	0.227623 
744.522976  	0.226024 
746.451792  	0.224389 
748.380608  	0.222797 
750.309424  	0.221287 
752.238240  	0.220099 
754.167056  	0.219406 
756.095872  	0.218458 
758.024688  	0.217280 
759.953504  	0.216461 
761.882320  	0.217010 
763.811136  	0.217406 
765.739952  	0.216530 
767.668768  	0.214040 
769.597584  	0.211609 
771.526400  	0.210510 
773.455216  	0.211711 
775.384032  	0.214857 
777.312848  	0.219321 
779.241664  	0.222894 
781.170480  	0.222963 
783.099296  	0.219502 
785.028112  	0.214107 
786.956928  	0.208559 
788.885744  	0.203939 
790.814560  	0.200574 
792.743376  	0.198183 
794.672192  	0.196783 
796.601008  	0.195487 
798.529824  	0.192602 
800.458640  	0.188437 
802.387456  	0.185010 
804.316272  	0.183057 
806.245088  	0.181516 
808.173904  	0.180559 
810.102720  	0.180021 
812.031536  	0.179852 
813.960352  	0.180121 
815.889168  	0.180392 
817.817984  	0.180318 
819.746800  	0.180384 
821.675616  	0.180313 
823.604432  	0.179993 
825.533248  	0.179653 
827.462064  	0.179437 
829.390880  	0.178802 
831.319696  	0.177141 
833.248512  	0.175246 
835.177328  	0.173316 
837.106144  	0.170886 
839.034960  	0.167582 
840.963776  	0.163964 
842.892592  	0.160727 
844.821408  	0.157535 
846.750224  	0.154476 
848.679040  	0.151524 
850.607856  	0.149240 
852.536672  	0.147410 
854.465488  	0.145812 
856.394304  	0.144667 
858.323120  	0.143406 
860.251936  	0.141557 
862.180752  	0.139315 
864.109568  	0.136658 
866.038384  	0.134186 
867.967200  	0.132011 
869.896016  	0.129953 
871.824832  	0.128717 
873.753648  	0.128341 
875.682464  	0.128990 
877.611280  	0.129494 
879.540096  	0.130165 
881.468912  	0.132021 
883.397728  	0.133388 
885.326544  	0.134346 
887.255360  	0.134713 
889.184176  	0.133789 
891.112992  	0.131946 
893.041808  	0.130327 
894.970624  	0.128002 
896.899440  	0.124722 
898.828256  	0.120845 
900.757072  	0.117139 
902.685888  	0.113973 
904.614704  	0.112112 
906.543520  	0.112164 
908.472336  	0.113447 
910.401152  	0.115784 
912.329968  	0.118286 
914.258784  	0.121059 
916.187600  	0.123685 
918.116416  	0.125956 
920.045232  	0.127458 
921.974048  	0.128441 
923.902864  	0.129095 
925.831680  	0.129159 
927.760496  	0.129269 
929.689312  	0.129685 
931.618128  	0.130233 
933.546944  	0.130590 
935.475760  	0.130965 
937.404576  	0.131004 
939.333392  	0.130600 
941.262208  	0.130460 
943.191024  	0.131539 
945.119840  	0.134626 
947.048656  	0.139592 
948.977472  	0.146492 
950.906288  	0.154961 
952.835104  	0.164438 
954.763920  	0.174700 
956.692736  	0.184898 
958.621552  	0.193777 
960.550368  	0.200071 
962.479184  	0.203337 
964.408000  	0.202902 
966.336816  	0.198871 
968.265632  	0.191624 
970.194448  	0.181459 
972.123264  	0.169278 
974.052080  	0.156568 
975.980896  	0.144031 
977.909712  	0.132344 
979.838528  	0.121909 
981.767344  	0.113004 
983.696160  	0.106113 
985.624976  	0.101804 
987.553792  	0.099904 
989.482608  	0.100469 
991.411424  	0.103312 
993.340240  	0.107822 
995.269056  	0.113291 
997.197872  	0.119220 
999.126688  	0.125348 
1001.055504  	0.131621 
1002.984320  	0.137910 
1004.913136  	0.143722 
1006.841952  	0.149413 
1008.770768  	0.154281 
1010.699584  	0.157911 
1012.628400  	0.160067 
1014.557216  	0.160765 
1016.486032  	0.160882 
1018.414848  	0.160532 
1020.343664  	0.160164 
1022.272480  	0.159396 
1024.201296  	0.158141 
1026.130112  	0.154831 
1028.058928  	0.153489 
1029.987744  	0.156328 
1031.916560  	0.158062 
1033.845376  	0.159077 
1035.774192  	0.160111 
1037.703008  	0.162554 
1039.631824  	0.168507 
1041.560640  	0.176675 
1043.489456  	0.187332 
1045.418272  	0.200740 
1047.347088  	0.215604 
1049.275904  	0.229452 
1051.204720  	0.240650 
1053.133536  	0.247717 
1055.062352  	0.250651 
1056.991168  	0.250080 
1058.919984  	0.251239 
1060.848800  	0.252247 
1062.777616  	0.249801 
1064.706432  	0.244129 
1066.635248  	0.239562 
1068.564064  	0.237900 
1070.492880  	0.233448 
1072.421696  	0.226107 
1074.350512  	0.220809 
1076.279328  	0.219129 
1078.208144  	0.221410 
1080.136960  	0.226363 
1082.065776  	0.232186 
1083.994592  	0.236394 
1085.923408  	0.237837 
1087.852224  	0.236172 
1089.781040  	0.232262 
1091.709856  	0.226875 
1093.638672  	0.219061 
1095.567488  	0.208514 
1097.496304  	0.196968 
1099.425120  	0.184918 
1101.353936  	0.172830 
1103.282752  	0.161122 
1105.211568  	0.149874 
1107.140384  	0.138988 
1109.069200  	0.128876 
1110.998016  	0.119670 
1112.926832  	0.111443 
1114.855648  	0.103866 
1116.784464  	0.096701 
1118.713280  	0.090053 
1120.642096  	0.083688 
1122.570912  	0.077525 
1124.499728  	0.071726 
1126.428544  	0.066707 
1128.357360  	0.062151 
1130.286176  	0.058411 
1132.214992  	0.055175 
1134.143808  	0.052574 
1136.072624  	0.050560 
1138.001440  	0.048960 
1139.930256  	0.046761 
1141.859072  	0.044503 
1143.787888  	0.042305 
1145.716704  	0.040478 
1147.645520  	0.038676 
1149.574336  	0.037008 
1151.503152  	0.035609 
1153.431968  	0.035107 
1155.360784  	0.035247 
1157.289600  	0.035930 
1159.218416  	0.037216 
1161.147232  	0.038989 
1163.076048  	0.040833 
1165.004864  	0.042939 
1166.933680  	0.044995 
1168.862496  	0.047295 
1170.791312  	0.049464 
1172.720128  	0.052190 
1174.648944  	0.054647 
1176.577760  	0.057148 
1178.506576  	0.059565 
1180.435392  	0.062204 
1182.364208  	0.064790 
1184.293024  	0.067813 
1186.221840  	0.070940 
1188.150656  	0.074438 
1190.079472  	0.078672 
1192.008288  	0.083839 
1193.937104  	0.089938 
1195.865920  	0.096966 
1197.794736  	0.104506 
1199.723552  	0.112799 
1201.652368  	0.121412 
1203.581184  	0.130093 
1205.510000  	0.138587 
1207.438816  	0.146452 
1209.367632  	0.153634 
1211.296448  	0.160190 
1213.225264  	0.165677 
1215.154080  	0.169622 
1217.082896  	0.172399 
1219.011712  	0.174335 
1220.940528  	0.175624 
1222.869344  	0.176259 
1224.798160  	0.176153 
1226.726976  	0.175354 
1228.655792  	0.174140 
1230.584608  	0.172405 
1232.513424  	0.170232 
1234.442240  	0.167441 
1236.371056  	0.164040 
1238.299872  	0.159570 
1240.228688  	0.152788 
1242.157504  	0.146030 
1244.086320  	0.140562 
1246.015136  	0.133626 
1247.943952  	0.125957 
1249.872768  	0.118287 
1251.801584  	0.111586 
1253.730400  	0.105091 
1255.659216  	0.098727 
1257.588032  	0.092779 
1259.516848  	0.087090 
1261.445664  	0.081792 
1263.374480  	0.076909 
1265.303296  	0.072822 
1267.232112  	0.069632 
1269.160928  	0.067217 
1271.089744  	0.065422 
1273.018560  	0.064470 
1274.947376  	0.064231 
1276.876192  	0.064486 
1278.805008  	0.064474 
1280.733824  	0.063543 
1282.662640  	0.061720 
1284.591456  	0.059548 
1286.520272  	0.057756 
1288.449088  	0.056427 
1290.377904  	0.055676 
1292.306720  	0.055906 
1294.235536  	0.056008 
1296.164352  	0.055285 
1298.093168  	0.053139 
1300.021984  	0.050439 
1301.950800  	0.047593 
1303.879616  	0.044837 
1305.808432  	0.041911 
1307.737248  	0.039132 
1309.666064  	0.036387 
1311.594880  	0.034474 
1313.523696  	0.032969 
1315.452512  	0.031914 
1317.381328  	0.031419 
1319.310144  	0.031292 
1321.238960  	0.031163 
1323.167776  	0.031605 
1325.096592  	0.032298 
1327.025408  	0.032896 
1328.954224  	0.032834 
1330.883040  	0.032366 
1332.811856  	0.031562 
1334.740672  	0.031210 
1336.669488  	0.031452 
1338.598304  	0.031887 
1340.527120  	0.030460 
1342.455936  	0.028551 
1344.384752  	0.027991 
1346.313568  	0.028215 
1348.242384  	0.028728 
1350.171200  	0.029782 
1352.100016  	0.031257 
1354.028832  	0.033164 
1355.957648  	0.034885 
1357.886464  	0.036783 
1359.815280  	0.039130 
1361.744096  	0.041658 
1363.672912  	0.042520 
1365.601728  	0.043126 
1367.530544  	0.044483 
1369.459360  	0.044948 
1371.388176  	0.044804 
1373.316992  	0.043853 
1375.245808  	0.040651 
1377.174624  	0.038161 
1379.103440  	0.035448 
1381.032256  	0.032517 
1382.961072  	0.030336 
1384.889888  	0.029844 
1386.818704  	0.029561 
1388.747520  	0.027652 
1390.676336  	0.025255 
1392.605152  	0.022288 
1394.533968  	0.020532 
1396.462784  	0.023351 
1398.391600  	0.024591 
1400.320416  	0.023414 
1402.249232  	0.023567 
1404.178048  	0.024222 
1406.106864  	0.024611 
1408.035680  	0.026294 
1409.964496  	0.028726 
1411.893312  	0.031393 
1413.822128  	0.034245 
1415.750944  	0.038206 
1417.679760  	0.041076 
1419.608576  	0.040264 
1421.537392  	0.040389 
1423.466208  	0.040820 
1425.395024  	0.039170 
1427.323840  	0.038064 
1429.252656  	0.035865 
1431.181472  	0.034239 
1433.110288  	0.034293 
1435.039104  	0.035127 
1436.967920  	0.034066 
1438.896736  	0.034379 
1440.825552  	0.035580 
1442.754368  	0.036167 
1444.683184  	0.036440 
1446.612000  	0.036451 
1448.540816  	0.035345 
1450.469632  	0.035792 
1452.398448  	0.036772 
1454.327264  	0.038013 
1456.256080  	0.037309 
1458.184896  	0.034061 
1460.113712  	0.035654 
1462.042528  	0.037499 
1463.971344  	0.037045 
1465.900160  	0.037028 
1467.828976  	0.039823 
1469.757792  	0.043152 
1471.686608  	0.045773 
1473.615424  	0.050196 
1475.544240  	0.056322 
1477.473056  	0.061430 
1479.401872  	0.065148 
1481.330688  	0.068249 
1483.259504  	0.070229 
1485.188320  	0.071856 
1487.117136  	0.071868 
1489.045952  	0.071173 
1490.974768  	0.067780 
1492.903584  	0.065975 
1494.832400  	0.063413 
1496.761216  	0.056909 
1498.690032  	0.051229 
1500.618848  	0.048119 
1502.547664  	0.045181 
1504.476480  	0.041503 
1506.405296  	0.035124 
1508.334112  	0.033467 
1510.262928  	0.034242 
1512.191744  	0.032452 
1514.120560  	0.031681 
1516.049376  	0.031215 
1517.978192  	0.029952 
1519.907008  	0.031224 
1521.835824  	0.030687 
1523.764640  	0.034944 
1525.693456  	0.039480 
1527.622272  	0.041414 
1529.551088  	0.042307 
1531.479904  	0.042460 
1533.408720  	0.038284 
1535.337536  	0.035583 
1537.266352  	0.034444 
1539.195168  	0.026622 
1541.123984  	0.019485 
1543.052800  	0.023162 
1544.981616  	0.024331 
1546.910432  	0.023835 
1548.839248  	0.024434 
1550.768064  	0.024314 
1552.696880  	0.023934 
1554.625696  	0.024133 
1556.554512  	0.024137 
1558.483328  	0.020639 
1560.412144  	0.023707 
1562.340960  	0.031574 
1564.269776  	0.035375 
1566.198592  	0.040003 
1568.127408  	0.043683 
1570.056224  	0.047419 
1571.985040  	0.054309 
1573.913856  	0.059017 
1575.842672  	0.058938 
1577.771488  	0.061375 
1579.700304  	0.064277 
1581.629120  	0.064439 
1583.557936  	0.063824 
1585.486752  	0.064411 
1587.415568  	0.066519 
1589.344384  	0.070510 
1591.273200  	0.075743 
1593.202016  	0.081975 
1595.130832  	0.088631 
1597.059648  	0.095752 
1598.988464  	0.102016 
1600.917280  	0.107566 
1602.846096  	0.111185 
1604.774912  	0.113535 
1606.703728  	0.114034 
1608.632544  	0.113134 
1610.561360  	0.111371 
1612.490176  	0.110360 
1614.418992  	0.108622 
1616.347808  	0.104731 
1618.276624  	0.105351 
1620.205440  	0.110704 
1622.134256  	0.113323 
1624.063072  	0.117380 
1625.991888  	0.124120 
1627.920704  	0.131284 
1629.849520  	0.140159 
1631.778336  	0.149428 
1633.707152  	0.155535 
1635.635968  	0.160097 
1637.564784  	0.169459 
1639.493600  	0.178636 
1641.422416  	0.184226 
1643.351232  	0.188580 
1645.280048  	0.189002 
1647.208864  	0.186847 
1649.137680  	0.189197 
1651.066496  	0.191700 
1652.995312  	0.183104 
1654.924128  	0.181632 
1656.852944  	0.184722 
1658.781760  	0.183771 
1660.710576  	0.180610 
1662.639392  	0.175073 
1664.568208  	0.171450 
1666.497024  	0.170281 
1668.425840  	0.164842 
1670.354656  	0.157147 
1672.283472  	0.154889 
1674.212288  	0.152397 
1676.141104  	0.147280 
1678.069920  	0.147520 
1679.998736  	0.147256 
1681.927552  	0.145832 
1683.856368  	0.139385 
1685.785184  	0.137660 
1687.714000  	0.141365 
1689.642816  	0.141086 
1691.571632  	0.139607 
1693.500448  	0.139314 
1695.429264  	0.134895 
1697.358080  	0.131784 
1699.286896  	0.130142 
1701.215712  	0.123905 
1703.144528  	0.124934 
1705.073344  	0.121427 
1707.002160  	0.115840 
1708.930976  	0.112724 
1710.859792  	0.107788 
1712.788608  	0.101993 
1714.717424  	0.094281 
1716.646240  	0.083624 
1718.575056  	0.070577 
1720.503872  	0.064365 
1722.432688  	0.058860 
1724.361504  	0.050348 
1726.290320  	0.043280 
1728.219136  	0.037589 
1730.147952  	0.032405 
1732.076768  	0.027836 
1734.005584  	0.020448 
1735.934400  	0.015817 
1737.863216  	0.016217 
1739.792032  	0.012330 
1741.720848  	0.011423 
1743.649664  	0.011274 
1745.578480  	0.010344 
1747.507296  	0.008512 
1749.436112  	0.007637 
1751.364928  	0.006386 
1753.293744  	0.005732 
1755.222560  	0.005654 
1757.151376  	0.004991 
1759.080192  	0.004378 
1761.009008  	0.003681 
1762.937824  	0.002247 
1764.866640  	0.002890 
1766.795456  	0.003457 
1768.724272  	0.002877 
1770.653088  	0.000433 
1772.581904  	-0.002377 
1774.510720  	-0.000868 
1776.439536  	0.001001 
1778.368352  	0.001410 
1780.297168  	0.000926 
1782.225984  	0.000412 
1784.154800  	0.000963 
1786.083616  	0.000378 
1788.012432  	0.000671 
1789.941248  	0.000870 
1791.870064  	-0.000662 
1793.798880  	-0.001843 
1795.727696  	-0.000133 
1797.656512  	-0.000395 
1799.585328  	-0.000687 
1801.514144  	-0.000213 
1803.442960  	-0.000295 
1805.371776  	-0.001090 
1807.300592  	-0.000720 
1809.229408  	-0.001325 
1811.158224  	-0.001775 
1813.087040  	-0.001764 
1815.015856  	-0.001446 
1816.944672  	-0.001246 
1818.873488  	-0.001226 
1820.802304  	-0.001443 
1822.731120  	-0.000742 
1824.659936  	-0.001346 
1826.588752  	-0.001986 
1828.517568  	-0.002755 
1830.446384  	-0.003238 
1832.375200  	-0.002332 
1834.304016  	-0.001683 
1836.232832  	-0.001848 
1838.161648  	-0.001683 
1840.090464  	-0.001721 
1842.019280  	-0.000869 
1843.948096  	-0.002259 
1845.876912  	-0.002281 
1847.805728  	-0.001674 
1849.734544  	-0.001923 
1851.663360  	-0.002180 
1853.592176  	-0.001938 
1855.520992  	-0.002158 
1857.449808  	-0.001999 
1859.378624  	-0.002049 
1861.307440  	-0.001932 
1863.236256  	-0.002237 
1865.165072  	-0.002036 
1867.093888  	-0.002140 
1869.022704  	-0.002400 
1870.951520  	-0.002509 
1872.880336  	-0.002158 
1874.809152  	-0.002606 
1876.737968  	-0.002591 
1878.666784  	-0.002715 
1880.595600  	-0.002154 
1882.524416  	-0.002405 
1884.453232  	-0.002299 
1886.382048  	-0.002392 
1888.310864  	-0.002310 
1890.239680  	-0.002953 
1892.168496  	-0.002487 
1894.097312  	-0.002306 
1896.026128  	-0.002237 
1897.954944  	-0.002589 
1899.883760  	-0.002361 
1901.812576  	-0.002619 
1903.741392  	-0.002803 
1905.670208  	-0.002865 
1907.599024  	-0.002083 
1909.527840  	-0.002293 
1911.456656  	-0.002153 
1913.385472  	-0.002511 
1915.314288  	-0.002124 
1917.243104  	-0.002331 
1919.171920  	-0.002549 
1921.100736  	-0.002193 
1923.029552  	-0.001756 
1924.958368  	-0.002660 
1926.887184  	-0.002835 
1928.816000  	-0.003278 
1930.744816  	-0.003138 
1932.673632  	-0.003070 
1934.602448  	-0.002532 
1936.531264  	-0.002418 
1938.460080  	-0.001756 
1940.388896  	-0.001727 
1942.317712  	-0.001970 
1944.246528  	-0.002824 
1946.175344  	-0.002249 
1948.104160  	-0.002763 
1950.032976  	-0.002697 
1951.961792  	-0.002746 
1953.890608  	-0.002126 
1955.819424  	-0.002675 
1957.748240  	-0.002292 
1959.677056  	-0.003173 
1961.605872  	-0.002810 
1963.534688  	-0.002765 
1965.463504  	-0.002125 
1967.392320  	-0.003034 
1969.321136  	-0.003194 
1971.249952  	-0.003184 
1973.178768  	-0.002306 
1975.107584  	-0.003085 
1977.036400  	-0.001911 
1978.965216  	-0.000661 
1980.894032  	-0.001042 
1982.822848  	-0.001674 
1984.751664  	-0.001595 
1986.680480  	-0.002657 
1988.609296  	-0.001904 
1990.538112  	-0.001561 
1992.466928  	-0.000950 
1994.395744  	-0.002282 
1996.324560  	-0.002464 
1998.253376  	-0.003078 
2000.182192  	-0.003255 
2002.111008  	-0.002981 
2004.039824  	-0.002253 
2005.968640  	-0.002831 
2007.897456  	-0.002010 
2009.826272  	-0.002049 
2011.755088  	-0.001439 
2013.683904  	-0.002462 
2015.612720  	-0.001955 
2017.541536  	-0.001653 
2019.470352  	-0.001512 
2021.399168  	-0.002919 
2023.327984  	-0.002931 
2025.256800  	-0.002153 
2027.185616  	-0.001267 
2029.114432  	-0.001602 
2031.043248  	-0.000994 
2032.972064  	-0.000497 
2034.900880  	-0.000241 
2036.829696  	-0.001457 
2038.758512  	-0.000785 
2040.687328  	-0.001248 
2042.616144  	-0.001298 
2044.544960  	-0.001433 
2046.473776  	-0.000473 
2048.402592  	-0.000566 
2050.331408  	-0.000770 
2052.260224  	-0.001847 
2054.189040  	-0.002366 
2056.117856  	-0.002944 
2058.046672  	-0.002214 
2059.975488  	-0.002032 
2061.904304  	-0.001695 
2063.833120  	-0.001608 
2065.761936  	-0.001738 
2067.690752  	-0.002296 
2069.619568  	-0.001815 
2071.548384  	-0.002001 
2073.477200  	-0.001862 
2075.406016  	-0.001124 
2077.334832  	-0.000808 
2079.263648  	-0.001458 
2081.192464  	-0.001298 
2083.121280  	-0.001650 
2085.050096  	-0.001834 
2086.978912  	-0.001916 
2088.907728  	-0.001579 
2090.836544  	-0.001666 
2092.765360  	-0.001841 
2094.694176  	-0.001680 
2096.622992  	-0.001282 
2098.551808  	-0.001473 
2100.480624  	-0.000896 
2102.409440  	-0.000713 
2104.338256  	-0.001140 
2106.267072  	-0.001154 
2108.195888  	-0.000686 
2110.124704  	-0.000875 
2112.053520  	-0.000785 
2113.982336  	-0.000913 
2115.911152  	-0.001045 
2117.839968  	-0.001502 
2119.768784  	-0.001460 
2121.697600  	-0.001914 
2123.626416  	-0.002134 
2125.555232  	-0.002128 
2127.484048  	-0.001754 
2129.412864  	-0.002260 
2131.341680  	-0.002577 
2133.270496  	-0.002753 
2135.199312  	-0.001714 
2137.128128  	-0.001013 
2139.056944  	-0.001213 
2140.985760  	-0.001821 
2142.914576  	-0.001074 
2144.843392  	-0.000668 
2146.772208  	-0.000836 
2148.701024  	-0.001719 
2150.629840  	-0.001138 
2152.558656  	-0.001045 
2154.487472  	-0.001547 
2156.416288  	-0.001982 
2158.345104  	-0.001068 
2160.273920  	0.001159 
2162.202736  	0.002028 
2164.131552  	0.000803 
2166.060368  	0.000705 
2167.989184  	0.001099 
2169.918000  	0.002154 
2171.846816  	0.001582 
2173.775632  	0.001047 
2175.704448  	0.001004 
2177.633264  	0.001030 
2179.562080  	0.000230 
2181.490896  	0.000556 
2183.419712  	0.000009 
2185.348528  	0.000276 
2187.277344  	0.000187 
2189.206160  	-0.000311 
2191.134976  	-0.000717 
2193.063792  	-0.000007 
2194.992608  	-0.000188 
2196.921424  	-0.000376 
2198.850240  	-0.000468 
2200.779056  	-0.000208 
2202.707872  	-0.000695 
2204.636688  	-0.000873 
2206.565504  	-0.000712 
2208.494320  	-0.001340 
2210.423136  	-0.002312 
2212.351952  	-0.002453 
2214.280768  	-0.002658 
2216.209584  	-0.002062 
2218.138400  	-0.002035 
2220.067216  	-0.001179 
2221.996032  	-0.000988 
2223.924848  	-0.000630 
2225.853664  	-0.000518 
2227.782480  	-0.001066 
2229.711296  	-0.001961 
2231.640112  	-0.002511 
2233.568928  	-0.002383 
2235.497744  	-0.001462 
2237.426560  	-0.001652 
2239.355376  	-0.001727 
2241.284192  	-0.001791 
2243.213008  	-0.001660 
2245.141824  	-0.002002 
2247.070640  	-0.001935 
2248.999456  	-0.002065 
2250.928272  	-0.002202 
2252.857088  	-0.002758 
2254.785904  	-0.002901 
2256.714720  	-0.003086 
2258.643536  	-0.003030 
2260.572352  	-0.003098 
2262.501168  	-0.003290 
2264.429984  	-0.003386 
2266.358800  	-0.003101 
2268.287616  	-0.003057 
2270.216432  	-0.002939 
2272.145248  	-0.002854 
2274.074064  	-0.002679 
2276.002880  	-0.002667 
2277.931696  	-0.002235 
2279.860512  	-0.001966 
2281.789328  	-0.001819 
2283.718144  	-0.001888 
2285.646960  	-0.001779 
2287.575776  	-0.001749 
2289.504592  	-0.002040 
2291.433408  	-0.002479 
2293.362224  	-0.002291 
2295.291040  	-0.002062 
2297.219856  	-0.001834 
2299.148672  	-0.001778 
2301.077488  	-0.001714 
2303.006304  	-0.001699 
2304.935120  	-0.001617 
2306.863936  	-0.001636 
2308.792752  	-0.001840 
2310.721568  	-0.002479 
2312.650384  	-0.003478 
2314.579200  	-0.004532 
2316.508016  	-0.005484 
2318.436832  	-0.006776 
2320.365648  	-0.008356 
2322.294464  	-0.009966 
2324.223280  	-0.011781 
2326.152096  	-0.014253 
2328.080912  	-0.016281 
2330.009728  	-0.018478 
2331.938544  	-0.020621 
2333.867360  	-0.022265 
2335.796176  	-0.023482 
2337.724992  	-0.024491 
2339.653808  	-0.024951 
2341.582624  	-0.025340 
2343.511440  	-0.024070 
2345.440256  	-0.020980 
2347.369072  	-0.015023 
2349.297888  	-0.011594 
2351.226704  	-0.015064 
2353.155520  	-0.021670 
2355.084336  	-0.026937 
2357.013152  	-0.031454 
2358.941968  	-0.033657 
2360.870784  	-0.034540 
2362.799600  	-0.033219 
2364.728416  	-0.031306 
2366.657232  	-0.028165 
2368.586048  	-0.024093 
2370.514864  	-0.019412 
2372.443680  	-0.015391 
2374.372496  	-0.011575 
2376.301312  	-0.007975 
2378.230128  	-0.004959 
2380.158944  	-0.003235 
2382.087760  	-0.002487 
2384.016576  	-0.002181 
2385.945392  	-0.002249 
2387.874208  	-0.002569 
2389.803024  	-0.002796 
2391.731840  	-0.003079 
2393.660656  	-0.003019 
2395.589472  	-0.002925 
2397.518288  	-0.002910 
2399.447104  	-0.003042 
2401.375920  	-0.003097 
2403.304736  	-0.003213 
2405.233552  	-0.003015 
2407.162368  	-0.003038 
2409.091184  	-0.002966 
2411.020000  	-0.002922 
2412.948816  	-0.002947 
2414.877632  	-0.002829 
2416.806448  	-0.002489 
2418.735264  	-0.002649 
2420.664080  	-0.002824 
2422.592896  	-0.002838 
2424.521712  	-0.002808 
2426.450528  	-0.002928 
2428.379344  	-0.002892 
2430.308160  	-0.002697 
2432.236976  	-0.002398 
2434.165792  	-0.002408 
2436.094608  	-0.002579 
2438.023424  	-0.002536 
2439.952240  	-0.002267 
2441.881056  	-0.002166 
2443.809872  	-0.002130 
2445.738688  	-0.002082 
2447.667504  	-0.001982 
2449.596320  	-0.002074 
2451.525136  	-0.001996 
2453.453952  	-0.001840 
2455.382768  	-0.001905 
2457.311584  	-0.002083 
2459.240400  	-0.002157 
2461.169216  	-0.002315 
2463.098032  	-0.002441 
2465.026848  	-0.002437 
2466.955664  	-0.002362 
2468.884480  	-0.002501 
2470.813296  	-0.002613 
2472.742112  	-0.002677 
2474.670928  	-0.002396 
2476.599744  	-0.002293 
2478.528560  	-0.002221 
2480.457376  	-0.002160 
2482.386192  	-0.002046 
2484.315008  	-0.001918 
2486.243824  	-0.002048 
2488.172640  	-0.002069 
2490.101456  	-0.001745 
2492.030272  	-0.001645 
2493.959088  	-0.001618 
2495.887904  	-0.001571 
2497.816720  	-0.001498 
2499.745536  	-0.001500 
2501.674352  	-0.001487 
2503.603168  	-0.001190 
2505.531984  	-0.001097 
2507.460800  	-0.001520 
2509.389616  	-0.001542 
2511.318432  	-0.001402 
2513.247248  	-0.001207 
2515.176064  	-0.001221 
2517.104880  	-0.001133 
2519.033696  	-0.001165 
2520.962512  	-0.001140 
2522.891328  	-0.001088 
2524.820144  	-0.001194 
2526.748960  	-0.001111 
2528.677776  	-0.000944 
2530.606592  	-0.001047 
2532.535408  	-0.000858 
2534.464224  	-0.000726 
2536.393040  	-0.000874 
2538.321856  	-0.000939 
2540.250672  	-0.000829 
2542.179488  	-0.000753 
2544.108304  	-0.000512 
2546.037120  	-0.000677 
2547.965936  	-0.000859 
2549.894752  	-0.000576 
2551.823568  	-0.000438 
2553.752384  	-0.000326 
2555.681200  	0.000081 
2557.610016  	0.000044 
2559.538832  	0.000067 
2561.467648  	0.000125 
2563.396464  	0.000273 
2565.325280  	0.000340 
2567.254096  	0.000306 
2569.182912  	0.000353 
2571.111728  	0.000423 
2573.040544  	0.000456 
2574.969360  	0.000593 
2576.898176  	0.000763 
2578.826992  	0.000681 
2580.755808  	0.000557 
2582.684624  	0.000756 
2584.613440  	0.000802 
2586.542256  	0.000868 
2588.471072  	0.000990 
2590.399888  	0.001046 
2592.328704  	0.001138 
2594.257520  	0.001310 
2596.186336  	0.001291 
2598.115152  	0.001366 
2600.043968  	0.001361 
2601.972784  	0.001463 
2603.901600  	0.001512 
2605.830416  	0.001579 
2607.759232  	0.001693 
2609.688048  	0.001801 
2611.616864  	0.002079 
2613.545680  	0.002275 
2615.474496  	0.002274 
2617.403312  	0.002368 
2619.332128  	0.002489 
2621.260944  	0.002552 
2623.189760  	0.002543 
2625.118576  	0.002679 
2627.047392  	0.002774 
2628.976208  	0.002926 
2630.905024  	0.003067 
2632.833840  	0.003146 
2634.762656  	0.003251 
2636.691472  	0.003300 
2638.620288  	0.003307 
2640.549104  	0.003360 
2642.477920  	0.003503 
2644.406736  	0.003665 
2646.335552  	0.003739 
2648.264368  	0.003921 
2650.193184  	0.004008 
2652.122000  	0.004129 
2654.050816  	0.004312 
2655.979632  	0.004476 
2657.908448  	0.004542 
2659.837264  	0.004602 
2661.766080  	0.004660 
2663.694896  	0.004788 
2665.623712  	0.004887 
2667.552528  	0.005077 
2669.481344  	0.005200 
2671.410160  	0.005248 
2673.338976  	0.005402 
2675.267792  	0.005578 
2677.196608  	0.005801 
2679.125424  	0.005918 
2681.054240  	0.006049 
2682.983056  	0.006172 
2684.911872  	0.006226 
2686.840688  	0.006295 
2688.769504  	0.006320 
2690.698320  	0.006317 
2692.627136  	0.006383 
2694.555952  	0.006563 
2696.484768  	0.006576 
2698.413584  	0.006541 
2700.342400  	0.006591 
2702.271216  	0.006787 
2704.200032  	0.007050 
2706.128848  	0.007185 
2708.057664  	0.007164 
2709.986480  	0.007218 
2711.915296  	0.007292 
2713.844112  	0.007444 
2715.772928  	0.007543 
2717.701744  	0.007684 
2719.630560  	0.007910 
2721.559376  	0.008076 
2723.488192  	0.008254 
2725.417008  	0.008414 
2727.345824  	0.008536 
2729.274640  	0.008675 
2731.203456  	0.008808 
2733.132272  	0.008973 
2735.061088  	0.009145 
2736.989904  	0.009278 
2738.918720  	0.009405 
2740.847536  	0.009488 
2742.776352  	0.009410 
2744.705168  	0.009484 
2746.633984  	0.009564 
2748.562800  	0.009544 
2750.491616  	0.009600 
2752.420432  	0.009758 
2754.349248  	0.009746 
2756.278064  	0.009719 
2758.206880  	0.009603 
2760.135696  	0.009501 
2762.064512  	0.009580 
2763.993328  	0.009681 
2765.922144  	0.009676 
2767.850960  	0.009642 
2769.779776  	0.009652 
2771.708592  	0.009642 
2773.637408  	0.009547 
2775.566224  	0.009591 
2777.495040  	0.009587 
2779.423856  	0.009718 
2781.352672  	0.009825 
2783.281488  	0.009706 
2785.210304  	0.009681 
2787.139120  	0.009782 
2789.067936  	0.009833 
2790.996752  	0.009837 
2792.925568  	0.009727 
2794.854384  	0.009727 
2796.783200  	0.009781 
2798.712016  	0.009732 
2800.640832  	0.009654 
2802.569648  	0.009755 
2804.498464  	0.009876 
2806.427280  	0.009800 
2808.356096  	0.009677 
2810.284912  	0.009809 
2812.213728  	0.009825 
2814.142544  	0.009674 
2816.071360  	0.009625 
2818.000176  	0.009460 
2819.928992  	0.009308 
2821.857808  	0.009356 
2823.786624  	0.009277 
2825.715440  	0.009172 
2827.644256  	0.009069 
2829.573072  	0.008921 
2831.501888  	0.008622 
2833.430704  	0.008322 
2835.359520  	0.008073 
2837.288336  	0.007866 
2839.217152  	0.007625 
2841.145968  	0.007368 
2843.074784  	0.007100 
2845.003600  	0.006927 
2846.932416  	0.006794 
2848.861232  	0.006687 
2850.790048  	0.006374 
2852.718864  	0.005807 
2854.647680  	0.005170 
2856.576496  	0.004399 
2858.505312  	0.003643 
2860.434128  	0.002970 
2862.362944  	0.002191 
2864.291760  	0.001442 
2866.220576  	0.000822 
2868.149392  	0.000403 
2870.078208  	0.000159 
2872.007024  	0.000094 
2873.935840  	0.000104 
2875.864656  	0.000074 
2877.793472  	-0.000126 
2879.722288  	-0.000324 
2881.651104  	-0.000745 
2883.579920  	-0.001044 
2885.508736  	-0.000923 
2887.437552  	-0.000520 
2889.366368  	-0.000372 
2891.295184  	-0.000684 
2893.224000  	-0.000874 
2895.152816  	-0.000842 
2897.081632  	-0.001088 
2899.010448  	-0.002813 
2900.939264  	-0.004404 
2902.868080  	-0.003103 
2904.796896  	-0.001601 
2906.725712  	-0.000885 
2908.654528  	-0.000205 
2910.583344  	0.000345 
2912.512160  	0.001130 
2914.440976  	0.002493 
2916.369792  	0.003591 
2918.298608  	0.004163 
2920.227424  	0.004555 
2922.156240  	0.005056 
2924.085056  	0.005615 
2926.013872  	0.006219 
2927.942688  	0.006980 
2929.871504  	0.007723 
2931.800320  	0.008527 
2933.729136  	0.009266 
2935.657952  	0.009775 
2937.586768  	0.010196 
2939.515584  	0.010750 
2941.444400  	0.011031 
2943.373216  	0.011072 
2945.302032  	0.011251 
2947.230848  	0.011451 
2949.159664  	0.011223 
2951.088480  	0.010690 
2953.017296  	0.010157 
2954.946112  	0.009540 
2956.874928  	0.008881 
2958.803744  	0.008036 
2960.732560  	0.007477 
2962.661376  	0.006990 
2964.590192  	0.006101 
2966.519008  	0.004917 
2968.447824  	0.003858 
2970.376640  	0.002985 
2972.305456  	0.002376 
2974.234272  	0.002625 
2976.163088  	0.003042 
2978.091904  	0.003019 
2980.020720  	0.002969 
2981.949536  	0.003165 
2983.878352  	0.002933 
2985.807168  	0.001931 
2987.735984  	0.001050 
2989.664800  	0.001505 
2991.593616  	0.004608 
2993.522432  	0.006700 
2995.451248  	0.007231 
2997.380064  	0.007975 
2999.308880  	0.009075 
3001.237696  	0.010369 
3003.166512  	0.011732 
3005.095328  	0.013265 
3007.024144  	0.014767 
3008.952960  	0.016149 
3010.881776  	0.017723 
3012.810592  	0.019061 
3014.739408  	0.020244 
3016.668224  	0.021391 
3018.597040  	0.022654 
3020.525856  	0.023782 
3022.454672  	0.024934 
3024.383488  	0.026066 
3026.312304  	0.026955 
3028.241120  	0.028029 
3030.169936  	0.029117 
3032.098752  	0.029845 
3034.027568  	0.030634 
3035.956384  	0.031622 
3037.885200  	0.032559 
3039.814016  	0.033138 
3041.742832  	0.033719 
3043.671648  	0.034275 
3045.600464  	0.034844 
3047.529280  	0.035385 
3049.458096  	0.035979 
3051.386912  	0.036676 
3053.315728  	0.037360 
3055.244544  	0.037848 
3057.173360  	0.038397 
3059.102176  	0.038898 
3061.030992  	0.039492 
3062.959808  	0.040339 
3064.888624  	0.041009 
3066.817440  	0.041582 
3068.746256  	0.042467 
3070.675072  	0.043452 
3072.603888  	0.044121 
3074.532704  	0.044691 
3076.461520  	0.045423 
3078.390336  	0.046151 
3080.319152  	0.046905 
3082.247968  	0.047869 
3084.176784  	0.048706 
3086.105600  	0.049454 
3088.034416  	0.050078 
3089.963232  	0.050778 
3091.892048  	0.051450 
3093.820864  	0.052131 
3095.749680  	0.052923 
3097.678496  	0.053849 
3099.607312  	0.054692 
3101.536128  	0.055550 
3103.464944  	0.056505 
3105.393760  	0.057220 
3107.322576  	0.057830 
3109.251392  	0.058426 
3111.180208  	0.059068 
3113.109024  	0.059695 
3115.037840  	0.060422 
3116.966656  	0.061285 
3118.895472  	0.061962 
3120.824288  	0.062626 
3122.753104  	0.063246 
3124.681920  	0.063809 
3126.610736  	0.064202 
3128.539552  	0.064923 
3130.468368  	0.065758 
3132.397184  	0.066222 
3134.326000  	0.066922 
3136.254816  	0.067396 
3138.183632  	0.068108 
3140.112448  	0.068952 
3142.041264  	0.069440 
3143.970080  	0.069947 
3145.898896  	0.070523 
3147.827712  	0.071090 
3149.756528  	0.071733 
3151.685344  	0.072348 
3153.614160  	0.073025 
3155.542976  	0.073617 
3157.471792  	0.074313 
3159.400608  	0.074991 
3161.329424  	0.075597 
3163.258240  	0.076104 
3165.187056  	0.076527 
3167.115872  	0.077130 
3169.044688  	0.077496 
3170.973504  	0.077822 
3172.902320  	0.078397 
3174.831136  	0.078857 
3176.759952  	0.079405 
3178.688768  	0.079723 
3180.617584  	0.080112 
3182.546400  	0.080540 
3184.475216  	0.080775 
3186.404032  	0.080816 
3188.332848  	0.081026 
3190.261664  	0.081263 
3192.190480  	0.081512 
3194.119296  	0.081506 
3196.048112  	0.081540 
3197.976928  	0.081612 
3199.905744  	0.081772 
3201.834560  	0.081869 
3203.763376  	0.081839 
3205.692192  	0.081755 
3207.621008  	0.081511 
3209.549824  	0.081322 
3211.478640  	0.081449 
3213.407456  	0.081409 
3215.336272  	0.081091 
3217.265088  	0.080937 
3219.193904  	0.080894 
3221.122720  	0.080899 
3223.051536  	0.080836 
3224.980352  	0.080725 
3226.909168  	0.080496 
3228.837984  	0.080233 
3230.766800  	0.080236 
3232.695616  	0.080195 
3234.624432  	0.079981 
3236.553248  	0.079881 
3238.482064  	0.079859 
3240.410880  	0.079893 
3242.339696  	0.079905 
3244.268512  	0.079804 
3246.197328  	0.079926 
3248.126144  	0.080211 
3250.054960  	0.080424 
3251.983776  	0.080665 
3253.912592  	0.080860 
3255.841408  	0.081230 
3257.770224  	0.081615 
3259.699040  	0.081860 
3261.627856  	0.082154 
3263.556672  	0.082352 
3265.485488  	0.082297 
3267.414304  	0.082386 
3269.343120  	0.082845 
3271.271936  	0.083207 
3273.200752  	0.083039 
3275.129568  	0.083008 
3277.058384  	0.083432 
3278.987200  	0.083868 
3280.916016  	0.084137 
3282.844832  	0.084291 
3284.773648  	0.084401 
3286.702464  	0.084603 
3288.631280  	0.084837 
3290.560096  	0.085048 
3292.488912  	0.085439 
3294.417728  	0.085765 
3296.346544  	0.086022 
3298.275360  	0.086293 
3300.204176  	0.086572 
3302.132992  	0.086876 
3304.061808  	0.087239 
3305.990624  	0.087735 
3307.919440  	0.088080 
3309.848256  	0.088212 
3311.777072  	0.088555 
3313.705888  	0.089043 
3315.634704  	0.089315 
3317.563520  	0.089605 
3319.492336  	0.089976 
3321.421152  	0.090202 
3323.349968  	0.090333 
3325.278784  	0.090473 
3327.207600  	0.090576 
3329.136416  	0.090561 
3331.065232  	0.090765 
3332.994048  	0.091011 
3334.922864  	0.091142 
3336.851680  	0.091117 
3338.780496  	0.091040 
3340.709312  	0.090912 
3342.638128  	0.090744 
3344.566944  	0.090368 
3346.495760  	0.090123 
3348.424576  	0.089948 
3350.353392  	0.089700 
3352.282208  	0.089543 
3354.211024  	0.089276 
3356.139840  	0.088937 
3358.068656  	0.088723 
3359.997472  	0.088442 
3361.926288  	0.087958 
3363.855104  	0.087461 
3365.783920  	0.087059 
3367.712736  	0.086787 
3369.641552  	0.086520 
3371.570368  	0.086179 
3373.499184  	0.085812 
3375.428000  	0.085311 
3377.356816  	0.084949 
3379.285632  	0.084956 
3381.214448  	0.084844 
3383.143264  	0.084461 
3385.072080  	0.083713 
3387.000896  	0.083159 
3388.929712  	0.082880 
3390.858528  	0.082625 
3392.787344  	0.082380 
3394.716160  	0.082076 
3396.644976  	0.081709 
3398.573792  	0.081187 
3400.502608  	0.080603 
3402.431424  	0.080083 
3404.360240  	0.079709 
3406.289056  	0.079035 
3408.217872  	0.078457 
3410.146688  	0.078098 
3412.075504  	0.077897 
3414.004320  	0.077414 
3415.933136  	0.076838 
3417.861952  	0.076254 
3419.790768  	0.075838 
3421.719584  	0.075570 
3423.648400  	0.075145 
3425.577216  	0.074348 
3427.506032  	0.073638 
3429.434848  	0.073075 
3431.363664  	0.072621 
3433.292480  	0.072165 
3435.221296  	0.071562 
3437.150112  	0.071064 
3439.078928  	0.070599 
3441.007744  	0.070042 
3442.936560  	0.069659 
3444.865376  	0.069318 
3446.794192  	0.068505 
3448.723008  	0.067580 
3450.651824  	0.066835 
3452.580640  	0.066246 
3454.509456  	0.065910 
3456.438272  	0.065368 
3458.367088  	0.064756 
3460.295904  	0.064158 
3462.224720  	0.063207 
3464.153536  	0.062242 
3466.082352  	0.061657 
3468.011168  	0.060949 
3469.939984  	0.060100 
3471.868800  	0.059336 
3473.797616  	0.058491 
3475.726432  	0.057678 
3477.655248  	0.056960 
3479.584064  	0.056572 
3481.512880  	0.055853 
3483.441696  	0.054771 
3485.370512  	0.054124 
3487.299328  	0.053198 
3489.228144  	0.052369 
3491.156960  	0.051742 
3493.085776  	0.051055 
3495.014592  	0.050280 
3496.943408  	0.049403 
3498.872224  	0.048951 
3500.801040  	0.049014 
3502.729856  	0.048243 
3504.658672  	0.047050 
3506.587488  	0.046663 
3508.516304  	0.046195 
3510.445120  	0.045263 
3512.373936  	0.044410 
3514.302752  	0.043780 
3516.231568  	0.043420 
3518.160384  	0.042953 
3520.089200  	0.042374 
3522.018016  	0.042069 
3523.946832  	0.041996 
3525.875648  	0.041196 
3527.804464  	0.039714 
3529.733280  	0.038831 
3531.662096  	0.038178 
3533.590912  	0.037522 
3535.519728  	0.037358 
3537.448544  	0.036882 
3539.377360  	0.035972 
3541.306176  	0.035498 
3543.234992  	0.035566 
3545.163808  	0.035948 
3547.092624  	0.034990 
3549.021440  	0.033229 
3550.950256  	0.032461 
3552.879072  	0.031910 
3554.807888  	0.031116 
3556.736704  	0.030460 
3558.665520  	0.030285 
3560.594336  	0.030063 
3562.523152  	0.029146 
3564.451968  	0.029100 
3566.380784  	0.029455 
3568.309600  	0.027679 
3570.238416  	0.026461 
3572.167232  	0.025786 
3574.096048  	0.024698 
3576.024864  	0.023721 
3577.953680  	0.023314 
3579.882496  	0.022899 
3581.811312  	0.022282 
3583.740128  	0.021740 
3585.668944  	0.021794 
3587.597760  	0.020777 
3589.526576  	0.019162 
3591.455392  	0.018403 
3593.384208  	0.017901 
3595.313024  	0.017014 
3597.241840  	0.015611 
3599.170656  	0.014099 
3601.099472  	0.013206 
3603.028288  	0.013361 
3604.957104  	0.013352 
3606.885920  	0.012603 
3608.814736  	0.011448 
3610.743552  	0.011091 
3612.672368  	0.010041 
3614.601184  	0.009005 
3616.530000  	0.008675 
3618.458816  	0.006611 
3620.387632  	0.004994 
3622.316448  	0.005201 
3624.245264  	0.004973 
3626.174080  	0.004408 
3628.102896  	0.001487 
3630.031712  	-0.000914 
3631.960528  	0.000889 
3633.889344  	0.000430 
3635.818160  	-0.000338 
3637.746976  	-0.001261 
3639.675792  	-0.001650 
3641.604608  	-0.001744 
3643.533424  	-0.002227 
3645.462240  	-0.003237 
3647.391056  	-0.006302 
3649.319872  	-0.010244 
3651.248688  	-0.010751 
3653.177504  	-0.008372 
3655.106320  	-0.009147 
3657.035136  	-0.011470 
3658.963952  	-0.011127 
3660.892768  	-0.011100 
3662.821584  	-0.011379 
3664.750400  	-0.011435 
3666.679216  	-0.011692 
3668.608032  	-0.014042 
3670.536848  	-0.016994 
3672.465664  	-0.014776 
3674.394480  	-0.016246 
3676.323296  	-0.019762 
3678.252112  	-0.016010 
3680.180928  	-0.014450 
3682.109744  	-0.013902 
3684.038560  	-0.014063 
3685.967376  	-0.014322 
3687.896192  	-0.017201 
3689.825008  	-0.019762 
3691.753824  	-0.018131 
3693.682640  	-0.015677 
3695.611456  	-0.014693 
3697.540272  	-0.013823 
3699.469088  	-0.013382 
3701.397904  	-0.014464 
3703.326720  	-0.014078 
3705.255536  	-0.012675 
3707.184352  	-0.012508 
3709.113168  	-0.014130 
3711.041984  	-0.016092 
3712.970800  	-0.014570 
3714.899616  	-0.011344 
3716.828432  	-0.010683 
3718.757248  	-0.011218 
3720.686064  	-0.011952 
3722.614880  	-0.012560 
3724.543696  	-0.012042 
3726.472512  	-0.012360 
3728.401328  	-0.012184 
3730.330144  	-0.013002 
3732.258960  	-0.014976 
3734.187776  	-0.014014 
3736.116592  	-0.014144 
3738.045408  	-0.013280 
3739.974224  	-0.011530 
3741.903040  	-0.010717 
3743.831856  	-0.013161 
3745.760672  	-0.014619 
3747.689488  	-0.013077 
3749.618304  	-0.015762 
3751.547120  	-0.017276 
3753.475936  	-0.014422 
3755.404752  	-0.012054 
3757.333568  	-0.011642 
3759.262384  	-0.012271 
3761.191200  	-0.011921 
3763.120016  	-0.010351 
3765.048832  	-0.011049 
3766.977648  	-0.011288 
3768.906464  	-0.012148 
3770.835280  	-0.012522 
3772.764096  	-0.010935 
3774.692912  	-0.010588 
3776.621728  	-0.010494 
3778.550544  	-0.011701 
3780.479360  	-0.012347 
3782.408176  	-0.011046 
3784.336992  	-0.011365 
3786.265808  	-0.011077 
3788.194624  	-0.010614 
3790.123440  	-0.010643 
3792.052256  	-0.010809 
3793.981072  	-0.010796 
3795.909888  	-0.012071 
3797.838704  	-0.011905 
3799.767520  	-0.012577 
3801.696336  	-0.016102 
3803.625152  	-0.013756 
3805.553968  	-0.013111 
3807.482784  	-0.014284 
3809.411600  	-0.011832 
3811.340416  	-0.010434 
3813.269232  	-0.010265 
3815.198048  	-0.013164 
3817.126864  	-0.014223 
3819.055680  	-0.013160 
3820.984496  	-0.016297 
3822.913312  	-0.014054 
3824.842128  	-0.011436 
3826.770944  	-0.011725 
3828.699760  	-0.011219 
3830.628576  	-0.012239 
3832.557392  	-0.013147 
3834.486208  	-0.012280 
3836.415024  	-0.012936 
3838.343840  	-0.014894 
3840.272656  	-0.014671 
3842.201472  	-0.012882 
3844.130288  	-0.011946 
3846.059104  	-0.010859 
3847.987920  	-0.010340 
3849.916736  	-0.010854 
3851.845552  	-0.013392 
3853.774368  	-0.017483 
3855.703184  	-0.014046 
3857.632000  	-0.011337 
3859.560816  	-0.010409 
3861.489632  	-0.010689 
3863.418448  	-0.011676 
3865.347264  	-0.011939 
3867.276080  	-0.010608 
3869.204896  	-0.011976 
3871.133712  	-0.012051 
3873.062528  	-0.011191 
3874.991344  	-0.011720 
3876.920160  	-0.010120 
3878.848976  	-0.009822 
3880.777792  	-0.010607 
3882.706608  	-0.009823 
3884.635424  	-0.010312 
3886.564240  	-0.011354 
3888.493056  	-0.010362 
3890.421872  	-0.010975 
3892.350688  	-0.011554 
3894.279504  	-0.010245 
3896.208320  	-0.009618 
3898.137136  	-0.009925 
3900.065952  	-0.010256 
3901.994768  	-0.010072 
3903.923584  	-0.010637 
3905.852400  	-0.010589 
3907.781216  	-0.010207 
3909.710032  	-0.010210 
3911.638848  	-0.010201 
3913.567664  	-0.009860 
3915.496480  	-0.009524 
3917.425296  	-0.009658 
3919.354112  	-0.009962 
3921.282928  	-0.009694 
3923.211744  	-0.009177 
3925.140560  	-0.009229 
3927.069376  	-0.009448 
3928.998192  	-0.009549 
3930.927008  	-0.009128 
3932.855824  	-0.009014 
3934.784640  	-0.009443 
3936.713456  	-0.009736 
3938.642272  	-0.009546 
3940.571088  	-0.009256 
3942.499904  	-0.009075 
3944.428720  	-0.009159 
3946.357536  	-0.008903 
3948.286352  	-0.008597 
3950.215168  	-0.009293 
3952.143984  	-0.009999 
3954.072800  	-0.009896 
3956.001616  	-0.009649 
3957.930432  	-0.009738 
3959.859248  	-0.009680 
3961.788064  	-0.009543 
3963.716880  	-0.009893 
3965.645696  	-0.010250 
3967.574512  	-0.010092 
3969.503328  	-0.009839 
3971.432144  	-0.009909 
3973.360960  	-0.009745 
3975.289776  	-0.009539 
3977.218592  	-0.009619 
3979.147408  	-0.009768 
3981.076224  	-0.009871 
3983.005040  	-0.009884 
3984.933856  	-0.009757 
3986.862672  	-0.009739 
3988.791488  	-0.009512 
3990.720304  	-0.009338 
3992.649120  	-0.009711 
3994.577936  	-0.010092 
3996.506752  	-0.010003 
3998.435568  	-0.009972 
4000.364384  	-0.009935 