##TITLE=No Description
##DATA TYPE=INFRARED SPECTRUM
##XUNITS=1/CM
##YUNITS=Abs
399.264912  	0.621869 
401.193728  	0.598094 
403.122544  	0.592414 
405.051360  	0.583634 
406.980176  	0.588310 
408.908992  	0.583905 
410.837808  	0.582322 
412.766624  	0.577551 
414.695440  	0.580012 
416.624256  	0.582087 
418.553072  	0.596277 
420.481888  	0.581772 
422.410704  	0.574186 
424.339520  	0.568666 
426.268336  	0.565018 
428.197152  	0.550214 
430.125968  	0.552710 
432.054784  	0.555058 
433.983600  	0.553807 
435.912416  	0.548161 
437.841232  	0.548859 
439.770048  	0.545614 
441.698864  	0.543052 
443.627680  	0.538740 
445.556496  	0.542651 
447.485312  	0.538524 
449.414128  	0.533558 
451.342944  	0.526614 
453.271760  	0.530764 
455.200576  	0.535478 
457.129392  	0.535685 
459.058208  	0.533343 
460.987024  	0.540749 
462.915840  	0.535869 
464.844656  	0.534119 
466.773472  	0.533817 
468.702288  	0.535405 
470.631104  	0.531785 
472.559920  	0.525109 
474.488736  	0.520521 
476.417552  	0.523999 
478.346368  	0.521458 
480.275184  	0.523777 
482.204000  	0.520080 
484.132816  	0.520921 
486.061632  	0.519142 
487.990448  	0.518094 
489.919264  	0.517818 
491.848080  	0.519416 
493.776896  	0.515603 
495.705712  	0.515298 
497.634528  	0.514319 
499.563344  	0.517265 
501.492160  	0.516616 
503.420976  	0.511638 
505.349792  	0.507431 
507.278608  	0.508560 
509.207424  	0.507717 
511.136240  	0.508925 
513.065056  	0.511984 
514.993872  	0.518216 
516.922688  	0.518582 
518.851504  	0.518588 
520.780320  	0.516210 
522.709136  	0.515478 
524.637952  	0.513899 
526.566768  	0.512823 
528.495584  	0.508551 
530.424400  	0.508928 
532.353216  	0.506682 
534.282032  	0.501990 
536.210848  	0.494890 
538.139664  	0.489492 
540.068480  	0.483738 
541.997296  	0.481075 
543.926112  	0.477334 
545.854928  	0.474086 
547.783744  	0.469304 
549.712560  	0.465516 
551.641376  	0.462156 
553.570192  	0.458811 
555.499008  	0.454138 
557.427824  	0.450974 
559.356640  	0.446926 
561.285456  	0.444520 
563.214272  	0.440047 
565.143088  	0.436850 
567.071904  	0.433715 
569.000720  	0.430531 
570.929536  	0.426789 
572.858352  	0.424356 
574.787168  	0.421184 
576.715984  	0.419997 
578.644800  	0.417936 
580.573616  	0.414122 
582.502432  	0.408008 
584.431248  	0.404275 
586.360064  	0.401056 
588.288880  	0.398711 
590.217696  	0.395872 
592.146512  	0.393075 
594.075328  	0.389913 
596.004144  	0.388140 
597.932960  	0.385980 
599.861776  	0.384443 
601.790592  	0.382523 
603.719408  	0.381818 
605.648224  	0.380476 
607.577040  	0.379020 
609.505856  	0.377147 
611.434672  	0.375975 
613.363488  	0.373833 
615.292304  	0.372210 
617.221120  	0.370611 
619.149936  	0.369652 
621.078752  	0.367987 
623.007568  	0.366511 
624.936384  	0.364993 
626.865200  	0.363209 
628.794016  	0.361521 
630.722832  	0.361286 
632.651648  	0.361198 
634.580464  	0.360910 
636.509280  	0.360624 
638.438096  	0.361225 
640.366912  	0.359852 
642.295728  	0.357248 
644.224544  	0.354325 
646.153360  	0.351274 
648.082176  	0.347107 
650.010992  	0.344053 
651.939808  	0.340536 
653.868624  	0.336657 
655.797440  	0.332780 
657.726256  	0.329021 
659.655072  	0.325092 
661.583888  	0.320901 
663.512704  	0.316767 
665.441520  	0.313950 
667.370336  	0.307549 
669.299152  	0.301866 
671.227968  	0.300861 
673.156784  	0.297692 
675.085600  	0.294581 
677.014416  	0.292205 
678.943232  	0.289970 
680.872048  	0.288421 
682.800864  	0.286956 
684.729680  	0.285089 
686.658496  	0.283763 
688.587312  	0.282922 
690.516128  	0.281321 
692.444944  	0.279811 
694.373760  	0.278867 
696.302576  	0.277413 
698.231392  	0.274865 
700.160208  	0.272447 
702.089024  	0.270223 
704.017840  	0.267508 
705.946656  	0.264886 
707.875472  	0.263139 
709.804288  	0.261221 
711.733104  	0.258884 
713.661920  	0.256547 
715.590736  	0.255525 
717.519552  	0.255184 
719.448368  	0.255418 
721.377184  	0.255523 
723.306000  	0.256388 
725.234816  	0.256769 
727.163632  	0.255779 
729.092448  	0.253383 
731.021264  	0.249952 
732.950080  	0.246330 
734.878896  	0.243461 
736.807712  	0.240888 
738.736528  	0.238470 
740.665344  	0.236027 
742.594160  	0.234274 
744.522976  	0.232714 
746.451792  	0.230691 
748.380608  	0.228942 
750.309424  	0.227813 
752.238240  	0.226899 
754.167056  	0.225833 
756.095872  	0.224455 
758.024688  	0.223551 
759.953504  	0.223002 
761.882320  	0.223454 
763.811136  	0.224102 
765.739952  	0.223184 
767.668768  	0.220618 
769.597584  	0.218070 
771.526400  	0.216875 
773.455216  	0.218280 
775.384032  	0.221287 
777.312848  	0.225331 
779.241664  	0.228970 
781.170480  	0.229333 
783.099296  	0.226268 
785.028112  	0.221140 
786.956928  	0.215123 
788.885744  	0.210048 
790.814560  	0.206381 
792.743376  	0.203931 
794.672192  	0.202385 
796.601008  	0.201407 
798.529824  	0.198798 
800.458640  	0.194466 
802.387456  	0.191083 
804.316272  	0.188859 
806.245088  	0.187440 
808.173904  	0.186638 
810.102720  	0.186147 
812.031536  	0.185892 
813.960352  	0.186023 
815.889168  	0.186132 
817.817984  	0.186123 
819.746800  	0.186357 
821.675616  	0.186952 
823.604432  	0.186962 
825.533248  	0.186671 
827.462064  	0.185981 
829.390880  	0.185072 
831.319696  	0.183914 
833.248512  	0.182120 
835.177328  	0.179830 
837.106144  	0.177050 
839.034960  	0.173861 
840.963776  	0.170512 
842.892592  	0.167077 
844.821408  	0.163375 
846.750224  	0.160091 
848.679040  	0.157528 
850.607856  	0.155615 
852.536672  	0.153755 
854.465488  	0.151937 
856.394304  	0.150548 
858.323120  	0.149008 
860.251936  	0.147034 
862.180752  	0.144843 
864.109568  	0.142380 
866.038384  	0.139847 
867.967200  	0.137496 
869.896016  	0.135539 
871.824832  	0.134473 
873.753648  	0.134342 
875.682464  	0.134951 
877.611280  	0.135330 
879.540096  	0.136075 
881.468912  	0.138272 
883.397728  	0.139872 
885.326544  	0.140756 
887.255360  	0.141066 
889.184176  	0.140165 
891.112992  	0.138243 
893.041808  	0.136536 
894.970624  	0.134275 
896.899440  	0.130830 
898.828256  	0.126598 
900.757072  	0.122707 
902.685888  	0.119513 
904.614704  	0.117658 
906.543520  	0.117643 
908.472336  	0.118862 
910.401152  	0.120951 
912.329968  	0.123570 
914.258784  	0.126599 
916.187600  	0.129316 
918.116416  	0.131603 
920.045232  	0.133280 
921.974048  	0.134193 
923.902864  	0.134537 
925.831680  	0.134353 
927.760496  	0.134526 
929.689312  	0.135008 
931.618128  	0.135796 
933.546944  	0.136463 
935.475760  	0.136743 
937.404576  	0.136490 
939.333392  	0.136014 
941.262208  	0.135835 
943.191024  	0.137047 
945.119840  	0.140296 
947.048656  	0.145600 
948.977472  	0.153016 
950.906288  	0.162172 
952.835104  	0.172439 
954.763920  	0.183486 
956.692736  	0.194308 
958.621552  	0.203693 
960.550368  	0.210317 
962.479184  	0.213870 
964.408000  	0.213395 
966.336816  	0.209092 
968.265632  	0.200994 
970.194448  	0.190117 
972.123264  	0.177496 
974.052080  	0.164030 
975.980896  	0.150859 
977.909712  	0.138525 
979.838528  	0.127449 
981.767344  	0.118075 
983.696160  	0.110842 
985.624976  	0.106117 
987.553792  	0.104050 
989.482608  	0.104691 
991.411424  	0.107688 
993.340240  	0.112415 
995.269056  	0.118166 
997.197872  	0.124404 
999.126688  	0.130976 
1001.055504  	0.137624 
1002.984320  	0.144116 
1004.913136  	0.150591 
1006.841952  	0.157008 
1008.770768  	0.162446 
1010.699584  	0.166282 
1012.628400  	0.168476 
1014.557216  	0.169370 
1016.486032  	0.169587 
1018.414848  	0.169180 
1020.343664  	0.168594 
1022.272480  	0.167709 
1024.201296  	0.166344 
1026.130112  	0.163032 
1028.058928  	0.161727 
1029.987744  	0.164620 
1031.916560  	0.166632 
1033.845376  	0.167936 
1035.774192  	0.169212 
1037.703008  	0.172127 
1039.631824  	0.178663 
1041.560640  	0.187520 
1043.489456  	0.199212 
1045.418272  	0.213709 
1047.347088  	0.229677 
1049.275904  	0.244692 
1051.204720  	0.256458 
1053.133536  	0.263812 
1055.062352  	0.266979 
1056.991168  	0.266660 
1058.919984  	0.267218 
1060.848800  	0.267577 
1062.777616  	0.265242 
1064.706432  	0.259408 
1066.635248  	0.254683 
1068.564064  	0.252999 
1070.492880  	0.248249 
1072.421696  	0.240608 
1074.350512  	0.235373 
1076.279328  	0.233830 
1078.208144  	0.236093 
1080.136960  	0.241192 
1082.065776  	0.247307 
1083.994592  	0.251624 
1085.923408  	0.252768 
1087.852224  	0.250308 
1089.781040  	0.245847 
1091.709856  	0.239852 
1093.638672  	0.231641 
1095.567488  	0.220570 
1097.496304  	0.208083 
1099.425120  	0.194945 
1101.353936  	0.182010 
1103.282752  	0.169562 
1105.211568  	0.157534 
1107.140384  	0.146154 
1109.069200  	0.135610 
1110.998016  	0.125785 
1112.926832  	0.116864 
1114.855648  	0.108937 
1116.784464  	0.101501 
1118.713280  	0.094360 
1120.642096  	0.087655 
1122.570912  	0.081352 
1124.499728  	0.075373 
1126.428544  	0.069964 
1128.357360  	0.065012 
1130.286176  	0.061228 
1132.214992  	0.058159 
1134.143808  	0.055637 
1136.072624  	0.053374 
1138.001440  	0.051357 
1139.930256  	0.049082 
1141.859072  	0.046956 
1143.787888  	0.044696 
1145.716704  	0.042546 
1147.645520  	0.040294 
1149.574336  	0.038429 
1151.503152  	0.037110 
1153.431968  	0.036776 
1155.360784  	0.036920 
1157.289600  	0.037677 
1159.218416  	0.039271 
1161.147232  	0.041401 
1163.076048  	0.043362 
1165.004864  	0.045500 
1166.933680  	0.047646 
1168.862496  	0.050107 
1170.791312  	0.052573 
1172.720128  	0.055392 
1174.648944  	0.058135 
1176.577760  	0.060950 
1178.506576  	0.063513 
1180.435392  	0.066356 
1182.364208  	0.069113 
1184.293024  	0.072300 
1186.221840  	0.075771 
1188.150656  	0.079661 
1190.079472  	0.083978 
1192.008288  	0.089367 
1193.937104  	0.095773 
1195.865920  	0.103259 
1197.794736  	0.111644 
1199.723552  	0.120796 
1201.652368  	0.129828 
1203.581184  	0.138884 
1205.510000  	0.147816 
1207.438816  	0.156354 
1209.367632  	0.164418 
1211.296448  	0.171408 
1213.225264  	0.177182 
1215.154080  	0.181536 
1217.082896  	0.184614 
1219.011712  	0.186616 
1220.940528  	0.188088 
1222.869344  	0.188701 
1224.798160  	0.188438 
1226.726976  	0.187381 
1228.655792  	0.186211 
1230.584608  	0.184414 
1232.513424  	0.181983 
1234.442240  	0.179064 
1236.371056  	0.175460 
1238.299872  	0.170406 
1240.228688  	0.163132 
1242.157504  	0.156091 
1244.086320  	0.150191 
1246.015136  	0.142802 
1247.943952  	0.134640 
1249.872768  	0.126568 
1251.801584  	0.119655 
1253.730400  	0.112742 
1255.659216  	0.105912 
1257.588032  	0.099476 
1259.516848  	0.093381 
1261.445664  	0.087757 
1263.374480  	0.082580 
1265.303296  	0.078215 
1267.232112  	0.074746 
1269.160928  	0.072166 
1271.089744  	0.070304 
1273.018560  	0.069359 
1274.947376  	0.069099 
1276.876192  	0.069325 
1278.805008  	0.069256 
1280.733824  	0.068235 
1282.662640  	0.066259 
1284.591456  	0.063993 
1286.520272  	0.062036 
1288.449088  	0.060629 
1290.377904  	0.059845 
1292.306720  	0.059991 
1294.235536  	0.060140 
1296.164352  	0.059438 
1298.093168  	0.057195 
1300.021984  	0.054314 
1301.950800  	0.051270 
1303.879616  	0.048382 
1305.808432  	0.045362 
1307.737248  	0.042420 
1309.666064  	0.039441 
1311.594880  	0.037395 
1313.523696  	0.035869 
1315.452512  	0.034682 
1317.381328  	0.034078 
1319.310144  	0.033971 
1321.238960  	0.033981 
1323.167776  	0.034508 
1325.096592  	0.035252 
1327.025408  	0.035847 
1328.954224  	0.035794 
1330.883040  	0.035324 
1332.811856  	0.034518 
1334.740672  	0.034100 
1336.669488  	0.034253 
1338.598304  	0.034810 
1340.527120  	0.033482 
1342.455936  	0.031378 
1344.384752  	0.030710 
1346.313568  	0.030819 
1348.242384  	0.031422 
1350.171200  	0.032636 
1352.100016  	0.034129 
1354.028832  	0.036125 
1355.957648  	0.037979 
1357.886464  	0.039928 
1359.815280  	0.042281 
1361.744096  	0.045049 
1363.672912  	0.046312 
1365.601728  	0.046887 
1367.530544  	0.048201 
1369.459360  	0.048834 
1371.388176  	0.048636 
1373.316992  	0.047798 
1375.245808  	0.044803 
1377.174624  	0.042014 
1379.103440  	0.039148 
1381.032256  	0.036050 
1382.961072  	0.033726 
1384.889888  	0.033035 
1386.818704  	0.032875 
1388.747520  	0.031011 
1390.676336  	0.028418 
1392.605152  	0.025304 
1394.533968  	0.023817 
1396.462784  	0.026680 
1398.391600  	0.027749 
1400.320416  	0.026767 
1402.249232  	0.026715 
1404.178048  	0.027488 
1406.106864  	0.028085 
1408.035680  	0.029664 
1409.964496  	0.032146 
1411.893312  	0.034970 
1413.822128  	0.037792 
1415.750944  	0.041768 
1417.679760  	0.044839 
1419.608576  	0.044585 
1421.537392  	0.044476 
1423.466208  	0.044748 
1425.395024  	0.043056 
1427.323840  	0.041560 
1429.252656  	0.039267 
1431.181472  	0.037635 
1433.110288  	0.037563 
1435.039104  	0.038263 
1436.967920  	0.037857 
1438.896736  	0.038234 
1440.825552  	0.039190 
1442.754368  	0.039820 
1444.683184  	0.040047 
1446.612000  	0.040089 
1448.540816  	0.039107 
1450.469632  	0.039396 
1452.398448  	0.040295 
1454.327264  	0.041469 
1456.256080  	0.041287 
1458.184896  	0.038740 
1460.113712  	0.039636 
1462.042528  	0.040868 
1463.971344  	0.040589 
1465.900160  	0.041038 
1467.828976  	0.043560 
1469.757792  	0.046617 
1471.686608  	0.049647 
1473.615424  	0.055164 
1475.544240  	0.061542 
1477.473056  	0.066848 
1479.401872  	0.070586 
1481.330688  	0.073844 
1483.259504  	0.075804 
1485.188320  	0.077330 
1487.117136  	0.077595 
1489.045952  	0.077458 
1490.974768  	0.074136 
1492.903584  	0.071573 
1494.832400  	0.068414 
1496.761216  	0.062030 
1498.690032  	0.056207 
1500.618848  	0.052541 
1502.547664  	0.049043 
1504.476480  	0.044969 
1506.405296  	0.039362 
1508.334112  	0.038155 
1510.262928  	0.037938 
1512.191744  	0.035691 
1514.120560  	0.034598 
1516.049376  	0.034158 
1517.978192  	0.033065 
1519.907008  	0.034219 
1521.835824  	0.034642 
1523.764640  	0.038734 
1525.693456  	0.043143 
1527.622272  	0.045148 
1529.551088  	0.045729 
1531.479904  	0.045648 
1533.408720  	0.041996 
1535.337536  	0.038978 
1537.266352  	0.036933 
1539.195168  	0.029368 
1541.123984  	0.023201 
1543.052800  	0.026243 
1544.981616  	0.026879 
1546.910432  	0.025965 
1548.839248  	0.026430 
1550.768064  	0.026602 
1552.696880  	0.026145 
1554.625696  	0.026402 
1556.554512  	0.026119 
1558.483328  	0.023655 
1560.412144  	0.028238 
1562.340960  	0.034984 
1564.269776  	0.038645 
1566.198592  	0.043617 
1568.127408  	0.047459 
1570.056224  	0.052218 
1571.985040  	0.059129 
1573.913856  	0.063628 
1575.842672  	0.064275 
1577.771488  	0.067375 
1579.700304  	0.069630 
1581.629120  	0.069504 
1583.557936  	0.068813 
1585.486752  	0.069533 
1587.415568  	0.071703 
1589.344384  	0.075899 
1591.273200  	0.081590 
1593.202016  	0.088476 
1595.130832  	0.095735 
1597.059648  	0.103551 
1598.988464  	0.110115 
1600.917280  	0.115924 
1602.846096  	0.119765 
1604.774912  	0.122291 
1606.703728  	0.122808 
1608.632544  	0.122009 
1610.561360  	0.120069 
1612.490176  	0.118678 
1614.418992  	0.116409 
1616.347808  	0.113210 
1618.276624  	0.114287 
1620.205440  	0.118913 
1622.134256  	0.121534 
1624.063072  	0.126700 
1625.991888  	0.133485 
1627.920704  	0.141068 
1629.849520  	0.150671 
1631.778336  	0.160034 
1633.707152  	0.166206 
1635.635968  	0.172630 
1637.564784  	0.182915 
1639.493600  	0.191574 
1641.422416  	0.197069 
1643.351232  	0.201170 
1645.280048  	0.201675 
1647.208864  	0.200570 
1649.137680  	0.202298 
1651.066496  	0.203308 
1652.995312  	0.195562 
1654.924128  	0.195241 
1656.852944  	0.196915 
1658.781760  	0.195315 
1660.710576  	0.191846 
1662.639392  	0.186332 
1664.568208  	0.182310 
1666.497024  	0.180301 
1668.425840  	0.174614 
1670.354656  	0.167218 
1672.283472  	0.164558 
1674.212288  	0.161880 
1676.141104  	0.156856 
1678.069920  	0.156471 
1679.998736  	0.156031 
1681.927552  	0.154433 
1683.856368  	0.148557 
1685.785184  	0.147152 
1687.714000  	0.150112 
1689.642816  	0.149681 
1691.571632  	0.147937 
1693.500448  	0.147211 
1695.429264  	0.142980 
1697.358080  	0.139529 
1699.286896  	0.137409 
1701.215712  	0.132258 
1703.144528  	0.132347 
1705.073344  	0.128529 
1707.002160  	0.122927 
1708.930976  	0.119311 
1710.859792  	0.113772 
1712.788608  	0.107500 
1714.717424  	0.099655 
1716.646240  	0.088847 
1718.575056  	0.075528 
1720.503872  	0.068559 
1722.432688  	0.062379 
1724.361504  	0.053413 
1726.290320  	0.045944 
1728.219136  	0.039963 
1730.147952  	0.034610 
1732.076768  	0.029819 
1734.005584  	0.023030 
1735.934400  	0.018062 
1737.863216  	0.017856 
1739.792032  	0.014178 
1741.720848  	0.013136 
1743.649664  	0.012860 
1745.578480  	0.011887 
1747.507296  	0.010133 
1749.436112  	0.009433 
1751.364928  	0.008400 
1753.293744  	0.007441 
1755.222560  	0.007052 
1757.151376  	0.006450 
1759.080192  	0.005659 
1761.009008  	0.004959 
1762.937824  	0.003634 
1764.866640  	0.004033 
1766.795456  	0.004588 
1768.724272  	0.004186 
1770.653088  	0.001898 
1772.581904  	-0.000430 
1774.510720  	0.000894 
1776.439536  	0.002397 
1778.368352  	0.002525 
1780.297168  	0.002356 
1782.225984  	0.001831 
1784.154800  	0.002202 
1786.083616  	0.001564 
1788.012432  	0.001666 
1789.941248  	0.002039 
1791.870064  	0.000972 
1793.798880  	-0.000365 
1795.727696  	0.000931 
1797.656512  	0.000593 
1799.585328  	0.000419 
1801.514144  	0.001018 
1803.442960  	0.000945 
1805.371776  	0.000216 
1807.300592  	0.000383 
1809.229408  	-0.000261 
1811.158224  	-0.000628 
1813.087040  	-0.000835 
1815.015856  	-0.000507 
1816.944672  	-0.000246 
1818.873488  	-0.000247 
1820.802304  	-0.000616 
1822.731120  	-0.000068 
1824.659936  	-0.000489 
1826.588752  	-0.001069 
1828.517568  	-0.001688 
1830.446384  	-0.001785 
1832.375200  	-0.001112 
1834.304016  	-0.000523 
1836.232832  	-0.000726 
1838.161648  	-0.000594 
1840.090464  	-0.000735 
1842.019280  	-0.000178 
1843.948096  	-0.001223 
1845.876912  	-0.001240 
1847.805728  	-0.000518 
1849.734544  	-0.000591 
1851.663360  	-0.001163 
1853.592176  	-0.001156 
1855.520992  	-0.001275 
1857.449808  	-0.001016 
1859.378624  	-0.001280 
1861.307440  	-0.001233 
1863.236256  	-0.001372 
1865.165072  	-0.001036 
1867.093888  	-0.001231 
1869.022704  	-0.001517 
1870.951520  	-0.001813 
1872.880336  	-0.001460 
1874.809152  	-0.001475 
1876.737968  	-0.001592 
1878.666784  	-0.002020 
1880.595600  	-0.001399 
1882.524416  	-0.001568 
1884.453232  	-0.001488 
1886.382048  	-0.001787 
1888.310864  	-0.001771 
1890.239680  	-0.002370 
1892.168496  	-0.001818 
1894.097312  	-0.001417 
1896.026128  	-0.001178 
1897.954944  	-0.001611 
1899.883760  	-0.001552 
1901.812576  	-0.002030 
1903.741392  	-0.002075 
1905.670208  	-0.001876 
1907.599024  	-0.001257 
1909.527840  	-0.001540 
1911.456656  	-0.001335 
1913.385472  	-0.001641 
1915.314288  	-0.001370 
1917.243104  	-0.001566 
1919.171920  	-0.001505 
1921.100736  	-0.001364 
1923.029552  	-0.000785 
1924.958368  	-0.001487 
1926.887184  	-0.001809 
1928.816000  	-0.002073 
1930.744816  	-0.002003 
1932.673632  	-0.002426 
1934.602448  	-0.002267 
1936.531264  	-0.002409 
1938.460080  	-0.001665 
1940.388896  	-0.001676 
1942.317712  	-0.001777 
1944.246528  	-0.002719 
1946.175344  	-0.002088 
1948.104160  	-0.002115 
1950.032976  	-0.001252 
1951.961792  	-0.001342 
1953.890608  	-0.001761 
1955.819424  	-0.002441 
1957.748240  	-0.002055 
1959.677056  	-0.002755 
1961.605872  	-0.002369 
1963.534688  	-0.002370 
1965.463504  	-0.000817 
1967.392320  	-0.001229 
1969.321136  	-0.001612 
1971.249952  	-0.002049 
1973.178768  	-0.001687 
1975.107584  	-0.002645 
1977.036400  	-0.000940 
1978.965216  	0.000749 
1980.894032  	0.000770 
1982.822848  	-0.000314 
1984.751664  	-0.000234 
1986.680480  	-0.001800 
1988.609296  	-0.001089 
1990.538112  	-0.001253 
1992.466928  	-0.001341 
1994.395744  	-0.002806 
1996.324560  	-0.002859 
1998.253376  	-0.002967 
2000.182192  	-0.002758 
2002.111008  	-0.002224 
2004.039824  	-0.001494 
2005.968640  	-0.001550 
2007.897456  	-0.000234 
2009.826272  	-0.001195 
2011.755088  	-0.001119 
2013.683904  	-0.001640 
2015.612720  	-0.001579 
2017.541536  	-0.001632 
2019.470352  	-0.001177 
2021.399168  	-0.002899 
2023.327984  	-0.002258 
2025.256800  	-0.001147 
2027.185616  	-0.000256 
2029.114432  	-0.000938 
2031.043248  	-0.001044 
2032.972064  	-0.000903 
2034.900880  	-0.000198 
2036.829696  	-0.000543 
2038.758512  	0.000739 
2040.687328  	-0.000063 
2042.616144  	-0.000258 
2044.544960  	-0.000716 
2046.473776  	-0.000054 
2048.402592  	-0.000339 
2050.331408  	-0.000786 
2052.260224  	-0.001759 
2054.189040  	-0.001588 
2056.117856  	-0.001864 
2058.046672  	-0.001524 
2059.975488  	-0.001494 
2061.904304  	-0.001486 
2063.833120  	-0.001740 
2065.761936  	-0.001339 
2067.690752  	-0.001622 
2069.619568  	-0.001201 
2071.548384  	-0.001274 
2073.477200  	-0.001200 
2075.406016  	-0.000948 
2077.334832  	-0.000768 
2079.263648  	-0.000925 
2081.192464  	-0.000568 
2083.121280  	-0.000496 
2085.050096  	-0.000513 
2086.978912  	-0.000916 
2088.907728  	-0.000832 
2090.836544  	-0.000688 
2092.765360  	-0.000527 
2094.694176  	-0.000623 
2096.622992  	-0.000503 
2098.551808  	-0.000381 
2100.480624  	0.000067 
2102.409440  	0.000153 
2104.338256  	0.000133 
2106.267072  	0.000060 
2108.195888  	0.000160 
2110.124704  	-0.000525 
2112.053520  	-0.000420 
2113.982336  	-0.000159 
2115.911152  	-0.000024 
2117.839968  	0.000002 
2119.768784  	-0.000009 
2121.697600  	-0.000647 
2123.626416  	-0.000731 
2125.555232  	-0.000972 
2127.484048  	-0.000595 
2129.412864  	-0.000868 
2131.341680  	-0.001373 
2133.270496  	-0.001519 
2135.199312  	-0.000793 
2137.128128  	-0.000543 
2139.056944  	-0.000115 
2140.985760  	-0.000270 
2142.914576  	0.000015 
2144.843392  	0.000828 
2146.772208  	0.001118 
2148.701024  	0.000207 
2150.629840  	0.000138 
2152.558656  	-0.000025 
2154.487472  	0.000674 
2156.416288  	0.000724 
2158.345104  	0.001475 
2160.273920  	0.002160 
2162.202736  	0.002857 
2164.131552  	0.002379 
2166.060368  	0.002710 
2167.989184  	0.002498 
2169.918000  	0.003372 
2171.846816  	0.002690 
2173.775632  	0.002287 
2175.704448  	0.002056 
2177.633264  	0.001580 
2179.562080  	0.000664 
2181.490896  	0.001320 
2183.419712  	0.001153 
2185.348528  	0.000928 
2187.277344  	0.000908 
2189.206160  	0.001039 
2191.134976  	0.000538 
2193.063792  	0.000862 
2194.992608  	0.000772 
2196.921424  	0.000346 
2198.850240  	0.000595 
2200.779056  	0.000758 
2202.707872  	0.000153 
2204.636688  	0.000542 
2206.565504  	0.000664 
2208.494320  	0.000778 
2210.423136  	0.000452 
2212.351952  	0.000130 
2214.280768  	-0.000598 
2216.209584  	-0.000730 
2218.138400  	-0.000782 
2220.067216  	0.000041 
2221.996032  	0.000058 
2223.924848  	0.000064 
2225.853664  	0.000478 
2227.782480  	0.000441 
2229.711296  	-0.000496 
2231.640112  	-0.001036 
2233.568928  	-0.001149 
2235.497744  	-0.000612 
2237.426560  	-0.000660 
2239.355376  	-0.000426 
2241.284192  	-0.000491 
2243.213008  	-0.000432 
2245.141824  	-0.000670 
2247.070640  	-0.000306 
2248.999456  	-0.000640 
2250.928272  	-0.001339 
2252.857088  	-0.001753 
2254.785904  	-0.001377 
2256.714720  	-0.001301 
2258.643536  	-0.001459 
2260.572352  	-0.001829 
2262.501168  	-0.001860 
2264.429984  	-0.001861 
2266.358800  	-0.001583 
2268.287616  	-0.001576 
2270.216432  	-0.001405 
2272.145248  	-0.001411 
2274.074064  	-0.001487 
2276.002880  	-0.001212 
2277.931696  	-0.000822 
2279.860512  	-0.000894 
2281.789328  	-0.000844 
2283.718144  	-0.000740 
2285.646960  	-0.000276 
2287.575776  	-0.000208 
2289.504592  	-0.000568 
2291.433408  	-0.000941 
2293.362224  	-0.000664 
2295.291040  	-0.000301 
2297.219856  	-0.000151 
2299.148672  	-0.000395 
2301.077488  	-0.000259 
2303.006304  	-0.000068 
2304.935120  	0.000196 
2306.863936  	0.000159 
2308.792752  	0.000048 
2310.721568  	-0.000428 
2312.650384  	-0.000998 
2314.579200  	-0.001996 
2316.508016  	-0.003062 
2318.436832  	-0.004082 
2320.365648  	-0.005198 
2322.294464  	-0.006659 
2324.223280  	-0.008312 
2326.152096  	-0.010627 
2328.080912  	-0.012612 
2330.009728  	-0.014579 
2331.938544  	-0.016585 
2333.867360  	-0.018206 
2335.796176  	-0.019394 
2337.724992  	-0.020735 
2339.653808  	-0.021046 
2341.582624  	-0.021175 
2343.511440  	-0.019810 
2345.440256  	-0.016717 
2347.369072  	-0.011475 
2349.297888  	-0.008632 
2351.226704  	-0.011562 
2353.155520  	-0.017542 
2355.084336  	-0.022097 
2357.013152  	-0.025710 
2358.941968  	-0.027593 
2360.870784  	-0.028740 
2362.799600  	-0.027870 
2364.728416  	-0.025949 
2366.657232  	-0.023272 
2368.586048  	-0.019532 
2370.514864  	-0.015316 
2372.443680  	-0.011783 
2374.372496  	-0.008307 
2376.301312  	-0.004914 
2378.230128  	-0.002243 
2380.158944  	-0.001070 
2382.087760  	-0.000790 
2384.016576  	-0.000847 
2385.945392  	-0.001019 
2387.874208  	-0.001260 
2389.803024  	-0.001592 
2391.731840  	-0.001876 
2393.660656  	-0.001993 
2395.589472  	-0.001863 
2397.518288  	-0.001745 
2399.447104  	-0.001947 
2401.375920  	-0.002058 
2403.304736  	-0.002270 
2405.233552  	-0.002151 
2407.162368  	-0.002104 
2409.091184  	-0.002120 
2411.020000  	-0.002099 
2412.948816  	-0.001978 
2414.877632  	-0.001883 
2416.806448  	-0.001715 
2418.735264  	-0.001796 
2420.664080  	-0.001905 
2422.592896  	-0.001977 
2424.521712  	-0.001927 
2426.450528  	-0.002097 
2428.379344  	-0.001854 
2430.308160  	-0.001480 
2432.236976  	-0.001385 
2434.165792  	-0.001498 
2436.094608  	-0.001684 
2438.023424  	-0.001607 
2439.952240  	-0.001285 
2441.881056  	-0.001167 
2443.809872  	-0.001242 
2445.738688  	-0.001076 
2447.667504  	-0.000836 
2449.596320  	-0.001028 
2451.525136  	-0.001071 
2453.453952  	-0.001015 
2455.382768  	-0.001018 
2457.311584  	-0.001149 
2459.240400  	-0.001239 
2461.169216  	-0.001401 
2463.098032  	-0.001453 
2465.026848  	-0.001239 
2466.955664  	-0.001125 
2468.884480  	-0.001479 
2470.813296  	-0.001520 
2472.742112  	-0.001507 
2474.670928  	-0.001519 
2476.599744  	-0.001486 
2478.528560  	-0.001317 
2480.457376  	-0.001218 
2482.386192  	-0.001112 
2484.315008  	-0.000897 
2486.243824  	-0.000857 
2488.172640  	-0.001055 
2490.101456  	-0.001053 
2492.030272  	-0.000881 
2493.959088  	-0.000613 
2495.887904  	-0.000585 
2497.816720  	-0.000584 
2499.745536  	-0.000546 
2501.674352  	-0.000360 
2503.603168  	-0.000075 
2505.531984  	-0.000199 
2507.460800  	-0.000432 
2509.389616  	-0.000271 
2511.318432  	-0.000233 
2513.247248  	0.000003 
2515.176064  	0.000064 
2517.104880  	-0.000025 
2519.033696  	-0.000121 
2520.962512  	0.000099 
2522.891328  	0.000200 
2524.820144  	0.000050 
2526.748960  	0.000091 
2528.677776  	0.000137 
2530.606592  	-0.000063 
2532.535408  	0.000009 
2534.464224  	0.000044 
2536.393040  	0.000066 
2538.321856  	0.000310 
2540.250672  	0.000500 
2542.179488  	0.000422 
2544.108304  	0.000490 
2546.037120  	0.000623 
2547.965936  	0.000672 
2549.894752  	0.000627 
2551.823568  	0.000716 
2553.752384  	0.000878 
2555.681200  	0.001160 
2557.610016  	0.001164 
2559.538832  	0.001158 
2561.467648  	0.001363 
2563.396464  	0.001624 
2565.325280  	0.001718 
2567.254096  	0.001606 
2569.182912  	0.001435 
2571.111728  	0.001655 
2573.040544  	0.001669 
2574.969360  	0.001647 
2576.898176  	0.001915 
2578.826992  	0.002014 
2580.755808  	0.001956 
2582.684624  	0.002079 
2584.613440  	0.002103 
2586.542256  	0.002102 
2588.471072  	0.002176 
2590.399888  	0.002387 
2592.328704  	0.002509 
2594.257520  	0.002410 
2596.186336  	0.002330 
2598.115152  	0.002511 
2600.043968  	0.002616 
2601.972784  	0.002783 
2603.901600  	0.002833 
2605.830416  	0.002885 
2607.759232  	0.002960 
2609.688048  	0.003040 
2611.616864  	0.003168 
2613.545680  	0.003371 
2615.474496  	0.003480 
2617.403312  	0.003544 
2619.332128  	0.003731 
2621.260944  	0.003878 
2623.189760  	0.003895 
2625.118576  	0.003939 
2627.047392  	0.003968 
2628.976208  	0.004143 
2630.905024  	0.004382 
2632.833840  	0.004467 
2634.762656  	0.004523 
2636.691472  	0.004573 
2638.620288  	0.004621 
2640.549104  	0.004668 
2642.477920  	0.004700 
2644.406736  	0.004937 
2646.335552  	0.005142 
2648.264368  	0.005232 
2650.193184  	0.005256 
2652.122000  	0.005394 
2654.050816  	0.005697 
2655.979632  	0.005782 
2657.908448  	0.005844 
2659.837264  	0.005908 
2661.766080  	0.005969 
2663.694896  	0.006113 
2665.623712  	0.006217 
2667.552528  	0.006376 
2669.481344  	0.006569 
2671.410160  	0.006650 
2673.338976  	0.006731 
2675.267792  	0.006904 
2677.196608  	0.007029 
2679.125424  	0.007134 
2681.054240  	0.007299 
2682.983056  	0.007520 
2684.911872  	0.007580 
2686.840688  	0.007631 
2688.769504  	0.007711 
2690.698320  	0.007790 
2692.627136  	0.007818 
2694.555952  	0.007861 
2696.484768  	0.008004 
2698.413584  	0.008147 
2700.342400  	0.008203 
2702.271216  	0.008343 
2704.200032  	0.008509 
2706.128848  	0.008558 
2708.057664  	0.008600 
2709.986480  	0.008691 
2711.915296  	0.008755 
2713.844112  	0.008902 
2715.772928  	0.008991 
2717.701744  	0.009153 
2719.630560  	0.009403 
2721.559376  	0.009552 
2723.488192  	0.009593 
2725.417008  	0.009791 
2727.345824  	0.010041 
2729.274640  	0.010144 
2731.203456  	0.010305 
2733.132272  	0.010538 
2735.061088  	0.010650 
2736.989904  	0.010749 
2738.918720  	0.010802 
2740.847536  	0.010826 
2742.776352  	0.010859 
2744.705168  	0.011022 
2746.633984  	0.011105 
2748.562800  	0.011121 
2750.491616  	0.011213 
2752.420432  	0.011373 
2754.349248  	0.011356 
2756.278064  	0.011356 
2758.206880  	0.011257 
2760.135696  	0.011172 
2762.064512  	0.011201 
2763.993328  	0.011239 
2765.922144  	0.011321 
2767.850960  	0.011449 
2769.779776  	0.011453 
2771.708592  	0.011384 
2773.637408  	0.011274 
2775.566224  	0.011246 
2777.495040  	0.011286 
2779.423856  	0.011410 
2781.352672  	0.011418 
2783.281488  	0.011329 
2785.210304  	0.011312 
2787.139120  	0.011351 
2789.067936  	0.011351 
2790.996752  	0.011422 
2792.925568  	0.011308 
2794.854384  	0.011303 
2796.783200  	0.011395 
2798.712016  	0.011326 
2800.640832  	0.011293 
2802.569648  	0.011410 
2804.498464  	0.011444 
2806.427280  	0.011393 
2808.356096  	0.011332 
2810.284912  	0.011239 
2812.213728  	0.011225 
2814.142544  	0.011253 
2816.071360  	0.011254 
2818.000176  	0.011060 
2819.928992  	0.010919 
2821.857808  	0.010835 
2823.786624  	0.010644 
2825.715440  	0.010622 
2827.644256  	0.010592 
2829.573072  	0.010491 
2831.501888  	0.010238 
2833.430704  	0.009951 
2835.359520  	0.009732 
2837.288336  	0.009538 
2839.217152  	0.009269 
2841.145968  	0.008789 
2843.074784  	0.008404 
2845.003600  	0.008159 
2846.932416  	0.007943 
2848.861232  	0.007779 
2850.790048  	0.007541 
2852.718864  	0.007068 
2854.647680  	0.006401 
2856.576496  	0.005689 
2858.505312  	0.005056 
2860.434128  	0.004473 
2862.362944  	0.003890 
2864.291760  	0.003103 
2866.220576  	0.002381 
2868.149392  	0.002078 
2870.078208  	0.001851 
2872.007024  	0.001802 
2873.935840  	0.001786 
2875.864656  	0.001729 
2877.793472  	0.001645 
2879.722288  	0.001475 
2881.651104  	0.001202 
2883.579920  	0.001093 
2885.508736  	0.001224 
2887.437552  	0.001490 
2889.366368  	0.001635 
2891.295184  	0.001399 
2893.224000  	0.001165 
2895.152816  	0.001200 
2897.081632  	0.000996 
2899.010448  	-0.000617 
2900.939264  	-0.002139 
2902.868080  	-0.000836 
2904.796896  	0.000515 
2906.725712  	0.001085 
2908.654528  	0.001894 
2910.583344  	0.002381 
2912.512160  	0.003037 
2914.440976  	0.004362 
2916.369792  	0.005367 
2918.298608  	0.005896 
2920.227424  	0.006490 
2922.156240  	0.007184 
2924.085056  	0.007866 
2926.013872  	0.008632 
2927.942688  	0.009554 
2929.871504  	0.010410 
2931.800320  	0.011152 
2933.729136  	0.011815 
2935.657952  	0.012343 
2937.586768  	0.012937 
2939.515584  	0.013581 
2941.444400  	0.013811 
2943.373216  	0.013944 
2945.302032  	0.014295 
2947.230848  	0.014415 
2949.159664  	0.014131 
2951.088480  	0.013606 
2953.017296  	0.013132 
2954.946112  	0.012525 
2956.874928  	0.011830 
2958.803744  	0.011117 
2960.732560  	0.010542 
2962.661376  	0.009987 
2964.590192  	0.008973 
2966.519008  	0.007780 
2968.447824  	0.006927 
2970.376640  	0.006194 
2972.305456  	0.005653 
2974.234272  	0.005966 
2976.163088  	0.006257 
2978.091904  	0.006131 
2980.020720  	0.006123 
2981.949536  	0.006389 
2983.878352  	0.006244 
2985.807168  	0.005333 
2987.735984  	0.004419 
2989.664800  	0.004766 
2991.593616  	0.007669 
2993.522432  	0.009622 
2995.451248  	0.010154 
2997.380064  	0.010918 
2999.308880  	0.012072 
3001.237696  	0.013417 
3003.166512  	0.014913 
3005.095328  	0.016268 
3007.024144  	0.017682 
3008.952960  	0.019195 
3010.881776  	0.020668 
3012.810592  	0.022121 
3014.739408  	0.023410 
3016.668224  	0.024505 
3018.597040  	0.025709 
3020.525856  	0.026960 
3022.454672  	0.028077 
3024.383488  	0.029166 
3026.312304  	0.030176 
3028.241120  	0.031157 
3030.169936  	0.032252 
3032.098752  	0.033221 
3034.027568  	0.033917 
3035.956384  	0.034715 
3037.885200  	0.035658 
3039.814016  	0.036299 
3041.742832  	0.036925 
3043.671648  	0.037544 
3045.600464  	0.038233 
3047.529280  	0.038790 
3049.458096  	0.039532 
3051.386912  	0.040300 
3053.315728  	0.040867 
3055.244544  	0.041431 
3057.173360  	0.042026 
3059.102176  	0.042474 
3061.030992  	0.043122 
3062.959808  	0.044074 
3064.888624  	0.044913 
3066.817440  	0.045679 
3068.746256  	0.046571 
3070.675072  	0.047271 
3072.603888  	0.047871 
3074.532704  	0.048648 
3076.461520  	0.049585 
3078.390336  	0.050536 
3080.319152  	0.051366 
3082.247968  	0.052090 
3084.176784  	0.052826 
3086.105600  	0.053686 
3088.034416  	0.054457 
3089.963232  	0.055360 
3091.892048  	0.056012 
3093.820864  	0.056783 
3095.749680  	0.057705 
3097.678496  	0.058641 
3099.607312  	0.059509 
3101.536128  	0.060488 
3103.464944  	0.061376 
3105.393760  	0.062151 
3107.322576  	0.062963 
3109.251392  	0.063775 
3111.180208  	0.064375 
3113.109024  	0.064985 
3115.037840  	0.065646 
3116.966656  	0.066487 
3118.895472  	0.067290 
3120.824288  	0.067910 
3122.753104  	0.068605 
3124.681920  	0.069209 
3126.610736  	0.069656 
3128.539552  	0.070392 
3130.468368  	0.071111 
3132.397184  	0.071633 
3134.326000  	0.072495 
3136.254816  	0.073323 
3138.183632  	0.073964 
3140.112448  	0.074476 
3142.041264  	0.075012 
3143.970080  	0.075641 
3145.898896  	0.076356 
3147.827712  	0.077169 
3149.756528  	0.077724 
3151.685344  	0.078201 
3153.614160  	0.079041 
3155.542976  	0.079768 
3157.471792  	0.080419 
3159.400608  	0.081204 
3161.329424  	0.081870 
3163.258240  	0.082328 
3165.187056  	0.082830 
3167.115872  	0.083373 
3169.044688  	0.083883 
3170.973504  	0.084312 
3172.902320  	0.084773 
3174.831136  	0.085269 
3176.759952  	0.085857 
3178.688768  	0.086291 
3180.617584  	0.086480 
3182.546400  	0.086837 
3184.475216  	0.087167 
3186.404032  	0.087199 
3188.332848  	0.087443 
3190.261664  	0.087854 
3192.190480  	0.088029 
3194.119296  	0.087865 
3196.048112  	0.087965 
3197.976928  	0.088114 
3199.905744  	0.088143 
3201.834560  	0.088173 
3203.763376  	0.088207 
3205.692192  	0.088118 
3207.621008  	0.087891 
3209.549824  	0.087718 
3211.478640  	0.087719 
3213.407456  	0.087578 
3215.336272  	0.087405 
3217.265088  	0.087370 
3219.193904  	0.087228 
3221.122720  	0.087202 
3223.051536  	0.087150 
3224.980352  	0.086883 
3226.909168  	0.086716 
3228.837984  	0.086463 
3230.766800  	0.086422 
3232.695616  	0.086435 
3234.624432  	0.086112 
3236.553248  	0.086116 
3238.482064  	0.086269 
3240.410880  	0.086289 
3242.339696  	0.086342 
3244.268512  	0.086122 
3246.197328  	0.086216 
3248.126144  	0.086638 
3250.054960  	0.086865 
3251.983776  	0.087050 
3253.912592  	0.087180 
3255.841408  	0.087497 
3257.770224  	0.087954 
3259.699040  	0.088136 
3261.627856  	0.088283 
3263.556672  	0.088462 
3265.485488  	0.088725 
3267.414304  	0.088994 
3269.343120  	0.089260 
3271.271936  	0.089491 
3273.200752  	0.089670 
3275.129568  	0.089706 
3277.058384  	0.090097 
3278.987200  	0.090540 
3280.916016  	0.090677 
3282.844832  	0.090754 
3284.773648  	0.090868 
3286.702464  	0.091013 
3288.631280  	0.091260 
3290.560096  	0.091578 
3292.488912  	0.091909 
3294.417728  	0.092224 
3296.346544  	0.092661 
3298.275360  	0.092970 
3300.204176  	0.093173 
3302.132992  	0.093577 
3304.061808  	0.093891 
3305.990624  	0.094190 
3307.919440  	0.094481 
3309.848256  	0.094811 
3311.777072  	0.095080 
3313.705888  	0.095406 
3315.634704  	0.095894 
3317.563520  	0.096251 
3319.492336  	0.096719 
3321.421152  	0.096943 
3323.349968  	0.097022 
3325.278784  	0.097129 
3327.207600  	0.097291 
3329.136416  	0.097356 
3331.065232  	0.097358 
3332.994048  	0.097541 
3334.922864  	0.097713 
3336.851680  	0.097777 
3338.780496  	0.097700 
3340.709312  	0.097566 
3342.638128  	0.097444 
3344.566944  	0.097031 
3346.495760  	0.096684 
3348.424576  	0.096393 
3350.353392  	0.096081 
3352.282208  	0.095869 
3354.211024  	0.095805 
3356.139840  	0.095432 
3358.068656  	0.095049 
3359.997472  	0.094664 
3361.926288  	0.094233 
3363.855104  	0.093887 
3365.783920  	0.093620 
3367.712736  	0.093285 
3369.641552  	0.092839 
3371.570368  	0.092286 
3373.499184  	0.091842 
3375.428000  	0.091455 
3377.356816  	0.091100 
3379.285632  	0.090934 
3381.214448  	0.090651 
3383.143264  	0.090204 
3385.072080  	0.089745 
3387.000896  	0.089313 
3388.929712  	0.088838 
3390.858528  	0.088589 
3392.787344  	0.088290 
3394.716160  	0.087724 
3396.644976  	0.087458 
3398.573792  	0.087100 
3400.502608  	0.086652 
3402.431424  	0.086014 
3404.360240  	0.085259 
3406.289056  	0.084663 
3408.217872  	0.084325 
3410.146688  	0.083984 
3412.075504  	0.083557 
3414.004320  	0.083049 
3415.933136  	0.082534 
3417.861952  	0.081749 
3419.790768  	0.081294 
3421.719584  	0.080991 
3423.648400  	0.080268 
3425.577216  	0.079494 
3427.506032  	0.078842 
3429.434848  	0.078447 
3431.363664  	0.078086 
3433.292480  	0.077487 
3435.221296  	0.076875 
3437.150112  	0.076365 
3439.078928  	0.075748 
3441.007744  	0.074984 
3442.936560  	0.074552 
3444.865376  	0.074386 
3446.794192  	0.073710 
3448.723008  	0.072733 
3450.651824  	0.071929 
3452.580640  	0.071238 
3454.509456  	0.070782 
3456.438272  	0.070228 
3458.367088  	0.069545 
3460.295904  	0.068824 
3462.224720  	0.067997 
3464.153536  	0.067131 
3466.082352  	0.066283 
3468.011168  	0.065375 
3469.939984  	0.064609 
3471.868800  	0.063940 
3473.797616  	0.063073 
3475.726432  	0.062273 
3477.655248  	0.061523 
3479.584064  	0.061001 
3481.512880  	0.060427 
3483.441696  	0.059299 
3485.370512  	0.058421 
3487.299328  	0.057535 
3489.228144  	0.056688 
3491.156960  	0.055936 
3493.085776  	0.055317 
3495.014592  	0.054572 
3496.943408  	0.053904 
3498.872224  	0.053247 
3500.801040  	0.053007 
3502.729856  	0.052326 
3504.658672  	0.051061 
3506.587488  	0.050555 
3508.516304  	0.050153 
3510.445120  	0.049185 
3512.373936  	0.048204 
3514.302752  	0.047476 
3516.231568  	0.046968 
3518.160384  	0.046448 
3520.089200  	0.045796 
3522.018016  	0.045581 
3523.946832  	0.045562 
3525.875648  	0.044593 
3527.804464  	0.043230 
3529.733280  	0.042309 
3531.662096  	0.041577 
3533.590912  	0.040930 
3535.519728  	0.040554 
3537.448544  	0.040017 
3539.377360  	0.039087 
3541.306176  	0.038514 
3543.234992  	0.038480 
3545.163808  	0.038909 
3547.092624  	0.038226 
3549.021440  	0.036638 
3550.950256  	0.035561 
3552.879072  	0.035047 
3554.807888  	0.034425 
3556.736704  	0.033646 
3558.665520  	0.033440 
3560.594336  	0.033163 
3562.523152  	0.032163 
3564.451968  	0.032097 
3566.380784  	0.032735 
3568.309600  	0.031195 
3570.238416  	0.029421 
3572.167232  	0.028411 
3574.096048  	0.027281 
3576.024864  	0.026396 
3577.953680  	0.026087 
3579.882496  	0.025543 
3581.811312  	0.024759 
3583.740128  	0.024130 
3585.668944  	0.024258 
3587.597760  	0.023754 
3589.526576  	0.022095 
3591.455392  	0.020877 
3593.384208  	0.020425 
3595.313024  	0.019781 
3597.241840  	0.018243 
3599.170656  	0.016781 
3601.099472  	0.016105 
3603.028288  	0.015838 
3604.957104  	0.015324 
3606.885920  	0.014684 
3608.814736  	0.013955 
3610.743552  	0.013552 
3612.672368  	0.012591 
3614.601184  	0.011381 
3616.530000  	0.010593 
3618.458816  	0.008922 
3620.387632  	0.007979 
3622.316448  	0.007628 
3624.245264  	0.006817 
3626.174080  	0.005996 
3628.102896  	0.003729 
3630.031712  	0.001887 
3631.960528  	0.002980 
3633.889344  	0.002437 
3635.818160  	0.001447 
3637.746976  	0.000561 
3639.675792  	0.000132 
3641.604608  	-0.000035 
3643.533424  	-0.000569 
3645.462240  	-0.001680 
3647.391056  	-0.004069 
3649.319872  	-0.007545 
3651.248688  	-0.008257 
3653.177504  	-0.006661 
3655.106320  	-0.007484 
3657.035136  	-0.009379 
3658.963952  	-0.009432 
3660.892768  	-0.009645 
3662.821584  	-0.010196 
3664.750400  	-0.010485 
3666.679216  	-0.010724 
3668.608032  	-0.012494 
3670.536848  	-0.014571 
3672.465664  	-0.013499 
3674.394480  	-0.015047 
3676.323296  	-0.017278 
3678.252112  	-0.014043 
3680.180928  	-0.012697 
3682.109744  	-0.012437 
3684.038560  	-0.012886 
3685.967376  	-0.013370 
3687.896192  	-0.015724 
3689.825008  	-0.017405 
3691.753824  	-0.015701 
3693.682640  	-0.013860 
3695.611456  	-0.013324 
3697.540272  	-0.012757 
3699.469088  	-0.012380 
3701.397904  	-0.013025 
3703.326720  	-0.012577 
3705.255536  	-0.011235 
3707.184352  	-0.011225 
3709.113168  	-0.012795 
3711.041984  	-0.014028 
3712.970800  	-0.012182 
3714.899616  	-0.009923 
3716.828432  	-0.009931 
3718.757248  	-0.010491 
3720.686064  	-0.010842 
3722.614880  	-0.010907 
3724.543696  	-0.010291 
3726.472512  	-0.010385 
3728.401328  	-0.010787 
3730.330144  	-0.012115 
3732.258960  	-0.013461 
3734.187776  	-0.011990 
3736.116592  	-0.011508 
3738.045408  	-0.011676 
3739.974224  	-0.010838 
3741.903040  	-0.010343 
3743.831856  	-0.011994 
3745.760672  	-0.012638 
3747.689488  	-0.012060 
3749.618304  	-0.014345 
3751.547120  	-0.015009 
3753.475936  	-0.012535 
3755.404752  	-0.010846 
3757.333568  	-0.010573 
3759.262384  	-0.011151 
3761.191200  	-0.010924 
3763.120016  	-0.009745 
3765.048832  	-0.010117 
3766.977648  	-0.010250 
3768.906464  	-0.011181 
3770.835280  	-0.011063 
3772.764096  	-0.009756 
3774.692912  	-0.009495 
3776.621728  	-0.009597 
3778.550544  	-0.010701 
3780.479360  	-0.011133 
3782.408176  	-0.010145 
3784.336992  	-0.010307 
3786.265808  	-0.010005 
3788.194624  	-0.009714 
3790.123440  	-0.009854 
3792.052256  	-0.009976 
3793.981072  	-0.010099 
3795.909888  	-0.011128 
3797.838704  	-0.010964 
3799.767520  	-0.011778 
3801.696336  	-0.014512 
3803.625152  	-0.012444 
3805.553968  	-0.011757 
3807.482784  	-0.012504 
3809.411600  	-0.010550 
3811.340416  	-0.009633 
3813.269232  	-0.009803 
3815.198048  	-0.012021 
3817.126864  	-0.012647 
3819.055680  	-0.011869 
3820.984496  	-0.014136 
3822.913312  	-0.012261 
3824.842128  	-0.010411 
3826.770944  	-0.010668 
3828.699760  	-0.010332 
3830.628576  	-0.010860 
3832.557392  	-0.011452 
3834.486208  	-0.011552 
3836.415024  	-0.012609 
3838.343840  	-0.013238 
3840.272656  	-0.011993 
3842.201472  	-0.010851 
3844.130288  	-0.010522 
3846.059104  	-0.009749 
3847.987920  	-0.009584 
3849.916736  	-0.010142 
3851.845552  	-0.012371 
3853.774368  	-0.014998 
3855.703184  	-0.011869 
3857.632000  	-0.009956 
3859.560816  	-0.009518 
3861.489632  	-0.009886 
3863.418448  	-0.010508 
3865.347264  	-0.010439 
3867.276080  	-0.009687 
3869.204896  	-0.010636 
3871.133712  	-0.010205 
3873.062528  	-0.009837 
3874.991344  	-0.010178 
3876.920160  	-0.009248 
3878.848976  	-0.009121 
3880.777792  	-0.009166 
3882.706608  	-0.008517 
3884.635424  	-0.008994 
3886.564240  	-0.009610 
3888.493056  	-0.009264 
3890.421872  	-0.009858 
3892.350688  	-0.010009 
3894.279504  	-0.009169 
3896.208320  	-0.008939 
3898.137136  	-0.008937 
3900.065952  	-0.008699 
3901.994768  	-0.008291 
3903.923584  	-0.008702 
3905.852400  	-0.009086 
3907.781216  	-0.009251 
3909.710032  	-0.009371 
3911.638848  	-0.009355 
3913.567664  	-0.009101 
3915.496480  	-0.008614 
3917.425296  	-0.008492 
3919.354112  	-0.008804 
3921.282928  	-0.008701 
3923.211744  	-0.008283 
3925.140560  	-0.008296 
3927.069376  	-0.008662 
3928.998192  	-0.008722 
3930.927008  	-0.008093 
3932.855824  	-0.007873 
3934.784640  	-0.008589 
3936.713456  	-0.009051 
3938.642272  	-0.008794 
3940.571088  	-0.008404 
3942.499904  	-0.008140 
3944.428720  	-0.008298 
3946.357536  	-0.008088 
3948.286352  	-0.007762 
3950.215168  	-0.008333 
3952.143984  	-0.009037 
3954.072800  	-0.009180 
3956.001616  	-0.008834 
3957.930432  	-0.008725 
3959.859248  	-0.008739 
3961.788064  	-0.008664 
3963.716880  	-0.008999 
3965.645696  	-0.009431 
3967.574512  	-0.009211 
3969.503328  	-0.008767 
3971.432144  	-0.008843 
3973.360960  	-0.008958 
3975.289776  	-0.008796 
3977.218592  	-0.008672 
3979.147408  	-0.008903 
3981.076224  	-0.009029 
3983.005040  	-0.008946 
3984.933856  	-0.008923 
3986.862672  	-0.008995 
3988.791488  	-0.008799 
3990.720304  	-0.008569 
3992.649120  	-0.008870 
3994.577936  	-0.008981 
3996.506752  	-0.008844 
3998.435568  	-0.008884 
4000.364384  	-0.008892 