##TITLE=No Description
##DATA TYPE=INFRARED SPECTRUM
##XUNITS=1/CM
##YUNITS=Abs
399.264912  	0.596671 
401.193728  	0.598132 
403.122544  	0.595327 
405.051360  	0.582940 
406.980176  	0.570988 
408.908992  	0.556366 
410.837808  	0.564090 
412.766624  	0.563847 
414.695440  	0.564584 
416.624256  	0.559864 
418.553072  	0.567824 
420.481888  	0.553641 
422.410704  	0.551953 
424.339520  	0.547461 
426.268336  	0.552126 
428.197152  	0.548130 
430.125968  	0.544279 
432.054784  	0.533654 
433.983600  	0.534719 
435.912416  	0.532997 
437.841232  	0.531798 
439.770048  	0.521188 
441.698864  	0.517018 
443.627680  	0.520507 
445.556496  	0.526068 
447.485312  	0.517383 
449.414128  	0.515867 
451.342944  	0.519017 
453.271760  	0.519442 
455.200576  	0.516717 
457.129392  	0.517488 
459.058208  	0.513872 
460.987024  	0.518263 
462.915840  	0.513061 
464.844656  	0.514947 
466.773472  	0.514320 
468.702288  	0.509928 
470.631104  	0.509395 
472.559920  	0.510954 
474.488736  	0.507255 
476.417552  	0.514682 
478.346368  	0.513488 
480.275184  	0.510809 
482.204000  	0.505575 
484.132816  	0.508104 
486.061632  	0.508096 
487.990448  	0.506047 
489.919264  	0.502682 
491.848080  	0.503576 
493.776896  	0.501783 
495.705712  	0.499952 
497.634528  	0.496112 
499.563344  	0.498318 
501.492160  	0.498126 
503.420976  	0.496074 
505.349792  	0.492879 
507.278608  	0.496195 
509.207424  	0.497124 
511.136240  	0.498836 
513.065056  	0.498089 
514.993872  	0.500735 
516.922688  	0.500038 
518.851504  	0.503192 
520.780320  	0.504217 
522.709136  	0.501278 
524.637952  	0.499880 
526.566768  	0.499164 
528.495584  	0.493612 
530.424400  	0.493313 
532.353216  	0.489555 
534.282032  	0.486675 
536.210848  	0.481129 
538.139664  	0.474879 
540.068480  	0.468524 
541.997296  	0.465103 
543.926112  	0.460271 
545.854928  	0.455836 
547.783744  	0.451927 
549.712560  	0.450074 
551.641376  	0.446252 
553.570192  	0.443603 
555.499008  	0.440648 
557.427824  	0.438258 
559.356640  	0.434277 
561.285456  	0.429625 
563.214272  	0.424384 
565.143088  	0.422130 
567.071904  	0.420238 
569.000720  	0.417368 
570.929536  	0.413075 
572.858352  	0.411049 
574.787168  	0.408771 
576.715984  	0.406496 
578.644800  	0.402485 
580.573616  	0.398541 
582.502432  	0.393232 
584.431248  	0.390585 
586.360064  	0.387188 
588.288880  	0.384230 
590.217696  	0.381654 
592.146512  	0.380050 
594.075328  	0.377289 
596.004144  	0.374839 
597.932960  	0.373069 
599.861776  	0.372523 
601.790592  	0.370466 
603.719408  	0.368783 
605.648224  	0.367663 
607.577040  	0.366297 
609.505856  	0.364247 
611.434672  	0.362553 
613.363488  	0.359987 
615.292304  	0.358479 
617.221120  	0.357110 
619.149936  	0.356034 
621.078752  	0.354992 
623.007568  	0.354364 
624.936384  	0.352089 
626.865200  	0.349998 
628.794016  	0.348477 
630.722832  	0.348449 
632.651648  	0.348381 
634.580464  	0.348095 
636.509280  	0.348534 
638.438096  	0.348925 
640.366912  	0.347309 
642.295728  	0.344990 
644.224544  	0.342404 
646.153360  	0.339394 
648.082176  	0.335408 
650.010992  	0.331811 
651.939808  	0.328285 
653.868624  	0.324256 
655.797440  	0.320376 
657.726256  	0.317232 
659.655072  	0.313123 
661.583888  	0.309053 
663.512704  	0.305675 
665.441520  	0.302506 
667.370336  	0.294443 
669.299152  	0.288424 
671.227968  	0.288645 
673.156784  	0.286277 
675.085600  	0.283228 
677.014416  	0.280616 
678.943232  	0.278706 
680.872048  	0.277429 
682.800864  	0.275544 
684.729680  	0.273902 
686.658496  	0.273014 
688.587312  	0.272310 
690.516128  	0.270882 
692.444944  	0.269553 
694.373760  	0.268764 
696.302576  	0.266914 
698.231392  	0.264389 
700.160208  	0.262253 
702.089024  	0.260246 
704.017840  	0.258037 
705.946656  	0.255636 
707.875472  	0.253118 
709.804288  	0.250836 
711.733104  	0.249007 
713.661920  	0.246984 
715.590736  	0.246001 
717.519552  	0.245495 
719.448368  	0.245567 
721.377184  	0.245902 
723.306000  	0.246144 
725.234816  	0.246299 
727.163632  	0.245750 
729.092448  	0.243793 
731.021264  	0.240994 
732.950080  	0.237558 
734.878896  	0.234366 
736.807712  	0.231595 
738.736528  	0.229356 
740.665344  	0.227566 
742.594160  	0.225669 
744.522976  	0.223966 
746.451792  	0.222518 
748.380608  	0.221152 
750.309424  	0.219908 
752.238240  	0.218385 
754.167056  	0.217393 
756.095872  	0.216363 
758.024688  	0.215346 
759.953504  	0.214661 
761.882320  	0.215288 
763.811136  	0.216085 
765.739952  	0.215025 
767.668768  	0.212388 
769.597584  	0.210173 
771.526400  	0.209206 
773.455216  	0.210246 
775.384032  	0.213423 
777.312848  	0.218137 
779.241664  	0.222153 
781.170480  	0.222592 
783.099296  	0.218977 
785.028112  	0.213417 
786.956928  	0.207648 
788.885744  	0.202874 
790.814560  	0.199685 
792.743376  	0.196990 
794.672192  	0.195564 
796.601008  	0.194923 
798.529824  	0.192201 
800.458640  	0.187785 
802.387456  	0.184405 
804.316272  	0.182379 
806.245088  	0.180996 
808.173904  	0.180067 
810.102720  	0.179527 
812.031536  	0.179601 
813.960352  	0.179815 
815.889168  	0.180007 
817.817984  	0.180306 
819.746800  	0.180684 
821.675616  	0.180668 
823.604432  	0.180368 
825.533248  	0.180279 
827.462064  	0.180139 
829.390880  	0.179311 
831.319696  	0.177982 
833.248512  	0.176181 
835.177328  	0.173846 
837.106144  	0.171213 
839.034960  	0.168085 
840.963776  	0.164833 
842.892592  	0.161450 
844.821408  	0.157909 
846.750224  	0.154865 
848.679040  	0.152190 
850.607856  	0.149772 
852.536672  	0.147990 
854.465488  	0.146569 
856.394304  	0.145268 
858.323120  	0.143635 
860.251936  	0.141738 
862.180752  	0.139592 
864.109568  	0.136880 
866.038384  	0.134183 
867.967200  	0.131987 
869.896016  	0.130239 
871.824832  	0.129198 
873.753648  	0.128741 
875.682464  	0.129380 
877.611280  	0.129832 
879.540096  	0.130707 
881.468912  	0.132728 
883.397728  	0.134303 
885.326544  	0.135392 
887.255360  	0.135557 
889.184176  	0.134708 
891.112992  	0.132852 
893.041808  	0.131122 
894.970624  	0.128756 
896.899440  	0.125473 
898.828256  	0.121550 
900.757072  	0.117600 
902.685888  	0.114387 
904.614704  	0.112635 
906.543520  	0.112732 
908.472336  	0.114021 
910.401152  	0.116314 
912.329968  	0.119049 
914.258784  	0.122147 
916.187600  	0.124822 
918.116416  	0.127082 
920.045232  	0.128687 
921.974048  	0.129745 
923.902864  	0.130246 
925.831680  	0.130296 
927.760496  	0.130450 
929.689312  	0.130876 
931.618128  	0.131727 
933.546944  	0.132389 
935.475760  	0.132761 
937.404576  	0.132681 
939.333392  	0.132160 
941.262208  	0.132085 
943.191024  	0.133369 
945.119840  	0.136810 
947.048656  	0.142315 
948.977472  	0.149501 
950.906288  	0.158242 
952.835104  	0.168396 
954.763920  	0.179397 
956.692736  	0.189872 
958.621552  	0.199022 
960.550368  	0.205509 
962.479184  	0.208869 
964.408000  	0.208515 
966.336816  	0.204194 
968.265632  	0.196328 
970.194448  	0.185519 
972.123264  	0.172933 
974.052080  	0.159872 
975.980896  	0.147072 
977.909712  	0.135058 
979.838528  	0.124104 
981.767344  	0.114854 
983.696160  	0.107885 
985.624976  	0.103379 
987.553792  	0.101445 
989.482608  	0.102225 
991.411424  	0.105305 
993.340240  	0.109888 
995.269056  	0.115661 
997.197872  	0.121935 
999.126688  	0.128457 
1001.055504  	0.135210 
1002.984320  	0.141834 
1004.913136  	0.148225 
1006.841952  	0.154503 
1008.770768  	0.159697 
1010.699584  	0.163386 
1012.628400  	0.165543 
1014.557216  	0.166314 
1016.486032  	0.166327 
1018.414848  	0.165944 
1020.343664  	0.165485 
1022.272480  	0.164646 
1024.201296  	0.163292 
1026.130112  	0.159996 
1028.058928  	0.158731 
1029.987744  	0.161478 
1031.916560  	0.163483 
1033.845376  	0.164736 
1035.774192  	0.165925 
1037.703008  	0.168600 
1039.631824  	0.174727 
1041.560640  	0.183483 
1043.489456  	0.195069 
1045.418272  	0.209268 
1047.347088  	0.225069 
1049.275904  	0.239664 
1051.204720  	0.250905 
1053.133536  	0.257843 
1055.062352  	0.260862 
1056.991168  	0.260407 
1058.919984  	0.261362 
1060.848800  	0.262221 
1062.777616  	0.259778 
1064.706432  	0.253510 
1066.635248  	0.248311 
1068.564064  	0.246610 
1070.492880  	0.241843 
1072.421696  	0.234240 
1074.350512  	0.228867 
1076.279328  	0.227158 
1078.208144  	0.229486 
1080.136960  	0.234404 
1082.065776  	0.240204 
1083.994592  	0.244482 
1085.923408  	0.245484 
1087.852224  	0.243236 
1089.781040  	0.239082 
1091.709856  	0.233454 
1093.638672  	0.225710 
1095.567488  	0.214948 
1097.496304  	0.202691 
1099.425120  	0.189903 
1101.353936  	0.177268 
1103.282752  	0.165029 
1105.211568  	0.153448 
1107.140384  	0.142325 
1109.069200  	0.131793 
1110.998016  	0.122064 
1112.926832  	0.113448 
1114.855648  	0.105757 
1116.784464  	0.098371 
1118.713280  	0.091369 
1120.642096  	0.084820 
1122.570912  	0.078627 
1124.499728  	0.072666 
1126.428544  	0.067327 
1128.357360  	0.062524 
1130.286176  	0.058875 
1132.214992  	0.055664 
1134.143808  	0.053053 
1136.072624  	0.050952 
1138.001440  	0.049200 
1139.930256  	0.047008 
1141.859072  	0.044751 
1143.787888  	0.042507 
1145.716704  	0.040398 
1147.645520  	0.038330 
1149.574336  	0.036734 
1151.503152  	0.035536 
1153.431968  	0.035127 
1155.360784  	0.035292 
1157.289600  	0.036054 
1159.218416  	0.037418 
1161.147232  	0.039230 
1163.076048  	0.041173 
1165.004864  	0.043448 
1166.933680  	0.045408 
1168.862496  	0.047698 
1170.791312  	0.050052 
1172.720128  	0.052980 
1174.648944  	0.055809 
1176.577760  	0.058469 
1178.506576  	0.061016 
1180.435392  	0.063815 
1182.364208  	0.066458 
1184.293024  	0.069591 
1186.221840  	0.072963 
1188.150656  	0.076657 
1190.079472  	0.080893 
1192.008288  	0.086189 
1193.937104  	0.092490 
1195.865920  	0.099790 
1197.794736  	0.107713 
1199.723552  	0.116564 
1201.652368  	0.125529 
1203.581184  	0.134465 
1205.510000  	0.143221 
1207.438816  	0.151613 
1209.367632  	0.159350 
1211.296448  	0.166181 
1213.225264  	0.171936 
1215.154080  	0.176291 
1217.082896  	0.179396 
1219.011712  	0.181112 
1220.940528  	0.182198 
1222.869344  	0.182820 
1224.798160  	0.182652 
1226.726976  	0.181874 
1228.655792  	0.180860 
1230.584608  	0.178893 
1232.513424  	0.176353 
1234.442240  	0.173533 
1236.371056  	0.170088 
1238.299872  	0.165388 
1240.228688  	0.158252 
1242.157504  	0.151210 
1244.086320  	0.145514 
1246.015136  	0.138324 
1247.943952  	0.130297 
1249.872768  	0.122370 
1251.801584  	0.115568 
1253.730400  	0.108831 
1255.659216  	0.102144 
1257.588032  	0.095858 
1259.516848  	0.089985 
1261.445664  	0.084462 
1263.374480  	0.079406 
1265.303296  	0.075297 
1267.232112  	0.071996 
1269.160928  	0.069497 
1271.089744  	0.067555 
1273.018560  	0.066585 
1274.947376  	0.066463 
1276.876192  	0.066730 
1278.805008  	0.066564 
1280.733824  	0.065602 
1282.662640  	0.063756 
1284.591456  	0.061544 
1286.520272  	0.059628 
1288.449088  	0.058283 
1290.377904  	0.057505 
1292.306720  	0.057689 
1294.235536  	0.057792 
1296.164352  	0.056990 
1298.093168  	0.054818 
1300.021984  	0.052033 
1301.950800  	0.049068 
1303.879616  	0.046340 
1305.808432  	0.043332 
1307.737248  	0.040378 
1309.666064  	0.037464 
1311.594880  	0.035534 
1313.523696  	0.033974 
1315.452512  	0.032777 
1317.381328  	0.032130 
1319.310144  	0.031953 
1321.238960  	0.031909 
1323.167776  	0.032530 
1325.096592  	0.033408 
1327.025408  	0.034036 
1328.954224  	0.033996 
1330.883040  	0.033524 
1332.811856  	0.032546 
1334.740672  	0.032125 
1336.669488  	0.032346 
1338.598304  	0.032776 
1340.527120  	0.031374 
1342.455936  	0.029518 
1344.384752  	0.028988 
1346.313568  	0.029180 
1348.242384  	0.029653 
1350.171200  	0.030747 
1352.100016  	0.032320 
1354.028832  	0.034348 
1355.957648  	0.036100 
1357.886464  	0.037984 
1359.815280  	0.040323 
1361.744096  	0.042891 
1363.672912  	0.043950 
1365.601728  	0.044690 
1367.530544  	0.045925 
1369.459360  	0.046335 
1371.388176  	0.046271 
1373.316992  	0.045283 
1375.245808  	0.041927 
1377.174624  	0.039426 
1379.103440  	0.036748 
1381.032256  	0.033730 
1382.961072  	0.031456 
1384.889888  	0.030874 
1386.818704  	0.030497 
1388.747520  	0.028634 
1390.676336  	0.026213 
1392.605152  	0.023152 
1394.533968  	0.021350 
1396.462784  	0.024196 
1398.391600  	0.025313 
1400.320416  	0.024182 
1402.249232  	0.024470 
1404.178048  	0.025115 
1406.106864  	0.025555 
1408.035680  	0.027333 
1409.964496  	0.029934 
1411.893312  	0.032801 
1413.822128  	0.035635 
1415.750944  	0.039557 
1417.679760  	0.042295 
1419.608576  	0.041423 
1421.537392  	0.041764 
1423.466208  	0.042282 
1425.395024  	0.040538 
1427.323840  	0.039358 
1429.252656  	0.036999 
1431.181472  	0.035284 
1433.110288  	0.035398 
1435.039104  	0.036214 
1436.967920  	0.035222 
1438.896736  	0.035661 
1440.825552  	0.036901 
1442.754368  	0.037487 
1444.683184  	0.037739 
1446.612000  	0.037746 
1448.540816  	0.036507 
1450.469632  	0.036924 
1452.398448  	0.037896 
1454.327264  	0.039168 
1456.256080  	0.038402 
1458.184896  	0.035128 
1460.113712  	0.036832 
1462.042528  	0.038663 
1463.971344  	0.038250 
1465.900160  	0.038452 
1467.828976  	0.041327 
1469.757792  	0.044692 
1471.686608  	0.047256 
1473.615424  	0.051885 
1475.544240  	0.058451 
1477.473056  	0.063830 
1479.401872  	0.067665 
1481.330688  	0.070778 
1483.259504  	0.072771 
1485.188320  	0.074390 
1487.117136  	0.074287 
1489.045952  	0.073501 
1490.974768  	0.070152 
1492.903584  	0.068282 
1494.832400  	0.065458 
1496.761216  	0.058673 
1498.690032  	0.052878 
1500.618848  	0.049632 
1502.547664  	0.046459 
1504.476480  	0.042491 
1506.405296  	0.035806 
1508.334112  	0.034331 
1510.262928  	0.034988 
1512.191744  	0.033105 
1514.120560  	0.032399 
1516.049376  	0.031845 
1517.978192  	0.030526 
1519.907008  	0.031786 
1521.835824  	0.031214 
1523.764640  	0.035733 
1525.693456  	0.040432 
1527.622272  	0.042532 
1529.551088  	0.043439 
1531.479904  	0.043426 
1533.408720  	0.039073 
1535.337536  	0.036350 
1537.266352  	0.035024 
1539.195168  	0.026710 
1541.123984  	0.019481 
1543.052800  	0.023306 
1544.981616  	0.024377 
1546.910432  	0.024112 
1548.839248  	0.024853 
1550.768064  	0.024670 
1552.696880  	0.024308 
1554.625696  	0.024365 
1556.554512  	0.024172 
1558.483328  	0.020322 
1560.412144  	0.024123 
1562.340960  	0.032406 
1564.269776  	0.036356 
1566.198592  	0.041256 
1568.127408  	0.045060 
1570.056224  	0.049012 
1571.985040  	0.056314 
1573.913856  	0.061154 
1575.842672  	0.061049 
1577.771488  	0.063886 
1579.700304  	0.066716 
1581.629120  	0.066740 
1583.557936  	0.066172 
1585.486752  	0.066849 
1587.415568  	0.068972 
1589.344384  	0.073055 
1591.273200  	0.078526 
1593.202016  	0.085228 
1595.130832  	0.092308 
1597.059648  	0.099840 
1598.988464  	0.106281 
1600.917280  	0.111850 
1602.846096  	0.115498 
1604.774912  	0.118012 
1606.703728  	0.118416 
1608.632544  	0.117449 
1610.561360  	0.115593 
1612.490176  	0.114405 
1614.418992  	0.112402 
1616.347808  	0.108471 
1618.276624  	0.109408 
1620.205440  	0.114826 
1622.134256  	0.117390 
1624.063072  	0.121891 
1625.991888  	0.128954 
1627.920704  	0.136380 
1629.849520  	0.145759 
1631.778336  	0.155217 
1633.707152  	0.161154 
1635.635968  	0.166215 
1637.564784  	0.176412 
1639.493600  	0.185531 
1641.422416  	0.191061 
1643.351232  	0.195236 
1645.280048  	0.195256 
1647.208864  	0.193070 
1649.137680  	0.195315 
1651.066496  	0.196953 
1652.995312  	0.188221 
1654.924128  	0.187832 
1656.852944  	0.190319 
1658.781760  	0.188951 
1660.710576  	0.185383 
1662.639392  	0.179510 
1664.568208  	0.175953 
1666.497024  	0.174453 
1668.425840  	0.168706 
1670.354656  	0.160986 
1672.283472  	0.158705 
1674.212288  	0.155995 
1676.141104  	0.150781 
1678.069920  	0.150802 
1679.998736  	0.150433 
1681.927552  	0.148952 
1683.856368  	0.142280 
1685.785184  	0.140993 
1687.714000  	0.144702 
1689.642816  	0.144438 
1691.571632  	0.142782 
1693.500448  	0.142175 
1695.429264  	0.137511 
1697.358080  	0.134181 
1699.286896  	0.132268 
1701.215712  	0.126622 
1703.144528  	0.127247 
1705.073344  	0.123190 
1707.002160  	0.117776 
1708.930976  	0.114679 
1710.859792  	0.109460 
1712.788608  	0.103485 
1714.717424  	0.095444 
1716.646240  	0.084291 
1718.575056  	0.071097 
1720.503872  	0.065072 
1722.432688  	0.059504 
1724.361504  	0.050783 
1726.290320  	0.043568 
1728.219136  	0.037774 
1730.147952  	0.032549 
1732.076768  	0.027857 
1734.005584  	0.020235 
1735.934400  	0.015466 
1737.863216  	0.015908 
1739.792032  	0.012019 
1741.720848  	0.011113 
1743.649664  	0.010882 
1745.578480  	0.010081 
1747.507296  	0.008304 
1749.436112  	0.007243 
1751.364928  	0.006134 
1753.293744  	0.005500 
1755.222560  	0.005391 
1757.151376  	0.004686 
1759.080192  	0.004185 
1761.009008  	0.003439 
1762.937824  	0.001662 
1764.866640  	0.002366 
1766.795456  	0.003038 
1768.724272  	0.002557 
1770.653088  	0.000225 
1772.581904  	-0.002706 
1774.510720  	-0.001098 
1776.439536  	0.000843 
1778.368352  	0.001227 
1780.297168  	0.000835 
1782.225984  	0.000166 
1784.154800  	0.000660 
1786.083616  	0.000059 
1788.012432  	0.000266 
1789.941248  	0.000636 
1791.870064  	-0.001024 
1793.798880  	-0.002437 
1795.727696  	-0.000647 
1797.656512  	-0.000908 
1799.585328  	-0.001104 
1801.514144  	-0.000640 
1803.442960  	-0.000667 
1805.371776  	-0.001341 
1807.300592  	-0.000945 
1809.229408  	-0.001548 
1811.158224  	-0.002155 
1813.087040  	-0.002320 
1815.015856  	-0.001874 
1816.944672  	-0.001721 
1818.873488  	-0.001570 
1820.802304  	-0.001697 
1822.731120  	-0.001022 
1824.659936  	-0.001851 
1826.588752  	-0.002466 
1828.517568  	-0.002992 
1830.446384  	-0.003639 
1832.375200  	-0.002765 
1834.304016  	-0.002024 
1836.232832  	-0.002233 
1838.161648  	-0.002177 
1840.090464  	-0.002207 
1842.019280  	-0.001379 
1843.948096  	-0.002737 
1845.876912  	-0.002728 
1847.805728  	-0.001902 
1849.734544  	-0.002037 
1851.663360  	-0.002413 
1853.592176  	-0.002521 
1855.520992  	-0.002789 
1857.449808  	-0.002447 
1859.378624  	-0.002507 
1861.307440  	-0.002580 
1863.236256  	-0.002841 
1865.165072  	-0.002562 
1867.093888  	-0.002675 
1869.022704  	-0.003172 
1870.951520  	-0.003391 
1872.880336  	-0.002879 
1874.809152  	-0.003134 
1876.737968  	-0.002979 
1878.666784  	-0.003157 
1880.595600  	-0.002618 
1882.524416  	-0.002881 
1884.453232  	-0.002894 
1886.382048  	-0.003120 
1888.310864  	-0.003037 
1890.239680  	-0.003686 
1892.168496  	-0.003164 
1894.097312  	-0.002830 
1896.026128  	-0.002614 
1897.954944  	-0.002900 
1899.883760  	-0.002844 
1901.812576  	-0.003327 
1903.741392  	-0.003438 
1905.670208  	-0.003278 
1907.599024  	-0.002672 
1909.527840  	-0.003132 
1911.456656  	-0.003036 
1913.385472  	-0.002905 
1915.314288  	-0.002094 
1917.243104  	-0.002493 
1919.171920  	-0.002884 
1921.100736  	-0.002786 
1923.029552  	-0.002429 
1924.958368  	-0.002969 
1926.887184  	-0.002857 
1928.816000  	-0.003356 
1930.744816  	-0.003425 
1932.673632  	-0.003438 
1934.602448  	-0.002639 
1936.531264  	-0.002876 
1938.460080  	-0.002774 
1940.388896  	-0.003073 
1942.317712  	-0.003245 
1944.246528  	-0.003542 
1946.175344  	-0.002770 
1948.104160  	-0.003249 
1950.032976  	-0.003154 
1951.961792  	-0.003511 
1953.890608  	-0.003278 
1955.819424  	-0.003807 
1957.748240  	-0.003159 
1959.677056  	-0.003500 
1961.605872  	-0.002982 
1963.534688  	-0.003911 
1965.463504  	-0.003160 
1967.392320  	-0.003586 
1969.321136  	-0.003484 
1971.249952  	-0.003054 
1973.178768  	-0.001465 
1975.107584  	-0.002709 
1977.036400  	-0.002448 
1978.965216  	-0.001410 
1980.894032  	-0.001742 
1982.822848  	-0.003186 
1984.751664  	-0.003067 
1986.680480  	-0.003894 
1988.609296  	-0.002923 
1990.538112  	-0.002875 
1992.466928  	-0.002621 
1994.395744  	-0.003264 
1996.324560  	-0.003232 
1998.253376  	-0.003754 
2000.182192  	-0.004377 
2002.111008  	-0.004874 
2004.039824  	-0.003511 
2005.968640  	-0.003600 
2007.897456  	-0.003173 
2009.826272  	-0.003558 
2011.755088  	-0.002887 
2013.683904  	-0.003306 
2015.612720  	-0.003303 
2017.541536  	-0.003704 
2019.470352  	-0.002832 
2021.399168  	-0.004039 
2023.327984  	-0.004345 
2025.256800  	-0.003878 
2027.185616  	-0.003244 
2029.114432  	-0.002870 
2031.043248  	-0.001804 
2032.972064  	-0.002574 
2034.900880  	-0.001962 
2036.829696  	-0.002289 
2038.758512  	-0.001171 
2040.687328  	-0.001608 
2042.616144  	-0.002061 
2044.544960  	-0.002841 
2046.473776  	-0.002497 
2048.402592  	-0.002527 
2050.331408  	-0.002194 
2052.260224  	-0.002677 
2054.189040  	-0.002549 
2056.117856  	-0.003134 
2058.046672  	-0.003364 
2059.975488  	-0.003482 
2061.904304  	-0.003151 
2063.833120  	-0.002950 
2065.761936  	-0.002444 
2067.690752  	-0.002744 
2069.619568  	-0.002584 
2071.548384  	-0.002618 
2073.477200  	-0.002766 
2075.406016  	-0.002749 
2077.334832  	-0.002200 
2079.263648  	-0.002210 
2081.192464  	-0.002130 
2083.121280  	-0.002355 
2085.050096  	-0.002503 
2086.978912  	-0.002682 
2088.907728  	-0.002219 
2090.836544  	-0.002472 
2092.765360  	-0.002567 
2094.694176  	-0.001991 
2096.622992  	-0.001611 
2098.551808  	-0.001862 
2100.480624  	-0.001809 
2102.409440  	-0.001997 
2104.338256  	-0.002026 
2106.267072  	-0.001719 
2108.195888  	-0.001403 
2110.124704  	-0.001793 
2112.053520  	-0.001877 
2113.982336  	-0.002000 
2115.911152  	-0.001931 
2117.839968  	-0.001844 
2119.768784  	-0.001844 
2121.697600  	-0.002479 
2123.626416  	-0.002449 
2125.555232  	-0.002603 
2127.484048  	-0.002416 
2129.412864  	-0.002575 
2131.341680  	-0.002886 
2133.270496  	-0.002914 
2135.199312  	-0.001987 
2137.128128  	-0.002016 
2139.056944  	-0.001781 
2140.985760  	-0.001677 
2142.914576  	-0.001593 
2144.843392  	-0.001188 
2146.772208  	-0.001162 
2148.701024  	-0.002728 
2150.629840  	-0.001821 
2152.558656  	-0.001309 
2154.487472  	-0.002158 
2156.416288  	-0.003415 
2158.345104  	-0.002275 
2160.273920  	0.000165 
2162.202736  	0.001711 
2164.131552  	0.000355 
2166.060368  	0.000684 
2167.989184  	0.000984 
2169.918000  	0.001610 
2171.846816  	0.000357 
2173.775632  	-0.000137 
2175.704448  	-0.000010 
2177.633264  	0.000505 
2179.562080  	-0.000053 
2181.490896  	-0.000839 
2183.419712  	-0.001762 
2185.348528  	-0.001520 
2187.277344  	-0.001494 
2189.206160  	-0.001095 
2191.134976  	-0.001226 
2193.063792  	-0.001142 
2194.992608  	-0.001250 
2196.921424  	-0.000983 
2198.850240  	-0.000741 
2200.779056  	-0.000961 
2202.707872  	-0.001778 
2204.636688  	-0.002012 
2206.565504  	-0.001646 
2208.494320  	-0.000992 
2210.423136  	-0.001957 
2212.351952  	-0.002531 
2214.280768  	-0.002531 
2216.209584  	-0.002057 
2218.138400  	-0.002274 
2220.067216  	-0.002285 
2221.996032  	-0.002802 
2223.924848  	-0.002485 
2225.853664  	-0.001808 
2227.782480  	-0.001488 
2229.711296  	-0.002206 
2231.640112  	-0.002415 
2233.568928  	-0.002382 
2235.497744  	-0.002206 
2237.426560  	-0.002510 
2239.355376  	-0.002642 
2241.284192  	-0.002812 
2243.213008  	-0.002662 
2245.141824  	-0.002821 
2247.070640  	-0.002662 
2248.999456  	-0.002524 
2250.928272  	-0.002606 
2252.857088  	-0.002928 
2254.785904  	-0.003104 
2256.714720  	-0.003603 
2258.643536  	-0.003881 
2260.572352  	-0.004163 
2262.501168  	-0.003924 
2264.429984  	-0.003747 
2266.358800  	-0.003437 
2268.287616  	-0.003492 
2270.216432  	-0.003439 
2272.145248  	-0.003405 
2274.074064  	-0.003379 
2276.002880  	-0.003403 
2277.931696  	-0.002991 
2279.860512  	-0.002831 
2281.789328  	-0.002731 
2283.718144  	-0.002570 
2285.646960  	-0.002514 
2287.575776  	-0.002467 
2289.504592  	-0.002511 
2291.433408  	-0.002971 
2293.362224  	-0.003011 
2295.291040  	-0.002632 
2297.219856  	-0.002240 
2299.148672  	-0.002281 
2301.077488  	-0.002171 
2303.006304  	-0.002266 
2304.935120  	-0.002258 
2306.863936  	-0.002417 
2308.792752  	-0.002512 
2310.721568  	-0.003092 
2312.650384  	-0.003990 
2314.579200  	-0.004975 
2316.508016  	-0.006004 
2318.436832  	-0.007172 
2320.365648  	-0.008832 
2322.294464  	-0.010667 
2324.223280  	-0.012510 
2326.152096  	-0.015041 
2328.080912  	-0.017329 
2330.009728  	-0.019619 
2331.938544  	-0.021586 
2333.867360  	-0.023276 
2335.796176  	-0.024848 
2337.724992  	-0.025919 
2339.653808  	-0.026019 
2341.582624  	-0.026290 
2343.511440  	-0.024942 
2345.440256  	-0.021877 
2347.369072  	-0.015812 
2349.297888  	-0.012298 
2351.226704  	-0.015572 
2353.155520  	-0.022367 
2355.084336  	-0.027801 
2357.013152  	-0.031908 
2358.941968  	-0.034495 
2360.870784  	-0.035881 
2362.799600  	-0.034623 
2364.728416  	-0.032545 
2366.657232  	-0.029274 
2368.586048  	-0.025233 
2370.514864  	-0.020958 
2372.443680  	-0.016612 
2374.372496  	-0.012322 
2376.301312  	-0.008604 
2378.230128  	-0.005662 
2380.158944  	-0.003953 
2382.087760  	-0.002976 
2384.016576  	-0.002771 
2385.945392  	-0.002919 
2387.874208  	-0.003097 
2389.803024  	-0.003257 
2391.731840  	-0.003485 
2393.660656  	-0.003503 
2395.589472  	-0.003586 
2397.518288  	-0.003562 
2399.447104  	-0.003546 
2401.375920  	-0.003517 
2403.304736  	-0.003845 
2405.233552  	-0.003825 
2407.162368  	-0.003791 
2409.091184  	-0.003570 
2411.020000  	-0.003502 
2412.948816  	-0.003707 
2414.877632  	-0.003677 
2416.806448  	-0.003425 
2418.735264  	-0.003480 
2420.664080  	-0.003522 
2422.592896  	-0.003481 
2424.521712  	-0.003375 
2426.450528  	-0.003599 
2428.379344  	-0.003455 
2430.308160  	-0.003203 
2432.236976  	-0.002990 
2434.165792  	-0.003004 
2436.094608  	-0.003032 
2438.023424  	-0.002828 
2439.952240  	-0.002685 
2441.881056  	-0.002781 
2443.809872  	-0.002881 
2445.738688  	-0.002867 
2447.667504  	-0.002659 
2449.596320  	-0.002646 
2451.525136  	-0.002650 
2453.453952  	-0.002728 
2455.382768  	-0.002771 
2457.311584  	-0.002789 
2459.240400  	-0.002884 
2461.169216  	-0.002971 
2463.098032  	-0.003013 
2465.026848  	-0.003043 
2466.955664  	-0.002898 
2468.884480  	-0.002952 
2470.813296  	-0.003004 
2472.742112  	-0.003076 
2474.670928  	-0.002980 
2476.599744  	-0.002989 
2478.528560  	-0.002967 
2480.457376  	-0.003058 
2482.386192  	-0.003033 
2484.315008  	-0.002732 
2486.243824  	-0.002701 
2488.172640  	-0.002811 
2490.101456  	-0.002683 
2492.030272  	-0.002468 
2493.959088  	-0.002181 
2495.887904  	-0.002099 
2497.816720  	-0.002115 
2499.745536  	-0.002163 
2501.674352  	-0.002094 
2503.603168  	-0.001780 
2505.531984  	-0.001749 
2507.460800  	-0.002094 
2509.389616  	-0.002025 
2511.318432  	-0.001974 
2513.247248  	-0.001910 
2515.176064  	-0.001794 
2517.104880  	-0.001700 
2519.033696  	-0.001887 
2520.962512  	-0.001968 
2522.891328  	-0.001854 
2524.820144  	-0.001820 
2526.748960  	-0.001772 
2528.677776  	-0.001610 
2530.606592  	-0.001576 
2532.535408  	-0.001663 
2534.464224  	-0.001788 
2536.393040  	-0.001651 
2538.321856  	-0.001567 
2540.250672  	-0.001416 
2542.179488  	-0.001288 
2544.108304  	-0.001179 
2546.037120  	-0.001095 
2547.965936  	-0.001170 
2549.894752  	-0.001241 
2551.823568  	-0.001115 
2553.752384  	-0.000848 
2555.681200  	-0.000555 
2557.610016  	-0.000598 
2559.538832  	-0.000639 
2561.467648  	-0.000519 
2563.396464  	-0.000474 
2565.325280  	-0.000449 
2567.254096  	-0.000447 
2569.182912  	-0.000319 
2571.111728  	-0.000168 
2573.040544  	-0.000196 
2574.969360  	-0.000143 
2576.898176  	0.000071 
2578.826992  	0.000096 
2580.755808  	0.000100 
2582.684624  	0.000294 
2584.613440  	0.000491 
2586.542256  	0.000456 
2588.471072  	0.000463 
2590.399888  	0.000551 
2592.328704  	0.000514 
2594.257520  	0.000515 
2596.186336  	0.000624 
2598.115152  	0.000701 
2600.043968  	0.000631 
2601.972784  	0.000769 
2603.901600  	0.000865 
2605.830416  	0.001002 
2607.759232  	0.001245 
2609.688048  	0.001424 
2611.616864  	0.001575 
2613.545680  	0.001639 
2615.474496  	0.001586 
2617.403312  	0.001739 
2619.332128  	0.001953 
2621.260944  	0.002041 
2623.189760  	0.002095 
2625.118576  	0.002267 
2627.047392  	0.002346 
2628.976208  	0.002356 
2630.905024  	0.002449 
2632.833840  	0.002531 
2634.762656  	0.002812 
2636.691472  	0.002927 
2638.620288  	0.002914 
2640.549104  	0.002952 
2642.477920  	0.002920 
2644.406736  	0.003185 
2646.335552  	0.003386 
2648.264368  	0.003503 
2650.193184  	0.003537 
2652.122000  	0.003660 
2654.050816  	0.003926 
2655.979632  	0.004131 
2657.908448  	0.004191 
2659.837264  	0.004185 
2661.766080  	0.004250 
2663.694896  	0.004407 
2665.623712  	0.004437 
2667.552528  	0.004634 
2669.481344  	0.004873 
2671.410160  	0.004990 
2673.338976  	0.005019 
2675.267792  	0.005094 
2677.196608  	0.005237 
2679.125424  	0.005436 
2681.054240  	0.005661 
2682.983056  	0.005846 
2684.911872  	0.005874 
2686.840688  	0.005953 
2688.769504  	0.006079 
2690.698320  	0.006147 
2692.627136  	0.006193 
2694.555952  	0.006320 
2696.484768  	0.006383 
2698.413584  	0.006409 
2700.342400  	0.006441 
2702.271216  	0.006588 
2704.200032  	0.006752 
2706.128848  	0.006810 
2708.057664  	0.006897 
2709.986480  	0.006948 
2711.915296  	0.007007 
2713.844112  	0.007182 
2715.772928  	0.007246 
2717.701744  	0.007451 
2719.630560  	0.007753 
2721.559376  	0.007902 
2723.488192  	0.008031 
2725.417008  	0.008180 
2727.345824  	0.008411 
2729.274640  	0.008504 
2731.203456  	0.008503 
2733.132272  	0.008658 
2735.061088  	0.008806 
2736.989904  	0.008962 
2738.918720  	0.009037 
2740.847536  	0.009146 
2742.776352  	0.009182 
2744.705168  	0.009206 
2746.633984  	0.009283 
2748.562800  	0.009380 
2750.491616  	0.009516 
2752.420432  	0.009672 
2754.349248  	0.009571 
2756.278064  	0.009423 
2758.206880  	0.009342 
2760.135696  	0.009373 
2762.064512  	0.009455 
2763.993328  	0.009499 
2765.922144  	0.009396 
2767.850960  	0.009432 
2769.779776  	0.009485 
2771.708592  	0.009452 
2773.637408  	0.009381 
2775.566224  	0.009432 
2777.495040  	0.009455 
2779.423856  	0.009487 
2781.352672  	0.009578 
2783.281488  	0.009534 
2785.210304  	0.009489 
2787.139120  	0.009570 
2789.067936  	0.009627 
2790.996752  	0.009680 
2792.925568  	0.009593 
2794.854384  	0.009500 
2796.783200  	0.009418 
2798.712016  	0.009364 
2800.640832  	0.009431 
2802.569648  	0.009597 
2804.498464  	0.009629 
2806.427280  	0.009622 
2808.356096  	0.009603 
2810.284912  	0.009586 
2812.213728  	0.009556 
2814.142544  	0.009516 
2816.071360  	0.009459 
2818.000176  	0.009263 
2819.928992  	0.009213 
2821.857808  	0.009198 
2823.786624  	0.009055 
2825.715440  	0.008940 
2827.644256  	0.008748 
2829.573072  	0.008589 
2831.501888  	0.008443 
2833.430704  	0.008124 
2835.359520  	0.007802 
2837.288336  	0.007567 
2839.217152  	0.007351 
2841.145968  	0.007012 
2843.074784  	0.006734 
2845.003600  	0.006562 
2846.932416  	0.006435 
2848.861232  	0.006334 
2850.790048  	0.006001 
2852.718864  	0.005428 
2854.647680  	0.004744 
2856.576496  	0.003921 
2858.505312  	0.003186 
2860.434128  	0.002556 
2862.362944  	0.001761 
2864.291760  	0.000910 
2866.220576  	0.000301 
2868.149392  	0.000036 
2870.078208  	-0.000210 
2872.007024  	-0.000321 
2873.935840  	-0.000204 
2875.864656  	-0.000192 
2877.793472  	-0.000425 
2879.722288  	-0.000638 
2881.651104  	-0.001007 
2883.579920  	-0.001235 
2885.508736  	-0.001038 
2887.437552  	-0.000741 
2889.366368  	-0.000704 
2891.295184  	-0.000918 
2893.224000  	-0.001051 
2895.152816  	-0.000999 
2897.081632  	-0.001311 
2899.010448  	-0.003055 
2900.939264  	-0.004479 
2902.868080  	-0.003153 
2904.796896  	-0.001772 
2906.725712  	-0.001162 
2908.654528  	-0.000443 
2910.583344  	0.000163 
2912.512160  	0.000965 
2914.440976  	0.002324 
2916.369792  	0.003367 
2918.298608  	0.003971 
2920.227424  	0.004449 
2922.156240  	0.004948 
2924.085056  	0.005602 
2926.013872  	0.006394 
2927.942688  	0.007143 
2929.871504  	0.007891 
2931.800320  	0.008615 
2933.729136  	0.009272 
2935.657952  	0.009792 
2937.586768  	0.010366 
2939.515584  	0.010951 
2941.444400  	0.011052 
2943.373216  	0.010981 
2945.302032  	0.011254 
2947.230848  	0.011493 
2949.159664  	0.011256 
2951.088480  	0.010801 
2953.017296  	0.010299 
2954.946112  	0.009591 
2956.874928  	0.008949 
2958.803744  	0.008212 
2960.732560  	0.007606 
2962.661376  	0.007043 
2964.590192  	0.006138 
2966.519008  	0.004963 
2968.447824  	0.003919 
2970.376640  	0.003002 
2972.305456  	0.002434 
2974.234272  	0.002679 
2976.163088  	0.002986 
2978.091904  	0.002911 
2980.020720  	0.002920 
2981.949536  	0.003259 
2983.878352  	0.003111 
2985.807168  	0.002250 
2987.735984  	0.001270 
2989.664800  	0.001537 
2991.593616  	0.004488 
2993.522432  	0.006479 
2995.451248  	0.007063 
2997.380064  	0.007950 
2999.308880  	0.009118 
3001.237696  	0.010437 
3003.166512  	0.012052 
3005.095328  	0.013532 
3007.024144  	0.014874 
3008.952960  	0.016409 
3010.881776  	0.017918 
3012.810592  	0.019269 
3014.739408  	0.020515 
3016.668224  	0.021669 
3018.597040  	0.022890 
3020.525856  	0.024082 
3022.454672  	0.025185 
3024.383488  	0.026328 
3026.312304  	0.027312 
3028.241120  	0.028354 
3030.169936  	0.029327 
3032.098752  	0.030150 
3034.027568  	0.031001 
3035.956384  	0.031932 
3037.885200  	0.032839 
3039.814016  	0.033465 
3041.742832  	0.034222 
3043.671648  	0.034879 
3045.600464  	0.035381 
3047.529280  	0.035849 
3049.458096  	0.036417 
3051.386912  	0.037135 
3053.315728  	0.037753 
3055.244544  	0.038336 
3057.173360  	0.038995 
3059.102176  	0.039607 
3061.030992  	0.040330 
3062.959808  	0.041032 
3064.888624  	0.041694 
3066.817440  	0.042350 
3068.746256  	0.043148 
3070.675072  	0.043935 
3072.603888  	0.044547 
3074.532704  	0.045334 
3076.461520  	0.046243 
3078.390336  	0.047022 
3080.319152  	0.047792 
3082.247968  	0.048617 
3084.176784  	0.049435 
3086.105600  	0.050127 
3088.034416  	0.050869 
3089.963232  	0.051734 
3091.892048  	0.052431 
3093.820864  	0.053184 
3095.749680  	0.053928 
3097.678496  	0.054704 
3099.607312  	0.055532 
3101.536128  	0.056371 
3103.464944  	0.057412 
3105.393760  	0.058231 
3107.322576  	0.058888 
3109.251392  	0.059646 
3111.180208  	0.060255 
3113.109024  	0.060980 
3115.037840  	0.061733 
3116.966656  	0.062404 
3118.895472  	0.063006 
3120.824288  	0.063667 
3122.753104  	0.064331 
3124.681920  	0.064883 
3126.610736  	0.065534 
3128.539552  	0.066233 
3130.468368  	0.066809 
3132.397184  	0.067308 
3134.326000  	0.068077 
3136.254816  	0.068707 
3138.183632  	0.069437 
3140.112448  	0.069997 
3142.041264  	0.070476 
3143.970080  	0.071052 
3145.898896  	0.071717 
3147.827712  	0.072403 
3149.756528  	0.072918 
3151.685344  	0.073434 
3153.614160  	0.074241 
3155.542976  	0.075031 
3157.471792  	0.075593 
3159.400608  	0.076206 
3161.329424  	0.076932 
3163.258240  	0.077379 
3165.187056  	0.077737 
3167.115872  	0.078312 
3169.044688  	0.078799 
3170.973504  	0.079143 
3172.902320  	0.079526 
3174.831136  	0.080031 
3176.759952  	0.080571 
3178.688768  	0.080945 
3180.617584  	0.081356 
3182.546400  	0.081681 
3184.475216  	0.081920 
3186.404032  	0.081970 
3188.332848  	0.082182 
3190.261664  	0.082354 
3192.190480  	0.082584 
3194.119296  	0.082819 
3196.048112  	0.082887 
3197.976928  	0.082864 
3199.905744  	0.082851 
3201.834560  	0.082807 
3203.763376  	0.082703 
3205.692192  	0.082697 
3207.621008  	0.082582 
3209.549824  	0.082369 
3211.478640  	0.082256 
3213.407456  	0.082239 
3215.336272  	0.082184 
3217.265088  	0.082093 
3219.193904  	0.081917 
3221.122720  	0.081820 
3223.051536  	0.081738 
3224.980352  	0.081526 
3226.909168  	0.081302 
3228.837984  	0.081158 
3230.766800  	0.081076 
3232.695616  	0.081051 
3234.624432  	0.080927 
3236.553248  	0.080727 
3238.482064  	0.080833 
3240.410880  	0.080950 
3242.339696  	0.080946 
3244.268512  	0.080724 
3246.197328  	0.080741 
3248.126144  	0.081114 
3250.054960  	0.081296 
3251.983776  	0.081488 
3253.912592  	0.081696 
3255.841408  	0.081919 
3257.770224  	0.082158 
3259.699040  	0.082372 
3261.627856  	0.082637 
3263.556672  	0.082966 
3265.485488  	0.083122 
3267.414304  	0.083168 
3269.343120  	0.083449 
3271.271936  	0.083845 
3273.200752  	0.084003 
3275.129568  	0.084219 
3277.058384  	0.084428 
3278.987200  	0.084521 
3280.916016  	0.084860 
3282.844832  	0.085202 
3284.773648  	0.085288 
3286.702464  	0.085358 
3288.631280  	0.085533 
3290.560096  	0.085861 
3292.488912  	0.086194 
3294.417728  	0.086487 
3296.346544  	0.086820 
3298.275360  	0.086968 
3300.204176  	0.087370 
3302.132992  	0.087835 
3304.061808  	0.088044 
3305.990624  	0.088301 
3307.919440  	0.088688 
3309.848256  	0.089004 
3311.777072  	0.089372 
3313.705888  	0.089672 
3315.634704  	0.090222 
3317.563520  	0.090693 
3319.492336  	0.090782 
3321.421152  	0.090823 
3323.349968  	0.091111 
3325.278784  	0.091402 
3327.207600  	0.091565 
3329.136416  	0.091416 
3331.065232  	0.091489 
3332.994048  	0.091725 
3334.922864  	0.091895 
3336.851680  	0.091900 
3338.780496  	0.091866 
3340.709312  	0.091634 
3342.638128  	0.091257 
3344.566944  	0.090843 
3346.495760  	0.090781 
3348.424576  	0.090572 
3350.353392  	0.090115 
3352.282208  	0.089813 
3354.211024  	0.089661 
3356.139840  	0.089507 
3358.068656  	0.089279 
3359.997472  	0.088858 
3361.926288  	0.088329 
3363.855104  	0.087884 
3365.783920  	0.087559 
3367.712736  	0.087235 
3369.641552  	0.086879 
3371.570368  	0.086357 
3373.499184  	0.086002 
3375.428000  	0.085735 
3377.356816  	0.085247 
3379.285632  	0.085116 
3381.214448  	0.084958 
3383.143264  	0.084515 
3385.072080  	0.083984 
3387.000896  	0.083554 
3388.929712  	0.083091 
3390.858528  	0.082742 
3392.787344  	0.082427 
3394.716160  	0.082133 
3396.644976  	0.081825 
3398.573792  	0.081389 
3400.502608  	0.080913 
3402.431424  	0.080287 
3404.360240  	0.079802 
3406.289056  	0.079334 
3408.217872  	0.078833 
3410.146688  	0.078226 
3412.075504  	0.077712 
3414.004320  	0.077251 
3415.933136  	0.076852 
3417.861952  	0.076410 
3419.790768  	0.076152 
3421.719584  	0.075574 
3423.648400  	0.074888 
3425.577216  	0.074259 
3427.506032  	0.073693 
3429.434848  	0.073181 
3431.363664  	0.072610 
3433.292480  	0.071900 
3435.221296  	0.071315 
3437.150112  	0.070967 
3439.078928  	0.070511 
3441.007744  	0.069794 
3442.936560  	0.069298 
3444.865376  	0.068986 
3446.794192  	0.068311 
3448.723008  	0.067523 
3450.651824  	0.066845 
3452.580640  	0.066068 
3454.509456  	0.065617 
3456.438272  	0.065149 
3458.367088  	0.064576 
3460.295904  	0.063975 
3462.224720  	0.063079 
3464.153536  	0.062136 
3466.082352  	0.061245 
3468.011168  	0.060391 
3469.939984  	0.059674 
3471.868800  	0.058990 
3473.797616  	0.058268 
3475.726432  	0.057466 
3477.655248  	0.056749 
3479.584064  	0.056495 
3481.512880  	0.055989 
3483.441696  	0.054741 
3485.370512  	0.053917 
3487.299328  	0.052937 
3489.228144  	0.052005 
3491.156960  	0.051169 
3493.085776  	0.050503 
3495.014592  	0.049859 
3496.943408  	0.049311 
3498.872224  	0.048861 
3500.801040  	0.048668 
3502.729856  	0.047818 
3504.658672  	0.046496 
3506.587488  	0.046050 
3508.516304  	0.045792 
3510.445120  	0.044817 
3512.373936  	0.043904 
3514.302752  	0.043466 
3516.231568  	0.043086 
3518.160384  	0.042461 
3520.089200  	0.041868 
3522.018016  	0.041712 
3523.946832  	0.041605 
3525.875648  	0.040550 
3527.804464  	0.039115 
3529.733280  	0.038424 
3531.662096  	0.037947 
3533.590912  	0.037201 
3535.519728  	0.036916 
3537.448544  	0.036465 
3539.377360  	0.035507 
3541.306176  	0.034878 
3543.234992  	0.034805 
3545.163808  	0.035052 
3547.092624  	0.034171 
3549.021440  	0.032734 
3550.950256  	0.032031 
3552.879072  	0.031131 
3554.807888  	0.030376 
3556.736704  	0.029871 
3558.665520  	0.029754 
3560.594336  	0.029369 
3562.523152  	0.028352 
3564.451968  	0.028198 
3566.380784  	0.028585 
3568.309600  	0.027028 
3570.238416  	0.025795 
3572.167232  	0.025066 
3574.096048  	0.024020 
3576.024864  	0.023077 
3577.953680  	0.022802 
3579.882496  	0.022283 
3581.811312  	0.021504 
3583.740128  	0.020921 
3585.668944  	0.021038 
3587.597760  	0.019867 
3589.526576  	0.018243 
3591.455392  	0.017619 
3593.384208  	0.017206 
3595.313024  	0.016281 
3597.241840  	0.015081 
3599.170656  	0.013705 
3601.099472  	0.012754 
3603.028288  	0.012668 
3604.957104  	0.012538 
3606.885920  	0.011906 
3608.814736  	0.010704 
3610.743552  	0.010351 
3612.672368  	0.009414 
3614.601184  	0.008229 
3616.530000  	0.007796 
3618.458816  	0.005667 
3620.387632  	0.003930 
3622.316448  	0.004148 
3624.245264  	0.004064 
3626.174080  	0.003456 
3628.102896  	0.000365 
3630.031712  	-0.002293 
3631.960528  	-0.000377 
3633.889344  	-0.000529 
3635.818160  	-0.001343 
3637.746976  	-0.002213 
3639.675792  	-0.002689 
3641.604608  	-0.002912 
3643.533424  	-0.003151 
3645.462240  	-0.003897 
3647.391056  	-0.007304 
3649.319872  	-0.011931 
3651.248688  	-0.012674 
3653.177504  	-0.009661 
3655.106320  	-0.010109 
3657.035136  	-0.012637 
3658.963952  	-0.012356 
3660.892768  	-0.012224 
3662.821584  	-0.012455 
3664.750400  	-0.012431 
3666.679216  	-0.012710 
3668.608032  	-0.015202 
3670.536848  	-0.018477 
3672.465664  	-0.016328 
3674.394480  	-0.017599 
3676.323296  	-0.021572 
3678.252112  	-0.017591 
3680.180928  	-0.015863 
3682.109744  	-0.015178 
3684.038560  	-0.015319 
3685.967376  	-0.015508 
3687.896192  	-0.018157 
3689.825008  	-0.020867 
3691.753824  	-0.019283 
3693.682640  	-0.016801 
3695.611456  	-0.015814 
3697.540272  	-0.014970 
3699.469088  	-0.014304 
3701.397904  	-0.015368 
3703.326720  	-0.015040 
3705.255536  	-0.013608 
3707.184352  	-0.013395 
3709.113168  	-0.015093 
3711.041984  	-0.017432 
3712.970800  	-0.015972 
3714.899616  	-0.012619 
3716.828432  	-0.011949 
3718.757248  	-0.012610 
3720.686064  	-0.013240 
3722.614880  	-0.013718 
3724.543696  	-0.013019 
3726.472512  	-0.013239 
3728.401328  	-0.013329 
3730.330144  	-0.014241 
3732.258960  	-0.016326 
3734.187776  	-0.015569 
3736.116592  	-0.015972 
3738.045408  	-0.015240 
3739.974224  	-0.013212 
3741.903040  	-0.012025 
3743.831856  	-0.014464 
3745.760672  	-0.015827 
3747.689488  	-0.014294 
3749.618304  	-0.017574 
3751.547120  	-0.018974 
3753.475936  	-0.015741 
3755.404752  	-0.012974 
3757.333568  	-0.012688 
3759.262384  	-0.013646 
3761.191200  	-0.013289 
3763.120016  	-0.011402 
3765.048832  	-0.012216 
3766.977648  	-0.012363 
3768.906464  	-0.013251 
3770.835280  	-0.013791 
3772.764096  	-0.012085 
3774.692912  	-0.011249 
3776.621728  	-0.011149 
3778.550544  	-0.012696 
3780.479360  	-0.013645 
3782.408176  	-0.012150 
3784.336992  	-0.012357 
3786.265808  	-0.012120 
3788.194624  	-0.011706 
3790.123440  	-0.011815 
3792.052256  	-0.011869 
3793.981072  	-0.011792 
3795.909888  	-0.013115 
3797.838704  	-0.012963 
3799.767520  	-0.013563 
3801.696336  	-0.017840 
3803.625152  	-0.015375 
3805.553968  	-0.014073 
3807.482784  	-0.015368 
3809.411600  	-0.012774 
3811.340416  	-0.011454 
3813.269232  	-0.011380 
3815.198048  	-0.014134 
3817.126864  	-0.015571 
3819.055680  	-0.014252 
3820.984496  	-0.017504 
3822.913312  	-0.015666 
3824.842128  	-0.012928 
3826.770944  	-0.013305 
3828.699760  	-0.012529 
3830.628576  	-0.012886 
3832.557392  	-0.013871 
3834.486208  	-0.013888 
3836.415024  	-0.015161 
3838.343840  	-0.016463 
3840.272656  	-0.015254 
3842.201472  	-0.013753 
3844.130288  	-0.013317 
3846.059104  	-0.012081 
3847.987920  	-0.011338 
3849.916736  	-0.011669 
3851.845552  	-0.014608 
3853.774368  	-0.019780 
3855.703184  	-0.015871 
3857.632000  	-0.012653 
3859.560816  	-0.011538 
3861.489632  	-0.011737 
3863.418448  	-0.012856 
3865.347264  	-0.013333 
3867.276080  	-0.011802 
3869.204896  	-0.013135 
3871.133712  	-0.013441 
3873.062528  	-0.012400 
3874.991344  	-0.012864 
3876.920160  	-0.011245 
3878.848976  	-0.010999 
3880.777792  	-0.011769 
3882.706608  	-0.010775 
3884.635424  	-0.011280 
3886.564240  	-0.012562 
3888.493056  	-0.011511 
3890.421872  	-0.012083 
3892.350688  	-0.012657 
3894.279504  	-0.011343 
3896.208320  	-0.010668 
3898.137136  	-0.010905 
3900.065952  	-0.011315 
3901.994768  	-0.011122 
3903.923584  	-0.011909 
3905.852400  	-0.011957 
3907.781216  	-0.011352 
3909.710032  	-0.011305 
3911.638848  	-0.011329 
3913.567664  	-0.010845 
3915.496480  	-0.010327 
3917.425296  	-0.010605 
3919.354112  	-0.010919 
3921.282928  	-0.010790 
3923.211744  	-0.010342 
3925.140560  	-0.010428 
3927.069376  	-0.010519 
3928.998192  	-0.010347 
3930.927008  	-0.009927 
3932.855824  	-0.010067 
3934.784640  	-0.010671 
3936.713456  	-0.010899 
3938.642272  	-0.010666 
3940.571088  	-0.010138 
3942.499904  	-0.010034 
3944.428720  	-0.010309 
3946.357536  	-0.010011 
3948.286352  	-0.009810 
3950.215168  	-0.010403 
3952.143984  	-0.011063 
3954.072800  	-0.011168 
3956.001616  	-0.010843 
3957.930432  	-0.010703 
3959.859248  	-0.010731 
3961.788064  	-0.010724 
3963.716880  	-0.011045 
3965.645696  	-0.011285 
3967.574512  	-0.010958 
3969.503328  	-0.010754 
3971.432144  	-0.010869 
3973.360960  	-0.010841 
3975.289776  	-0.010686 
3977.218592  	-0.010701 
3979.147408  	-0.010957 
3981.076224  	-0.011043 
3983.005040  	-0.011013 
3984.933856  	-0.010999 
3986.862672  	-0.010914 
3988.791488  	-0.010614 
3990.720304  	-0.010533 
3992.649120  	-0.010899 
3994.577936  	-0.011018 
3996.506752  	-0.010841 
3998.435568  	-0.011004 
4000.364384  	-0.011068 