##TITLE=No Description
##DATA TYPE=INFRARED SPECTRUM
##XUNITS=1/CM
##YUNITS=Abs
399.264912  	0.666133 
401.193728  	0.639563 
403.122544  	0.641978 
405.051360  	0.634448 
406.980176  	0.631256 
408.908992  	0.614365 
410.837808  	0.615520 
412.766624  	0.614815 
414.695440  	0.610832 
416.624256  	0.607076 
418.553072  	0.609257 
420.481888  	0.590690 
422.410704  	0.598996 
424.339520  	0.593003 
426.268336  	0.584332 
428.197152  	0.582157 
430.125968  	0.586955 
432.054784  	0.577317 
433.983600  	0.575819 
435.912416  	0.572357 
437.841232  	0.568360 
439.770048  	0.566188 
441.698864  	0.565332 
443.627680  	0.556017 
445.556496  	0.553252 
447.485312  	0.552961 
449.414128  	0.560926 
451.342944  	0.558573 
453.271760  	0.550402 
455.200576  	0.542901 
457.129392  	0.551349 
459.058208  	0.552873 
460.987024  	0.552898 
462.915840  	0.547061 
464.844656  	0.549500 
466.773472  	0.549906 
468.702288  	0.556033 
470.631104  	0.557513 
472.559920  	0.555055 
474.488736  	0.545260 
476.417552  	0.546062 
478.346368  	0.544385 
480.275184  	0.545586 
482.204000  	0.540443 
484.132816  	0.539296 
486.061632  	0.536336 
487.990448  	0.536455 
489.919264  	0.534759 
491.848080  	0.534772 
493.776896  	0.530483 
495.705712  	0.527762 
497.634528  	0.524817 
499.563344  	0.529214 
501.492160  	0.527741 
503.420976  	0.526606 
505.349792  	0.525473 
507.278608  	0.526540 
509.207424  	0.524988 
511.136240  	0.527049 
513.065056  	0.526517 
514.993872  	0.527789 
516.922688  	0.527558 
518.851504  	0.528585 
520.780320  	0.526946 
522.709136  	0.528551 
524.637952  	0.528888 
526.566768  	0.527668 
528.495584  	0.521990 
530.424400  	0.519943 
532.353216  	0.516835 
534.282032  	0.515096 
536.210848  	0.509772 
538.139664  	0.505225 
540.068480  	0.500074 
541.997296  	0.495824 
543.926112  	0.490959 
545.854928  	0.489032 
547.783744  	0.485253 
549.712560  	0.482394 
551.641376  	0.478288 
553.570192  	0.474515 
555.499008  	0.470926 
557.427824  	0.469591 
559.356640  	0.465130 
561.285456  	0.462532 
563.214272  	0.458626 
565.143088  	0.455210 
567.071904  	0.451567 
569.000720  	0.449472 
570.929536  	0.446322 
572.858352  	0.443813 
574.787168  	0.440942 
576.715984  	0.439453 
578.644800  	0.436063 
580.573616  	0.433142 
582.502432  	0.428778 
584.431248  	0.425761 
586.360064  	0.422385 
588.288880  	0.419735 
590.217696  	0.416928 
592.146512  	0.415702 
594.075328  	0.412877 
596.004144  	0.409985 
597.932960  	0.407574 
599.861776  	0.405592 
601.790592  	0.403170 
603.719408  	0.402428 
605.648224  	0.401241 
607.577040  	0.399157 
609.505856  	0.396457 
611.434672  	0.395139 
613.363488  	0.393360 
615.292304  	0.391892 
617.221120  	0.389959 
619.149936  	0.388465 
621.078752  	0.386332 
623.007568  	0.384876 
624.936384  	0.383475 
626.865200  	0.381873 
628.794016  	0.379573 
630.722832  	0.379082 
632.651648  	0.378391 
634.580464  	0.377318 
636.509280  	0.376341 
638.438096  	0.376431 
640.366912  	0.375209 
642.295728  	0.372675 
644.224544  	0.369348 
646.153360  	0.366910 
648.082176  	0.362706 
650.010992  	0.358792 
651.939808  	0.355167 
653.868624  	0.351632 
655.797440  	0.348032 
657.726256  	0.344591 
659.655072  	0.340718 
661.583888  	0.337155 
663.512704  	0.333955 
665.441520  	0.331353 
667.370336  	0.323235 
669.299152  	0.316150 
671.227968  	0.316956 
673.156784  	0.314573 
675.085600  	0.311678 
677.014416  	0.309347 
678.943232  	0.306941 
680.872048  	0.304791 
682.800864  	0.302654 
684.729680  	0.301217 
686.658496  	0.299796 
688.587312  	0.298414 
690.516128  	0.296611 
692.444944  	0.295330 
694.373760  	0.294038 
696.302576  	0.291709 
698.231392  	0.289331 
700.160208  	0.287235 
702.089024  	0.285169 
704.017840  	0.282931 
705.946656  	0.279885 
707.875472  	0.277270 
709.804288  	0.275428 
711.733104  	0.273391 
713.661920  	0.271079 
715.590736  	0.269307 
717.519552  	0.267965 
719.448368  	0.267547 
721.377184  	0.267242 
723.306000  	0.267371 
725.234816  	0.266854 
727.163632  	0.265861 
729.092448  	0.263644 
731.021264  	0.260717 
732.950080  	0.257397 
734.878896  	0.254516 
736.807712  	0.252216 
738.736528  	0.250001 
740.665344  	0.247629 
742.594160  	0.245438 
744.522976  	0.243244 
746.451792  	0.241722 
748.380608  	0.240124 
750.309424  	0.238637 
752.238240  	0.237417 
754.167056  	0.236025 
756.095872  	0.234046 
758.024688  	0.232650 
759.953504  	0.231602 
761.882320  	0.231458 
763.811136  	0.231317 
765.739952  	0.229975 
767.668768  	0.227609 
769.597584  	0.225324 
771.526400  	0.223762 
773.455216  	0.223773 
775.384032  	0.225577 
777.312848  	0.228793 
779.241664  	0.231415 
781.170480  	0.231296 
783.099296  	0.227836 
785.028112  	0.223016 
786.956928  	0.217665 
788.885744  	0.212750 
790.814560  	0.209188 
792.743376  	0.206640 
794.672192  	0.205147 
796.601008  	0.203928 
798.529824  	0.201166 
800.458640  	0.197121 
802.387456  	0.193670 
804.316272  	0.191374 
806.245088  	0.189351 
808.173904  	0.187919 
810.102720  	0.187046 
812.031536  	0.186362 
813.960352  	0.185942 
815.889168  	0.185402 
817.817984  	0.184589 
819.746800  	0.184042 
821.675616  	0.183389 
823.604432  	0.182447 
825.533248  	0.181451 
827.462064  	0.180532 
829.390880  	0.179276 
831.319696  	0.177737 
833.248512  	0.175755 
835.177328  	0.173673 
837.106144  	0.171263 
839.034960  	0.168256 
840.963776  	0.165119 
842.892592  	0.162004 
844.821408  	0.158730 
846.750224  	0.155635 
848.679040  	0.153159 
850.607856  	0.151035 
852.536672  	0.148794 
854.465488  	0.146644 
856.394304  	0.145095 
858.323120  	0.143837 
860.251936  	0.141956 
862.180752  	0.139597 
864.109568  	0.136540 
866.038384  	0.133885 
867.967200  	0.131709 
869.896016  	0.129902 
871.824832  	0.128748 
873.753648  	0.128011 
875.682464  	0.127987 
877.611280  	0.127707 
879.540096  	0.127705 
881.468912  	0.128899 
883.397728  	0.129642 
885.326544  	0.130329 
887.255360  	0.130386 
889.184176  	0.129282 
891.112992  	0.127316 
893.041808  	0.125796 
894.970624  	0.123717 
896.899440  	0.120786 
898.828256  	0.117472 
900.757072  	0.114450 
902.685888  	0.111891 
904.614704  	0.110072 
906.543520  	0.109693 
908.472336  	0.110463 
910.401152  	0.112130 
912.329968  	0.114109 
914.258784  	0.116392 
916.187600  	0.118385 
918.116416  	0.119903 
920.045232  	0.121022 
921.974048  	0.121752 
923.902864  	0.121814 
925.831680  	0.121389 
927.760496  	0.121199 
929.689312  	0.121312 
931.618128  	0.121655 
933.546944  	0.121738 
935.475760  	0.121755 
937.404576  	0.121597 
939.333392  	0.121035 
941.262208  	0.120702 
943.191024  	0.121418 
945.119840  	0.123802 
947.048656  	0.127639 
948.977472  	0.132769 
950.906288  	0.139045 
952.835104  	0.146092 
954.763920  	0.153830 
956.692736  	0.161423 
958.621552  	0.168048 
960.550368  	0.172714 
962.479184  	0.175113 
964.408000  	0.174860 
966.336816  	0.171603 
968.265632  	0.165456 
970.194448  	0.156925 
972.123264  	0.146937 
974.052080  	0.136322 
975.980896  	0.125817 
977.909712  	0.115946 
979.838528  	0.107051 
981.767344  	0.099424 
983.696160  	0.093352 
985.624976  	0.089242 
987.553792  	0.087062 
989.482608  	0.086986 
991.411424  	0.088735 
993.340240  	0.091710 
995.269056  	0.095770 
997.197872  	0.100264 
999.126688  	0.104928 
1001.055504  	0.109386 
1002.984320  	0.113960 
1004.913136  	0.118565 
1006.841952  	0.123052 
1008.770768  	0.126722 
1010.699584  	0.129347 
1012.628400  	0.130889 
1014.557216  	0.131487 
1016.486032  	0.131502 
1018.414848  	0.131298 
1020.343664  	0.130967 
1022.272480  	0.130256 
1024.201296  	0.128892 
1026.130112  	0.125594 
1028.058928  	0.124320 
1029.987744  	0.126984 
1031.916560  	0.128295 
1033.845376  	0.128603 
1035.774192  	0.128261 
1037.703008  	0.129133 
1039.631824  	0.133328 
1041.560640  	0.139210 
1043.489456  	0.147097 
1045.418272  	0.157304 
1047.347088  	0.169145 
1049.275904  	0.180883 
1051.204720  	0.191270 
1053.133536  	0.198804 
1055.062352  	0.202947 
1056.991168  	0.204379 
1058.919984  	0.207171 
1060.848800  	0.209652 
1062.777616  	0.208403 
1064.706432  	0.203311 
1066.635248  	0.199255 
1068.564064  	0.199139 
1070.492880  	0.196445 
1072.421696  	0.190700 
1074.350512  	0.186199 
1076.279328  	0.184534 
1078.208144  	0.186236 
1080.136960  	0.190458 
1082.065776  	0.195746 
1083.994592  	0.200090 
1085.923408  	0.202397 
1087.852224  	0.202272 
1089.781040  	0.200470 
1091.709856  	0.197521 
1093.638672  	0.192169 
1095.567488  	0.184032 
1097.496304  	0.174602 
1099.425120  	0.164661 
1101.353936  	0.154349 
1103.282752  	0.144205 
1105.211568  	0.134521 
1107.140384  	0.125058 
1109.069200  	0.115955 
1110.998016  	0.107589 
1112.926832  	0.099976 
1114.855648  	0.093013 
1116.784464  	0.086627 
1118.713280  	0.080637 
1120.642096  	0.074859 
1122.570912  	0.069545 
1124.499728  	0.064357 
1126.428544  	0.059712 
1128.357360  	0.055507 
1130.286176  	0.051987 
1132.214992  	0.048848 
1134.143808  	0.046618 
1136.072624  	0.044671 
1138.001440  	0.042855 
1139.930256  	0.040821 
1141.859072  	0.038845 
1143.787888  	0.037085 
1145.716704  	0.035326 
1147.645520  	0.033399 
1149.574336  	0.031930 
1151.503152  	0.030582 
1153.431968  	0.029869 
1155.360784  	0.029832 
1157.289600  	0.030410 
1159.218416  	0.031420 
1161.147232  	0.032870 
1163.076048  	0.034238 
1165.004864  	0.035866 
1166.933680  	0.037365 
1168.862496  	0.039175 
1170.791312  	0.040927 
1172.720128  	0.043015 
1174.648944  	0.044997 
1176.577760  	0.047076 
1178.506576  	0.049058 
1180.435392  	0.051183 
1182.364208  	0.053091 
1184.293024  	0.055412 
1186.221840  	0.057814 
1188.150656  	0.060607 
1190.079472  	0.063881 
1192.008288  	0.067786 
1193.937104  	0.072583 
1195.865920  	0.078326 
1197.794736  	0.084265 
1199.723552  	0.090924 
1201.652368  	0.097816 
1203.581184  	0.104864 
1205.510000  	0.111799 
1207.438816  	0.118562 
1209.367632  	0.124909 
1211.296448  	0.130561 
1213.225264  	0.135257 
1215.154080  	0.139090 
1217.082896  	0.142026 
1219.011712  	0.144069 
1220.940528  	0.145594 
1222.869344  	0.146771 
1224.798160  	0.147229 
1226.726976  	0.147012 
1228.655792  	0.146507 
1230.584608  	0.145616 
1232.513424  	0.144302 
1234.442240  	0.142651 
1236.371056  	0.140440 
1238.299872  	0.137124 
1240.228688  	0.131388 
1242.157504  	0.125732 
1244.086320  	0.121254 
1246.015136  	0.115236 
1247.943952  	0.108414 
1249.872768  	0.101707 
1251.801584  	0.095998 
1253.730400  	0.090105 
1255.659216  	0.084331 
1257.588032  	0.079001 
1259.516848  	0.073782 
1261.445664  	0.069065 
1263.374480  	0.064817 
1265.303296  	0.061262 
1267.232112  	0.058304 
1269.160928  	0.056089 
1271.089744  	0.054324 
1273.018560  	0.053316 
1274.947376  	0.053011 
1276.876192  	0.053190 
1278.805008  	0.053078 
1280.733824  	0.052181 
1282.662640  	0.050464 
1284.591456  	0.048395 
1286.520272  	0.046648 
1288.449088  	0.045414 
1290.377904  	0.044481 
1292.306720  	0.044401 
1294.235536  	0.044400 
1296.164352  	0.043716 
1298.093168  	0.041776 
1300.021984  	0.039407 
1301.950800  	0.036905 
1303.879616  	0.034565 
1305.808432  	0.032042 
1307.737248  	0.029713 
1309.666064  	0.027344 
1311.594880  	0.025855 
1313.523696  	0.024758 
1315.452512  	0.023965 
1317.381328  	0.023453 
1319.310144  	0.023203 
1321.238960  	0.023060 
1323.167776  	0.023434 
1325.096592  	0.023931 
1327.025408  	0.024335 
1328.954224  	0.024327 
1330.883040  	0.024001 
1332.811856  	0.023237 
1334.740672  	0.022966 
1336.669488  	0.023359 
1338.598304  	0.024006 
1340.527120  	0.022462 
1342.455936  	0.020343 
1344.384752  	0.019766 
1346.313568  	0.019977 
1348.242384  	0.020400 
1350.171200  	0.021299 
1352.100016  	0.022554 
1354.028832  	0.024257 
1355.957648  	0.025726 
1357.886464  	0.027393 
1359.815280  	0.029513 
1361.744096  	0.031726 
1363.672912  	0.032178 
1365.601728  	0.032492 
1367.530544  	0.033550 
1369.459360  	0.033644 
1371.388176  	0.033409 
1373.316992  	0.032615 
1375.245808  	0.029461 
1377.174624  	0.027233 
1379.103440  	0.024865 
1381.032256  	0.022193 
1382.961072  	0.020271 
1384.889888  	0.020050 
1386.818704  	0.019951 
1388.747520  	0.018218 
1390.676336  	0.016124 
1392.605152  	0.013359 
1394.533968  	0.011704 
1396.462784  	0.014591 
1398.391600  	0.015729 
1400.320416  	0.014338 
1402.249232  	0.014472 
1404.178048  	0.015048 
1406.106864  	0.015280 
1408.035680  	0.016824 
1409.964496  	0.019163 
1411.893312  	0.021642 
1413.822128  	0.024267 
1415.750944  	0.028165 
1417.679760  	0.030844 
1419.608576  	0.029520 
1421.537392  	0.029782 
1423.466208  	0.030494 
1425.395024  	0.029050 
1427.323840  	0.028246 
1429.252656  	0.026191 
1431.181472  	0.024738 
1433.110288  	0.024985 
1435.039104  	0.025866 
1436.967920  	0.024423 
1438.896736  	0.024573 
1440.825552  	0.025710 
1442.754368  	0.026205 
1444.683184  	0.026489 
1446.612000  	0.026483 
1448.540816  	0.025110 
1450.469632  	0.025562 
1452.398448  	0.026565 
1454.327264  	0.027865 
1456.256080  	0.027180 
1458.184896  	0.023595 
1460.113712  	0.025277 
1462.042528  	0.027174 
1463.971344  	0.026669 
1465.900160  	0.026538 
1467.828976  	0.029376 
1469.757792  	0.032553 
1471.686608  	0.034663 
1473.615424  	0.038258 
1475.544240  	0.043936 
1477.473056  	0.048290 
1479.401872  	0.051574 
1481.330688  	0.054201 
1483.259504  	0.055833 
1485.188320  	0.057376 
1487.117136  	0.057253 
1489.045952  	0.056559 
1490.974768  	0.053163 
1492.903584  	0.051698 
1494.832400  	0.049755 
1496.761216  	0.043748 
1498.690032  	0.038767 
1500.618848  	0.036606 
1502.547664  	0.034460 
1504.476480  	0.031175 
1506.405296  	0.025155 
1508.334112  	0.024306 
1510.262928  	0.025366 
1512.191744  	0.023639 
1514.120560  	0.023053 
1516.049376  	0.022388 
1517.978192  	0.020636 
1519.907008  	0.021855 
1521.835824  	0.020353 
1523.764640  	0.024246 
1525.693456  	0.028518 
1527.622272  	0.030237 
1529.551088  	0.031232 
1531.479904  	0.031783 
1533.408720  	0.027797 
1535.337536  	0.025750 
1537.266352  	0.025123 
1539.195168  	0.017003 
1541.123984  	0.009906 
1543.052800  	0.014334 
1544.981616  	0.015826 
1546.910432  	0.015592 
1548.839248  	0.016423 
1550.768064  	0.016289 
1552.696880  	0.015863 
1554.625696  	0.015525 
1556.554512  	0.015258 
1558.483328  	0.010599 
1560.412144  	0.013067 
1562.340960  	0.021238 
1564.269776  	0.024689 
1566.198592  	0.028817 
1568.127408  	0.032026 
1570.056224  	0.034686 
1571.985040  	0.041060 
1573.913856  	0.045263 
1575.842672  	0.044355 
1577.771488  	0.046617 
1579.700304  	0.049771 
1581.629120  	0.049973 
1583.557936  	0.049521 
1585.486752  	0.050040 
1587.415568  	0.051792 
1589.344384  	0.055036 
1591.273200  	0.059463 
1593.202016  	0.064924 
1595.130832  	0.070559 
1597.059648  	0.076627 
1598.988464  	0.082108 
1600.917280  	0.086898 
1602.846096  	0.089948 
1604.774912  	0.091926 
1606.703728  	0.092284 
1608.632544  	0.091577 
1610.561360  	0.090213 
1612.490176  	0.089408 
1614.418992  	0.087785 
1616.347808  	0.083624 
1618.276624  	0.084188 
1620.205440  	0.089617 
1622.134256  	0.091810 
1624.063072  	0.094928 
1625.991888  	0.101033 
1627.920704  	0.107224 
1629.849520  	0.115251 
1631.778336  	0.123739 
1633.707152  	0.129013 
1635.635968  	0.132533 
1637.564784  	0.141453 
1639.493600  	0.150746 
1641.422416  	0.156606 
1643.351232  	0.161085 
1645.280048  	0.161674 
1647.208864  	0.159765 
1649.137680  	0.162974 
1651.066496  	0.165832 
1652.995312  	0.157286 
1654.924128  	0.157168 
1656.852944  	0.161248 
1658.781760  	0.161186 
1660.710576  	0.158692 
1662.639392  	0.153667 
1664.568208  	0.150891 
1666.497024  	0.150555 
1668.425840  	0.145621 
1670.354656  	0.138363 
1672.283472  	0.136998 
1674.212288  	0.135416 
1676.141104  	0.130884 
1678.069920  	0.131804 
1679.998736  	0.132274 
1681.927552  	0.131304 
1683.856368  	0.124572 
1685.785184  	0.123039 
1687.714000  	0.127455 
1689.642816  	0.127401 
1691.571632  	0.126126 
1693.500448  	0.126078 
1695.429264  	0.121478 
1697.358080  	0.118125 
1699.286896  	0.116579 
1701.215712  	0.110744 
1703.144528  	0.112297 
1705.073344  	0.108838 
1707.002160  	0.103540 
1708.930976  	0.101099 
1710.859792  	0.096744 
1712.788608  	0.091697 
1714.717424  	0.084620 
1716.646240  	0.074309 
1718.575056  	0.061806 
1720.503872  	0.056769 
1722.432688  	0.052068 
1724.361504  	0.044102 
1726.290320  	0.037558 
1728.219136  	0.032347 
1730.147952  	0.027520 
1732.076768  	0.023314 
1734.005584  	0.015629 
1735.934400  	0.010983 
1737.863216  	0.011702 
1739.792032  	0.007660 
1741.720848  	0.006954 
1743.649664  	0.007068 
1745.578480  	0.006281 
1747.507296  	0.004483 
1749.436112  	0.003480 
1751.364928  	0.002351 
1753.293744  	0.001777 
1755.222560  	0.001818 
1757.151376  	0.001109 
1759.080192  	0.000744 
1761.009008  	-0.000002 
1762.937824  	-0.001670 
1764.866640  	-0.000698 
1766.795456  	0.000139 
1768.724272  	-0.000401 
1770.653088  	-0.002868 
1772.581904  	-0.006248 
1774.510720  	-0.004512 
1776.439536  	-0.002420 
1778.368352  	-0.002020 
1780.297168  	-0.002486 
1782.225984  	-0.002902 
1784.154800  	-0.002227 
1786.083616  	-0.002903 
1788.012432  	-0.002657 
1789.941248  	-0.002134 
1791.870064  	-0.003829 
1793.798880  	-0.005279 
1795.727696  	-0.003459 
1797.656512  	-0.003782 
1799.585328  	-0.003963 
1801.514144  	-0.003430 
1803.442960  	-0.003563 
1805.371776  	-0.004209 
1807.300592  	-0.003800 
1809.229408  	-0.004421 
1811.158224  	-0.004958 
1813.087040  	-0.004944 
1815.015856  	-0.004462 
1816.944672  	-0.004371 
1818.873488  	-0.004390 
1820.802304  	-0.004531 
1822.731120  	-0.003878 
1824.659936  	-0.004528 
1826.588752  	-0.005141 
1828.517568  	-0.005826 
1830.446384  	-0.006599 
1832.375200  	-0.005531 
1834.304016  	-0.004501 
1836.232832  	-0.004675 
1838.161648  	-0.004680 
1840.090464  	-0.004593 
1842.019280  	-0.003654 
1843.948096  	-0.005265 
1845.876912  	-0.005356 
1847.805728  	-0.004495 
1849.734544  	-0.004770 
1851.663360  	-0.005149 
1853.592176  	-0.005160 
1855.520992  	-0.005367 
1857.449808  	-0.005115 
1859.378624  	-0.005116 
1861.307440  	-0.005082 
1863.236256  	-0.005224 
1865.165072  	-0.004889 
1867.093888  	-0.005145 
1869.022704  	-0.006015 
1870.951520  	-0.005977 
1872.880336  	-0.005246 
1874.809152  	-0.005507 
1876.737968  	-0.005514 
1878.666784  	-0.005770 
1880.595600  	-0.005442 
1882.524416  	-0.005684 
1884.453232  	-0.005488 
1886.382048  	-0.005479 
1888.310864  	-0.005215 
1890.239680  	-0.005852 
1892.168496  	-0.005302 
1894.097312  	-0.005032 
1896.026128  	-0.005002 
1897.954944  	-0.005471 
1899.883760  	-0.005455 
1901.812576  	-0.005756 
1903.741392  	-0.005998 
1905.670208  	-0.005921 
1907.599024  	-0.005084 
1909.527840  	-0.005323 
1911.456656  	-0.005169 
1913.385472  	-0.005219 
1915.314288  	-0.004917 
1917.243104  	-0.005299 
1919.171920  	-0.005442 
1921.100736  	-0.005244 
1923.029552  	-0.004797 
1924.958368  	-0.005482 
1926.887184  	-0.005507 
1928.816000  	-0.005879 
1930.744816  	-0.005932 
1932.673632  	-0.006137 
1934.602448  	-0.005835 
1936.531264  	-0.005795 
1938.460080  	-0.005004 
1940.388896  	-0.004786 
1942.317712  	-0.004660 
1944.246528  	-0.005531 
1946.175344  	-0.004920 
1948.104160  	-0.004979 
1950.032976  	-0.004420 
1951.961792  	-0.004745 
1953.890608  	-0.004664 
1955.819424  	-0.005666 
1957.748240  	-0.005308 
1959.677056  	-0.005233 
1961.605872  	-0.004628 
1963.534688  	-0.004738 
1965.463504  	-0.003779 
1967.392320  	-0.004409 
1969.321136  	-0.004094 
1971.249952  	-0.004407 
1973.178768  	-0.004068 
1975.107584  	-0.004646 
1977.036400  	-0.003544 
1978.965216  	-0.002781 
1980.894032  	-0.003293 
1982.822848  	-0.004351 
1984.751664  	-0.003926 
1986.680480  	-0.004634 
1988.609296  	-0.004129 
1990.538112  	-0.004177 
1992.466928  	-0.004295 
1994.395744  	-0.005455 
1996.324560  	-0.005502 
1998.253376  	-0.005979 
2000.182192  	-0.005720 
2002.111008  	-0.005404 
2004.039824  	-0.004378 
2005.968640  	-0.005483 
2007.897456  	-0.005389 
2009.826272  	-0.005748 
2011.755088  	-0.004973 
2013.683904  	-0.005087 
2015.612720  	-0.004576 
2017.541536  	-0.005177 
2019.470352  	-0.004839 
2021.399168  	-0.006064 
2023.327984  	-0.005887 
2025.256800  	-0.005442 
2027.185616  	-0.004347 
2029.114432  	-0.004815 
2031.043248  	-0.004832 
2032.972064  	-0.005288 
2034.900880  	-0.004718 
2036.829696  	-0.005058 
2038.758512  	-0.004228 
2040.687328  	-0.005223 
2042.616144  	-0.004858 
2044.544960  	-0.005280 
2046.473776  	-0.005630 
2048.402592  	-0.005420 
2050.331408  	-0.005058 
2052.260224  	-0.005866 
2054.189040  	-0.006064 
2056.117856  	-0.006428 
2058.046672  	-0.005866 
2059.975488  	-0.006190 
2061.904304  	-0.006590 
2063.833120  	-0.006656 
2065.761936  	-0.006060 
2067.690752  	-0.005757 
2069.619568  	-0.005309 
2071.548384  	-0.005723 
2073.477200  	-0.005782 
2075.406016  	-0.005575 
2077.334832  	-0.005434 
2079.263648  	-0.005655 
2081.192464  	-0.005118 
2083.121280  	-0.005145 
2085.050096  	-0.005458 
2086.978912  	-0.005781 
2088.907728  	-0.005374 
2090.836544  	-0.005437 
2092.765360  	-0.005362 
2094.694176  	-0.005535 
2096.622992  	-0.005796 
2098.551808  	-0.005809 
2100.480624  	-0.005029 
2102.409440  	-0.005092 
2104.338256  	-0.005432 
2106.267072  	-0.005336 
2108.195888  	-0.004835 
2110.124704  	-0.004940 
2112.053520  	-0.004817 
2113.982336  	-0.005030 
2115.911152  	-0.004911 
2117.839968  	-0.004804 
2119.768784  	-0.005234 
2121.697600  	-0.005896 
2123.626416  	-0.005591 
2125.555232  	-0.005600 
2127.484048  	-0.005454 
2129.412864  	-0.006061 
2131.341680  	-0.005983 
2133.270496  	-0.005714 
2135.199312  	-0.005197 
2137.128128  	-0.004990 
2139.056944  	-0.004678 
2140.985760  	-0.005232 
2142.914576  	-0.005234 
2144.843392  	-0.005074 
2146.772208  	-0.004204 
2148.701024  	-0.004949 
2150.629840  	-0.004964 
2152.558656  	-0.004551 
2154.487472  	-0.004348 
2156.416288  	-0.005557 
2158.345104  	-0.004062 
2160.273920  	-0.001636 
2162.202736  	-0.000139 
2164.131552  	-0.001124 
2166.060368  	-0.001449 
2167.989184  	-0.001540 
2169.918000  	-0.001601 
2171.846816  	-0.003181 
2173.775632  	-0.002875 
2175.704448  	-0.002642 
2177.633264  	-0.003248 
2179.562080  	-0.003854 
2181.490896  	-0.003531 
2183.419712  	-0.004671 
2185.348528  	-0.004928 
2187.277344  	-0.004877 
2189.206160  	-0.004531 
2191.134976  	-0.004492 
2193.063792  	-0.004279 
2194.992608  	-0.004319 
2196.921424  	-0.004342 
2198.850240  	-0.004932 
2200.779056  	-0.004842 
2202.707872  	-0.005024 
2204.636688  	-0.004941 
2206.565504  	-0.004692 
2208.494320  	-0.004414 
2210.423136  	-0.005186 
2212.351952  	-0.005391 
2214.280768  	-0.005337 
2216.209584  	-0.005316 
2218.138400  	-0.006143 
2220.067216  	-0.005853 
2221.996032  	-0.005655 
2223.924848  	-0.005468 
2225.853664  	-0.005092 
2227.782480  	-0.004207 
2229.711296  	-0.004848 
2231.640112  	-0.005880 
2233.568928  	-0.006294 
2235.497744  	-0.006058 
2237.426560  	-0.005962 
2239.355376  	-0.005426 
2241.284192  	-0.005447 
2243.213008  	-0.005697 
2245.141824  	-0.006286 
2247.070640  	-0.006060 
2248.999456  	-0.006213 
2250.928272  	-0.006493 
2252.857088  	-0.006827 
2254.785904  	-0.006613 
2256.714720  	-0.006571 
2258.643536  	-0.006456 
2260.572352  	-0.006754 
2262.501168  	-0.007016 
2264.429984  	-0.006952 
2266.358800  	-0.006586 
2268.287616  	-0.006670 
2270.216432  	-0.006707 
2272.145248  	-0.006767 
2274.074064  	-0.007005 
2276.002880  	-0.007070 
2277.931696  	-0.006715 
2279.860512  	-0.006345 
2281.789328  	-0.005932 
2283.718144  	-0.005740 
2285.646960  	-0.005798 
2287.575776  	-0.006113 
2289.504592  	-0.006305 
2291.433408  	-0.006500 
2293.362224  	-0.006448 
2295.291040  	-0.006214 
2297.219856  	-0.005842 
2299.148672  	-0.005900 
2301.077488  	-0.005992 
2303.006304  	-0.006087 
2304.935120  	-0.005936 
2306.863936  	-0.005965 
2308.792752  	-0.006181 
2310.721568  	-0.006743 
2312.650384  	-0.007664 
2314.579200  	-0.008947 
2316.508016  	-0.010066 
2318.436832  	-0.011374 
2320.365648  	-0.013208 
2322.294464  	-0.015212 
2324.223280  	-0.017433 
2326.152096  	-0.020202 
2328.080912  	-0.022269 
2330.009728  	-0.024468 
2331.938544  	-0.026809 
2333.867360  	-0.028525 
2335.796176  	-0.029921 
2337.724992  	-0.031114 
2339.653808  	-0.031471 
2341.582624  	-0.031938 
2343.511440  	-0.030668 
2345.440256  	-0.027306 
2347.369072  	-0.020681 
2349.297888  	-0.016635 
2351.226704  	-0.020325 
2353.155520  	-0.027518 
2355.084336  	-0.033077 
2357.013152  	-0.037548 
2358.941968  	-0.040225 
2360.870784  	-0.041429 
2362.799600  	-0.040204 
2364.728416  	-0.038071 
2366.657232  	-0.034499 
2368.586048  	-0.030067 
2370.514864  	-0.025628 
2372.443680  	-0.021160 
2374.372496  	-0.016585 
2376.301312  	-0.012644 
2378.230128  	-0.009445 
2380.158944  	-0.007529 
2382.087760  	-0.006635 
2384.016576  	-0.006400 
2385.945392  	-0.006426 
2387.874208  	-0.006603 
2389.803024  	-0.006852 
2391.731840  	-0.007138 
2393.660656  	-0.007089 
2395.589472  	-0.007077 
2397.518288  	-0.006944 
2399.447104  	-0.007137 
2401.375920  	-0.007348 
2403.304736  	-0.007506 
2405.233552  	-0.007306 
2407.162368  	-0.007267 
2409.091184  	-0.007276 
2411.020000  	-0.007328 
2412.948816  	-0.007349 
2414.877632  	-0.007129 
2416.806448  	-0.006838 
2418.735264  	-0.007187 
2420.664080  	-0.007516 
2422.592896  	-0.007457 
2424.521712  	-0.007158 
2426.450528  	-0.007037 
2428.379344  	-0.006949 
2430.308160  	-0.006879 
2432.236976  	-0.006897 
2434.165792  	-0.007128 
2436.094608  	-0.007086 
2438.023424  	-0.006841 
2439.952240  	-0.006547 
2441.881056  	-0.006655 
2443.809872  	-0.006721 
2445.738688  	-0.006621 
2447.667504  	-0.006331 
2449.596320  	-0.006247 
2451.525136  	-0.006123 
2453.453952  	-0.006234 
2455.382768  	-0.006231 
2457.311584  	-0.006214 
2459.240400  	-0.006532 
2461.169216  	-0.006616 
2463.098032  	-0.006530 
2465.026848  	-0.006489 
2466.955664  	-0.006471 
2468.884480  	-0.006718 
2470.813296  	-0.006979 
2472.742112  	-0.006971 
2474.670928  	-0.006848 
2476.599744  	-0.006814 
2478.528560  	-0.006619 
2480.457376  	-0.006571 
2482.386192  	-0.006517 
2484.315008  	-0.006408 
2486.243824  	-0.006466 
2488.172640  	-0.006550 
2490.101456  	-0.006271 
2492.030272  	-0.006133 
2493.959088  	-0.006104 
2495.887904  	-0.006056 
2497.816720  	-0.005977 
2499.745536  	-0.005962 
2501.674352  	-0.005882 
2503.603168  	-0.005610 
2505.531984  	-0.005661 
2507.460800  	-0.005971 
2509.389616  	-0.005866 
2511.318432  	-0.005779 
2513.247248  	-0.005792 
2515.176064  	-0.005821 
2517.104880  	-0.005760 
2519.033696  	-0.005876 
2520.962512  	-0.005807 
2522.891328  	-0.005672 
2524.820144  	-0.005719 
2526.748960  	-0.005811 
2528.677776  	-0.005705 
2530.606592  	-0.005710 
2532.535408  	-0.005652 
2534.464224  	-0.005697 
2536.393040  	-0.005590 
2538.321856  	-0.005404 
2540.250672  	-0.005281 
2542.179488  	-0.005300 
2544.108304  	-0.005289 
2546.037120  	-0.005242 
2547.965936  	-0.005272 
2549.894752  	-0.005100 
2551.823568  	-0.005043 
2553.752384  	-0.005043 
2555.681200  	-0.004757 
2557.610016  	-0.004744 
2559.538832  	-0.004885 
2561.467648  	-0.004810 
2563.396464  	-0.004632 
2565.325280  	-0.004599 
2567.254096  	-0.004709 
2569.182912  	-0.004702 
2571.111728  	-0.004517 
2573.040544  	-0.004566 
2574.969360  	-0.004533 
2576.898176  	-0.004276 
2578.826992  	-0.004398 
2580.755808  	-0.004680 
2582.684624  	-0.004608 
2584.613440  	-0.004472 
2586.542256  	-0.004369 
2588.471072  	-0.004160 
2590.399888  	-0.004059 
2592.328704  	-0.004004 
2594.257520  	-0.004060 
2596.186336  	-0.004081 
2598.115152  	-0.003900 
2600.043968  	-0.003862 
2601.972784  	-0.003738 
2603.901600  	-0.003671 
2605.830416  	-0.003605 
2607.759232  	-0.003528 
2609.688048  	-0.003408 
2611.616864  	-0.003357 
2613.545680  	-0.003269 
2615.474496  	-0.003095 
2617.403312  	-0.002913 
2619.332128  	-0.002830 
2621.260944  	-0.002854 
2623.189760  	-0.002868 
2625.118576  	-0.002861 
2627.047392  	-0.002844 
2628.976208  	-0.002678 
2630.905024  	-0.002648 
2632.833840  	-0.002602 
2634.762656  	-0.002346 
2636.691472  	-0.002266 
2638.620288  	-0.002297 
2640.549104  	-0.002247 
2642.477920  	-0.002226 
2644.406736  	-0.002138 
2646.335552  	-0.002034 
2648.264368  	-0.001886 
2650.193184  	-0.001842 
2652.122000  	-0.001768 
2654.050816  	-0.001626 
2655.979632  	-0.001492 
2657.908448  	-0.001530 
2659.837264  	-0.001428 
2661.766080  	-0.001328 
2663.694896  	-0.001275 
2665.623712  	-0.001226 
2667.552528  	-0.001040 
2669.481344  	-0.000845 
2671.410160  	-0.000685 
2673.338976  	-0.000574 
2675.267792  	-0.000457 
2677.196608  	-0.000350 
2679.125424  	-0.000265 
2681.054240  	-0.000086 
2682.983056  	0.000011 
2684.911872  	-0.000016 
2686.840688  	0.000088 
2688.769504  	0.000238 
2690.698320  	0.000215 
2692.627136  	0.000168 
2694.555952  	0.000347 
2696.484768  	0.000449 
2698.413584  	0.000486 
2700.342400  	0.000515 
2702.271216  	0.000637 
2704.200032  	0.000765 
2706.128848  	0.000798 
2708.057664  	0.000809 
2709.986480  	0.000899 
2711.915296  	0.001081 
2713.844112  	0.001219 
2715.772928  	0.001243 
2717.701744  	0.001351 
2719.630560  	0.001537 
2721.559376  	0.001635 
2723.488192  	0.001771 
2725.417008  	0.001961 
2727.345824  	0.002119 
2729.274640  	0.002234 
2731.203456  	0.002314 
2733.132272  	0.002386 
2735.061088  	0.002524 
2736.989904  	0.002730 
2738.918720  	0.002739 
2740.847536  	0.002740 
2742.776352  	0.002729 
2744.705168  	0.002846 
2746.633984  	0.002966 
2748.562800  	0.002951 
2750.491616  	0.002955 
2752.420432  	0.003120 
2754.349248  	0.003088 
2756.278064  	0.002899 
2758.206880  	0.002813 
2760.135696  	0.002922 
2762.064512  	0.002960 
2763.993328  	0.002925 
2765.922144  	0.002938 
2767.850960  	0.003046 
2769.779776  	0.003060 
2771.708592  	0.003113 
2773.637408  	0.003082 
2775.566224  	0.002974 
2777.495040  	0.002975 
2779.423856  	0.003101 
2781.352672  	0.003134 
2783.281488  	0.003107 
2785.210304  	0.003020 
2787.139120  	0.003054 
2789.067936  	0.003191 
2790.996752  	0.003261 
2792.925568  	0.003218 
2794.854384  	0.003236 
2796.783200  	0.003169 
2798.712016  	0.003047 
2800.640832  	0.003013 
2802.569648  	0.003072 
2804.498464  	0.003125 
2806.427280  	0.003112 
2808.356096  	0.003068 
2810.284912  	0.003101 
2812.213728  	0.003055 
2814.142544  	0.002938 
2816.071360  	0.002899 
2818.000176  	0.002782 
2819.928992  	0.002633 
2821.857808  	0.002537 
2823.786624  	0.002436 
2825.715440  	0.002382 
2827.644256  	0.002240 
2829.573072  	0.002127 
2831.501888  	0.001885 
2833.430704  	0.001573 
2835.359520  	0.001297 
2837.288336  	0.001040 
2839.217152  	0.000713 
2841.145968  	0.000303 
2843.074784  	-0.000101 
2845.003600  	-0.000485 
2846.932416  	-0.000868 
2848.861232  	-0.001227 
2850.790048  	-0.001602 
2852.718864  	-0.001967 
2854.647680  	-0.002431 
2856.576496  	-0.003095 
2858.505312  	-0.003762 
2860.434128  	-0.004356 
2862.362944  	-0.005055 
2864.291760  	-0.005893 
2866.220576  	-0.006593 
2868.149392  	-0.006901 
2870.078208  	-0.007177 
2872.007024  	-0.007364 
2873.935840  	-0.007344 
2875.864656  	-0.007431 
2877.793472  	-0.007630 
2879.722288  	-0.007922 
2881.651104  	-0.008493 
2883.579920  	-0.008878 
2885.508736  	-0.008794 
2887.437552  	-0.008534 
2889.366368  	-0.008419 
2891.295184  	-0.008665 
2893.224000  	-0.008929 
2895.152816  	-0.008868 
2897.081632  	-0.009225 
2899.010448  	-0.011032 
2900.939264  	-0.012583 
2902.868080  	-0.011225 
2904.796896  	-0.009828 
2906.725712  	-0.009244 
2908.654528  	-0.008724 
2910.583344  	-0.008481 
2912.512160  	-0.007950 
2914.440976  	-0.006765 
2916.369792  	-0.006000 
2918.298608  	-0.005645 
2920.227424  	-0.005314 
2922.156240  	-0.004690 
2924.085056  	-0.003764 
2926.013872  	-0.002819 
2927.942688  	-0.001977 
2929.871504  	-0.001153 
2931.800320  	-0.000403 
2933.729136  	0.000219 
2935.657952  	0.000634 
2937.586768  	0.001178 
2939.515584  	0.001858 
2941.444400  	0.002054 
2943.373216  	0.002002 
2945.302032  	0.002240 
2947.230848  	0.002355 
2949.159664  	0.002022 
2951.088480  	0.001414 
2953.017296  	0.000986 
2954.946112  	0.000389 
2956.874928  	-0.000393 
2958.803744  	-0.001160 
2960.732560  	-0.001670 
2962.661376  	-0.002263 
2964.590192  	-0.003161 
2966.519008  	-0.004299 
2968.447824  	-0.005383 
2970.376640  	-0.006211 
2972.305456  	-0.006688 
2974.234272  	-0.006363 
2976.163088  	-0.005973 
2978.091904  	-0.005962 
2980.020720  	-0.006047 
2981.949536  	-0.005973 
2983.878352  	-0.006220 
2985.807168  	-0.007070 
2987.735984  	-0.007995 
2989.664800  	-0.007798 
2991.593616  	-0.004731 
2993.522432  	-0.002641 
2995.451248  	-0.002160 
2997.380064  	-0.001333 
2999.308880  	-0.000120 
3001.237696  	0.001167 
3003.166512  	0.002606 
3005.095328  	0.004027 
3007.024144  	0.005419 
3008.952960  	0.006794 
3010.881776  	0.008250 
3012.810592  	0.009666 
3014.739408  	0.010961 
3016.668224  	0.012078 
3018.597040  	0.013268 
3020.525856  	0.014517 
3022.454672  	0.015687 
3024.383488  	0.016679 
3026.312304  	0.017561 
3028.241120  	0.018618 
3030.169936  	0.019539 
3032.098752  	0.020307 
3034.027568  	0.021012 
3035.956384  	0.021725 
3037.885200  	0.022536 
3039.814016  	0.023098 
3041.742832  	0.023603 
3043.671648  	0.024212 
3045.600464  	0.024749 
3047.529280  	0.025093 
3049.458096  	0.025531 
3051.386912  	0.026145 
3053.315728  	0.026749 
3055.244544  	0.027198 
3057.173360  	0.027617 
3059.102176  	0.028132 
3061.030992  	0.028683 
3062.959808  	0.029363 
3064.888624  	0.030020 
3066.817440  	0.030571 
3068.746256  	0.031298 
3070.675072  	0.032040 
3072.603888  	0.032511 
3074.532704  	0.033050 
3076.461520  	0.033801 
3078.390336  	0.034429 
3080.319152  	0.035011 
3082.247968  	0.035811 
3084.176784  	0.036466 
3086.105600  	0.037073 
3088.034416  	0.037702 
3089.963232  	0.038361 
3091.892048  	0.038940 
3093.820864  	0.039493 
3095.749680  	0.040087 
3097.678496  	0.040865 
3099.607312  	0.041613 
3101.536128  	0.042406 
3103.464944  	0.043200 
3105.393760  	0.043690 
3107.322576  	0.044205 
3109.251392  	0.044995 
3111.180208  	0.045645 
3113.109024  	0.046181 
3115.037840  	0.046735 
3116.966656  	0.047394 
3118.895472  	0.047897 
3120.824288  	0.048548 
3122.753104  	0.049252 
3124.681920  	0.049593 
3126.610736  	0.049821 
3128.539552  	0.050648 
3130.468368  	0.051375 
3132.397184  	0.051610 
3134.326000  	0.052222 
3136.254816  	0.052956 
3138.183632  	0.053553 
3140.112448  	0.054062 
3142.041264  	0.054517 
3143.970080  	0.054967 
3145.898896  	0.055584 
3147.827712  	0.056262 
3149.756528  	0.056780 
3151.685344  	0.057282 
3153.614160  	0.057988 
3155.542976  	0.058703 
3157.471792  	0.059243 
3159.400608  	0.059721 
3161.329424  	0.060217 
3163.258240  	0.060637 
3165.187056  	0.061124 
3167.115872  	0.061609 
3169.044688  	0.062096 
3170.973504  	0.062555 
3172.902320  	0.062918 
3174.831136  	0.063514 
3176.759952  	0.064105 
3178.688768  	0.064307 
3180.617584  	0.064578 
3182.546400  	0.065059 
3184.475216  	0.065282 
3186.404032  	0.065426 
3188.332848  	0.065675 
3190.261664  	0.065922 
3192.190480  	0.066226 
3194.119296  	0.066376 
3196.048112  	0.066559 
3197.976928  	0.066566 
3199.905744  	0.066517 
3201.834560  	0.066467 
3203.763376  	0.066542 
3205.692192  	0.066659 
3207.621008  	0.066449 
3209.549824  	0.066436 
3211.478640  	0.066650 
3213.407456  	0.066606 
3215.336272  	0.066415 
3217.265088  	0.066456 
3219.193904  	0.066358 
3221.122720  	0.066196 
3223.051536  	0.066090 
3224.980352  	0.065897 
3226.909168  	0.065711 
3228.837984  	0.065573 
3230.766800  	0.065567 
3232.695616  	0.065581 
3234.624432  	0.065412 
3236.553248  	0.065236 
3238.482064  	0.065318 
3240.410880  	0.065249 
3242.339696  	0.065224 
3244.268512  	0.065083 
3246.197328  	0.065254 
3248.126144  	0.065730 
3250.054960  	0.065939 
3251.983776  	0.066056 
3253.912592  	0.066143 
3255.841408  	0.066476 
3257.770224  	0.066939 
3259.699040  	0.067037 
3261.627856  	0.067217 
3263.556672  	0.067481 
3265.485488  	0.067562 
3267.414304  	0.067739 
3269.343120  	0.068166 
3271.271936  	0.068451 
3273.200752  	0.068498 
3275.129568  	0.068608 
3277.058384  	0.068975 
3278.987200  	0.069265 
3280.916016  	0.069454 
3282.844832  	0.069684 
3284.773648  	0.069806 
3286.702464  	0.069857 
3288.631280  	0.070116 
3290.560096  	0.070533 
3292.488912  	0.071009 
3294.417728  	0.071372 
3296.346544  	0.071698 
3298.275360  	0.071869 
3300.204176  	0.072055 
3302.132992  	0.072336 
3304.061808  	0.072669 
3305.990624  	0.073125 
3307.919440  	0.073512 
3309.848256  	0.073887 
3311.777072  	0.074107 
3313.705888  	0.074428 
3315.634704  	0.075030 
3317.563520  	0.075418 
3319.492336  	0.075694 
3321.421152  	0.075947 
3323.349968  	0.076150 
3325.278784  	0.076452 
3327.207600  	0.076789 
3329.136416  	0.076890 
3331.065232  	0.076985 
3332.994048  	0.077169 
3334.922864  	0.077469 
3336.851680  	0.077642 
3338.780496  	0.077596 
3340.709312  	0.077534 
3342.638128  	0.077339 
3344.566944  	0.076890 
3346.495760  	0.076746 
3348.424576  	0.076677 
3350.353392  	0.076572 
3352.282208  	0.076300 
3354.211024  	0.076060 
3356.139840  	0.076042 
3358.068656  	0.075851 
3359.997472  	0.075603 
3361.926288  	0.075211 
3363.855104  	0.074724 
3365.783920  	0.074388 
3367.712736  	0.074142 
3369.641552  	0.073849 
3371.570368  	0.073333 
3373.499184  	0.073057 
3375.428000  	0.072891 
3377.356816  	0.072673 
3379.285632  	0.072611 
3381.214448  	0.072269 
3383.143264  	0.071786 
3385.072080  	0.071336 
3387.000896  	0.070949 
3388.929712  	0.070796 
3390.858528  	0.070812 
3392.787344  	0.070514 
3394.716160  	0.070056 
3396.644976  	0.069735 
3398.573792  	0.069346 
3400.502608  	0.068935 
3402.431424  	0.068389 
3404.360240  	0.067888 
3406.289056  	0.067423 
3408.217872  	0.066996 
3410.146688  	0.066545 
3412.075504  	0.066287 
3414.004320  	0.065951 
3415.933136  	0.065580 
3417.861952  	0.065113 
3419.790768  	0.064625 
3421.719584  	0.064122 
3423.648400  	0.063760 
3425.577216  	0.063196 
3427.506032  	0.062488 
3429.434848  	0.062143 
3431.363664  	0.061803 
3433.292480  	0.061198 
3435.221296  	0.060654 
3437.150112  	0.060356 
3439.078928  	0.060055 
3441.007744  	0.059376 
3442.936560  	0.058899 
3444.865376  	0.058637 
3446.794192  	0.057911 
3448.723008  	0.057139 
3450.651824  	0.056741 
3452.580640  	0.056203 
3454.509456  	0.055678 
3456.438272  	0.055244 
3458.367088  	0.054666 
3460.295904  	0.054113 
3462.224720  	0.053280 
3464.153536  	0.052432 
3466.082352  	0.051885 
3468.011168  	0.051077 
3469.939984  	0.050354 
3471.868800  	0.049850 
3473.797616  	0.049255 
3475.726432  	0.048664 
3477.655248  	0.047904 
3479.584064  	0.047281 
3481.512880  	0.046520 
3483.441696  	0.045584 
3485.370512  	0.045056 
3487.299328  	0.044040 
3489.228144  	0.043290 
3491.156960  	0.042773 
3493.085776  	0.042154 
3495.014592  	0.041503 
3496.943408  	0.040812 
3498.872224  	0.040290 
3500.801040  	0.040324 
3502.729856  	0.039621 
3504.658672  	0.038269 
3506.587488  	0.037890 
3508.516304  	0.037754 
3510.445120  	0.036896 
3512.373936  	0.035872 
3514.302752  	0.035347 
3516.231568  	0.035116 
3518.160384  	0.034707 
3520.089200  	0.034018 
3522.018016  	0.033778 
3523.946832  	0.033831 
3525.875648  	0.033201 
3527.804464  	0.031764 
3529.733280  	0.030627 
3531.662096  	0.030242 
3533.590912  	0.029973 
3535.519728  	0.029782 
3537.448544  	0.029325 
3539.377360  	0.028438 
3541.306176  	0.028001 
3543.234992  	0.028086 
3545.163808  	0.028519 
3547.092624  	0.027551 
3549.021440  	0.025795 
3550.950256  	0.025009 
3552.879072  	0.024467 
3554.807888  	0.023886 
3556.736704  	0.023242 
3558.665520  	0.023208 
3560.594336  	0.023021 
3562.523152  	0.022226 
3564.451968  	0.022430 
3566.380784  	0.022921 
3568.309600  	0.021037 
3570.238416  	0.019645 
3572.167232  	0.018965 
3574.096048  	0.018078 
3576.024864  	0.017405 
3577.953680  	0.017087 
3579.882496  	0.016606 
3581.811312  	0.015931 
3583.740128  	0.015425 
3585.668944  	0.015694 
3587.597760  	0.014770 
3589.526576  	0.013176 
3591.455392  	0.012473 
3593.384208  	0.011896 
3595.313024  	0.010852 
3597.241840  	0.009599 
3599.170656  	0.008169 
3601.099472  	0.007177 
3603.028288  	0.007324 
3604.957104  	0.007461 
3606.885920  	0.006827 
3608.814736  	0.005646 
3610.743552  	0.005527 
3612.672368  	0.004531 
3614.601184  	0.003278 
3616.530000  	0.002828 
3618.458816  	0.000770 
3620.387632  	-0.000686 
3622.316448  	-0.000404 
3624.245264  	-0.000613 
3626.174080  	-0.000788 
3628.102896  	-0.003740 
3630.031712  	-0.006767 
3631.960528  	-0.004580 
3633.889344  	-0.004777 
3635.818160  	-0.005498 
3637.746976  	-0.006325 
3639.675792  	-0.006517 
3641.604608  	-0.006582 
3643.533424  	-0.006961 
3645.462240  	-0.007699 
3647.391056  	-0.010820 
3649.319872  	-0.015339 
3651.248688  	-0.016251 
3653.177504  	-0.013278 
3655.106320  	-0.014054 
3657.035136  	-0.016530 
3658.963952  	-0.015939 
3660.892768  	-0.015988 
3662.821584  	-0.016255 
3664.750400  	-0.016020 
3666.679216  	-0.016027 
3668.608032  	-0.018565 
3670.536848  	-0.021827 
3672.465664  	-0.019130 
3674.394480  	-0.020913 
3676.323296  	-0.025329 
3678.252112  	-0.020842 
3680.180928  	-0.019063 
3682.109744  	-0.018527 
3684.038560  	-0.018654 
3685.967376  	-0.018718 
3687.896192  	-0.021734 
3689.825008  	-0.024791 
3691.753824  	-0.023055 
3693.682640  	-0.020200 
3695.611456  	-0.019061 
3697.540272  	-0.018207 
3699.469088  	-0.017556 
3701.397904  	-0.018908 
3703.326720  	-0.018816 
3705.255536  	-0.017150 
3707.184352  	-0.016908 
3709.113168  	-0.018741 
3711.041984  	-0.020973 
3712.970800  	-0.019170 
3714.899616  	-0.015590 
3716.828432  	-0.015123 
3718.757248  	-0.015957 
3720.686064  	-0.016644 
3722.614880  	-0.016903 
3724.543696  	-0.015969 
3726.472512  	-0.016321 
3728.401328  	-0.016470 
3730.330144  	-0.017419 
3732.258960  	-0.019491 
3734.187776  	-0.018359 
3736.116592  	-0.018697 
3738.045408  	-0.018259 
3739.974224  	-0.016455 
3741.903040  	-0.015130 
3743.831856  	-0.018130 
3745.760672  	-0.019862 
3747.689488  	-0.017702 
3749.618304  	-0.020951 
3751.547120  	-0.022694 
3753.475936  	-0.019244 
3755.404752  	-0.016400 
3757.333568  	-0.016385 
3759.262384  	-0.017367 
3761.191200  	-0.016735 
3763.120016  	-0.014735 
3765.048832  	-0.015617 
3766.977648  	-0.015590 
3768.906464  	-0.016501 
3770.835280  	-0.017208 
3772.764096  	-0.015471 
3774.692912  	-0.014756 
3776.621728  	-0.014735 
3778.550544  	-0.016294 
3780.479360  	-0.017163 
3782.408176  	-0.015597 
3784.336992  	-0.015900 
3786.265808  	-0.015611 
3788.194624  	-0.015109 
3790.123440  	-0.015159 
3792.052256  	-0.015114 
3793.981072  	-0.014879 
3795.909888  	-0.016458 
3797.838704  	-0.016464 
3799.767520  	-0.017240 
3801.696336  	-0.021684 
3803.625152  	-0.018669 
3805.553968  	-0.017661 
3807.482784  	-0.019345 
3809.411600  	-0.016372 
3811.340416  	-0.014829 
3813.269232  	-0.014598 
3815.198048  	-0.017922 
3817.126864  	-0.019334 
3819.055680  	-0.017727 
3820.984496  	-0.021209 
3822.913312  	-0.019055 
3824.842128  	-0.016199 
3826.770944  	-0.016752 
3828.699760  	-0.015860 
3830.628576  	-0.016430 
3832.557392  	-0.017324 
3834.486208  	-0.017172 
3836.415024  	-0.018611 
3838.343840  	-0.020228 
3840.272656  	-0.018966 
3842.201472  	-0.017281 
3844.130288  	-0.016839 
3846.059104  	-0.015596 
3847.987920  	-0.014816 
3849.916736  	-0.015018 
3851.845552  	-0.018113 
3853.774368  	-0.023834 
3855.703184  	-0.019489 
3857.632000  	-0.016024 
3859.560816  	-0.015002 
3861.489632  	-0.015424 
3863.418448  	-0.016327 
3865.347264  	-0.016539 
3867.276080  	-0.014964 
3869.204896  	-0.016708 
3871.133712  	-0.016711 
3873.062528  	-0.015591 
3874.991344  	-0.016244 
3876.920160  	-0.014543 
3878.848976  	-0.014349 
3880.777792  	-0.015240 
3882.706608  	-0.014094 
3884.635424  	-0.014694 
3886.564240  	-0.015974 
3888.493056  	-0.014698 
3890.421872  	-0.015769 
3892.350688  	-0.016520 
3894.279504  	-0.014836 
3896.208320  	-0.013993 
3898.137136  	-0.014125 
3900.065952  	-0.014548 
3901.994768  	-0.014387 
3903.923584  	-0.015377 
3905.852400  	-0.015476 
3907.781216  	-0.014952 
3909.710032  	-0.014852 
3911.638848  	-0.014801 
3913.567664  	-0.014240 
3915.496480  	-0.013790 
3917.425296  	-0.014154 
3919.354112  	-0.014423 
3921.282928  	-0.014127 
3923.211744  	-0.013669 
3925.140560  	-0.013827 
3927.069376  	-0.014019 
3928.998192  	-0.014104 
3930.927008  	-0.013665 
3932.855824  	-0.013503 
3934.784640  	-0.014075 
3936.713456  	-0.014418 
3938.642272  	-0.014164 
3940.571088  	-0.013794 
3942.499904  	-0.013663 
3944.428720  	-0.013700 
3946.357536  	-0.013370 
3948.286352  	-0.013114 
3950.215168  	-0.013746 
3952.143984  	-0.014656 
3954.072800  	-0.014883 
3956.001616  	-0.014562 
3957.930432  	-0.014563 
3959.859248  	-0.014497 
3961.788064  	-0.014409 
3963.716880  	-0.014714 
3965.645696  	-0.014935 
3967.574512  	-0.014764 
3969.503328  	-0.014500 
3971.432144  	-0.014486 
3973.360960  	-0.014466 
3975.289776  	-0.014341 
3977.218592  	-0.014320 
3979.147408  	-0.014415 
3981.076224  	-0.014424 
3983.005040  	-0.014585 
3984.933856  	-0.014647 
3986.862672  	-0.014612 
3988.791488  	-0.014419 
3990.720304  	-0.014201 
3992.649120  	-0.014221 
3994.577936  	-0.014460 
3996.506752  	-0.014583 
3998.435568  	-0.014522 
4000.364384  	-0.014451 