##TITLE=No Description
##DATA TYPE=INFRARED SPECTRUM
##XUNITS=1/CM
##YUNITS=Abs
399.264912  	0.623198 
401.193728  	0.630798 
403.122544  	0.629627 
405.051360  	0.599495 
406.980176  	0.597758 
408.908992  	0.593580 
410.837808  	0.601917 
412.766624  	0.610741 
414.695440  	0.613934 
416.624256  	0.601843 
418.553072  	0.588522 
420.481888  	0.570350 
422.410704  	0.579106 
424.339520  	0.582960 
426.268336  	0.581167 
428.197152  	0.573430 
430.125968  	0.571926 
432.054784  	0.558175 
433.983600  	0.561842 
435.912416  	0.564625 
437.841232  	0.562202 
439.770048  	0.556500 
441.698864  	0.558644 
443.627680  	0.549416 
445.556496  	0.541684 
447.485312  	0.541156 
449.414128  	0.545832 
451.342944  	0.547971 
453.271760  	0.549486 
455.200576  	0.542625 
457.129392  	0.543793 
459.058208  	0.542524 
460.987024  	0.548251 
462.915840  	0.546693 
464.844656  	0.543752 
466.773472  	0.538642 
468.702288  	0.540041 
470.631104  	0.540336 
472.559920  	0.542959 
474.488736  	0.537379 
476.417552  	0.535538 
478.346368  	0.529763 
480.275184  	0.531145 
482.204000  	0.527471 
484.132816  	0.523414 
486.061632  	0.522458 
487.990448  	0.525527 
489.919264  	0.526288 
491.848080  	0.529579 
493.776896  	0.524102 
495.705712  	0.523188 
497.634528  	0.522023 
499.563344  	0.524246 
501.492160  	0.522718 
503.420976  	0.518986 
505.349792  	0.515364 
507.278608  	0.514927 
509.207424  	0.513433 
511.136240  	0.516974 
513.065056  	0.516386 
514.993872  	0.520029 
516.922688  	0.524212 
518.851504  	0.526974 
520.780320  	0.523557 
522.709136  	0.520018 
524.637952  	0.519905 
526.566768  	0.521689 
528.495584  	0.516889 
530.424400  	0.514135 
532.353216  	0.508469 
534.282032  	0.504321 
536.210848  	0.499123 
538.139664  	0.494891 
540.068480  	0.489269 
541.997296  	0.483649 
543.926112  	0.479533 
545.854928  	0.477795 
547.783744  	0.474409 
549.712560  	0.472137 
551.641376  	0.468703 
553.570192  	0.464622 
555.499008  	0.460624 
557.427824  	0.458176 
559.356640  	0.454227 
561.285456  	0.450531 
563.214272  	0.446612 
565.143088  	0.444303 
567.071904  	0.440004 
569.000720  	0.437325 
570.929536  	0.434533 
572.858352  	0.431089 
574.787168  	0.427937 
576.715984  	0.426512 
578.644800  	0.422661 
580.573616  	0.418931 
582.502432  	0.414625 
584.431248  	0.411438 
586.360064  	0.408168 
588.288880  	0.406140 
590.217696  	0.403970 
592.146512  	0.401840 
594.075328  	0.398258 
596.004144  	0.396315 
597.932960  	0.394739 
599.861776  	0.394320 
601.790592  	0.392057 
603.719408  	0.389602 
605.648224  	0.388274 
607.577040  	0.387445 
609.505856  	0.385076 
611.434672  	0.383202 
613.363488  	0.381360 
615.292304  	0.380334 
617.221120  	0.378225 
619.149936  	0.376282 
621.078752  	0.373899 
623.007568  	0.373193 
624.936384  	0.371749 
626.865200  	0.370332 
628.794016  	0.368772 
630.722832  	0.368343 
632.651648  	0.367738 
634.580464  	0.367437 
636.509280  	0.366756 
638.438096  	0.365932 
640.366912  	0.364708 
642.295728  	0.363085 
644.224544  	0.360471 
646.153360  	0.357344 
648.082176  	0.352399 
650.010992  	0.347941 
651.939808  	0.344129 
653.868624  	0.340800 
655.797440  	0.336946 
657.726256  	0.333370 
659.655072  	0.329998 
661.583888  	0.326061 
663.512704  	0.322915 
665.441520  	0.320475 
667.370336  	0.311933 
669.299152  	0.304679 
671.227968  	0.305795 
673.156784  	0.303816 
675.085600  	0.300702 
677.014416  	0.297782 
678.943232  	0.295696 
680.872048  	0.294346 
682.800864  	0.292080 
684.729680  	0.290234 
686.658496  	0.289459 
688.587312  	0.288666 
690.516128  	0.287023 
692.444944  	0.285476 
694.373760  	0.284174 
696.302576  	0.282529 
698.231392  	0.279929 
700.160208  	0.277225 
702.089024  	0.275358 
704.017840  	0.272868 
705.946656  	0.270547 
707.875472  	0.268401 
709.804288  	0.266104 
711.733104  	0.264025 
713.661920  	0.261848 
715.590736  	0.260544 
717.519552  	0.259927 
719.448368  	0.259526 
721.377184  	0.258936 
723.306000  	0.259106 
725.234816  	0.259279 
727.163632  	0.258484 
729.092448  	0.256289 
731.021264  	0.253508 
732.950080  	0.250546 
734.878896  	0.247516 
736.807712  	0.244448 
738.736528  	0.241885 
740.665344  	0.239985 
742.594160  	0.238284 
744.522976  	0.236540 
746.451792  	0.234915 
748.380608  	0.233255 
750.309424  	0.231819 
752.238240  	0.230386 
754.167056  	0.229365 
756.095872  	0.228117 
758.024688  	0.227043 
759.953504  	0.226141 
761.882320  	0.226176 
763.811136  	0.226334 
765.739952  	0.225351 
767.668768  	0.222982 
769.597584  	0.220329 
771.526400  	0.219096 
773.455216  	0.219917 
775.384032  	0.222266 
777.312848  	0.226174 
779.241664  	0.229645 
781.170480  	0.229952 
783.099296  	0.226460 
785.028112  	0.221193 
786.956928  	0.215675 
788.885744  	0.210969 
790.814560  	0.207297 
792.743376  	0.204724 
794.672192  	0.203263 
796.601008  	0.202120 
798.529824  	0.199306 
800.458640  	0.195056 
802.387456  	0.191488 
804.316272  	0.189213 
806.245088  	0.187489 
808.173904  	0.186633 
810.102720  	0.186009 
812.031536  	0.185375 
813.960352  	0.185344 
815.889168  	0.185426 
817.817984  	0.185237 
819.746800  	0.184932 
821.675616  	0.184454 
823.604432  	0.183842 
825.533248  	0.183397 
827.462064  	0.182716 
829.390880  	0.181653 
831.319696  	0.180427 
833.248512  	0.178455 
835.177328  	0.176093 
837.106144  	0.173566 
839.034960  	0.170525 
840.963776  	0.166984 
842.892592  	0.163467 
844.821408  	0.160300 
846.750224  	0.157383 
848.679040  	0.154737 
850.607856  	0.152491 
852.536672  	0.150649 
854.465488  	0.148969 
856.394304  	0.147348 
858.323120  	0.145751 
860.251936  	0.143506 
862.180752  	0.140937 
864.109568  	0.138454 
866.038384  	0.136147 
867.967200  	0.133832 
869.896016  	0.131578 
871.824832  	0.130362 
873.753648  	0.130127 
875.682464  	0.130445 
877.611280  	0.130392 
879.540096  	0.130903 
881.468912  	0.132383 
883.397728  	0.133407 
885.326544  	0.134255 
887.255360  	0.134537 
889.184176  	0.133435 
891.112992  	0.131477 
893.041808  	0.129843 
894.970624  	0.127680 
896.899440  	0.124620 
898.828256  	0.120936 
900.757072  	0.117404 
902.685888  	0.114494 
904.614704  	0.112665 
906.543520  	0.112596 
908.472336  	0.113594 
910.401152  	0.115542 
912.329968  	0.117868 
914.258784  	0.120603 
916.187600  	0.123047 
918.116416  	0.125120 
920.045232  	0.126605 
921.974048  	0.127572 
923.902864  	0.127941 
925.831680  	0.127682 
927.760496  	0.127574 
929.689312  	0.127736 
931.618128  	0.128337 
933.546944  	0.128825 
935.475760  	0.128954 
937.404576  	0.128838 
939.333392  	0.128395 
941.262208  	0.128296 
943.191024  	0.129473 
945.119840  	0.132603 
947.048656  	0.137332 
948.977472  	0.143603 
950.906288  	0.151420 
952.835104  	0.160264 
954.763920  	0.169720 
956.692736  	0.178784 
958.621552  	0.186832 
960.550368  	0.192629 
962.479184  	0.195665 
964.408000  	0.195363 
966.336816  	0.191434 
968.265632  	0.184343 
970.194448  	0.174724 
972.123264  	0.163407 
974.052080  	0.151325 
975.980896  	0.139284 
977.909712  	0.127968 
979.838528  	0.117883 
981.767344  	0.109426 
983.696160  	0.102752 
985.624976  	0.098303 
987.553792  	0.096266 
989.482608  	0.096626 
991.411424  	0.098974 
993.340240  	0.102812 
995.269056  	0.107996 
997.197872  	0.113606 
999.126688  	0.119433 
1001.055504  	0.125198 
1002.984320  	0.130963 
1004.913136  	0.136563 
1006.841952  	0.141986 
1008.770768  	0.146503 
1010.699584  	0.149787 
1012.628400  	0.151820 
1014.557216  	0.152558 
1016.486032  	0.152542 
1018.414848  	0.152339 
1020.343664  	0.152051 
1022.272480  	0.151322 
1024.201296  	0.149910 
1026.130112  	0.146509 
1028.058928  	0.145229 
1029.987744  	0.147965 
1031.916560  	0.149542 
1033.845376  	0.150288 
1035.774192  	0.150772 
1037.703008  	0.152661 
1039.631824  	0.157910 
1041.560640  	0.165436 
1043.489456  	0.175237 
1045.418272  	0.187423 
1047.347088  	0.201641 
1049.275904  	0.215486 
1051.204720  	0.227058 
1053.133536  	0.235028 
1055.062352  	0.239307 
1056.991168  	0.240363 
1058.919984  	0.242544 
1060.848800  	0.244324 
1062.777616  	0.242634 
1064.706432  	0.237240 
1066.635248  	0.232333 
1068.564064  	0.231181 
1070.492880  	0.227340 
1072.421696  	0.220409 
1074.350512  	0.215260 
1076.279328  	0.213470 
1078.208144  	0.215302 
1080.136960  	0.219854 
1082.065776  	0.225441 
1083.994592  	0.230003 
1085.923408  	0.232130 
1087.852224  	0.231001 
1089.781040  	0.227641 
1091.709856  	0.223366 
1093.638672  	0.216729 
1095.567488  	0.207158 
1097.496304  	0.196184 
1099.425120  	0.184550 
1101.353936  	0.172676 
1103.282752  	0.160991 
1105.211568  	0.149702 
1107.140384  	0.138838 
1109.069200  	0.128535 
1110.998016  	0.119273 
1112.926832  	0.110924 
1114.855648  	0.103118 
1116.784464  	0.095815 
1118.713280  	0.088937 
1120.642096  	0.082496 
1122.570912  	0.076507 
1124.499728  	0.070671 
1126.428544  	0.065564 
1128.357360  	0.060845 
1130.286176  	0.057101 
1132.214992  	0.053873 
1134.143808  	0.051237 
1136.072624  	0.049084 
1138.001440  	0.047153 
1139.930256  	0.044759 
1141.859072  	0.042656 
1143.787888  	0.040528 
1145.716704  	0.038490 
1147.645520  	0.036390 
1149.574336  	0.034561 
1151.503152  	0.033149 
1153.431968  	0.032614 
1155.360784  	0.032626 
1157.289600  	0.033320 
1159.218416  	0.034511 
1161.147232  	0.036184 
1163.076048  	0.038031 
1165.004864  	0.040019 
1166.933680  	0.041800 
1168.862496  	0.043960 
1170.791312  	0.046122 
1172.720128  	0.048791 
1174.648944  	0.051194 
1176.577760  	0.053698 
1178.506576  	0.056022 
1180.435392  	0.058415 
1182.364208  	0.060762 
1184.293024  	0.063638 
1186.221840  	0.066643 
1188.150656  	0.070143 
1190.079472  	0.074113 
1192.008288  	0.078861 
1193.937104  	0.084586 
1195.865920  	0.091280 
1197.794736  	0.098614 
1199.723552  	0.106692 
1201.652368  	0.114928 
1203.581184  	0.123219 
1205.510000  	0.131401 
1207.438816  	0.139409 
1209.367632  	0.146916 
1211.296448  	0.153593 
1213.225264  	0.159118 
1215.154080  	0.163300 
1217.082896  	0.166410 
1219.011712  	0.168684 
1220.940528  	0.170348 
1222.869344  	0.171361 
1224.798160  	0.171754 
1226.726976  	0.171619 
1228.655792  	0.171006 
1230.584608  	0.169705 
1232.513424  	0.168062 
1234.442240  	0.165731 
1236.371056  	0.162572 
1238.299872  	0.158535 
1240.228688  	0.152040 
1242.157504  	0.145446 
1244.086320  	0.140122 
1246.015136  	0.133268 
1247.943952  	0.125489 
1249.872768  	0.117869 
1251.801584  	0.111201 
1253.730400  	0.104590 
1255.659216  	0.098047 
1257.588032  	0.092034 
1259.516848  	0.086277 
1261.445664  	0.080898 
1263.374480  	0.075919 
1265.303296  	0.071746 
1267.232112  	0.068415 
1269.160928  	0.065934 
1271.089744  	0.063978 
1273.018560  	0.062909 
1274.947376  	0.062524 
1276.876192  	0.062650 
1278.805008  	0.062561 
1280.733824  	0.061618 
1282.662640  	0.059689 
1284.591456  	0.057357 
1286.520272  	0.055401 
1288.449088  	0.054114 
1290.377904  	0.053204 
1292.306720  	0.053240 
1294.235536  	0.053275 
1296.164352  	0.052567 
1298.093168  	0.050354 
1300.021984  	0.047550 
1301.950800  	0.044680 
1303.879616  	0.042037 
1305.808432  	0.039109 
1307.737248  	0.036313 
1309.666064  	0.033617 
1311.594880  	0.031969 
1313.523696  	0.030584 
1315.452512  	0.029487 
1317.381328  	0.028931 
1319.310144  	0.028719 
1321.238960  	0.028600 
1323.167776  	0.029078 
1325.096592  	0.029753 
1327.025408  	0.030285 
1328.954224  	0.030241 
1330.883040  	0.029857 
1332.811856  	0.029043 
1334.740672  	0.028708 
1336.669488  	0.029105 
1338.598304  	0.029753 
1340.527120  	0.028070 
1342.455936  	0.025837 
1344.384752  	0.025305 
1346.313568  	0.025489 
1348.242384  	0.025976 
1350.171200  	0.027079 
1352.100016  	0.028554 
1354.028832  	0.030494 
1355.957648  	0.032151 
1357.886464  	0.034069 
1359.815280  	0.036542 
1361.744096  	0.039201 
1363.672912  	0.039936 
1365.601728  	0.040414 
1367.530544  	0.041721 
1369.459360  	0.042101 
1371.388176  	0.041937 
1373.316992  	0.040907 
1375.245808  	0.037421 
1377.174624  	0.034894 
1379.103440  	0.032236 
1381.032256  	0.029338 
1382.961072  	0.027152 
1384.889888  	0.026748 
1386.818704  	0.026356 
1388.747520  	0.024336 
1390.676336  	0.022163 
1392.605152  	0.019409 
1394.533968  	0.017625 
1396.462784  	0.020404 
1398.391600  	0.021558 
1400.320416  	0.020178 
1402.249232  	0.020542 
1404.178048  	0.021244 
1406.106864  	0.021493 
1408.035680  	0.023189 
1409.964496  	0.025793 
1411.893312  	0.028584 
1413.822128  	0.031480 
1415.750944  	0.035670 
1417.679760  	0.038546 
1419.608576  	0.037100 
1421.537392  	0.037345 
1423.466208  	0.037977 
1425.395024  	0.036258 
1427.323840  	0.035361 
1429.252656  	0.033098 
1431.181472  	0.031381 
1433.110288  	0.031657 
1435.039104  	0.032707 
1436.967920  	0.031028 
1438.896736  	0.031161 
1440.825552  	0.032572 
1442.754368  	0.033189 
1444.683184  	0.033446 
1446.612000  	0.033423 
1448.540816  	0.031982 
1450.469632  	0.032524 
1452.398448  	0.033654 
1454.327264  	0.035138 
1456.256080  	0.034400 
1458.184896  	0.030348 
1460.113712  	0.032105 
1462.042528  	0.034200 
1463.971344  	0.033757 
1465.900160  	0.033645 
1467.828976  	0.036745 
1469.757792  	0.040478 
1471.686608  	0.043159 
1473.615424  	0.047420 
1475.544240  	0.053874 
1477.473056  	0.058898 
1479.401872  	0.062650 
1481.330688  	0.065560 
1483.259504  	0.067389 
1485.188320  	0.069149 
1487.117136  	0.069163 
1489.045952  	0.068434 
1490.974768  	0.064650 
1492.903584  	0.062855 
1494.832400  	0.060427 
1496.761216  	0.053601 
1498.690032  	0.047886 
1500.618848  	0.045051 
1502.547664  	0.042529 
1504.476480  	0.039129 
1506.405296  	0.032330 
1508.334112  	0.030461 
1510.262928  	0.031496 
1512.191744  	0.029696 
1514.120560  	0.029008 
1516.049376  	0.028330 
1517.978192  	0.026520 
1519.907008  	0.027954 
1521.835824  	0.026588 
1523.764640  	0.030903 
1525.693456  	0.035658 
1527.622272  	0.037597 
1529.551088  	0.038636 
1531.479904  	0.039226 
1533.408720  	0.034885 
1535.337536  	0.032152 
1537.266352  	0.031476 
1539.195168  	0.022994 
1541.123984  	0.014929 
1543.052800  	0.019260 
1544.981616  	0.020596 
1546.910432  	0.020342 
1548.839248  	0.021326 
1550.768064  	0.021081 
1552.696880  	0.020704 
1554.625696  	0.020670 
1556.554512  	0.020786 
1558.483328  	0.016322 
1560.412144  	0.018753 
1562.340960  	0.027711 
1564.269776  	0.031797 
1566.198592  	0.036606 
1568.127408  	0.040430 
1570.056224  	0.043681 
1571.985040  	0.050849 
1573.913856  	0.055959 
1575.842672  	0.055372 
1577.771488  	0.057696 
1579.700304  	0.061002 
1581.629120  	0.061195 
1583.557936  	0.060650 
1585.486752  	0.061277 
1587.415568  	0.063363 
1589.344384  	0.067237 
1591.273200  	0.072440 
1593.202016  	0.078721 
1595.130832  	0.085384 
1597.059648  	0.092618 
1598.988464  	0.098992 
1600.917280  	0.104561 
1602.846096  	0.107983 
1604.774912  	0.110138 
1606.703728  	0.110589 
1608.632544  	0.109715 
1610.561360  	0.107912 
1612.490176  	0.106910 
1614.418992  	0.105300 
1616.347808  	0.101137 
1618.276624  	0.101668 
1620.205440  	0.107433 
1622.134256  	0.110046 
1624.063072  	0.113989 
1625.991888  	0.121037 
1627.920704  	0.128249 
1629.849520  	0.137400 
1631.778336  	0.147076 
1633.707152  	0.153286 
1635.635968  	0.157815 
1637.564784  	0.167617 
1639.493600  	0.177416 
1641.422416  	0.183467 
1643.351232  	0.188287 
1645.280048  	0.189005 
1647.208864  	0.186579 
1649.137680  	0.189429 
1651.066496  	0.192327 
1652.995312  	0.182982 
1654.924128  	0.181967 
1656.852944  	0.185471 
1658.781760  	0.184826 
1660.710576  	0.181781 
1662.639392  	0.175812 
1664.568208  	0.172217 
1666.497024  	0.171592 
1668.425840  	0.166115 
1670.354656  	0.158075 
1672.283472  	0.156272 
1674.212288  	0.154287 
1676.141104  	0.148866 
1678.069920  	0.149473 
1679.998736  	0.149519 
1681.927552  	0.148302 
1683.856368  	0.141313 
1685.785184  	0.139521 
1687.714000  	0.143951 
1689.642816  	0.143660 
1691.571632  	0.142062 
1693.500448  	0.141918 
1695.429264  	0.136918 
1697.358080  	0.133123 
1699.286896  	0.131369 
1701.215712  	0.124671 
1703.144528  	0.126108 
1705.073344  	0.122224 
1707.002160  	0.116237 
1708.930976  	0.113107 
1710.859792  	0.108015 
1712.788608  	0.102190 
1714.717424  	0.094294 
1716.646240  	0.083089 
1718.575056  	0.069195 
1720.503872  	0.063392 
1722.432688  	0.058199 
1724.361504  	0.049423 
1726.290320  	0.042215 
1728.219136  	0.036563 
1730.147952  	0.031448 
1732.076768  	0.027014 
1734.005584  	0.018623 
1735.934400  	0.013464 
1737.863216  	0.014476 
1739.792032  	0.010277 
1741.720848  	0.009306 
1743.649664  	0.009352 
1745.578480  	0.008665 
1747.507296  	0.006866 
1749.436112  	0.005820 
1751.364928  	0.004443 
1753.293744  	0.003803 
1755.222560  	0.003941 
1757.151376  	0.003052 
1759.080192  	0.002581 
1761.009008  	0.001939 
1762.937824  	0.000144 
1764.866640  	0.001067 
1766.795456  	0.001905 
1768.724272  	0.001266 
1770.653088  	-0.001167 
1772.581904  	-0.004796 
1774.510720  	-0.003140 
1776.439536  	-0.000919 
1778.368352  	-0.000348 
1780.297168  	-0.000757 
1782.225984  	-0.001380 
1784.154800  	-0.000790 
1786.083616  	-0.001565 
1788.012432  	-0.001251 
1789.941248  	-0.000701 
1791.870064  	-0.002374 
1793.798880  	-0.003853 
1795.727696  	-0.001980 
1797.656512  	-0.002351 
1799.585328  	-0.002572 
1801.514144  	-0.002190 
1803.442960  	-0.002309 
1805.371776  	-0.003020 
1807.300592  	-0.002565 
1809.229408  	-0.003104 
1811.158224  	-0.003684 
1813.087040  	-0.003777 
1815.015856  	-0.003236 
1816.944672  	-0.003089 
1818.873488  	-0.003043 
1820.802304  	-0.003249 
1822.731120  	-0.002539 
1824.659936  	-0.003166 
1826.588752  	-0.003642 
1828.517568  	-0.004352 
1830.446384  	-0.005329 
1832.375200  	-0.004209 
1834.304016  	-0.003145 
1836.232832  	-0.003441 
1838.161648  	-0.003420 
1840.090464  	-0.003379 
1842.019280  	-0.002308 
1843.948096  	-0.003849 
1845.876912  	-0.004159 
1847.805728  	-0.003398 
1849.734544  	-0.003728 
1851.663360  	-0.004056 
1853.592176  	-0.003957 
1855.520992  	-0.004083 
1857.449808  	-0.003867 
1859.378624  	-0.003970 
1861.307440  	-0.004031 
1863.236256  	-0.004410 
1865.165072  	-0.004038 
1867.093888  	-0.003987 
1869.022704  	-0.004529 
1870.951520  	-0.004699 
1872.880336  	-0.004053 
1874.809152  	-0.004409 
1876.737968  	-0.004482 
1878.666784  	-0.004766 
1880.595600  	-0.004158 
1882.524416  	-0.004378 
1884.453232  	-0.004337 
1886.382048  	-0.004304 
1888.310864  	-0.004092 
1890.239680  	-0.005098 
1892.168496  	-0.004623 
1894.097312  	-0.004282 
1896.026128  	-0.004097 
1897.954944  	-0.004286 
1899.883760  	-0.003979 
1901.812576  	-0.004298 
1903.741392  	-0.004803 
1905.670208  	-0.004750 
1907.599024  	-0.003756 
1909.527840  	-0.004115 
1911.456656  	-0.004105 
1913.385472  	-0.004096 
1915.314288  	-0.003555 
1917.243104  	-0.004039 
1919.171920  	-0.004550 
1921.100736  	-0.003818 
1923.029552  	-0.003410 
1924.958368  	-0.004514 
1926.887184  	-0.004416 
1928.816000  	-0.004664 
1930.744816  	-0.004381 
1932.673632  	-0.004548 
1934.602448  	-0.004279 
1936.531264  	-0.004107 
1938.460080  	-0.003097 
1940.388896  	-0.002998 
1942.317712  	-0.003546 
1944.246528  	-0.004690 
1946.175344  	-0.003870 
1948.104160  	-0.003750 
1950.032976  	-0.003661 
1951.961792  	-0.004255 
1953.890608  	-0.004260 
1955.819424  	-0.004542 
1957.748240  	-0.003765 
1959.677056  	-0.004786 
1961.605872  	-0.004655 
1963.534688  	-0.004533 
1965.463504  	-0.003050 
1967.392320  	-0.003842 
1969.321136  	-0.003744 
1971.249952  	-0.004080 
1973.178768  	-0.003397 
1975.107584  	-0.004144 
1977.036400  	-0.003832 
1978.965216  	-0.002236 
1980.894032  	-0.002535 
1982.822848  	-0.004241 
1984.751664  	-0.003384 
1986.680480  	-0.004355 
1988.609296  	-0.004136 
1990.538112  	-0.004102 
1992.466928  	-0.002982 
1994.395744  	-0.004029 
1996.324560  	-0.003801 
1998.253376  	-0.004072 
2000.182192  	-0.004415 
2002.111008  	-0.004881 
2004.039824  	-0.003943 
2005.968640  	-0.004226 
2007.897456  	-0.003074 
2009.826272  	-0.002969 
2011.755088  	-0.002636 
2013.683904  	-0.004004 
2015.612720  	-0.002939 
2017.541536  	-0.002947 
2019.470352  	-0.003383 
2021.399168  	-0.004996 
2023.327984  	-0.004497 
2025.256800  	-0.003332 
2027.185616  	-0.003154 
2029.114432  	-0.004000 
2031.043248  	-0.003422 
2032.972064  	-0.003755 
2034.900880  	-0.003150 
2036.829696  	-0.003104 
2038.758512  	-0.002234 
2040.687328  	-0.003179 
2042.616144  	-0.002906 
2044.544960  	-0.002910 
2046.473776  	-0.002631 
2048.402592  	-0.003261 
2050.331408  	-0.003522 
2052.260224  	-0.004543 
2054.189040  	-0.004647 
2056.117856  	-0.005146 
2058.046672  	-0.004973 
2059.975488  	-0.004529 
2061.904304  	-0.004238 
2063.833120  	-0.004829 
2065.761936  	-0.004706 
2067.690752  	-0.004867 
2069.619568  	-0.004411 
2071.548384  	-0.004367 
2073.477200  	-0.004344 
2075.406016  	-0.004081 
2077.334832  	-0.003868 
2079.263648  	-0.004035 
2081.192464  	-0.003576 
2083.121280  	-0.003730 
2085.050096  	-0.004245 
2086.978912  	-0.004260 
2088.907728  	-0.003750 
2090.836544  	-0.003826 
2092.765360  	-0.003534 
2094.694176  	-0.003578 
2096.622992  	-0.004017 
2098.551808  	-0.004061 
2100.480624  	-0.003580 
2102.409440  	-0.003931 
2104.338256  	-0.004119 
2106.267072  	-0.003937 
2108.195888  	-0.003344 
2110.124704  	-0.003752 
2112.053520  	-0.003734 
2113.982336  	-0.003576 
2115.911152  	-0.003384 
2117.839968  	-0.003836 
2119.768784  	-0.004002 
2121.697600  	-0.004256 
2123.626416  	-0.004127 
2125.555232  	-0.004146 
2127.484048  	-0.004038 
2129.412864  	-0.004698 
2131.341680  	-0.004601 
2133.270496  	-0.004605 
2135.199312  	-0.003679 
2137.128128  	-0.003087 
2139.056944  	-0.002467 
2140.985760  	-0.002550 
2142.914576  	-0.003008 
2144.843392  	-0.003628 
2146.772208  	-0.003046 
2148.701024  	-0.003701 
2150.629840  	-0.002681 
2152.558656  	-0.002312 
2154.487472  	-0.002700 
2156.416288  	-0.003198 
2158.345104  	-0.002158 
2160.273920  	-0.000725 
2162.202736  	0.000789 
2164.131552  	0.000106 
2166.060368  	-0.000101 
2167.989184  	-0.001174 
2169.918000  	-0.000559 
2171.846816  	-0.001005 
2173.775632  	-0.001467 
2175.704448  	-0.002073 
2177.633264  	-0.001423 
2179.562080  	-0.001434 
2181.490896  	-0.001577 
2183.419712  	-0.002888 
2185.348528  	-0.002881 
2187.277344  	-0.002431 
2189.206160  	-0.001910 
2191.134976  	-0.002343 
2193.063792  	-0.002681 
2194.992608  	-0.002731 
2196.921424  	-0.002771 
2198.850240  	-0.003206 
2200.779056  	-0.003419 
2202.707872  	-0.004217 
2204.636688  	-0.003794 
2206.565504  	-0.002688 
2208.494320  	-0.002318 
2210.423136  	-0.003744 
2212.351952  	-0.004461 
2214.280768  	-0.004577 
2216.209584  	-0.004084 
2218.138400  	-0.004326 
2220.067216  	-0.004055 
2221.996032  	-0.003757 
2223.924848  	-0.003052 
2225.853664  	-0.003092 
2227.782480  	-0.003623 
2229.711296  	-0.004258 
2231.640112  	-0.004369 
2233.568928  	-0.004278 
2235.497744  	-0.003821 
2237.426560  	-0.004165 
2239.355376  	-0.004226 
2241.284192  	-0.004498 
2243.213008  	-0.004496 
2245.141824  	-0.004665 
2247.070640  	-0.004648 
2248.999456  	-0.004892 
2250.928272  	-0.004992 
2252.857088  	-0.005515 
2254.785904  	-0.005363 
2256.714720  	-0.005513 
2258.643536  	-0.005847 
2260.572352  	-0.006239 
2262.501168  	-0.006081 
2264.429984  	-0.005790 
2266.358800  	-0.005810 
2268.287616  	-0.005867 
2270.216432  	-0.005500 
2272.145248  	-0.005516 
2274.074064  	-0.005594 
2276.002880  	-0.005588 
2277.931696  	-0.005421 
2279.860512  	-0.005452 
2281.789328  	-0.005114 
2283.718144  	-0.004950 
2285.646960  	-0.004787 
2287.575776  	-0.004606 
2289.504592  	-0.004692 
2291.433408  	-0.005109 
2293.362224  	-0.005198 
2295.291040  	-0.005074 
2297.219856  	-0.004801 
2299.148672  	-0.004731 
2301.077488  	-0.004585 
2303.006304  	-0.004815 
2304.935120  	-0.004774 
2306.863936  	-0.004737 
2308.792752  	-0.004876 
2310.721568  	-0.005639 
2312.650384  	-0.006655 
2314.579200  	-0.007776 
2316.508016  	-0.008896 
2318.436832  	-0.010348 
2320.365648  	-0.012197 
2322.294464  	-0.014330 
2324.223280  	-0.016749 
2326.152096  	-0.019444 
2328.080912  	-0.021495 
2330.009728  	-0.023704 
2331.938544  	-0.026218 
2333.867360  	-0.028010 
2335.796176  	-0.029448 
2337.724992  	-0.030781 
2339.653808  	-0.031078 
2341.582624  	-0.031419 
2343.511440  	-0.030245 
2345.440256  	-0.026837 
2347.369072  	-0.019981 
2349.297888  	-0.015921 
2351.226704  	-0.019587 
2353.155520  	-0.027029 
2355.084336  	-0.032808 
2357.013152  	-0.037358 
2358.941968  	-0.039959 
2360.870784  	-0.041396 
2362.799600  	-0.040576 
2364.728416  	-0.038428 
2366.657232  	-0.034460 
2368.586048  	-0.029706 
2370.514864  	-0.024862 
2372.443680  	-0.020300 
2374.372496  	-0.015857 
2376.301312  	-0.012013 
2378.230128  	-0.008781 
2380.158944  	-0.006638 
2382.087760  	-0.005556 
2384.016576  	-0.005248 
2385.945392  	-0.005242 
2387.874208  	-0.005429 
2389.803024  	-0.005668 
2391.731840  	-0.005992 
2393.660656  	-0.005950 
2395.589472  	-0.005822 
2397.518288  	-0.005613 
2399.447104  	-0.005874 
2401.375920  	-0.006181 
2403.304736  	-0.006363 
2405.233552  	-0.006140 
2407.162368  	-0.005996 
2409.091184  	-0.005988 
2411.020000  	-0.006062 
2412.948816  	-0.005902 
2414.877632  	-0.005726 
2416.806448  	-0.005659 
2418.735264  	-0.005821 
2420.664080  	-0.005971 
2422.592896  	-0.006032 
2424.521712  	-0.005901 
2426.450528  	-0.006002 
2428.379344  	-0.005905 
2430.308160  	-0.005692 
2432.236976  	-0.005459 
2434.165792  	-0.005508 
2436.094608  	-0.005725 
2438.023424  	-0.005742 
2439.952240  	-0.005405 
2441.881056  	-0.005386 
2443.809872  	-0.005396 
2445.738688  	-0.005240 
2447.667504  	-0.004961 
2449.596320  	-0.005000 
2451.525136  	-0.005103 
2453.453952  	-0.005136 
2455.382768  	-0.005161 
2457.311584  	-0.005312 
2459.240400  	-0.005554 
2461.169216  	-0.005558 
2463.098032  	-0.005490 
2465.026848  	-0.005560 
2466.955664  	-0.005681 
2468.884480  	-0.005847 
2470.813296  	-0.005739 
2472.742112  	-0.005523 
2474.670928  	-0.005475 
2476.599744  	-0.005457 
2478.528560  	-0.005271 
2480.457376  	-0.005297 
2482.386192  	-0.005347 
2484.315008  	-0.005229 
2486.243824  	-0.005092 
2488.172640  	-0.005159 
2490.101456  	-0.005009 
2492.030272  	-0.004823 
2493.959088  	-0.004880 
2495.887904  	-0.004931 
2497.816720  	-0.004795 
2499.745536  	-0.004556 
2501.674352  	-0.004410 
2503.603168  	-0.004365 
2505.531984  	-0.004410 
2507.460800  	-0.004643 
2509.389616  	-0.004680 
2511.318432  	-0.004674 
2513.247248  	-0.004680 
2515.176064  	-0.004551 
2517.104880  	-0.004409 
2519.033696  	-0.004631 
2520.962512  	-0.004587 
2522.891328  	-0.004235 
2524.820144  	-0.004281 
2526.748960  	-0.004261 
2528.677776  	-0.004089 
2530.606592  	-0.004098 
2532.535408  	-0.003913 
2534.464224  	-0.004054 
2536.393040  	-0.004216 
2538.321856  	-0.003966 
2540.250672  	-0.003714 
2542.179488  	-0.003875 
2544.108304  	-0.003977 
2546.037120  	-0.003893 
2547.965936  	-0.003781 
2549.894752  	-0.003600 
2551.823568  	-0.003580 
2553.752384  	-0.003506 
2555.681200  	-0.003056 
2557.610016  	-0.002956 
2559.538832  	-0.002963 
2561.467648  	-0.002849 
2563.396464  	-0.002738 
2565.325280  	-0.002878 
2567.254096  	-0.002875 
2569.182912  	-0.002836 
2571.111728  	-0.002835 
2573.040544  	-0.002827 
2574.969360  	-0.002764 
2576.898176  	-0.002502 
2578.826992  	-0.002417 
2580.755808  	-0.002617 
2582.684624  	-0.002533 
2584.613440  	-0.002456 
2586.542256  	-0.002386 
2588.471072  	-0.002318 
2590.399888  	-0.002262 
2592.328704  	-0.002254 
2594.257520  	-0.002411 
2596.186336  	-0.002282 
2598.115152  	-0.002046 
2600.043968  	-0.002096 
2601.972784  	-0.001969 
2603.901600  	-0.001712 
2605.830416  	-0.001475 
2607.759232  	-0.001621 
2609.688048  	-0.001651 
2611.616864  	-0.001547 
2613.545680  	-0.001367 
2615.474496  	-0.001123 
2617.403312  	-0.001086 
2619.332128  	-0.001075 
2621.260944  	-0.000983 
2623.189760  	-0.000924 
2625.118576  	-0.000798 
2627.047392  	-0.000632 
2628.976208  	-0.000553 
2630.905024  	-0.000444 
2632.833840  	-0.000365 
2634.762656  	-0.000346 
2636.691472  	-0.000338 
2638.620288  	-0.000200 
2640.549104  	-0.000052 
2642.477920  	0.000013 
2644.406736  	0.000226 
2646.335552  	0.000288 
2648.264368  	0.000407 
2650.193184  	0.000515 
2652.122000  	0.000617 
2654.050816  	0.000727 
2655.979632  	0.000849 
2657.908448  	0.000944 
2659.837264  	0.001088 
2661.766080  	0.001235 
2663.694896  	0.001376 
2665.623712  	0.001367 
2667.552528  	0.001449 
2669.481344  	0.001643 
2671.410160  	0.001756 
2673.338976  	0.001858 
2675.267792  	0.002092 
2677.196608  	0.002354 
2679.125424  	0.002380 
2681.054240  	0.002412 
2682.983056  	0.002589 
2684.911872  	0.002639 
2686.840688  	0.002706 
2688.769504  	0.002762 
2690.698320  	0.002860 
2692.627136  	0.002935 
2694.555952  	0.003023 
2696.484768  	0.003136 
2698.413584  	0.003181 
2700.342400  	0.003116 
2702.271216  	0.003253 
2704.200032  	0.003519 
2706.128848  	0.003609 
2708.057664  	0.003532 
2709.986480  	0.003627 
2711.915296  	0.003845 
2713.844112  	0.004050 
2715.772928  	0.004016 
2717.701744  	0.004122 
2719.630560  	0.004417 
2721.559376  	0.004501 
2723.488192  	0.004647 
2725.417008  	0.004923 
2727.345824  	0.005075 
2729.274640  	0.005143 
2731.203456  	0.005277 
2733.132272  	0.005456 
2735.061088  	0.005531 
2736.989904  	0.005694 
2738.918720  	0.005780 
2740.847536  	0.005879 
2742.776352  	0.005873 
2744.705168  	0.005955 
2746.633984  	0.006033 
2748.562800  	0.006079 
2750.491616  	0.006202 
2752.420432  	0.006371 
2754.349248  	0.006287 
2756.278064  	0.006240 
2758.206880  	0.006195 
2760.135696  	0.006129 
2762.064512  	0.006095 
2763.993328  	0.006127 
2765.922144  	0.006149 
2767.850960  	0.006186 
2769.779776  	0.006237 
2771.708592  	0.006267 
2773.637408  	0.006169 
2775.566224  	0.006160 
2777.495040  	0.006178 
2779.423856  	0.006267 
2781.352672  	0.006340 
2783.281488  	0.006328 
2785.210304  	0.006309 
2787.139120  	0.006288 
2789.067936  	0.006390 
2790.996752  	0.006537 
2792.925568  	0.006446 
2794.854384  	0.006345 
2796.783200  	0.006305 
2798.712016  	0.006222 
2800.640832  	0.006229 
2802.569648  	0.006433 
2804.498464  	0.006518 
2806.427280  	0.006468 
2808.356096  	0.006412 
2810.284912  	0.006399 
2812.213728  	0.006415 
2814.142544  	0.006391 
2816.071360  	0.006300 
2818.000176  	0.006171 
2819.928992  	0.006149 
2821.857808  	0.006032 
2823.786624  	0.005828 
2825.715440  	0.005727 
2827.644256  	0.005629 
2829.573072  	0.005521 
2831.501888  	0.005190 
2833.430704  	0.004812 
2835.359520  	0.004515 
2837.288336  	0.004166 
2839.217152  	0.003956 
2841.145968  	0.003717 
2843.074784  	0.003338 
2845.003600  	0.002770 
2846.932416  	0.002240 
2848.861232  	0.001941 
2850.790048  	0.001673 
2852.718864  	0.001297 
2854.647680  	0.000849 
2856.576496  	0.000177 
2858.505312  	-0.000503 
2860.434128  	-0.001040 
2862.362944  	-0.001811 
2864.291760  	-0.002710 
2866.220576  	-0.003333 
2868.149392  	-0.003639 
2870.078208  	-0.003859 
2872.007024  	-0.003926 
2873.935840  	-0.003865 
2875.864656  	-0.003891 
2877.793472  	-0.004095 
2879.722288  	-0.004379 
2881.651104  	-0.004784 
2883.579920  	-0.005051 
2885.508736  	-0.004948 
2887.437552  	-0.004689 
2889.366368  	-0.004581 
2891.295184  	-0.004833 
2893.224000  	-0.004965 
2895.152816  	-0.004897 
2897.081632  	-0.005211 
2899.010448  	-0.006931 
2900.939264  	-0.008406 
2902.868080  	-0.007192 
2904.796896  	-0.005919 
2906.725712  	-0.005267 
2908.654528  	-0.004594 
2910.583344  	-0.004285 
2912.512160  	-0.003717 
2914.440976  	-0.002485 
2916.369792  	-0.001686 
2918.298608  	-0.001275 
2920.227424  	-0.000789 
2922.156240  	-0.000057 
2924.085056  	0.000834 
2926.013872  	0.001750 
2927.942688  	0.002736 
2929.871504  	0.003743 
2931.800320  	0.004581 
2933.729136  	0.005300 
2935.657952  	0.005884 
2937.586768  	0.006455 
2939.515584  	0.007041 
2941.444400  	0.007336 
2943.373216  	0.007427 
2945.302032  	0.007641 
2947.230848  	0.007715 
2949.159664  	0.007461 
2951.088480  	0.007088 
2953.017296  	0.006608 
2954.946112  	0.005823 
2956.874928  	0.005034 
2958.803744  	0.004314 
2960.732560  	0.003752 
2962.661376  	0.003187 
2964.590192  	0.002335 
2966.519008  	0.001135 
2968.447824  	0.000127 
2970.376640  	-0.000791 
2972.305456  	-0.001393 
2974.234272  	-0.001129 
2976.163088  	-0.000705 
2978.091904  	-0.000743 
2980.020720  	-0.000811 
2981.949536  	-0.000546 
2983.878352  	-0.000635 
2985.807168  	-0.001640 
2987.735984  	-0.002639 
2989.664800  	-0.002176 
2991.593616  	0.000894 
2993.522432  	0.002908 
2995.451248  	0.003516 
2997.380064  	0.004366 
2999.308880  	0.005551 
3001.237696  	0.006937 
3003.166512  	0.008373 
3005.095328  	0.009703 
3007.024144  	0.011122 
3008.952960  	0.012594 
3010.881776  	0.014157 
3012.810592  	0.015576 
3014.739408  	0.016866 
3016.668224  	0.018090 
3018.597040  	0.019357 
3020.525856  	0.020575 
3022.454672  	0.021656 
3024.383488  	0.022810 
3026.312304  	0.023879 
3028.241120  	0.024876 
3030.169936  	0.025794 
3032.098752  	0.026560 
3034.027568  	0.027363 
3035.956384  	0.028228 
3037.885200  	0.029093 
3039.814016  	0.029731 
3041.742832  	0.030502 
3043.671648  	0.031121 
3045.600464  	0.031610 
3047.529280  	0.032137 
3049.458096  	0.032644 
3051.386912  	0.033378 
3053.315728  	0.034020 
3055.244544  	0.034635 
3057.173360  	0.035288 
3059.102176  	0.035705 
3061.030992  	0.036239 
3062.959808  	0.036908 
3064.888624  	0.037564 
3066.817440  	0.038313 
3068.746256  	0.039285 
3070.675072  	0.040128 
3072.603888  	0.040800 
3074.532704  	0.041470 
3076.461520  	0.042214 
3078.390336  	0.043014 
3080.319152  	0.043718 
3082.247968  	0.044454 
3084.176784  	0.045252 
3086.105600  	0.046018 
3088.034416  	0.046724 
3089.963232  	0.047456 
3091.892048  	0.048172 
3093.820864  	0.048919 
3095.749680  	0.049766 
3097.678496  	0.050695 
3099.607312  	0.051437 
3101.536128  	0.052192 
3103.464944  	0.053129 
3105.393760  	0.053831 
3107.322576  	0.054496 
3109.251392  	0.055434 
3111.180208  	0.056266 
3113.109024  	0.056829 
3115.037840  	0.057314 
3116.966656  	0.057999 
3118.895472  	0.058774 
3120.824288  	0.059446 
3122.753104  	0.060050 
3124.681920  	0.060606 
3126.610736  	0.061197 
3128.539552  	0.061890 
3130.468368  	0.062609 
3132.397184  	0.063239 
3134.326000  	0.063938 
3136.254816  	0.064493 
3138.183632  	0.064951 
3140.112448  	0.065640 
3142.041264  	0.066389 
3143.970080  	0.066804 
3145.898896  	0.067327 
3147.827712  	0.068144 
3149.756528  	0.068785 
3151.685344  	0.069221 
3153.614160  	0.069920 
3155.542976  	0.070701 
3157.471792  	0.071421 
3159.400608  	0.071995 
3161.329424  	0.072689 
3163.258240  	0.073269 
3165.187056  	0.073749 
3167.115872  	0.074224 
3169.044688  	0.074755 
3170.973504  	0.075390 
3172.902320  	0.075822 
3174.831136  	0.076223 
3176.759952  	0.076729 
3178.688768  	0.077081 
3180.617584  	0.077359 
3182.546400  	0.077777 
3184.475216  	0.078106 
3186.404032  	0.078219 
3188.332848  	0.078546 
3190.261664  	0.078877 
3192.190480  	0.079277 
3194.119296  	0.079478 
3196.048112  	0.079448 
3197.976928  	0.079293 
3199.905744  	0.079263 
3201.834560  	0.079209 
3203.763376  	0.079292 
3205.692192  	0.079395 
3207.621008  	0.079249 
3209.549824  	0.079223 
3211.478640  	0.079277 
3213.407456  	0.079268 
3215.336272  	0.079133 
3217.265088  	0.079007 
3219.193904  	0.078841 
3221.122720  	0.078534 
3223.051536  	0.078264 
3224.980352  	0.078221 
3226.909168  	0.078138 
3228.837984  	0.077949 
3230.766800  	0.077941 
3232.695616  	0.077888 
3234.624432  	0.077622 
3236.553248  	0.077566 
3238.482064  	0.077707 
3240.410880  	0.077674 
3242.339696  	0.077628 
3244.268512  	0.077493 
3246.197328  	0.077592 
3248.126144  	0.077921 
3250.054960  	0.078180 
3251.983776  	0.078356 
3253.912592  	0.078413 
3255.841408  	0.078699 
3257.770224  	0.079228 
3259.699040  	0.079505 
3261.627856  	0.079720 
3263.556672  	0.079806 
3265.485488  	0.079808 
3267.414304  	0.080110 
3269.343120  	0.080532 
3271.271936  	0.080864 
3273.200752  	0.080892 
3275.129568  	0.080939 
3277.058384  	0.081322 
3278.987200  	0.081606 
3280.916016  	0.081767 
3282.844832  	0.082016 
3284.773648  	0.082296 
3286.702464  	0.082469 
3288.631280  	0.082636 
3290.560096  	0.083054 
3292.488912  	0.083464 
3294.417728  	0.083740 
3296.346544  	0.084172 
3298.275360  	0.084491 
3300.204176  	0.084793 
3302.132992  	0.085167 
3304.061808  	0.085449 
3305.990624  	0.085777 
3307.919440  	0.086209 
3309.848256  	0.086532 
3311.777072  	0.086852 
3313.705888  	0.087183 
3315.634704  	0.087719 
3317.563520  	0.088238 
3319.492336  	0.088400 
3321.421152  	0.088497 
3323.349968  	0.088706 
3325.278784  	0.088964 
3327.207600  	0.089262 
3329.136416  	0.089351 
3331.065232  	0.089561 
3332.994048  	0.089829 
3334.922864  	0.090062 
3336.851680  	0.090059 
3338.780496  	0.089784 
3340.709312  	0.089613 
3342.638128  	0.089585 
3344.566944  	0.089250 
3346.495760  	0.089051 
3348.424576  	0.088858 
3350.353392  	0.088430 
3352.282208  	0.088188 
3354.211024  	0.088074 
3356.139840  	0.087831 
3358.068656  	0.087444 
3359.997472  	0.087078 
3361.926288  	0.086615 
3363.855104  	0.086212 
3365.783920  	0.085960 
3367.712736  	0.085766 
3369.641552  	0.085535 
3371.570368  	0.085136 
3373.499184  	0.084547 
3375.428000  	0.083949 
3377.356816  	0.083628 
3379.285632  	0.083569 
3381.214448  	0.083178 
3383.143264  	0.082617 
3385.072080  	0.082216 
3387.000896  	0.081992 
3388.929712  	0.081673 
3390.858528  	0.081290 
3392.787344  	0.080978 
3394.716160  	0.080585 
3396.644976  	0.080116 
3398.573792  	0.079677 
3400.502608  	0.079205 
3402.431424  	0.078642 
3404.360240  	0.078014 
3406.289056  	0.077344 
3408.217872  	0.076997 
3410.146688  	0.076529 
3412.075504  	0.076062 
3414.004320  	0.075715 
3415.933136  	0.075340 
3417.861952  	0.074748 
3419.790768  	0.074283 
3421.719584  	0.073746 
3423.648400  	0.073316 
3425.577216  	0.072775 
3427.506032  	0.072165 
3429.434848  	0.071592 
3431.363664  	0.071157 
3433.292480  	0.070607 
3435.221296  	0.069906 
3437.150112  	0.069539 
3439.078928  	0.069060 
3441.007744  	0.068323 
3442.936560  	0.067880 
3444.865376  	0.067662 
3446.794192  	0.066815 
3448.723008  	0.065897 
3450.651824  	0.065306 
3452.580640  	0.064768 
3454.509456  	0.064284 
3456.438272  	0.063645 
3458.367088  	0.062949 
3460.295904  	0.062258 
3462.224720  	0.061372 
3464.153536  	0.060462 
3466.082352  	0.059593 
3468.011168  	0.058745 
3469.939984  	0.058151 
3471.868800  	0.057550 
3473.797616  	0.056756 
3475.726432  	0.055984 
3477.655248  	0.055183 
3479.584064  	0.054656 
3481.512880  	0.053936 
3483.441696  	0.052802 
3485.370512  	0.052178 
3487.299328  	0.051282 
3489.228144  	0.050408 
3491.156960  	0.049661 
3493.085776  	0.048982 
3495.014592  	0.048183 
3496.943408  	0.047474 
3498.872224  	0.047040 
3500.801040  	0.047001 
3502.729856  	0.046183 
3504.658672  	0.044823 
3506.587488  	0.044451 
3508.516304  	0.044123 
3510.445120  	0.043141 
3512.373936  	0.042102 
3514.302752  	0.041409 
3516.231568  	0.041067 
3518.160384  	0.040421 
3520.089200  	0.039866 
3522.018016  	0.039795 
3523.946832  	0.039789 
3525.875648  	0.038976 
3527.804464  	0.037418 
3529.733280  	0.036301 
3531.662096  	0.035694 
3533.590912  	0.035185 
3535.519728  	0.035057 
3537.448544  	0.034552 
3539.377360  	0.033505 
3541.306176  	0.033002 
3543.234992  	0.033301 
3545.163808  	0.033654 
3547.092624  	0.032528 
3549.021440  	0.030881 
3550.950256  	0.030018 
3552.879072  	0.029093 
3554.807888  	0.028505 
3556.736704  	0.028000 
3558.665520  	0.027773 
3560.594336  	0.027412 
3562.523152  	0.026830 
3564.451968  	0.027330 
3566.380784  	0.027564 
3568.309600  	0.025050 
3570.238416  	0.023571 
3572.167232  	0.023084 
3574.096048  	0.022242 
3576.024864  	0.021264 
3577.953680  	0.020934 
3579.882496  	0.020311 
3581.811312  	0.019527 
3583.740128  	0.019369 
3585.668944  	0.019687 
3587.597760  	0.018083 
3589.526576  	0.016088 
3591.455392  	0.015726 
3593.384208  	0.015200 
3595.313024  	0.014127 
3597.241840  	0.012956 
3599.170656  	0.011550 
3601.099472  	0.010258 
3603.028288  	0.010222 
3604.957104  	0.010524 
3606.885920  	0.009957 
3608.814736  	0.008500 
3610.743552  	0.008166 
3612.672368  	0.007145 
3614.601184  	0.005787 
3616.530000  	0.005520 
3618.458816  	0.003154 
3620.387632  	0.001121 
3622.316448  	0.001704 
3624.245264  	0.001914 
3626.174080  	0.001739 
3628.102896  	-0.001352 
3630.031712  	-0.005219 
3631.960528  	-0.003093 
3633.889344  	-0.003426 
3635.818160  	-0.004134 
3637.746976  	-0.004924 
3639.675792  	-0.005116 
3641.604608  	-0.005120 
3643.533424  	-0.005494 
3645.462240  	-0.006136 
3647.391056  	-0.009541 
3649.319872  	-0.014389 
3651.248688  	-0.015370 
3653.177504  	-0.012265 
3655.106320  	-0.013000 
3657.035136  	-0.015899 
3658.963952  	-0.015166 
3660.892768  	-0.014911 
3662.821584  	-0.015020 
3664.750400  	-0.014982 
3666.679216  	-0.015092 
3668.608032  	-0.017463 
3670.536848  	-0.021239 
3672.465664  	-0.018683 
3674.394480  	-0.020087 
3676.323296  	-0.025180 
3678.252112  	-0.020582 
3680.180928  	-0.018525 
3682.109744  	-0.017850 
3684.038560  	-0.018034 
3685.967376  	-0.017885 
3687.896192  	-0.021052 
3689.825008  	-0.024660 
3691.753824  	-0.023010 
3693.682640  	-0.019872 
3695.611456  	-0.018534 
3697.540272  	-0.017811 
3699.469088  	-0.017062 
3701.397904  	-0.018352 
3703.326720  	-0.018402 
3705.255536  	-0.016515 
3707.184352  	-0.016023 
3709.113168  	-0.017778 
3711.041984  	-0.020435 
3712.970800  	-0.019246 
3714.899616  	-0.015605 
3716.828432  	-0.014799 
3718.757248  	-0.015447 
3720.686064  	-0.016075 
3722.614880  	-0.016632 
3724.543696  	-0.015787 
3726.472512  	-0.016178 
3728.401328  	-0.016130 
3730.330144  	-0.016576 
3732.258960  	-0.018617 
3734.187776  	-0.017690 
3736.116592  	-0.018642 
3738.045408  	-0.018147 
3739.974224  	-0.015846 
3741.903040  	-0.014245 
3743.831856  	-0.017031 
3745.760672  	-0.019187 
3747.689488  	-0.016886 
3749.618304  	-0.020169 
3751.547120  	-0.022517 
3753.475936  	-0.019494 
3755.404752  	-0.016152 
3757.333568  	-0.015681 
3759.262384  	-0.016737 
3761.191200  	-0.016547 
3763.120016  	-0.014270 
3765.048832  	-0.015064 
3766.977648  	-0.015294 
3768.906464  	-0.016307 
3770.835280  	-0.017236 
3772.764096  	-0.015262 
3774.692912  	-0.014446 
3776.621728  	-0.014250 
3778.550544  	-0.015769 
3780.479360  	-0.016888 
3782.408176  	-0.015108 
3784.336992  	-0.015430 
3786.265808  	-0.015371 
3788.194624  	-0.014788 
3790.123440  	-0.014689 
3792.052256  	-0.014627 
3793.981072  	-0.014291 
3795.909888  	-0.015816 
3797.838704  	-0.015879 
3799.767520  	-0.016382 
3801.696336  	-0.021235 
3803.625152  	-0.018434 
3805.553968  	-0.016920 
3807.482784  	-0.019162 
3809.411600  	-0.016316 
3811.340416  	-0.014427 
3813.269232  	-0.014044 
3815.198048  	-0.017372 
3817.126864  	-0.018979 
3819.055680  	-0.016856 
3820.984496  	-0.020785 
3822.913312  	-0.019186 
3824.842128  	-0.015857 
3826.770944  	-0.016396 
3828.699760  	-0.015503 
3830.628576  	-0.015803 
3832.557392  	-0.016855 
3834.486208  	-0.016519 
3836.415024  	-0.017709 
3838.343840  	-0.019640 
3840.272656  	-0.018647 
3842.201472  	-0.016999 
3844.130288  	-0.016721 
3846.059104  	-0.015344 
3847.987920  	-0.014131 
3849.916736  	-0.014059 
3851.845552  	-0.017005 
3853.774368  	-0.023355 
3855.703184  	-0.019479 
3857.632000  	-0.015818 
3859.560816  	-0.014329 
3861.489632  	-0.014568 
3863.418448  	-0.015802 
3865.347264  	-0.016527 
3867.276080  	-0.014486 
3869.204896  	-0.015887 
3871.133712  	-0.016470 
3873.062528  	-0.015270 
3874.991344  	-0.016136 
3876.920160  	-0.014126 
3878.848976  	-0.013502 
3880.777792  	-0.014645 
3882.706608  	-0.013583 
3884.635424  	-0.013883 
3886.564240  	-0.015650 
3888.493056  	-0.014218 
3890.421872  	-0.014933 
3892.350688  	-0.016188 
3894.279504  	-0.014646 
3896.208320  	-0.013380 
3898.137136  	-0.013272 
3900.065952  	-0.013758 
3901.994768  	-0.013663 
3903.923584  	-0.014912 
3905.852400  	-0.015510 
3907.781216  	-0.014926 
3909.710032  	-0.014542 
3911.638848  	-0.014327 
3913.567664  	-0.013930 
3915.496480  	-0.013363 
3917.425296  	-0.013514 
3919.354112  	-0.014026 
3921.282928  	-0.013904 
3923.211744  	-0.013413 
3925.140560  	-0.013748 
3927.069376  	-0.013873 
3928.998192  	-0.013713 
3930.927008  	-0.013199 
3932.855824  	-0.013198 
3934.784640  	-0.013746 
3936.713456  	-0.013991 
3938.642272  	-0.013754 
3940.571088  	-0.013247 
3942.499904  	-0.013137 
3944.428720  	-0.013360 
3946.357536  	-0.012971 
3948.286352  	-0.012827 
3950.215168  	-0.013665 
3952.143984  	-0.014412 
3954.072800  	-0.014423 
3956.001616  	-0.014088 
3957.930432  	-0.014046 
3959.859248  	-0.013934 
3961.788064  	-0.013775 
3963.716880  	-0.014198 
3965.645696  	-0.014593 
3967.574512  	-0.014390 
3969.503328  	-0.013971 
3971.432144  	-0.013986 
3973.360960  	-0.013986 
3975.289776  	-0.013864 
3977.218592  	-0.013891 
3979.147408  	-0.014070 
3981.076224  	-0.014162 
3983.005040  	-0.014144 
3984.933856  	-0.014075 
3986.862672  	-0.014157 
3988.791488  	-0.013855 
3990.720304  	-0.013711 
3992.649120  	-0.014081 
3994.577936  	-0.014240 
3996.506752  	-0.014212 
3998.435568  	-0.014208 
4000.364384  	-0.014149 