##TITLE=No Description
##DATA TYPE=INFRARED SPECTRUM
##XUNITS=1/CM
##YUNITS=Abs
399.264912  	0.634286 
401.193728  	0.626370 
403.122544  	0.632564 
405.051360  	0.620893 
406.980176  	0.618721 
408.908992  	0.608977 
410.837808  	0.622171 
412.766624  	0.613309 
414.695440  	0.606871 
416.624256  	0.602764 
418.553072  	0.609192 
420.481888  	0.603641 
422.410704  	0.608559 
424.339520  	0.603121 
426.268336  	0.601796 
428.197152  	0.595916 
430.125968  	0.592648 
432.054784  	0.583746 
433.983600  	0.586881 
435.912416  	0.585840 
437.841232  	0.589111 
439.770048  	0.581793 
441.698864  	0.576062 
443.627680  	0.564939 
445.556496  	0.561848 
447.485312  	0.564712 
449.414128  	0.569944 
451.342944  	0.567721 
453.271760  	0.565462 
455.200576  	0.559973 
457.129392  	0.566235 
459.058208  	0.568023 
460.987024  	0.568159 
462.915840  	0.561451 
464.844656  	0.557673 
466.773472  	0.560723 
468.702288  	0.561331 
470.631104  	0.554310 
472.559920  	0.562299 
474.488736  	0.559622 
476.417552  	0.562215 
478.346368  	0.555776 
480.275184  	0.550995 
482.204000  	0.550272 
484.132816  	0.552982 
486.061632  	0.548698 
487.990448  	0.547745 
489.919264  	0.548260 
491.848080  	0.552261 
493.776896  	0.547410 
495.705712  	0.541921 
497.634528  	0.538893 
499.563344  	0.542684 
501.492160  	0.544202 
503.420976  	0.542634 
505.349792  	0.537056 
507.278608  	0.539081 
509.207424  	0.538352 
511.136240  	0.537065 
513.065056  	0.538200 
514.993872  	0.543020 
516.922688  	0.541324 
518.851504  	0.542486 
520.780320  	0.540514 
522.709136  	0.539337 
524.637952  	0.538159 
526.566768  	0.538015 
528.495584  	0.535003 
530.424400  	0.535536 
532.353216  	0.530963 
534.282032  	0.526178 
536.210848  	0.520237 
538.139664  	0.513698 
540.068480  	0.506398 
541.997296  	0.503062 
543.926112  	0.499962 
545.854928  	0.497720 
547.783744  	0.494999 
549.712560  	0.491332 
551.641376  	0.486176 
553.570192  	0.482852 
555.499008  	0.479111 
557.427824  	0.476612 
559.356640  	0.472314 
561.285456  	0.468573 
563.214272  	0.463870 
565.143088  	0.460699 
567.071904  	0.458562 
569.000720  	0.456082 
570.929536  	0.452032 
572.858352  	0.448483 
574.787168  	0.445480 
576.715984  	0.444863 
578.644800  	0.441093 
580.573616  	0.435713 
582.502432  	0.430589 
584.431248  	0.428507 
586.360064  	0.425634 
588.288880  	0.423931 
590.217696  	0.421990 
592.146512  	0.419766 
594.075328  	0.415799 
596.004144  	0.413160 
597.932960  	0.411138 
599.861776  	0.410061 
601.790592  	0.407690 
603.719408  	0.406213 
605.648224  	0.404734 
607.577040  	0.403212 
609.505856  	0.401226 
611.434672  	0.399784 
613.363488  	0.396873 
615.292304  	0.395473 
617.221120  	0.393719 
619.149936  	0.391894 
621.078752  	0.389888 
623.007568  	0.389378 
624.936384  	0.387667 
626.865200  	0.385858 
628.794016  	0.383686 
630.722832  	0.383106 
632.651648  	0.383204 
634.580464  	0.383588 
636.509280  	0.382816 
638.438096  	0.381739 
640.366912  	0.380375 
642.295728  	0.378092 
644.224544  	0.374745 
646.153360  	0.371509 
648.082176  	0.367630 
650.010992  	0.363902 
651.939808  	0.359395 
653.868624  	0.355353 
655.797440  	0.351168 
657.726256  	0.347627 
659.655072  	0.344267 
661.583888  	0.340426 
663.512704  	0.336142 
665.441520  	0.333223 
667.370336  	0.325852 
669.299152  	0.318965 
671.227968  	0.319423 
673.156784  	0.317132 
675.085600  	0.314207 
677.014416  	0.311520 
678.943232  	0.309297 
680.872048  	0.308059 
682.800864  	0.306335 
684.729680  	0.304189 
686.658496  	0.302625 
688.587312  	0.301770 
690.516128  	0.300204 
692.444944  	0.298426 
694.373760  	0.297352 
696.302576  	0.295698 
698.231392  	0.293297 
700.160208  	0.290729 
702.089024  	0.288193 
704.017840  	0.285628 
705.946656  	0.283069 
707.875472  	0.281067 
709.804288  	0.278959 
711.733104  	0.276773 
713.661920  	0.274339 
715.590736  	0.272678 
717.519552  	0.271857 
719.448368  	0.271664 
721.377184  	0.271458 
723.306000  	0.271472 
725.234816  	0.271047 
727.163632  	0.270636 
729.092448  	0.268706 
731.021264  	0.265445 
732.950080  	0.262178 
734.878896  	0.259270 
736.807712  	0.256450 
738.736528  	0.253845 
740.665344  	0.251595 
742.594160  	0.249796 
744.522976  	0.247991 
746.451792  	0.245950 
748.380608  	0.244272 
750.309424  	0.243131 
752.238240  	0.241904 
754.167056  	0.240605 
756.095872  	0.238847 
758.024688  	0.237820 
759.953504  	0.237309 
761.882320  	0.237267 
763.811136  	0.237347 
765.739952  	0.236446 
767.668768  	0.234201 
769.597584  	0.231851 
771.526400  	0.230411 
773.455216  	0.230979 
775.384032  	0.233449 
777.312848  	0.237230 
779.241664  	0.240385 
781.170480  	0.240861 
783.099296  	0.237791 
785.028112  	0.232584 
786.956928  	0.226647 
788.885744  	0.221853 
790.814560  	0.218124 
792.743376  	0.215226 
794.672192  	0.213421 
796.601008  	0.212111 
798.529824  	0.209554 
800.458640  	0.205473 
802.387456  	0.201931 
804.316272  	0.199546 
806.245088  	0.197878 
808.173904  	0.196823 
810.102720  	0.196015 
812.031536  	0.195319 
813.960352  	0.195009 
815.889168  	0.194743 
817.817984  	0.194371 
819.746800  	0.193924 
821.675616  	0.193369 
823.604432  	0.192780 
825.533248  	0.192174 
827.462064  	0.191210 
829.390880  	0.189644 
831.319696  	0.187616 
833.248512  	0.185630 
835.177328  	0.183463 
837.106144  	0.181128 
839.034960  	0.178043 
840.963776  	0.174688 
842.892592  	0.171122 
844.821408  	0.167825 
846.750224  	0.164839 
848.679040  	0.161976 
850.607856  	0.159645 
852.536672  	0.157781 
854.465488  	0.156042 
856.394304  	0.154499 
858.323120  	0.152673 
860.251936  	0.150410 
862.180752  	0.148019 
864.109568  	0.145343 
866.038384  	0.142665 
867.967200  	0.140403 
869.896016  	0.138474 
871.824832  	0.137401 
873.753648  	0.136800 
875.682464  	0.136578 
877.611280  	0.136393 
879.540096  	0.136511 
881.468912  	0.137873 
883.397728  	0.138770 
885.326544  	0.139201 
887.255360  	0.139146 
889.184176  	0.138072 
891.112992  	0.136086 
893.041808  	0.134353 
894.970624  	0.132160 
896.899440  	0.129158 
898.828256  	0.125566 
900.757072  	0.122078 
902.685888  	0.119476 
904.614704  	0.117914 
906.543520  	0.117644 
908.472336  	0.118574 
910.401152  	0.120531 
912.329968  	0.122801 
914.258784  	0.125409 
916.187600  	0.128029 
918.116416  	0.130180 
920.045232  	0.131616 
921.974048  	0.132345 
923.902864  	0.132384 
925.831680  	0.132156 
927.760496  	0.131885 
929.689312  	0.131807 
931.618128  	0.132205 
933.546944  	0.132683 
935.475760  	0.132955 
937.404576  	0.132958 
939.333392  	0.132644 
941.262208  	0.132600 
943.191024  	0.133827 
945.119840  	0.136898 
947.048656  	0.141512 
948.977472  	0.147554 
950.906288  	0.154847 
952.835104  	0.163141 
954.763920  	0.172058 
956.692736  	0.180514 
958.621552  	0.187900 
960.550368  	0.193096 
962.479184  	0.195612 
964.408000  	0.195215 
966.336816  	0.191382 
968.265632  	0.184287 
970.194448  	0.174863 
972.123264  	0.163715 
974.052080  	0.151914 
975.980896  	0.140373 
977.909712  	0.129427 
979.838528  	0.119428 
981.767344  	0.111062 
983.696160  	0.104839 
985.624976  	0.100678 
987.553792  	0.098756 
989.482608  	0.099158 
991.411424  	0.101519 
993.340240  	0.105405 
995.269056  	0.110662 
997.197872  	0.116413 
999.126688  	0.122250 
1001.055504  	0.128031 
1002.984320  	0.133844 
1004.913136  	0.139477 
1006.841952  	0.144879 
1008.770768  	0.149351 
1010.699584  	0.152597 
1012.628400  	0.154451 
1014.557216  	0.155006 
1016.486032  	0.154939 
1018.414848  	0.154632 
1020.343664  	0.154213 
1022.272480  	0.153583 
1024.201296  	0.152408 
1026.130112  	0.149109 
1028.058928  	0.147600 
1029.987744  	0.150185 
1031.916560  	0.151723 
1033.845376  	0.152389 
1035.774192  	0.152761 
1037.703008  	0.154439 
1039.631824  	0.159358 
1041.560640  	0.166167 
1043.489456  	0.175427 
1045.418272  	0.187164 
1047.347088  	0.200974 
1049.275904  	0.214908 
1051.204720  	0.226978 
1053.133536  	0.235974 
1055.062352  	0.241371 
1056.991168  	0.243106 
1058.919984  	0.245826 
1060.848800  	0.248080 
1062.777616  	0.246356 
1064.706432  	0.240494 
1066.635248  	0.235701 
1068.564064  	0.234515 
1070.492880  	0.230642 
1072.421696  	0.224036 
1074.350512  	0.218881 
1076.279328  	0.216447 
1078.208144  	0.217575 
1080.136960  	0.221363 
1082.065776  	0.226361 
1083.994592  	0.230148 
1085.923408  	0.231706 
1087.852224  	0.230757 
1089.781040  	0.228128 
1091.709856  	0.224276 
1093.638672  	0.217729 
1095.567488  	0.208488 
1097.496304  	0.197996 
1099.425120  	0.186874 
1101.353936  	0.175501 
1103.282752  	0.164091 
1105.211568  	0.152795 
1107.140384  	0.141967 
1109.069200  	0.131948 
1110.998016  	0.122716 
1112.926832  	0.114001 
1114.855648  	0.106049 
1116.784464  	0.098784 
1118.713280  	0.092035 
1120.642096  	0.085551 
1122.570912  	0.079355 
1124.499728  	0.073490 
1126.428544  	0.068290 
1128.357360  	0.063527 
1130.286176  	0.059626 
1132.214992  	0.056162 
1134.143808  	0.053409 
1136.072624  	0.051071 
1138.001440  	0.049000 
1139.930256  	0.046588 
1141.859072  	0.044212 
1143.787888  	0.041924 
1145.716704  	0.039973 
1147.645520  	0.037869 
1149.574336  	0.036140 
1151.503152  	0.034824 
1153.431968  	0.034120 
1155.360784  	0.033973 
1157.289600  	0.034587 
1159.218416  	0.035880 
1161.147232  	0.037531 
1163.076048  	0.039192 
1165.004864  	0.041395 
1166.933680  	0.043415 
1168.862496  	0.045448 
1170.791312  	0.047488 
1172.720128  	0.050157 
1174.648944  	0.052684 
1176.577760  	0.055118 
1178.506576  	0.057121 
1180.435392  	0.059532 
1182.364208  	0.061922 
1184.293024  	0.064677 
1186.221840  	0.067528 
1188.150656  	0.070793 
1190.079472  	0.074531 
1192.008288  	0.079196 
1193.937104  	0.084850 
1195.865920  	0.091530 
1197.794736  	0.098721 
1199.723552  	0.106631 
1201.652368  	0.114690 
1203.581184  	0.122944 
1205.510000  	0.131080 
1207.438816  	0.138906 
1209.367632  	0.146443 
1211.296448  	0.153352 
1213.225264  	0.158960 
1215.154080  	0.163201 
1217.082896  	0.166628 
1219.011712  	0.169176 
1220.940528  	0.170965 
1222.869344  	0.172112 
1224.798160  	0.172601 
1226.726976  	0.172457 
1228.655792  	0.172114 
1230.584608  	0.171070 
1232.513424  	0.169241 
1234.442240  	0.167036 
1236.371056  	0.164254 
1238.299872  	0.160201 
1240.228688  	0.153549 
1242.157504  	0.146999 
1244.086320  	0.141770 
1246.015136  	0.135029 
1247.943952  	0.127290 
1249.872768  	0.119479 
1251.801584  	0.112862 
1253.730400  	0.106247 
1255.659216  	0.099625 
1257.588032  	0.093374 
1259.516848  	0.087433 
1261.445664  	0.082026 
1263.374480  	0.076965 
1265.303296  	0.072725 
1267.232112  	0.069298 
1269.160928  	0.066750 
1271.089744  	0.064774 
1273.018560  	0.063635 
1274.947376  	0.063246 
1276.876192  	0.063264 
1278.805008  	0.063049 
1280.733824  	0.061864 
1282.662640  	0.059811 
1284.591456  	0.057617 
1286.520272  	0.055689 
1288.449088  	0.054247 
1290.377904  	0.053076 
1292.306720  	0.052730 
1294.235536  	0.052521 
1296.164352  	0.051723 
1298.093168  	0.049554 
1300.021984  	0.046815 
1301.950800  	0.043887 
1303.879616  	0.041174 
1305.808432  	0.038322 
1307.737248  	0.035680 
1309.666064  	0.033119 
1311.594880  	0.031519 
1313.523696  	0.030212 
1315.452512  	0.029205 
1317.381328  	0.028697 
1319.310144  	0.028576 
1321.238960  	0.028516 
1323.167776  	0.028956 
1325.096592  	0.029568 
1327.025408  	0.030078 
1328.954224  	0.030086 
1330.883040  	0.029802 
1332.811856  	0.029032 
1334.740672  	0.028690 
1336.669488  	0.029087 
1338.598304  	0.029735 
1340.527120  	0.028005 
1342.455936  	0.025650 
1344.384752  	0.024960 
1346.313568  	0.025202 
1348.242384  	0.025837 
1350.171200  	0.027082 
1352.100016  	0.028635 
1354.028832  	0.030579 
1355.957648  	0.032310 
1357.886464  	0.034344 
1359.815280  	0.036846 
1361.744096  	0.039468 
1363.672912  	0.040219 
1365.601728  	0.040634 
1367.530544  	0.041813 
1369.459360  	0.042059 
1371.388176  	0.041807 
1373.316992  	0.040753 
1375.245808  	0.037215 
1377.174624  	0.034588 
1379.103440  	0.031780 
1381.032256  	0.028841 
1382.961072  	0.026615 
1384.889888  	0.026161 
1386.818704  	0.025915 
1388.747520  	0.023930 
1390.676336  	0.021652 
1392.605152  	0.018740 
1394.533968  	0.016997 
1396.462784  	0.019967 
1398.391600  	0.021152 
1400.320416  	0.019776 
1402.249232  	0.020097 
1404.178048  	0.021025 
1406.106864  	0.021402 
1408.035680  	0.023147 
1409.964496  	0.025797 
1411.893312  	0.028617 
1413.822128  	0.031532 
1415.750944  	0.035724 
1417.679760  	0.038622 
1419.608576  	0.037061 
1421.537392  	0.037012 
1423.466208  	0.037594 
1425.395024  	0.035890 
1427.323840  	0.034854 
1429.252656  	0.032582 
1431.181472  	0.030956 
1433.110288  	0.031144 
1435.039104  	0.032061 
1436.967920  	0.030568 
1438.896736  	0.030653 
1440.825552  	0.031857 
1442.754368  	0.032375 
1444.683184  	0.032548 
1446.612000  	0.032533 
1448.540816  	0.031099 
1450.469632  	0.031584 
1452.398448  	0.032710 
1454.327264  	0.034209 
1456.256080  	0.033567 
1458.184896  	0.029649 
1460.113712  	0.031447 
1462.042528  	0.033575 
1463.971344  	0.033277 
1465.900160  	0.033502 
1467.828976  	0.036829 
1469.757792  	0.040721 
1471.686608  	0.043741 
1473.615424  	0.048438 
1475.544240  	0.054862 
1477.473056  	0.059785 
1479.401872  	0.063354 
1481.330688  	0.066149 
1483.259504  	0.067761 
1485.188320  	0.069216 
1487.117136  	0.069030 
1489.045952  	0.068149 
1490.974768  	0.064145 
1492.903584  	0.062201 
1494.832400  	0.059817 
1496.761216  	0.053119 
1498.690032  	0.047454 
1500.618848  	0.044635 
1502.547664  	0.041958 
1504.476480  	0.038489 
1506.405296  	0.032171 
1508.334112  	0.030545 
1510.262928  	0.031272 
1512.191744  	0.029331 
1514.120560  	0.028491 
1516.049376  	0.027831 
1517.978192  	0.026060 
1519.907008  	0.027358 
1521.835824  	0.026330 
1523.764640  	0.030634 
1525.693456  	0.035247 
1527.622272  	0.037283 
1529.551088  	0.038379 
1531.479904  	0.038957 
1533.408720  	0.034799 
1535.337536  	0.032188 
1537.266352  	0.031361 
1539.195168  	0.022914 
1541.123984  	0.015050 
1543.052800  	0.019178 
1544.981616  	0.020454 
1546.910432  	0.020064 
1548.839248  	0.020903 
1550.768064  	0.020707 
1552.696880  	0.020288 
1554.625696  	0.020282 
1556.554512  	0.020217 
1558.483328  	0.015948 
1560.412144  	0.019018 
1562.340960  	0.027843 
1564.269776  	0.031907 
1566.198592  	0.036846 
1568.127408  	0.040777 
1570.056224  	0.044390 
1571.985040  	0.051659 
1573.913856  	0.056648 
1575.842672  	0.056141 
1577.771488  	0.058521 
1579.700304  	0.061690 
1581.629120  	0.061797 
1583.557936  	0.061271 
1585.486752  	0.061978 
1587.415568  	0.064180 
1589.344384  	0.068218 
1591.273200  	0.073567 
1593.202016  	0.080076 
1595.130832  	0.086878 
1597.059648  	0.094114 
1598.988464  	0.100346 
1600.917280  	0.105641 
1602.846096  	0.109016 
1604.774912  	0.111197 
1606.703728  	0.111303 
1608.632544  	0.110212 
1610.561360  	0.108495 
1612.490176  	0.107530 
1614.418992  	0.105876 
1616.347808  	0.101758 
1618.276624  	0.102544 
1620.205440  	0.108580 
1622.134256  	0.111580 
1624.063072  	0.115782 
1625.991888  	0.122981 
1627.920704  	0.130505 
1629.849520  	0.140096 
1631.778336  	0.150206 
1633.707152  	0.156748 
1635.635968  	0.161537 
1637.564784  	0.171237 
1639.493600  	0.181274 
1641.422416  	0.187527 
1643.351232  	0.192406 
1645.280048  	0.193218 
1647.208864  	0.190784 
1649.137680  	0.193403 
1651.066496  	0.196634 
1652.995312  	0.187005 
1654.924128  	0.184589 
1656.852944  	0.188389 
1658.781760  	0.187703 
1660.710576  	0.184503 
1662.639392  	0.178479 
1664.568208  	0.174768 
1666.497024  	0.174181 
1668.425840  	0.168751 
1670.354656  	0.160685 
1672.283472  	0.158887 
1674.212288  	0.157066 
1676.141104  	0.151898 
1678.069920  	0.152787 
1679.998736  	0.153077 
1681.927552  	0.152127 
1683.856368  	0.145165 
1685.785184  	0.142917 
1687.714000  	0.147462 
1689.642816  	0.147328 
1691.571632  	0.145580 
1693.500448  	0.145181 
1695.429264  	0.139878 
1697.358080  	0.135523 
1699.286896  	0.133774 
1701.215712  	0.126248 
1703.144528  	0.127112 
1705.073344  	0.122948 
1707.002160  	0.116429 
1708.930976  	0.112999 
1710.859792  	0.107755 
1712.788608  	0.101741 
1714.717424  	0.093715 
1716.646240  	0.082458 
1718.575056  	0.068684 
1720.503872  	0.062849 
1722.432688  	0.057779 
1724.361504  	0.049153 
1726.290320  	0.042068 
1728.219136  	0.036503 
1730.147952  	0.031406 
1732.076768  	0.026770 
1734.005584  	0.018464 
1735.934400  	0.013311 
1737.863216  	0.014120 
1739.792032  	0.009932 
1741.720848  	0.008999 
1743.649664  	0.009009 
1745.578480  	0.008143 
1747.507296  	0.006260 
1749.436112  	0.005244 
1751.364928  	0.003909 
1753.293744  	0.003332 
1755.222560  	0.003428 
1757.151376  	0.002599 
1759.080192  	0.002151 
1761.009008  	0.001449 
1762.937824  	-0.000399 
1764.866640  	0.000351 
1766.795456  	0.001130 
1768.724272  	0.000607 
1770.653088  	-0.001925 
1772.581904  	-0.005165 
1774.510720  	-0.003409 
1776.439536  	-0.001352 
1778.368352  	-0.001094 
1780.297168  	-0.001553 
1782.225984  	-0.002032 
1784.154800  	-0.001426 
1786.083616  	-0.002230 
1788.012432  	-0.001933 
1789.941248  	-0.001304 
1791.870064  	-0.003081 
1793.798880  	-0.004672 
1795.727696  	-0.002553 
1797.656512  	-0.002764 
1799.585328  	-0.003081 
1801.514144  	-0.002741 
1803.442960  	-0.002938 
1805.371776  	-0.003627 
1807.300592  	-0.003190 
1809.229408  	-0.003772 
1811.158224  	-0.004206 
1813.087040  	-0.004411 
1815.015856  	-0.003970 
1816.944672  	-0.003712 
1818.873488  	-0.003760 
1820.802304  	-0.004095 
1822.731120  	-0.003237 
1824.659936  	-0.003807 
1826.588752  	-0.004557 
1828.517568  	-0.005237 
1830.446384  	-0.005945 
1832.375200  	-0.004849 
1834.304016  	-0.003845 
1836.232832  	-0.004107 
1838.161648  	-0.004209 
1840.090464  	-0.004306 
1842.019280  	-0.003078 
1843.948096  	-0.004500 
1845.876912  	-0.004842 
1847.805728  	-0.003961 
1849.734544  	-0.004092 
1851.663360  	-0.004399 
1853.592176  	-0.004485 
1855.520992  	-0.004751 
1857.449808  	-0.004427 
1859.378624  	-0.004562 
1861.307440  	-0.004584 
1863.236256  	-0.004771 
1865.165072  	-0.004402 
1867.093888  	-0.004546 
1869.022704  	-0.005159 
1870.951520  	-0.005560 
1872.880336  	-0.005160 
1874.809152  	-0.005409 
1876.737968  	-0.005167 
1878.666784  	-0.005217 
1880.595600  	-0.004686 
1882.524416  	-0.004995 
1884.453232  	-0.004942 
1886.382048  	-0.005033 
1888.310864  	-0.004838 
1890.239680  	-0.005624 
1892.168496  	-0.005136 
1894.097312  	-0.004973 
1896.026128  	-0.005051 
1897.954944  	-0.005413 
1899.883760  	-0.005248 
1901.812576  	-0.005576 
1903.741392  	-0.005713 
1905.670208  	-0.005732 
1907.599024  	-0.004825 
1909.527840  	-0.004938 
1911.456656  	-0.004788 
1913.385472  	-0.004727 
1915.314288  	-0.004227 
1917.243104  	-0.004865 
1919.171920  	-0.005086 
1921.100736  	-0.004463 
1923.029552  	-0.004095 
1924.958368  	-0.005389 
1926.887184  	-0.005374 
1928.816000  	-0.005602 
1930.744816  	-0.005392 
1932.673632  	-0.005439 
1934.602448  	-0.005149 
1936.531264  	-0.005310 
1938.460080  	-0.004747 
1940.388896  	-0.005249 
1942.317712  	-0.005488 
1944.246528  	-0.005693 
1946.175344  	-0.004789 
1948.104160  	-0.004961 
1950.032976  	-0.004815 
1951.961792  	-0.005388 
1953.890608  	-0.005175 
1955.819424  	-0.005683 
1957.748240  	-0.005188 
1959.677056  	-0.005576 
1961.605872  	-0.004623 
1963.534688  	-0.004973 
1965.463504  	-0.004413 
1967.392320  	-0.005687 
1969.321136  	-0.005838 
1971.249952  	-0.005412 
1973.178768  	-0.003855 
1975.107584  	-0.004458 
1977.036400  	-0.004219 
1978.965216  	-0.003794 
1980.894032  	-0.003724 
1982.822848  	-0.004736 
1984.751664  	-0.004361 
1986.680480  	-0.005258 
1988.609296  	-0.005313 
1990.538112  	-0.006205 
1992.466928  	-0.005087 
1994.395744  	-0.004643 
1996.324560  	-0.004885 
1998.253376  	-0.005875 
2000.182192  	-0.005928 
2002.111008  	-0.005866 
2004.039824  	-0.004931 
2005.968640  	-0.005782 
2007.897456  	-0.005434 
2009.826272  	-0.005141 
2011.755088  	-0.003957 
2013.683904  	-0.005151 
2015.612720  	-0.004442 
2017.541536  	-0.004377 
2019.470352  	-0.003519 
2021.399168  	-0.004731 
2023.327984  	-0.005438 
2025.256800  	-0.005105 
2027.185616  	-0.003720 
2029.114432  	-0.003919 
2031.043248  	-0.003849 
2032.972064  	-0.004141 
2034.900880  	-0.003765 
2036.829696  	-0.005261 
2038.758512  	-0.004603 
2040.687328  	-0.004111 
2042.616144  	-0.003392 
2044.544960  	-0.004341 
2046.473776  	-0.004714 
2048.402592  	-0.004828 
2050.331408  	-0.004167 
2052.260224  	-0.005341 
2054.189040  	-0.006155 
2056.117856  	-0.005995 
2058.046672  	-0.005221 
2059.975488  	-0.005562 
2061.904304  	-0.005546 
2063.833120  	-0.005497 
2065.761936  	-0.005162 
2067.690752  	-0.005122 
2069.619568  	-0.004623 
2071.548384  	-0.004850 
2073.477200  	-0.004846 
2075.406016  	-0.004665 
2077.334832  	-0.004403 
2079.263648  	-0.004503 
2081.192464  	-0.004329 
2083.121280  	-0.004416 
2085.050096  	-0.004420 
2086.978912  	-0.004906 
2088.907728  	-0.004984 
2090.836544  	-0.005152 
2092.765360  	-0.004798 
2094.694176  	-0.004403 
2096.622992  	-0.004427 
2098.551808  	-0.004690 
2100.480624  	-0.004379 
2102.409440  	-0.004547 
2104.338256  	-0.004597 
2106.267072  	-0.004389 
2108.195888  	-0.004062 
2110.124704  	-0.004413 
2112.053520  	-0.004394 
2113.982336  	-0.004485 
2115.911152  	-0.004362 
2117.839968  	-0.004279 
2119.768784  	-0.004226 
2121.697600  	-0.004702 
2123.626416  	-0.004717 
2125.555232  	-0.005114 
2127.484048  	-0.004860 
2129.412864  	-0.005013 
2131.341680  	-0.004901 
2133.270496  	-0.004894 
2135.199312  	-0.004122 
2137.128128  	-0.004184 
2139.056944  	-0.004390 
2140.985760  	-0.004294 
2142.914576  	-0.003949 
2144.843392  	-0.004094 
2146.772208  	-0.003330 
2148.701024  	-0.003034 
2150.629840  	-0.002226 
2152.558656  	-0.003049 
2154.487472  	-0.003887 
2156.416288  	-0.003430 
2158.345104  	-0.002333 
2160.273920  	-0.001812 
2162.202736  	-0.000572 
2164.131552  	-0.001175 
2166.060368  	-0.001178 
2167.989184  	-0.001177 
2169.918000  	-0.000702 
2171.846816  	-0.001902 
2173.775632  	-0.001226 
2175.704448  	-0.001339 
2177.633264  	-0.002197 
2179.562080  	-0.002441 
2181.490896  	-0.001637 
2183.419712  	-0.002972 
2185.348528  	-0.003195 
2187.277344  	-0.002846 
2189.206160  	-0.002461 
2191.134976  	-0.002474 
2193.063792  	-0.002768 
2194.992608  	-0.003174 
2196.921424  	-0.002529 
2198.850240  	-0.002503 
2200.779056  	-0.002856 
2202.707872  	-0.003851 
2204.636688  	-0.003489 
2206.565504  	-0.003055 
2208.494320  	-0.003115 
2210.423136  	-0.003719 
2212.351952  	-0.004065 
2214.280768  	-0.004056 
2216.209584  	-0.004111 
2218.138400  	-0.004739 
2220.067216  	-0.004277 
2221.996032  	-0.004140 
2223.924848  	-0.004003 
2225.853664  	-0.003760 
2227.782480  	-0.003539 
2229.711296  	-0.004378 
2231.640112  	-0.004783 
2233.568928  	-0.004542 
2235.497744  	-0.004008 
2237.426560  	-0.004524 
2239.355376  	-0.005010 
2241.284192  	-0.005535 
2243.213008  	-0.005218 
2245.141824  	-0.005423 
2247.070640  	-0.005658 
2248.999456  	-0.005730 
2250.928272  	-0.005858 
2252.857088  	-0.006014 
2254.785904  	-0.005945 
2256.714720  	-0.006305 
2258.643536  	-0.006239 
2260.572352  	-0.006202 
2262.501168  	-0.006154 
2264.429984  	-0.006311 
2266.358800  	-0.006278 
2268.287616  	-0.006537 
2270.216432  	-0.006475 
2272.145248  	-0.006459 
2274.074064  	-0.006230 
2276.002880  	-0.006001 
2277.931696  	-0.005714 
2279.860512  	-0.005833 
2281.789328  	-0.005583 
2283.718144  	-0.005418 
2285.646960  	-0.005322 
2287.575776  	-0.005373 
2289.504592  	-0.005497 
2291.433408  	-0.005799 
2293.362224  	-0.005786 
2295.291040  	-0.005637 
2297.219856  	-0.005397 
2299.148672  	-0.005417 
2301.077488  	-0.005345 
2303.006304  	-0.005313 
2304.935120  	-0.005350 
2306.863936  	-0.005544 
2308.792752  	-0.005799 
2310.721568  	-0.006476 
2312.650384  	-0.007526 
2314.579200  	-0.008701 
2316.508016  	-0.009810 
2318.436832  	-0.011410 
2320.365648  	-0.013323 
2322.294464  	-0.015263 
2324.223280  	-0.017682 
2326.152096  	-0.020487 
2328.080912  	-0.022642 
2330.009728  	-0.024956 
2331.938544  	-0.027206 
2333.867360  	-0.029033 
2335.796176  	-0.030648 
2337.724992  	-0.032098 
2339.653808  	-0.032615 
2341.582624  	-0.033021 
2343.511440  	-0.031576 
2345.440256  	-0.027755 
2347.369072  	-0.020967 
2349.297888  	-0.016968 
2351.226704  	-0.020520 
2353.155520  	-0.027889 
2355.084336  	-0.033750 
2357.013152  	-0.038406 
2358.941968  	-0.040942 
2360.870784  	-0.042415 
2362.799600  	-0.041467 
2364.728416  	-0.039339 
2366.657232  	-0.035872 
2368.586048  	-0.031241 
2370.514864  	-0.026243 
2372.443680  	-0.021565 
2374.372496  	-0.017039 
2376.301312  	-0.012687 
2378.230128  	-0.009237 
2380.158944  	-0.007206 
2382.087760  	-0.006147 
2384.016576  	-0.005988 
2385.945392  	-0.006078 
2387.874208  	-0.006285 
2389.803024  	-0.006462 
2391.731840  	-0.006650 
2393.660656  	-0.006667 
2395.589472  	-0.006616 
2397.518288  	-0.006403 
2399.447104  	-0.006553 
2401.375920  	-0.006708 
2403.304736  	-0.006746 
2405.233552  	-0.006611 
2407.162368  	-0.006865 
2409.091184  	-0.006912 
2411.020000  	-0.006815 
2412.948816  	-0.006825 
2414.877632  	-0.006788 
2416.806448  	-0.006647 
2418.735264  	-0.006764 
2420.664080  	-0.006851 
2422.592896  	-0.006844 
2424.521712  	-0.006689 
2426.450528  	-0.006651 
2428.379344  	-0.006630 
2430.308160  	-0.006416 
2432.236976  	-0.006132 
2434.165792  	-0.006150 
2436.094608  	-0.006194 
2438.023424  	-0.006074 
2439.952240  	-0.005867 
2441.881056  	-0.005883 
2443.809872  	-0.005973 
2445.738688  	-0.005988 
2447.667504  	-0.005705 
2449.596320  	-0.005552 
2451.525136  	-0.005523 
2453.453952  	-0.005623 
2455.382768  	-0.005649 
2457.311584  	-0.005730 
2459.240400  	-0.005773 
2461.169216  	-0.005812 
2463.098032  	-0.005942 
2465.026848  	-0.005884 
2466.955664  	-0.005886 
2468.884480  	-0.006087 
2470.813296  	-0.006193 
2472.742112  	-0.006264 
2474.670928  	-0.006231 
2476.599744  	-0.006186 
2478.528560  	-0.005998 
2480.457376  	-0.005837 
2482.386192  	-0.005818 
2484.315008  	-0.005777 
2486.243824  	-0.005771 
2488.172640  	-0.005869 
2490.101456  	-0.005632 
2492.030272  	-0.005564 
2493.959088  	-0.005472 
2495.887904  	-0.005409 
2497.816720  	-0.005417 
2499.745536  	-0.005431 
2501.674352  	-0.005207 
2503.603168  	-0.004866 
2505.531984  	-0.004789 
2507.460800  	-0.005070 
2509.389616  	-0.005130 
2511.318432  	-0.005140 
2513.247248  	-0.005173 
2515.176064  	-0.005108 
2517.104880  	-0.005008 
2519.033696  	-0.005160 
2520.962512  	-0.005080 
2522.891328  	-0.004925 
2524.820144  	-0.005034 
2526.748960  	-0.005052 
2528.677776  	-0.004862 
2530.606592  	-0.004845 
2532.535408  	-0.004882 
2534.464224  	-0.004921 
2536.393040  	-0.004957 
2538.321856  	-0.004815 
2540.250672  	-0.004474 
2542.179488  	-0.004375 
2544.108304  	-0.004295 
2546.037120  	-0.004139 
2547.965936  	-0.004252 
2549.894752  	-0.004376 
2551.823568  	-0.004199 
2553.752384  	-0.004010 
2555.681200  	-0.003767 
2557.610016  	-0.003689 
2559.538832  	-0.003738 
2561.467648  	-0.003759 
2563.396464  	-0.003608 
2565.325280  	-0.003506 
2567.254096  	-0.003601 
2569.182912  	-0.003492 
2571.111728  	-0.003170 
2573.040544  	-0.003119 
2574.969360  	-0.003064 
2576.898176  	-0.003049 
2578.826992  	-0.003196 
2580.755808  	-0.003315 
2582.684624  	-0.003201 
2584.613440  	-0.003125 
2586.542256  	-0.003113 
2588.471072  	-0.003131 
2590.399888  	-0.003002 
2592.328704  	-0.002976 
2594.257520  	-0.003076 
2596.186336  	-0.002969 
2598.115152  	-0.002873 
2600.043968  	-0.002985 
2601.972784  	-0.002766 
2603.901600  	-0.002686 
2605.830416  	-0.002543 
2607.759232  	-0.002384 
2609.688048  	-0.002276 
2611.616864  	-0.002146 
2613.545680  	-0.002011 
2615.474496  	-0.001947 
2617.403312  	-0.001754 
2619.332128  	-0.001648 
2621.260944  	-0.001668 
2623.189760  	-0.001716 
2625.118576  	-0.001631 
2627.047392  	-0.001535 
2628.976208  	-0.001489 
2630.905024  	-0.001465 
2632.833840  	-0.001382 
2634.762656  	-0.001251 
2636.691472  	-0.001217 
2638.620288  	-0.001165 
2640.549104  	-0.001026 
2642.477920  	-0.001010 
2644.406736  	-0.000842 
2646.335552  	-0.000726 
2648.264368  	-0.000619 
2650.193184  	-0.000522 
2652.122000  	-0.000336 
2654.050816  	-0.000211 
2655.979632  	-0.000201 
2657.908448  	-0.000174 
2659.837264  	-0.000014 
2661.766080  	0.000071 
2663.694896  	0.000185 
2665.623712  	0.000291 
2667.552528  	0.000468 
2669.481344  	0.000660 
2671.410160  	0.000763 
2673.338976  	0.000832 
2675.267792  	0.000976 
2677.196608  	0.001130 
2679.125424  	0.001257 
2681.054240  	0.001387 
2682.983056  	0.001557 
2684.911872  	0.001530 
2686.840688  	0.001575 
2688.769504  	0.001724 
2690.698320  	0.001733 
2692.627136  	0.001738 
2694.555952  	0.001859 
2696.484768  	0.001951 
2698.413584  	0.002025 
2700.342400  	0.002059 
2702.271216  	0.002226 
2704.200032  	0.002455 
2706.128848  	0.002587 
2708.057664  	0.002485 
2709.986480  	0.002496 
2711.915296  	0.002658 
2713.844112  	0.002829 
2715.772928  	0.002843 
2717.701744  	0.002950 
2719.630560  	0.003221 
2721.559376  	0.003452 
2723.488192  	0.003567 
2725.417008  	0.003760 
2727.345824  	0.003965 
2729.274640  	0.004041 
2731.203456  	0.004180 
2733.132272  	0.004403 
2735.061088  	0.004535 
2736.989904  	0.004648 
2738.918720  	0.004699 
2740.847536  	0.004744 
2742.776352  	0.004721 
2744.705168  	0.004822 
2746.633984  	0.004951 
2748.562800  	0.005007 
2750.491616  	0.005102 
2752.420432  	0.005200 
2754.349248  	0.005066 
2756.278064  	0.004968 
2758.206880  	0.004852 
2760.135696  	0.004903 
2762.064512  	0.005047 
2763.993328  	0.005049 
2765.922144  	0.004965 
2767.850960  	0.004989 
2769.779776  	0.005075 
2771.708592  	0.005189 
2773.637408  	0.005191 
2775.566224  	0.005143 
2777.495040  	0.005133 
2779.423856  	0.005291 
2781.352672  	0.005345 
2783.281488  	0.005306 
2785.210304  	0.005287 
2787.139120  	0.005347 
2789.067936  	0.005511 
2790.996752  	0.005584 
2792.925568  	0.005504 
2794.854384  	0.005473 
2796.783200  	0.005479 
2798.712016  	0.005440 
2800.640832  	0.005448 
2802.569648  	0.005532 
2804.498464  	0.005605 
2806.427280  	0.005578 
2808.356096  	0.005550 
2810.284912  	0.005646 
2812.213728  	0.005644 
2814.142544  	0.005532 
2816.071360  	0.005457 
2818.000176  	0.005258 
2819.928992  	0.005189 
2821.857808  	0.005172 
2823.786624  	0.004991 
2825.715440  	0.004912 
2827.644256  	0.004762 
2829.573072  	0.004633 
2831.501888  	0.004357 
2833.430704  	0.004059 
2835.359520  	0.003812 
2837.288336  	0.003464 
2839.217152  	0.003137 
2841.145968  	0.002825 
2843.074784  	0.002427 
2845.003600  	0.001879 
2846.932416  	0.001444 
2848.861232  	0.001202 
2850.790048  	0.000867 
2852.718864  	0.000410 
2854.647680  	-0.000076 
2856.576496  	-0.000761 
2858.505312  	-0.001395 
2860.434128  	-0.001957 
2862.362944  	-0.002781 
2864.291760  	-0.003600 
2866.220576  	-0.004174 
2868.149392  	-0.004489 
2870.078208  	-0.004721 
2872.007024  	-0.004840 
2873.935840  	-0.004733 
2875.864656  	-0.004691 
2877.793472  	-0.004896 
2879.722288  	-0.005159 
2881.651104  	-0.005546 
2883.579920  	-0.005742 
2885.508736  	-0.005629 
2887.437552  	-0.005353 
2889.366368  	-0.005288 
2891.295184  	-0.005582 
2893.224000  	-0.005806 
2895.152816  	-0.005708 
2897.081632  	-0.006017 
2899.010448  	-0.007715 
2900.939264  	-0.009216 
2902.868080  	-0.007937 
2904.796896  	-0.006551 
2906.725712  	-0.005927 
2908.654528  	-0.005293 
2910.583344  	-0.004931 
2912.512160  	-0.004468 
2914.440976  	-0.003408 
2916.369792  	-0.002477 
2918.298608  	-0.002002 
2920.227424  	-0.001545 
2922.156240  	-0.000730 
2924.085056  	0.000249 
2926.013872  	0.001233 
2927.942688  	0.002135 
2929.871504  	0.003016 
2931.800320  	0.003952 
2933.729136  	0.004619 
2935.657952  	0.005074 
2937.586768  	0.005814 
2939.515584  	0.006474 
2941.444400  	0.006705 
2943.373216  	0.006762 
2945.302032  	0.007005 
2947.230848  	0.007225 
2949.159664  	0.006925 
2951.088480  	0.006240 
2953.017296  	0.005637 
2954.946112  	0.005073 
2956.874928  	0.004466 
2958.803744  	0.003662 
2960.732560  	0.003071 
2962.661376  	0.002448 
2964.590192  	0.001511 
2966.519008  	0.000324 
2968.447824  	-0.000711 
2970.376640  	-0.001578 
2972.305456  	-0.002107 
2974.234272  	-0.001802 
2976.163088  	-0.001504 
2978.091904  	-0.001558 
2980.020720  	-0.001484 
2981.949536  	-0.001287 
2983.878352  	-0.001585 
2985.807168  	-0.002526 
2987.735984  	-0.003427 
2989.664800  	-0.003136 
2991.593616  	-0.000105 
2993.522432  	0.002013 
2995.451248  	0.002589 
2997.380064  	0.003460 
2999.308880  	0.004670 
3001.237696  	0.006042 
3003.166512  	0.007661 
3005.095328  	0.008995 
3007.024144  	0.010322 
3008.952960  	0.011861 
3010.881776  	0.013341 
3012.810592  	0.014664 
3014.739408  	0.015933 
3016.668224  	0.017114 
3018.597040  	0.018469 
3020.525856  	0.019688 
3022.454672  	0.020664 
3024.383488  	0.021789 
3026.312304  	0.022779 
3028.241120  	0.023768 
3030.169936  	0.024819 
3032.098752  	0.025655 
3034.027568  	0.026489 
3035.956384  	0.027315 
3037.885200  	0.028038 
3039.814016  	0.028714 
3041.742832  	0.029402 
3043.671648  	0.030010 
3045.600464  	0.030549 
3047.529280  	0.030915 
3049.458096  	0.031404 
3051.386912  	0.032095 
3053.315728  	0.032804 
3055.244544  	0.033346 
3057.173360  	0.033809 
3059.102176  	0.034338 
3061.030992  	0.035026 
3062.959808  	0.035719 
3064.888624  	0.036313 
3066.817440  	0.037000 
3068.746256  	0.037769 
3070.675072  	0.038443 
3072.603888  	0.039131 
3074.532704  	0.039933 
3076.461520  	0.040724 
3078.390336  	0.041468 
3080.319152  	0.042173 
3082.247968  	0.042835 
3084.176784  	0.043532 
3086.105600  	0.044271 
3088.034416  	0.044965 
3089.963232  	0.045831 
3091.892048  	0.046521 
3093.820864  	0.047150 
3095.749680  	0.047767 
3097.678496  	0.048679 
3099.607312  	0.049633 
3101.536128  	0.050473 
3103.464944  	0.051357 
3105.393760  	0.052081 
3107.322576  	0.052704 
3109.251392  	0.053365 
3111.180208  	0.054064 
3113.109024  	0.054777 
3115.037840  	0.055524 
3116.966656  	0.056330 
3118.895472  	0.056978 
3120.824288  	0.057491 
3122.753104  	0.058083 
3124.681920  	0.058633 
3126.610736  	0.059050 
3128.539552  	0.059777 
3130.468368  	0.060624 
3132.397184  	0.061081 
3134.326000  	0.061653 
3136.254816  	0.062239 
3138.183632  	0.062894 
3140.112448  	0.063582 
3142.041264  	0.064100 
3143.970080  	0.064693 
3145.898896  	0.065336 
3147.827712  	0.065962 
3149.756528  	0.066512 
3151.685344  	0.066983 
3153.614160  	0.067791 
3155.542976  	0.068628 
3157.471792  	0.069277 
3159.400608  	0.069912 
3161.329424  	0.070489 
3163.258240  	0.070914 
3165.187056  	0.071396 
3167.115872  	0.072055 
3169.044688  	0.072655 
3170.973504  	0.073077 
3172.902320  	0.073419 
3174.831136  	0.074039 
3176.759952  	0.074649 
3178.688768  	0.075064 
3180.617584  	0.075512 
3182.546400  	0.075840 
3184.475216  	0.076016 
3186.404032  	0.076104 
3188.332848  	0.076413 
3190.261664  	0.076900 
3192.190480  	0.077148 
3194.119296  	0.077125 
3196.048112  	0.077191 
3197.976928  	0.077147 
3199.905744  	0.077283 
3201.834560  	0.077417 
3203.763376  	0.077459 
3205.692192  	0.077408 
3207.621008  	0.077312 
3209.549824  	0.077269 
3211.478640  	0.077335 
3213.407456  	0.077340 
3215.336272  	0.077177 
3217.265088  	0.077162 
3219.193904  	0.077071 
3221.122720  	0.076878 
3223.051536  	0.076765 
3224.980352  	0.076452 
3226.909168  	0.076178 
3228.837984  	0.075913 
3230.766800  	0.075780 
3232.695616  	0.075887 
3234.624432  	0.075881 
3236.553248  	0.075779 
3238.482064  	0.075765 
3240.410880  	0.075774 
3242.339696  	0.075807 
3244.268512  	0.075553 
3246.197328  	0.075522 
3248.126144  	0.075892 
3250.054960  	0.076105 
3251.983776  	0.076324 
3253.912592  	0.076447 
3255.841408  	0.076756 
3257.770224  	0.077189 
3259.699040  	0.077357 
3261.627856  	0.077578 
3263.556672  	0.077873 
3265.485488  	0.077975 
3267.414304  	0.078170 
3269.343120  	0.078594 
3271.271936  	0.078966 
3273.200752  	0.078893 
3275.129568  	0.078845 
3277.058384  	0.079143 
3278.987200  	0.079397 
3280.916016  	0.079631 
3282.844832  	0.079968 
3284.773648  	0.080275 
3286.702464  	0.080456 
3288.631280  	0.080639 
3290.560096  	0.080898 
3292.488912  	0.081140 
3294.417728  	0.081651 
3296.346544  	0.082149 
3298.275360  	0.082271 
3300.204176  	0.082622 
3302.132992  	0.083160 
3304.061808  	0.083509 
3305.990624  	0.084006 
3307.919440  	0.084475 
3309.848256  	0.084737 
3311.777072  	0.085051 
3313.705888  	0.085440 
3315.634704  	0.085829 
3317.563520  	0.086289 
3319.492336  	0.086707 
3321.421152  	0.086868 
3323.349968  	0.087102 
3325.278784  	0.087421 
3327.207600  	0.087620 
3329.136416  	0.087631 
3331.065232  	0.088000 
3332.994048  	0.088361 
3334.922864  	0.088471 
3336.851680  	0.088503 
3338.780496  	0.088444 
3340.709312  	0.088299 
3342.638128  	0.087987 
3344.566944  	0.087612 
3346.495760  	0.087555 
3348.424576  	0.087414 
3350.353392  	0.087225 
3352.282208  	0.087110 
3354.211024  	0.086890 
3356.139840  	0.086555 
3358.068656  	0.086248 
3359.997472  	0.085974 
3361.926288  	0.085532 
3363.855104  	0.084992 
3365.783920  	0.084515 
3367.712736  	0.084223 
3369.641552  	0.083875 
3371.570368  	0.083492 
3373.499184  	0.083229 
3375.428000  	0.082938 
3377.356816  	0.082536 
3379.285632  	0.082194 
3381.214448  	0.081845 
3383.143264  	0.081445 
3385.072080  	0.080846 
3387.000896  	0.080384 
3388.929712  	0.080096 
3390.858528  	0.079831 
3392.787344  	0.079561 
3394.716160  	0.079179 
3396.644976  	0.078827 
3398.573792  	0.078360 
3400.502608  	0.077960 
3402.431424  	0.077358 
3404.360240  	0.076736 
3406.289056  	0.076146 
3408.217872  	0.075708 
3410.146688  	0.075390 
3412.075504  	0.075017 
3414.004320  	0.074472 
3415.933136  	0.074130 
3417.861952  	0.073612 
3419.790768  	0.073091 
3421.719584  	0.072595 
3423.648400  	0.072128 
3425.577216  	0.071558 
3427.506032  	0.070970 
3429.434848  	0.070451 
3431.363664  	0.069953 
3433.292480  	0.069400 
3435.221296  	0.068789 
3437.150112  	0.068172 
3439.078928  	0.067764 
3441.007744  	0.067200 
3442.936560  	0.066768 
3444.865376  	0.066514 
3446.794192  	0.065605 
3448.723008  	0.064438 
3450.651824  	0.063783 
3452.580640  	0.063413 
3454.509456  	0.062865 
3456.438272  	0.062153 
3458.367088  	0.061633 
3460.295904  	0.060990 
3462.224720  	0.060129 
3464.153536  	0.059347 
3466.082352  	0.058736 
3468.011168  	0.057934 
3469.939984  	0.057004 
3471.868800  	0.056232 
3473.797616  	0.055441 
3475.726432  	0.054631 
3477.655248  	0.054073 
3479.584064  	0.053700 
3481.512880  	0.052910 
3483.441696  	0.051639 
3485.370512  	0.050826 
3487.299328  	0.049978 
3489.228144  	0.049317 
3491.156960  	0.048569 
3493.085776  	0.047682 
3495.014592  	0.046914 
3496.943408  	0.046064 
3498.872224  	0.045470 
3500.801040  	0.045743 
3502.729856  	0.045056 
3504.658672  	0.043578 
3506.587488  	0.043178 
3508.516304  	0.042933 
3510.445120  	0.041877 
3512.373936  	0.040885 
3514.302752  	0.040307 
3516.231568  	0.039893 
3518.160384  	0.039360 
3520.089200  	0.038627 
3522.018016  	0.038421 
3523.946832  	0.038612 
3525.875648  	0.037897 
3527.804464  	0.036305 
3529.733280  	0.035137 
3531.662096  	0.034560 
3533.590912  	0.034170 
3535.519728  	0.033969 
3537.448544  	0.033399 
3539.377360  	0.032610 
3541.306176  	0.032125 
3543.234992  	0.032118 
3545.163808  	0.032338 
3547.092624  	0.031303 
3549.021440  	0.029879 
3550.950256  	0.029189 
3552.879072  	0.028359 
3554.807888  	0.027635 
3556.736704  	0.027107 
3558.665520  	0.027045 
3560.594336  	0.026758 
3562.523152  	0.025866 
3564.451968  	0.026090 
3566.380784  	0.026502 
3568.309600  	0.024454 
3570.238416  	0.022965 
3572.167232  	0.022355 
3574.096048  	0.021422 
3576.024864  	0.020437 
3577.953680  	0.020002 
3579.882496  	0.019522 
3581.811312  	0.018776 
3583.740128  	0.018284 
3585.668944  	0.018576 
3587.597760  	0.017331 
3589.526576  	0.015412 
3591.455392  	0.014984 
3593.384208  	0.014652 
3595.313024  	0.013535 
3597.241840  	0.012051 
3599.170656  	0.010509 
3601.099472  	0.009512 
3603.028288  	0.009551 
3604.957104  	0.009578 
3606.885920  	0.008947 
3608.814736  	0.007661 
3610.743552  	0.007332 
3612.672368  	0.006308 
3614.601184  	0.005027 
3616.530000  	0.004792 
3618.458816  	0.002618 
3620.387632  	0.000537 
3622.316448  	0.000777 
3624.245264  	0.000778 
3626.174080  	0.000477 
3628.102896  	-0.002452 
3630.031712  	-0.005783 
3631.960528  	-0.003775 
3633.889344  	-0.003929 
3635.818160  	-0.004657 
3637.746976  	-0.005547 
3639.675792  	-0.005872 
3641.604608  	-0.005878 
3643.533424  	-0.006256 
3645.462240  	-0.006932 
3647.391056  	-0.009999 
3649.319872  	-0.014942 
3651.248688  	-0.016316 
3653.177504  	-0.013101 
3655.106320  	-0.013461 
3657.035136  	-0.016092 
3658.963952  	-0.015627 
3660.892768  	-0.015558 
3662.821584  	-0.015930 
3664.750400  	-0.015926 
3666.679216  	-0.015960 
3668.608032  	-0.018414 
3670.536848  	-0.022179 
3672.465664  	-0.019680 
3674.394480  	-0.020878 
3676.323296  	-0.025294 
3678.252112  	-0.021276 
3680.180928  	-0.019339 
3682.109744  	-0.018594 
3684.038560  	-0.018810 
3685.967376  	-0.018928 
3687.896192  	-0.021932 
3689.825008  	-0.025165 
3691.753824  	-0.023630 
3693.682640  	-0.020657 
3695.611456  	-0.019272 
3697.540272  	-0.018417 
3699.469088  	-0.017670 
3701.397904  	-0.018926 
3703.326720  	-0.018829 
3705.255536  	-0.017131 
3707.184352  	-0.017007 
3709.113168  	-0.018993 
3711.041984  	-0.021145 
3712.970800  	-0.019448 
3714.899616  	-0.016092 
3716.828432  	-0.015315 
3718.757248  	-0.015853 
3720.686064  	-0.016639 
3722.614880  	-0.017128 
3724.543696  	-0.016135 
3726.472512  	-0.016517 
3728.401328  	-0.016775 
3730.330144  	-0.017607 
3732.258960  	-0.019705 
3734.187776  	-0.018673 
3736.116592  	-0.018945 
3738.045408  	-0.018456 
3739.974224  	-0.016476 
3741.903040  	-0.015156 
3743.831856  	-0.017614 
3745.760672  	-0.019655 
3747.689488  	-0.017827 
3749.618304  	-0.020654 
3751.547120  	-0.022650 
3753.475936  	-0.019758 
3755.404752  	-0.016828 
3757.333568  	-0.016557 
3759.262384  	-0.017423 
3761.191200  	-0.017157 
3763.120016  	-0.015183 
3765.048832  	-0.015785 
3766.977648  	-0.015926 
3768.906464  	-0.016937 
3770.835280  	-0.017682 
3772.764096  	-0.015868 
3774.692912  	-0.015106 
3776.621728  	-0.015066 
3778.550544  	-0.016532 
3780.479360  	-0.017557 
3782.408176  	-0.016018 
3784.336992  	-0.016205 
3786.265808  	-0.015892 
3788.194624  	-0.015411 
3790.123440  	-0.015400 
3792.052256  	-0.015325 
3793.981072  	-0.015277 
3795.909888  	-0.016752 
3797.838704  	-0.016657 
3799.767520  	-0.017347 
3801.696336  	-0.021810 
3803.625152  	-0.019002 
3805.553968  	-0.017545 
3807.482784  	-0.019406 
3809.411600  	-0.016835 
3811.340416  	-0.015167 
3813.269232  	-0.014799 
3815.198048  	-0.017918 
3817.126864  	-0.019409 
3819.055680  	-0.017799 
3820.984496  	-0.021517 
3822.913312  	-0.019752 
3824.842128  	-0.016699 
3826.770944  	-0.017099 
3828.699760  	-0.016282 
3830.628576  	-0.016574 
3832.557392  	-0.017445 
3834.486208  	-0.017313 
3836.415024  	-0.018647 
3838.343840  	-0.020357 
3840.272656  	-0.019114 
3842.201472  	-0.017378 
3844.130288  	-0.016943 
3846.059104  	-0.015692 
3847.987920  	-0.014978 
3849.916736  	-0.015223 
3851.845552  	-0.017985 
3853.774368  	-0.023687 
3855.703184  	-0.019848 
3857.632000  	-0.016332 
3859.560816  	-0.015110 
3861.489632  	-0.015226 
3863.418448  	-0.016140 
3865.347264  	-0.016757 
3867.276080  	-0.015309 
3869.204896  	-0.016758 
3871.133712  	-0.017097 
3873.062528  	-0.016059 
3874.991344  	-0.016718 
3876.920160  	-0.014886 
3878.848976  	-0.014430 
3880.777792  	-0.015425 
3882.706608  	-0.014476 
3884.635424  	-0.014789 
3886.564240  	-0.016159 
3888.493056  	-0.014836 
3890.421872  	-0.015617 
3892.350688  	-0.016733 
3894.279504  	-0.015241 
3896.208320  	-0.014252 
3898.137136  	-0.014298 
3900.065952  	-0.014609 
3901.994768  	-0.014352 
3903.923584  	-0.015308 
3905.852400  	-0.015789 
3907.781216  	-0.015329 
3909.710032  	-0.015159 
3911.638848  	-0.015045 
3913.567664  	-0.014601 
3915.496480  	-0.013970 
3917.425296  	-0.014150 
3919.354112  	-0.014683 
3921.282928  	-0.014642 
3923.211744  	-0.014119 
3925.140560  	-0.014239 
3927.069376  	-0.014441 
3928.998192  	-0.014471 
3930.927008  	-0.013896 
3932.855824  	-0.013790 
3934.784640  	-0.014470 
3936.713456  	-0.014813 
3938.642272  	-0.014509 
3940.571088  	-0.014055 
3942.499904  	-0.013878 
3944.428720  	-0.014019 
3946.357536  	-0.013540 
3948.286352  	-0.013364 
3950.215168  	-0.014268 
3952.143984  	-0.015044 
3954.072800  	-0.015094 
3956.001616  	-0.014802 
3957.930432  	-0.014748 
3959.859248  	-0.014639 
3961.788064  	-0.014587 
3963.716880  	-0.014941 
3965.645696  	-0.015247 
3967.574512  	-0.015064 
3969.503328  	-0.014824 
3971.432144  	-0.015030 
3973.360960  	-0.014879 
3975.289776  	-0.014436 
3977.218592  	-0.014455 
3979.147408  	-0.014817 
3981.076224  	-0.014966 
3983.005040  	-0.015031 
3984.933856  	-0.014949 
3986.862672  	-0.015091 
3988.791488  	-0.014897 
3990.720304  	-0.014571 
3992.649120  	-0.014718 
3994.577936  	-0.014900 
3996.506752  	-0.014947 
3998.435568  	-0.015006 
4000.364384  	-0.014962 