##TITLE=No Description
##DATA TYPE=INFRARED SPECTRUM
##XUNITS=1/CM
##YUNITS=Abs
399.264912  	0.646255 
401.193728  	0.619894 
403.122544  	0.628299 
405.051360  	0.606320 
406.980176  	0.598507 
408.908992  	0.589635 
410.837808  	0.600446 
412.766624  	0.605360 
414.695440  	0.603135 
416.624256  	0.595718 
418.553072  	0.614043 
420.481888  	0.602983 
422.410704  	0.592641 
424.339520  	0.576289 
426.268336  	0.572705 
428.197152  	0.573011 
430.125968  	0.572301 
432.054784  	0.560529 
433.983600  	0.560071 
435.912416  	0.561144 
437.841232  	0.564052 
439.770048  	0.556635 
441.698864  	0.548717 
443.627680  	0.546568 
445.556496  	0.550391 
447.485312  	0.548951 
449.414128  	0.545791 
451.342944  	0.545641 
453.271760  	0.547169 
455.200576  	0.545018 
457.129392  	0.544003 
459.058208  	0.540516 
460.987024  	0.543530 
462.915840  	0.541753 
464.844656  	0.539737 
466.773472  	0.538770 
468.702288  	0.545204 
470.631104  	0.541271 
472.559920  	0.538947 
474.488736  	0.540294 
476.417552  	0.540837 
478.346368  	0.532658 
480.275184  	0.532738 
482.204000  	0.533734 
484.132816  	0.531837 
486.061632  	0.526405 
487.990448  	0.526079 
489.919264  	0.526527 
491.848080  	0.531818 
493.776896  	0.531808 
495.705712  	0.530773 
497.634528  	0.527474 
499.563344  	0.527389 
501.492160  	0.524800 
503.420976  	0.523789 
505.349792  	0.521800 
507.278608  	0.525229 
509.207424  	0.524708 
511.136240  	0.523676 
513.065056  	0.522096 
514.993872  	0.526167 
516.922688  	0.527466 
518.851504  	0.527400 
520.780320  	0.524668 
522.709136  	0.524257 
524.637952  	0.525092 
526.566768  	0.526879 
528.495584  	0.524323 
530.424400  	0.521985 
532.353216  	0.516383 
534.282032  	0.510652 
536.210848  	0.502729 
538.139664  	0.497673 
540.068480  	0.491997 
541.997296  	0.488284 
543.926112  	0.485004 
545.854928  	0.481997 
547.783744  	0.477180 
549.712560  	0.474493 
551.641376  	0.469326 
553.570192  	0.465587 
555.499008  	0.463264 
557.427824  	0.460654 
559.356640  	0.455439 
561.285456  	0.451582 
563.214272  	0.447837 
565.143088  	0.444927 
567.071904  	0.441159 
569.000720  	0.437627 
570.929536  	0.434214 
572.858352  	0.432295 
574.787168  	0.429481 
576.715984  	0.426887 
578.644800  	0.423394 
580.573616  	0.420231 
582.502432  	0.414734 
584.431248  	0.411014 
586.360064  	0.406878 
588.288880  	0.404101 
590.217696  	0.402585 
592.146512  	0.401042 
594.075328  	0.398104 
596.004144  	0.396081 
597.932960  	0.393717 
599.861776  	0.392632 
601.790592  	0.390200 
603.719408  	0.387838 
605.648224  	0.385931 
607.577040  	0.385092 
609.505856  	0.383878 
611.434672  	0.382446 
613.363488  	0.380627 
615.292304  	0.379211 
617.221120  	0.376947 
619.149936  	0.375197 
621.078752  	0.373571 
623.007568  	0.373014 
624.936384  	0.371505 
626.865200  	0.370041 
628.794016  	0.369052 
630.722832  	0.368345 
632.651648  	0.367776 
634.580464  	0.367311 
636.509280  	0.367133 
638.438096  	0.367935 
640.366912  	0.367071 
642.295728  	0.364297 
644.224544  	0.360722 
646.153360  	0.358028 
648.082176  	0.353901 
650.010992  	0.349908 
651.939808  	0.345843 
653.868624  	0.341803 
655.797440  	0.337799 
657.726256  	0.334331 
659.655072  	0.330082 
661.583888  	0.325869 
663.512704  	0.322543 
665.441520  	0.319672 
667.370336  	0.311685 
669.299152  	0.304613 
671.227968  	0.305116 
673.156784  	0.303187 
675.085600  	0.300143 
677.014416  	0.297120 
678.943232  	0.294628 
680.872048  	0.292895 
682.800864  	0.291534 
684.729680  	0.290077 
686.658496  	0.288788 
688.587312  	0.287927 
690.516128  	0.286586 
692.444944  	0.285185 
694.373760  	0.284033 
696.302576  	0.282429 
698.231392  	0.280168 
700.160208  	0.277656 
702.089024  	0.275493 
704.017840  	0.273100 
705.946656  	0.270391 
707.875472  	0.268118 
709.804288  	0.265822 
711.733104  	0.263938 
713.661920  	0.262110 
715.590736  	0.260644 
717.519552  	0.259888 
719.448368  	0.259774 
721.377184  	0.260144 
723.306000  	0.260816 
725.234816  	0.260836 
727.163632  	0.260332 
729.092448  	0.258219 
731.021264  	0.255170 
732.950080  	0.252077 
734.878896  	0.249033 
736.807712  	0.245869 
738.736528  	0.243427 
740.665344  	0.241347 
742.594160  	0.239655 
744.522976  	0.238250 
746.451792  	0.236604 
748.380608  	0.234687 
750.309424  	0.233215 
752.238240  	0.232385 
754.167056  	0.231688 
756.095872  	0.230195 
758.024688  	0.228719 
759.953504  	0.228104 
761.882320  	0.228909 
763.811136  	0.229615 
765.739952  	0.228500 
767.668768  	0.226045 
769.597584  	0.223676 
771.526400  	0.222783 
773.455216  	0.224188 
775.384032  	0.227405 
777.312848  	0.232199 
779.241664  	0.236246 
781.170480  	0.236805 
783.099296  	0.233331 
785.028112  	0.227634 
786.956928  	0.221272 
788.885744  	0.215822 
790.814560  	0.212019 
792.743376  	0.209494 
794.672192  	0.208343 
796.601008  	0.207726 
798.529824  	0.204890 
800.458640  	0.200280 
802.387456  	0.196512 
804.316272  	0.194272 
806.245088  	0.193024 
808.173904  	0.192186 
810.102720  	0.191730 
812.031536  	0.191598 
813.960352  	0.191827 
815.889168  	0.192066 
817.817984  	0.192145 
819.746800  	0.192345 
821.675616  	0.192837 
823.604432  	0.192823 
825.533248  	0.192393 
827.462064  	0.191920 
829.390880  	0.190940 
831.319696  	0.189576 
833.248512  	0.187737 
835.177328  	0.185167 
837.106144  	0.182545 
839.034960  	0.179294 
840.963776  	0.175640 
842.892592  	0.171984 
844.821408  	0.168271 
846.750224  	0.164986 
848.679040  	0.162315 
850.607856  	0.160079 
852.536672  	0.158275 
854.465488  	0.156544 
856.394304  	0.154986 
858.323120  	0.153579 
860.251936  	0.151551 
862.180752  	0.149056 
864.109568  	0.146293 
866.038384  	0.143777 
867.967200  	0.141606 
869.896016  	0.139534 
871.824832  	0.138494 
873.753648  	0.138314 
875.682464  	0.138791 
877.611280  	0.139237 
879.540096  	0.140144 
881.468912  	0.142117 
883.397728  	0.143697 
885.326544  	0.144856 
887.255360  	0.145015 
889.184176  	0.143877 
891.112992  	0.141999 
893.041808  	0.140205 
894.970624  	0.137770 
896.899440  	0.134412 
898.828256  	0.130225 
900.757072  	0.126097 
902.685888  	0.122750 
904.614704  	0.120893 
906.543520  	0.121046 
908.472336  	0.122461 
910.401152  	0.125048 
912.329968  	0.128022 
914.258784  	0.131243 
916.187600  	0.134240 
918.116416  	0.136825 
920.045232  	0.138653 
921.974048  	0.139677 
923.902864  	0.140119 
925.831680  	0.140091 
927.760496  	0.140140 
929.689312  	0.140470 
931.618128  	0.141147 
933.546944  	0.141779 
935.475760  	0.142167 
937.404576  	0.142106 
939.333392  	0.141566 
941.262208  	0.141530 
943.191024  	0.142951 
945.119840  	0.146487 
947.048656  	0.152304 
948.977472  	0.160173 
950.906288  	0.169729 
952.835104  	0.180507 
954.763920  	0.192095 
956.692736  	0.203279 
958.621552  	0.213041 
960.550368  	0.219910 
962.479184  	0.223537 
964.408000  	0.222976 
966.336816  	0.218244 
968.265632  	0.209837 
970.194448  	0.198352 
972.123264  	0.184816 
974.052080  	0.170630 
975.980896  	0.156896 
977.909712  	0.144057 
979.838528  	0.132538 
981.767344  	0.122914 
983.696160  	0.115376 
985.624976  	0.110565 
987.553792  	0.108639 
989.482608  	0.109476 
991.411424  	0.112717 
993.340240  	0.117770 
995.269056  	0.124027 
997.197872  	0.130904 
999.126688  	0.137845 
1001.055504  	0.144711 
1002.984320  	0.151784 
1004.913136  	0.158743 
1006.841952  	0.165517 
1008.770768  	0.171143 
1010.699584  	0.175148 
1012.628400  	0.177550 
1014.557216  	0.178514 
1016.486032  	0.178686 
1018.414848  	0.178520 
1020.343664  	0.178275 
1022.272480  	0.177597 
1024.201296  	0.176179 
1026.130112  	0.172770 
1028.058928  	0.171602 
1029.987744  	0.174734 
1031.916560  	0.176890 
1033.845376  	0.178133 
1035.774192  	0.179663 
1037.703008  	0.182706 
1039.631824  	0.189182 
1041.560640  	0.198546 
1043.489456  	0.210816 
1045.418272  	0.226112 
1047.347088  	0.243548 
1049.275904  	0.259759 
1051.204720  	0.272531 
1053.133536  	0.280706 
1055.062352  	0.284784 
1056.991168  	0.284849 
1058.919984  	0.286060 
1060.848800  	0.286935 
1062.777616  	0.284241 
1064.706432  	0.278025 
1066.635248  	0.272632 
1068.564064  	0.270240 
1070.492880  	0.264776 
1072.421696  	0.256335 
1074.350512  	0.250210 
1076.279328  	0.248039 
1078.208144  	0.250197 
1080.136960  	0.255377 
1082.065776  	0.261171 
1083.994592  	0.264852 
1085.923408  	0.266048 
1087.852224  	0.263724 
1089.781040  	0.259130 
1091.709856  	0.252897 
1093.638672  	0.244081 
1095.567488  	0.232367 
1097.496304  	0.219359 
1099.425120  	0.205785 
1101.353936  	0.192159 
1103.282752  	0.178916 
1105.211568  	0.166431 
1107.140384  	0.154488 
1109.069200  	0.143085 
1110.998016  	0.132682 
1112.926832  	0.123333 
1114.855648  	0.114845 
1116.784464  	0.106775 
1118.713280  	0.099022 
1120.642096  	0.091831 
1122.570912  	0.085418 
1124.499728  	0.079171 
1126.428544  	0.073355 
1128.357360  	0.068240 
1130.286176  	0.064186 
1132.214992  	0.060655 
1134.143808  	0.057921 
1136.072624  	0.055476 
1138.001440  	0.053454 
1139.930256  	0.051182 
1141.859072  	0.048781 
1143.787888  	0.046248 
1145.716704  	0.043927 
1147.645520  	0.041654 
1149.574336  	0.039972 
1151.503152  	0.038552 
1153.431968  	0.037952 
1155.360784  	0.037962 
1157.289600  	0.038857 
1159.218416  	0.040405 
1161.147232  	0.042367 
1163.076048  	0.044415 
1165.004864  	0.046955 
1166.933680  	0.049222 
1168.862496  	0.051662 
1170.791312  	0.054229 
1172.720128  	0.057306 
1174.648944  	0.060138 
1176.577760  	0.062953 
1178.506576  	0.065707 
1180.435392  	0.068753 
1182.364208  	0.071599 
1184.293024  	0.074880 
1186.221840  	0.078410 
1188.150656  	0.082513 
1190.079472  	0.087314 
1192.008288  	0.092956 
1193.937104  	0.099690 
1195.865920  	0.107702 
1197.794736  	0.116365 
1199.723552  	0.125844 
1201.652368  	0.135541 
1203.581184  	0.145453 
1205.510000  	0.155163 
1207.438816  	0.164193 
1209.367632  	0.172589 
1211.296448  	0.180248 
1213.225264  	0.186677 
1215.154080  	0.191570 
1217.082896  	0.195035 
1219.011712  	0.197287 
1220.940528  	0.198943 
1222.869344  	0.199805 
1224.798160  	0.199809 
1226.726976  	0.198972 
1228.655792  	0.197830 
1230.584608  	0.195859 
1232.513424  	0.193438 
1234.442240  	0.190321 
1236.371056  	0.186342 
1238.299872  	0.181209 
1240.228688  	0.173737 
1242.157504  	0.166211 
1244.086320  	0.159781 
1246.015136  	0.151879 
1247.943952  	0.143079 
1249.872768  	0.134410 
1251.801584  	0.127059 
1253.730400  	0.119702 
1255.659216  	0.112428 
1257.588032  	0.105734 
1259.516848  	0.099256 
1261.445664  	0.093138 
1263.374480  	0.087524 
1265.303296  	0.082861 
1267.232112  	0.079237 
1269.160928  	0.076512 
1271.089744  	0.074459 
1273.018560  	0.073313 
1274.947376  	0.072997 
1276.876192  	0.073249 
1278.805008  	0.073185 
1280.733824  	0.072115 
1282.662640  	0.069913 
1284.591456  	0.067382 
1286.520272  	0.065308 
1288.449088  	0.063877 
1290.377904  	0.062993 
1292.306720  	0.063019 
1294.235536  	0.063128 
1296.164352  	0.062332 
1298.093168  	0.059994 
1300.021984  	0.056884 
1301.950800  	0.053572 
1303.879616  	0.050577 
1305.808432  	0.047282 
1307.737248  	0.044044 
1309.666064  	0.040965 
1311.594880  	0.038815 
1313.523696  	0.037137 
1315.452512  	0.035970 
1317.381328  	0.035305 
1319.310144  	0.035115 
1321.238960  	0.035114 
1323.167776  	0.035747 
1325.096592  	0.036631 
1327.025408  	0.037292 
1328.954224  	0.037289 
1330.883040  	0.036799 
1332.811856  	0.035832 
1334.740672  	0.035329 
1336.669488  	0.035425 
1338.598304  	0.035843 
1340.527120  	0.034338 
1342.455936  	0.032382 
1344.384752  	0.031862 
1346.313568  	0.032134 
1348.242384  	0.032800 
1350.171200  	0.034097 
1352.100016  	0.035714 
1354.028832  	0.037787 
1355.957648  	0.039664 
1357.886464  	0.041774 
1359.815280  	0.044308 
1361.744096  	0.047025 
1363.672912  	0.048291 
1365.601728  	0.049275 
1367.530544  	0.050648 
1369.459360  	0.051098 
1371.388176  	0.050907 
1373.316992  	0.049699 
1375.245808  	0.046243 
1377.174624  	0.043627 
1379.103440  	0.040669 
1381.032256  	0.037460 
1382.961072  	0.035123 
1384.889888  	0.034487 
1386.818704  	0.033972 
1388.747520  	0.031986 
1390.676336  	0.029492 
1392.605152  	0.026261 
1394.533968  	0.024306 
1396.462784  	0.027122 
1398.391600  	0.028308 
1400.320416  	0.027360 
1402.249232  	0.027717 
1404.178048  	0.028504 
1406.106864  	0.029062 
1408.035680  	0.030956 
1409.964496  	0.033620 
1411.893312  	0.036611 
1413.822128  	0.039687 
1415.750944  	0.043812 
1417.679760  	0.046635 
1419.608576  	0.045892 
1421.537392  	0.046160 
1423.466208  	0.046522 
1425.395024  	0.044765 
1427.323840  	0.043488 
1429.252656  	0.040913 
1431.181472  	0.039103 
1433.110288  	0.039093 
1435.039104  	0.039768 
1436.967920  	0.038825 
1438.896736  	0.039469 
1440.825552  	0.040797 
1442.754368  	0.041455 
1444.683184  	0.041638 
1446.612000  	0.041494 
1448.540816  	0.040243 
1450.469632  	0.040831 
1452.398448  	0.041870 
1454.327264  	0.043031 
1456.256080  	0.041964 
1458.184896  	0.038539 
1460.113712  	0.040501 
1462.042528  	0.042431 
1463.971344  	0.041920 
1465.900160  	0.042188 
1467.828976  	0.045289 
1469.757792  	0.048837 
1471.686608  	0.051659 
1473.615424  	0.057070 
1475.544240  	0.064218 
1477.473056  	0.070151 
1479.401872  	0.074340 
1481.330688  	0.077633 
1483.259504  	0.079804 
1485.188320  	0.081492 
1487.117136  	0.081239 
1489.045952  	0.080316 
1490.974768  	0.076713 
1492.903584  	0.074652 
1494.832400  	0.071508 
1496.761216  	0.064153 
1498.690032  	0.057895 
1500.618848  	0.054503 
1502.547664  	0.051127 
1504.476480  	0.046589 
1506.405296  	0.039093 
1508.334112  	0.037586 
1510.262928  	0.038307 
1512.191744  	0.036299 
1514.120560  	0.035380 
1516.049376  	0.034616 
1517.978192  	0.033186 
1519.907008  	0.034318 
1521.835824  	0.033959 
1523.764640  	0.038890 
1525.693456  	0.043857 
1527.622272  	0.046199 
1529.551088  	0.047301 
1531.479904  	0.047346 
1533.408720  	0.042740 
1535.337536  	0.039813 
1537.266352  	0.038187 
1539.195168  	0.029044 
1541.123984  	0.021318 
1543.052800  	0.025452 
1544.981616  	0.026759 
1546.910432  	0.026446 
1548.839248  	0.027033 
1550.768064  	0.027005 
1552.696880  	0.026641 
1554.625696  	0.026646 
1556.554512  	0.026292 
1558.483328  	0.022335 
1560.412144  	0.026968 
1562.340960  	0.035646 
1564.269776  	0.039912 
1566.198592  	0.045385 
1568.127408  	0.049485 
1570.056224  	0.054016 
1571.985040  	0.061877 
1573.913856  	0.067064 
1575.842672  	0.067120 
1577.771488  	0.070292 
1579.700304  	0.073355 
1581.629120  	0.073473 
1583.557936  	0.072837 
1585.486752  	0.073513 
1587.415568  	0.075882 
1589.344384  	0.080387 
1591.273200  	0.086321 
1593.202016  	0.093604 
1595.130832  	0.101388 
1597.059648  	0.109681 
1598.988464  	0.116760 
1600.917280  	0.123039 
1602.846096  	0.127096 
1604.774912  	0.129719 
1606.703728  	0.130050 
1608.632544  	0.128924 
1610.561360  	0.126833 
1612.490176  	0.125656 
1614.418992  	0.123492 
1616.347808  	0.119353 
1618.276624  	0.120505 
1620.205440  	0.126328 
1622.134256  	0.129182 
1624.063072  	0.134310 
1625.991888  	0.142063 
1627.920704  	0.150418 
1629.849520  	0.160954 
1631.778336  	0.171519 
1633.707152  	0.178363 
1635.635968  	0.184249 
1637.564784  	0.195238 
1639.493600  	0.205255 
1641.422416  	0.211386 
1643.351232  	0.215822 
1645.280048  	0.215734 
1647.208864  	0.213584 
1649.137680  	0.216538 
1651.066496  	0.218460 
1652.995312  	0.208396 
1654.924128  	0.207421 
1656.852944  	0.210481 
1658.781760  	0.209162 
1660.710576  	0.205240 
1662.639392  	0.198858 
1664.568208  	0.194919 
1666.497024  	0.193208 
1668.425840  	0.186777 
1670.354656  	0.178392 
1672.283472  	0.175926 
1674.212288  	0.173080 
1676.141104  	0.167549 
1678.069920  	0.167616 
1679.998736  	0.167151 
1681.927552  	0.165545 
1683.856368  	0.158476 
1685.785184  	0.157089 
1687.714000  	0.161051 
1689.642816  	0.160607 
1691.571632  	0.158906 
1693.500448  	0.158134 
1695.429264  	0.152764 
1697.358080  	0.148658 
1699.286896  	0.146382 
1701.215712  	0.140018 
1703.144528  	0.140659 
1705.073344  	0.136321 
1707.002160  	0.130109 
1708.930976  	0.126370 
1710.859792  	0.120476 
1712.788608  	0.113671 
1714.717424  	0.104753 
1716.646240  	0.092828 
1718.575056  	0.078766 
1720.503872  	0.072074 
1722.432688  	0.065821 
1724.361504  	0.056393 
1726.290320  	0.048652 
1728.219136  	0.042314 
1730.147952  	0.036455 
1732.076768  	0.031247 
1734.005584  	0.023088 
1735.934400  	0.018029 
1737.863216  	0.018288 
1739.792032  	0.014009 
1741.720848  	0.012989 
1743.649664  	0.012837 
1745.578480  	0.011935 
1747.507296  	0.009941 
1749.436112  	0.008748 
1751.364928  	0.007541 
1753.293744  	0.007028 
1755.222560  	0.006838 
1757.151376  	0.006051 
1759.080192  	0.005576 
1761.009008  	0.004926 
1762.937824  	0.003324 
1764.866640  	0.004004 
1766.795456  	0.004594 
1768.724272  	0.003932 
1770.653088  	0.001128 
1772.581904  	-0.001968 
1774.510720  	-0.000136 
1776.439536  	0.001964 
1778.368352  	0.002381 
1780.297168  	0.001926 
1782.225984  	0.001349 
1784.154800  	0.001954 
1786.083616  	0.001245 
1788.012432  	0.001412 
1789.941248  	0.001702 
1791.870064  	-0.000059 
1793.798880  	-0.001360 
1795.727696  	0.000500 
1797.656512  	0.000196 
1799.585328  	0.000070 
1801.514144  	0.000547 
1803.442960  	0.000330 
1805.371776  	-0.000300 
1807.300592  	0.000146 
1809.229408  	-0.000523 
1811.158224  	-0.000957 
1813.087040  	-0.000941 
1815.015856  	-0.000557 
1816.944672  	-0.000636 
1818.873488  	-0.000723 
1820.802304  	-0.000714 
1822.731120  	0.000086 
1824.659936  	-0.000715 
1826.588752  	-0.001404 
1828.517568  	-0.002121 
1830.446384  	-0.002767 
1832.375200  	-0.001740 
1834.304016  	-0.000871 
1836.232832  	-0.001036 
1838.161648  	-0.001001 
1840.090464  	-0.001127 
1842.019280  	-0.000378 
1843.948096  	-0.001882 
1845.876912  	-0.001891 
1847.805728  	-0.001055 
1849.734544  	-0.001075 
1851.663360  	-0.001378 
1853.592176  	-0.001334 
1855.520992  	-0.001646 
1857.449808  	-0.001401 
1859.378624  	-0.001466 
1861.307440  	-0.001430 
1863.236256  	-0.001612 
1865.165072  	-0.001373 
1867.093888  	-0.001775 
1869.022704  	-0.002181 
1870.951520  	-0.002182 
1872.880336  	-0.001774 
1874.809152  	-0.002080 
1876.737968  	-0.001975 
1878.666784  	-0.002249 
1880.595600  	-0.001682 
1882.524416  	-0.001899 
1884.453232  	-0.001845 
1886.382048  	-0.002269 
1888.310864  	-0.002274 
1890.239680  	-0.002874 
1892.168496  	-0.002173 
1894.097312  	-0.001973 
1896.026128  	-0.001791 
1897.954944  	-0.001774 
1899.883760  	-0.001459 
1901.812576  	-0.002034 
1903.741392  	-0.002189 
1905.670208  	-0.002211 
1907.599024  	-0.001796 
1909.527840  	-0.002170 
1911.456656  	-0.001925 
1913.385472  	-0.001942 
1915.314288  	-0.001334 
1917.243104  	-0.001776 
1919.171920  	-0.002238 
1921.100736  	-0.002034 
1923.029552  	-0.001487 
1924.958368  	-0.002176 
1926.887184  	-0.002045 
1928.816000  	-0.002375 
1930.744816  	-0.002322 
1932.673632  	-0.002512 
1934.602448  	-0.002352 
1936.531264  	-0.002370 
1938.460080  	-0.001674 
1940.388896  	-0.002127 
1942.317712  	-0.001632 
1944.246528  	-0.001800 
1946.175344  	-0.001344 
1948.104160  	-0.001662 
1950.032976  	-0.001430 
1951.961792  	-0.001874 
1953.890608  	-0.002016 
1955.819424  	-0.002877 
1957.748240  	-0.002044 
1959.677056  	-0.002709 
1961.605872  	-0.001938 
1963.534688  	-0.001824 
1965.463504  	-0.001503 
1967.392320  	-0.002249 
1969.321136  	-0.002123 
1971.249952  	-0.002472 
1973.178768  	-0.001692 
1975.107584  	-0.002649 
1977.036400  	-0.001472 
1978.965216  	-0.000736 
1980.894032  	-0.000595 
1982.822848  	-0.001211 
1984.751664  	-0.000943 
1986.680480  	-0.002002 
1988.609296  	-0.001063 
1990.538112  	-0.001222 
1992.466928  	-0.001071 
1994.395744  	-0.002275 
1996.324560  	-0.002757 
1998.253376  	-0.003163 
2000.182192  	-0.002846 
2002.111008  	-0.002457 
2004.039824  	-0.001106 
2005.968640  	-0.002041 
2007.897456  	-0.001156 
2009.826272  	-0.001202 
2011.755088  	-0.000659 
2013.683904  	-0.001609 
2015.612720  	-0.001112 
2017.541536  	-0.001746 
2019.470352  	-0.001625 
2021.399168  	-0.002169 
2023.327984  	-0.001972 
2025.256800  	-0.001550 
2027.185616  	-0.000047 
2029.114432  	-0.000302 
2031.043248  	-0.000508 
2032.972064  	-0.000759 
2034.900880  	-0.000152 
2036.829696  	-0.001107 
2038.758512  	0.000039 
2040.687328  	-0.000465 
2042.616144  	-0.000515 
2044.544960  	-0.001044 
2046.473776  	-0.000252 
2048.402592  	-0.000287 
2050.331408  	-0.000112 
2052.260224  	-0.001046 
2054.189040  	-0.001585 
2056.117856  	-0.002228 
2058.046672  	-0.001798 
2059.975488  	-0.001947 
2061.904304  	-0.002015 
2063.833120  	-0.001598 
2065.761936  	-0.001346 
2067.690752  	-0.001794 
2069.619568  	-0.001140 
2071.548384  	-0.001527 
2073.477200  	-0.001830 
2075.406016  	-0.001586 
2077.334832  	-0.000955 
2079.263648  	-0.001319 
2081.192464  	-0.001201 
2083.121280  	-0.001114 
2085.050096  	-0.001257 
2086.978912  	-0.001546 
2088.907728  	-0.001131 
2090.836544  	-0.001591 
2092.765360  	-0.001535 
2094.694176  	-0.000981 
2096.622992  	-0.000572 
2098.551808  	-0.000979 
2100.480624  	-0.000948 
2102.409440  	-0.001039 
2104.338256  	-0.000970 
2106.267072  	-0.000795 
2108.195888  	-0.000547 
2110.124704  	-0.000822 
2112.053520  	-0.000786 
2113.982336  	-0.000957 
2115.911152  	-0.000612 
2117.839968  	-0.000599 
2119.768784  	-0.000723 
2121.697600  	-0.001273 
2123.626416  	-0.001245 
2125.555232  	-0.001420 
2127.484048  	-0.001092 
2129.412864  	-0.001708 
2131.341680  	-0.002010 
2133.270496  	-0.002075 
2135.199312  	-0.001590 
2137.128128  	-0.001148 
2139.056944  	-0.000954 
2140.985760  	-0.001622 
2142.914576  	-0.000643 
2144.843392  	-0.000266 
2146.772208  	-0.000733 
2148.701024  	-0.002026 
2150.629840  	-0.000862 
2152.558656  	-0.000600 
2154.487472  	-0.000858 
2156.416288  	-0.001436 
2158.345104  	-0.000456 
2160.273920  	0.001824 
2162.202736  	0.003029 
2164.131552  	0.001671 
2166.060368  	0.001514 
2167.989184  	0.002139 
2169.918000  	0.002752 
2171.846816  	0.000694 
2173.775632  	0.000709 
2175.704448  	0.001433 
2177.633264  	0.001736 
2179.562080  	0.001356 
2181.490896  	0.000622 
2183.419712  	-0.001166 
2185.348528  	-0.000392 
2187.277344  	-0.000091 
2189.206160  	-0.000047 
2191.134976  	-0.000571 
2193.063792  	-0.000492 
2194.992608  	-0.000480 
2196.921424  	-0.000296 
2198.850240  	-0.000694 
2200.779056  	-0.000645 
2202.707872  	-0.000718 
2204.636688  	-0.000531 
2206.565504  	-0.000028 
2208.494320  	-0.000023 
2210.423136  	-0.001045 
2212.351952  	-0.000933 
2214.280768  	-0.000870 
2216.209584  	-0.000456 
2218.138400  	-0.000781 
2220.067216  	-0.000935 
2221.996032  	-0.001188 
2223.924848  	-0.000969 
2225.853664  	-0.000991 
2227.782480  	-0.000479 
2229.711296  	-0.000670 
2231.640112  	-0.001187 
2233.568928  	-0.001998 
2235.497744  	-0.001509 
2237.426560  	-0.001496 
2239.355376  	-0.001676 
2241.284192  	-0.001854 
2243.213008  	-0.001933 
2245.141824  	-0.002134 
2247.070640  	-0.001416 
2248.999456  	-0.001251 
2250.928272  	-0.001619 
2252.857088  	-0.001983 
2254.785904  	-0.002035 
2256.714720  	-0.002076 
2258.643536  	-0.002000 
2260.572352  	-0.002709 
2262.501168  	-0.002643 
2264.429984  	-0.002344 
2266.358800  	-0.002188 
2268.287616  	-0.002281 
2270.216432  	-0.002081 
2272.145248  	-0.002139 
2274.074064  	-0.002230 
2276.002880  	-0.002196 
2277.931696  	-0.001867 
2279.860512  	-0.001632 
2281.789328  	-0.001247 
2283.718144  	-0.001215 
2285.646960  	-0.001244 
2287.575776  	-0.001473 
2289.504592  	-0.001593 
2291.433408  	-0.001776 
2293.362224  	-0.001660 
2295.291040  	-0.001370 
2297.219856  	-0.001037 
2299.148672  	-0.000968 
2301.077488  	-0.000980 
2303.006304  	-0.001143 
2304.935120  	-0.000974 
2306.863936  	-0.000963 
2308.792752  	-0.001390 
2310.721568  	-0.002240 
2312.650384  	-0.002999 
2314.579200  	-0.004026 
2316.508016  	-0.005119 
2318.436832  	-0.006393 
2320.365648  	-0.008095 
2322.294464  	-0.009945 
2324.223280  	-0.011892 
2326.152096  	-0.014329 
2328.080912  	-0.016444 
2330.009728  	-0.018708 
2331.938544  	-0.020869 
2333.867360  	-0.022453 
2335.796176  	-0.023747 
2337.724992  	-0.025115 
2339.653808  	-0.025492 
2341.582624  	-0.025742 
2343.511440  	-0.024435 
2345.440256  	-0.021316 
2347.369072  	-0.015089 
2349.297888  	-0.011619 
2351.226704  	-0.015213 
2353.155520  	-0.022053 
2355.084336  	-0.027476 
2357.013152  	-0.031754 
2358.941968  	-0.034123 
2360.870784  	-0.035678 
2362.799600  	-0.034623 
2364.728416  	-0.032235 
2366.657232  	-0.028834 
2368.586048  	-0.024536 
2370.514864  	-0.020064 
2372.443680  	-0.015684 
2374.372496  	-0.011335 
2376.301312  	-0.007615 
2378.230128  	-0.004575 
2380.158944  	-0.002650 
2382.087760  	-0.001734 
2384.016576  	-0.001704 
2385.945392  	-0.001971 
2387.874208  	-0.002196 
2389.803024  	-0.002279 
2391.731840  	-0.002376 
2393.660656  	-0.002344 
2395.589472  	-0.002385 
2397.518288  	-0.002262 
2399.447104  	-0.002504 
2401.375920  	-0.002695 
2403.304736  	-0.002904 
2405.233552  	-0.002659 
2407.162368  	-0.002577 
2409.091184  	-0.002598 
2411.020000  	-0.002548 
2412.948816  	-0.002377 
2414.877632  	-0.002309 
2416.806448  	-0.002190 
2418.735264  	-0.002322 
2420.664080  	-0.002470 
2422.592896  	-0.002548 
2424.521712  	-0.002347 
2426.450528  	-0.002298 
2428.379344  	-0.002070 
2430.308160  	-0.001919 
2432.236976  	-0.001816 
2434.165792  	-0.001975 
2436.094608  	-0.002064 
2438.023424  	-0.001912 
2439.952240  	-0.001691 
2441.881056  	-0.001904 
2443.809872  	-0.002021 
2445.738688  	-0.001815 
2447.667504  	-0.001619 
2449.596320  	-0.001543 
2451.525136  	-0.001499 
2453.453952  	-0.001525 
2455.382768  	-0.001428 
2457.311584  	-0.001536 
2459.240400  	-0.001641 
2461.169216  	-0.001721 
2463.098032  	-0.001901 
2465.026848  	-0.001972 
2466.955664  	-0.001938 
2468.884480  	-0.002034 
2470.813296  	-0.002018 
2472.742112  	-0.001978 
2474.670928  	-0.001698 
2476.599744  	-0.001719 
2478.528560  	-0.001667 
2480.457376  	-0.001618 
2482.386192  	-0.001576 
2484.315008  	-0.001472 
2486.243824  	-0.001477 
2488.172640  	-0.001663 
2490.101456  	-0.001470 
2492.030272  	-0.001335 
2493.959088  	-0.001290 
2495.887904  	-0.001269 
2497.816720  	-0.001191 
2499.745536  	-0.000979 
2501.674352  	-0.000756 
2503.603168  	-0.000593 
2505.531984  	-0.000563 
2507.460800  	-0.000715 
2509.389616  	-0.000640 
2511.318432  	-0.000719 
2513.247248  	-0.000737 
2515.176064  	-0.000738 
2517.104880  	-0.000720 
2519.033696  	-0.000797 
2520.962512  	-0.000805 
2522.891328  	-0.000663 
2524.820144  	-0.000647 
2526.748960  	-0.000724 
2528.677776  	-0.000483 
2530.606592  	-0.000428 
2532.535408  	-0.000380 
2534.464224  	-0.000408 
2536.393040  	-0.000432 
2538.321856  	-0.000301 
2540.250672  	-0.000098 
2542.179488  	-0.000026 
2544.108304  	0.000084 
2546.037120  	0.000062 
2547.965936  	0.000111 
2549.894752  	0.000125 
2551.823568  	-0.000109 
2553.752384  	0.000132 
2555.681200  	0.000739 
2557.610016  	0.000616 
2559.538832  	0.000563 
2561.467648  	0.000937 
2563.396464  	0.001222 
2565.325280  	0.001182 
2567.254096  	0.001056 
2569.182912  	0.000981 
2571.111728  	0.000985 
2573.040544  	0.001064 
2574.969360  	0.001229 
2576.898176  	0.001407 
2578.826992  	0.001484 
2580.755808  	0.001423 
2582.684624  	0.001698 
2584.613440  	0.001756 
2586.542256  	0.001590 
2588.471072  	0.001594 
2590.399888  	0.001756 
2592.328704  	0.001863 
2594.257520  	0.001900 
2596.186336  	0.001959 
2598.115152  	0.002049 
2600.043968  	0.002058 
2601.972784  	0.002211 
2603.901600  	0.002344 
2605.830416  	0.002522 
2607.759232  	0.002737 
2609.688048  	0.002833 
2611.616864  	0.003014 
2613.545680  	0.003165 
2615.474496  	0.003292 
2617.403312  	0.003439 
2619.332128  	0.003474 
2621.260944  	0.003508 
2623.189760  	0.003585 
2625.118576  	0.003801 
2627.047392  	0.003773 
2628.976208  	0.003774 
2630.905024  	0.003913 
2632.833840  	0.004066 
2634.762656  	0.004179 
2636.691472  	0.004242 
2638.620288  	0.004361 
2640.549104  	0.004568 
2642.477920  	0.004660 
2644.406736  	0.004818 
2646.335552  	0.004914 
2648.264368  	0.005008 
2650.193184  	0.005125 
2652.122000  	0.005295 
2654.050816  	0.005434 
2655.979632  	0.005583 
2657.908448  	0.005676 
2659.837264  	0.005769 
2661.766080  	0.005836 
2663.694896  	0.005969 
2665.623712  	0.006097 
2667.552528  	0.006346 
2669.481344  	0.006564 
2671.410160  	0.006693 
2673.338976  	0.006846 
2675.267792  	0.006976 
2677.196608  	0.007102 
2679.125424  	0.007265 
2681.054240  	0.007370 
2682.983056  	0.007444 
2684.911872  	0.007465 
2686.840688  	0.007634 
2688.769504  	0.007779 
2690.698320  	0.007819 
2692.627136  	0.007810 
2694.555952  	0.007905 
2696.484768  	0.008032 
2698.413584  	0.008109 
2700.342400  	0.008225 
2702.271216  	0.008440 
2704.200032  	0.008643 
2706.128848  	0.008691 
2708.057664  	0.008683 
2709.986480  	0.008809 
2711.915296  	0.008932 
2713.844112  	0.009033 
2715.772928  	0.009118 
2717.701744  	0.009281 
2719.630560  	0.009626 
2721.559376  	0.009841 
2723.488192  	0.009959 
2725.417008  	0.010169 
2727.345824  	0.010363 
2729.274640  	0.010438 
2731.203456  	0.010574 
2733.132272  	0.010767 
2735.061088  	0.010921 
2736.989904  	0.011172 
2738.918720  	0.011322 
2740.847536  	0.011364 
2742.776352  	0.011269 
2744.705168  	0.011285 
2746.633984  	0.011424 
2748.562800  	0.011536 
2750.491616  	0.011627 
2752.420432  	0.011765 
2754.349248  	0.011767 
2756.278064  	0.011760 
2758.206880  	0.011709 
2760.135696  	0.011666 
2762.064512  	0.011672 
2763.993328  	0.011652 
2765.922144  	0.011592 
2767.850960  	0.011653 
2769.779776  	0.011664 
2771.708592  	0.011716 
2773.637408  	0.011616 
2775.566224  	0.011504 
2777.495040  	0.011439 
2779.423856  	0.011584 
2781.352672  	0.011802 
2783.281488  	0.011820 
2785.210304  	0.011779 
2787.139120  	0.011739 
2789.067936  	0.011763 
2790.996752  	0.011827 
2792.925568  	0.011734 
2794.854384  	0.011756 
2796.783200  	0.011810 
2798.712016  	0.011690 
2800.640832  	0.011610 
2802.569648  	0.011744 
2804.498464  	0.011905 
2806.427280  	0.011847 
2808.356096  	0.011737 
2810.284912  	0.011844 
2812.213728  	0.011963 
2814.142544  	0.011774 
2816.071360  	0.011645 
2818.000176  	0.011602 
2819.928992  	0.011535 
2821.857808  	0.011416 
2823.786624  	0.011210 
2825.715440  	0.011057 
2827.644256  	0.010928 
2829.573072  	0.010830 
2831.501888  	0.010497 
2833.430704  	0.010196 
2835.359520  	0.009985 
2837.288336  	0.009656 
2839.217152  	0.009396 
2841.145968  	0.009095 
2843.074784  	0.008698 
2845.003600  	0.008290 
2846.932416  	0.007933 
2848.861232  	0.007531 
2850.790048  	0.007120 
2852.718864  	0.006685 
2854.647680  	0.006225 
2856.576496  	0.005608 
2858.505312  	0.004994 
2860.434128  	0.004511 
2862.362944  	0.003848 
2864.291760  	0.002912 
2866.220576  	0.002175 
2868.149392  	0.001856 
2870.078208  	0.001672 
2872.007024  	0.001640 
2873.935840  	0.001781 
2875.864656  	0.001795 
2877.793472  	0.001579 
2879.722288  	0.001394 
2881.651104  	0.001037 
2883.579920  	0.000929 
2885.508736  	0.001189 
2887.437552  	0.001548 
2889.366368  	0.001604 
2891.295184  	0.001321 
2893.224000  	0.001141 
2895.152816  	0.001228 
2897.081632  	0.000946 
2899.010448  	-0.000703 
2900.939264  	-0.002135 
2902.868080  	-0.000830 
2904.796896  	0.000472 
2906.725712  	0.000989 
2908.654528  	0.001679 
2910.583344  	0.002213 
2912.512160  	0.002862 
2914.440976  	0.003963 
2916.369792  	0.004863 
2918.298608  	0.005477 
2920.227424  	0.006114 
2922.156240  	0.006871 
2924.085056  	0.007824 
2926.013872  	0.008861 
2927.942688  	0.009858 
2929.871504  	0.010872 
2931.800320  	0.011769 
2933.729136  	0.012438 
2935.657952  	0.013015 
2937.586768  	0.013819 
2939.515584  	0.014524 
2941.444400  	0.014727 
2943.373216  	0.014775 
2945.302032  	0.015150 
2947.230848  	0.015422 
2949.159664  	0.015200 
2951.088480  	0.014729 
2953.017296  	0.014278 
2954.946112  	0.013607 
2956.874928  	0.012814 
2958.803744  	0.012027 
2960.732560  	0.011554 
2962.661376  	0.010966 
2964.590192  	0.010042 
2966.519008  	0.008821 
2968.447824  	0.007695 
2970.376640  	0.006788 
2972.305456  	0.006389 
2974.234272  	0.006685 
2976.163088  	0.006935 
2978.091904  	0.006915 
2980.020720  	0.006850 
2981.949536  	0.007051 
2983.878352  	0.006770 
2985.807168  	0.005789 
2987.735984  	0.004957 
2989.664800  	0.005433 
2991.593616  	0.008509 
2993.522432  	0.010557 
2995.451248  	0.011114 
2997.380064  	0.011962 
2999.308880  	0.013165 
3001.237696  	0.014546 
3003.166512  	0.016079 
3005.095328  	0.017553 
3007.024144  	0.019032 
3008.952960  	0.020540 
3010.881776  	0.022080 
3012.810592  	0.023526 
3014.739408  	0.024807 
3016.668224  	0.026096 
3018.597040  	0.027390 
3020.525856  	0.028623 
3022.454672  	0.029796 
3024.383488  	0.030986 
3026.312304  	0.032128 
3028.241120  	0.033158 
3030.169936  	0.034033 
3032.098752  	0.034908 
3034.027568  	0.035817 
3035.956384  	0.036791 
3037.885200  	0.037843 
3039.814016  	0.038668 
3041.742832  	0.039339 
3043.671648  	0.039918 
3045.600464  	0.040504 
3047.529280  	0.041045 
3049.458096  	0.041775 
3051.386912  	0.042658 
3053.315728  	0.043281 
3055.244544  	0.043898 
3057.173360  	0.044630 
3059.102176  	0.045242 
3061.030992  	0.045947 
3062.959808  	0.046886 
3064.888624  	0.047680 
3066.817440  	0.048318 
3068.746256  	0.049236 
3070.675072  	0.050234 
3072.603888  	0.051003 
3074.532704  	0.051783 
3076.461520  	0.052540 
3078.390336  	0.053299 
3080.319152  	0.054172 
3082.247968  	0.055183 
3084.176784  	0.056054 
3086.105600  	0.056922 
3088.034416  	0.057765 
3089.963232  	0.058696 
3091.892048  	0.059383 
3093.820864  	0.060099 
3095.749680  	0.060944 
3097.678496  	0.062003 
3099.607312  	0.062953 
3101.536128  	0.063872 
3103.464944  	0.064863 
3105.393760  	0.065744 
3107.322576  	0.066665 
3109.251392  	0.067562 
3111.180208  	0.068367 
3113.109024  	0.069174 
3115.037840  	0.069972 
3116.966656  	0.070776 
3118.895472  	0.071491 
3120.824288  	0.072069 
3122.753104  	0.072826 
3124.681920  	0.073442 
3126.610736  	0.073960 
3128.539552  	0.074801 
3130.468368  	0.075750 
3132.397184  	0.076323 
3134.326000  	0.076992 
3136.254816  	0.077724 
3138.183632  	0.078454 
3140.112448  	0.079091 
3142.041264  	0.079696 
3143.970080  	0.080379 
3145.898896  	0.081050 
3147.827712  	0.081866 
3149.756528  	0.082536 
3151.685344  	0.083111 
3153.614160  	0.083835 
3155.542976  	0.084608 
3157.471792  	0.085246 
3159.400608  	0.085942 
3161.329424  	0.086810 
3163.258240  	0.087492 
3165.187056  	0.088140 
3167.115872  	0.088916 
3169.044688  	0.089402 
3170.973504  	0.089702 
3172.902320  	0.090159 
3174.831136  	0.090672 
3176.759952  	0.091185 
3178.688768  	0.091573 
3180.617584  	0.091855 
3182.546400  	0.092174 
3184.475216  	0.092513 
3186.404032  	0.092801 
3188.332848  	0.093077 
3190.261664  	0.093335 
3192.190480  	0.093534 
3194.119296  	0.093568 
3196.048112  	0.093812 
3197.976928  	0.093753 
3199.905744  	0.093634 
3201.834560  	0.093649 
3203.763376  	0.093753 
3205.692192  	0.093565 
3207.621008  	0.093392 
3209.549824  	0.093381 
3211.478640  	0.093419 
3213.407456  	0.093312 
3215.336272  	0.093101 
3217.265088  	0.093117 
3219.193904  	0.092997 
3221.122720  	0.092680 
3223.051536  	0.092432 
3224.980352  	0.092312 
3226.909168  	0.092160 
3228.837984  	0.091898 
3230.766800  	0.091725 
3232.695616  	0.091751 
3234.624432  	0.091587 
3236.553248  	0.091498 
3238.482064  	0.091537 
3240.410880  	0.091536 
3242.339696  	0.091612 
3244.268512  	0.091367 
3246.197328  	0.091606 
3248.126144  	0.092079 
3250.054960  	0.092089 
3251.983776  	0.092159 
3253.912592  	0.092396 
3255.841408  	0.092758 
3257.770224  	0.093158 
3259.699040  	0.093476 
3261.627856  	0.093740 
3263.556672  	0.093902 
3265.485488  	0.094025 
3267.414304  	0.094271 
3269.343120  	0.094721 
3271.271936  	0.095062 
3273.200752  	0.095112 
3275.129568  	0.095191 
3277.058384  	0.095631 
3278.987200  	0.096093 
3280.916016  	0.096320 
3282.844832  	0.096363 
3284.773648  	0.096470 
3286.702464  	0.096720 
3288.631280  	0.096927 
3290.560096  	0.097316 
3292.488912  	0.097916 
3294.417728  	0.098142 
3296.346544  	0.098344 
3298.275360  	0.098710 
3300.204176  	0.099135 
3302.132992  	0.099526 
3304.061808  	0.099725 
3305.990624  	0.100168 
3307.919440  	0.100756 
3309.848256  	0.101062 
3311.777072  	0.101415 
3313.705888  	0.101792 
3315.634704  	0.102173 
3317.563520  	0.102509 
3319.492336  	0.102757 
3321.421152  	0.103097 
3323.349968  	0.103428 
3325.278784  	0.103561 
3327.207600  	0.103650 
3329.136416  	0.103716 
3331.065232  	0.103877 
3332.994048  	0.103985 
3334.922864  	0.104204 
3336.851680  	0.104424 
3338.780496  	0.104235 
3340.709312  	0.103796 
3342.638128  	0.103631 
3344.566944  	0.103364 
3346.495760  	0.102975 
3348.424576  	0.102646 
3350.353392  	0.102409 
3352.282208  	0.102154 
3354.211024  	0.101970 
3356.139840  	0.101707 
3358.068656  	0.101191 
3359.997472  	0.100616 
3361.926288  	0.100132 
3363.855104  	0.099850 
3365.783920  	0.099562 
3367.712736  	0.099160 
3369.641552  	0.098759 
3371.570368  	0.098240 
3373.499184  	0.097852 
3375.428000  	0.097531 
3377.356816  	0.097263 
3379.285632  	0.097043 
3381.214448  	0.096526 
3383.143264  	0.096035 
3385.072080  	0.095576 
3387.000896  	0.094994 
3388.929712  	0.094553 
3390.858528  	0.094332 
3392.787344  	0.093953 
3394.716160  	0.093422 
3396.644976  	0.092983 
3398.573792  	0.092395 
3400.502608  	0.091811 
3402.431424  	0.091184 
3404.360240  	0.090595 
3406.289056  	0.090109 
3408.217872  	0.089641 
3410.146688  	0.089158 
3412.075504  	0.088698 
3414.004320  	0.088177 
3415.933136  	0.087690 
3417.861952  	0.086982 
3419.790768  	0.086425 
3421.719584  	0.085907 
3423.648400  	0.085414 
3425.577216  	0.084703 
3427.506032  	0.084043 
3429.434848  	0.083636 
3431.363664  	0.083090 
3433.292480  	0.082291 
3435.221296  	0.081577 
3437.150112  	0.080854 
3439.078928  	0.080286 
3441.007744  	0.079829 
3442.936560  	0.079467 
3444.865376  	0.079020 
3446.794192  	0.078054 
3448.723008  	0.077000 
3450.651824  	0.076278 
3452.580640  	0.075608 
3454.509456  	0.075017 
3456.438272  	0.074440 
3458.367088  	0.073943 
3460.295904  	0.073204 
3462.224720  	0.072121 
3464.153536  	0.071265 
3466.082352  	0.070468 
3468.011168  	0.069289 
3469.939984  	0.068320 
3471.868800  	0.067789 
3473.797616  	0.067136 
3475.726432  	0.066024 
3477.655248  	0.065203 
3479.584064  	0.064798 
3481.512880  	0.063908 
3483.441696  	0.062614 
3485.370512  	0.061868 
3487.299328  	0.060943 
3489.228144  	0.060094 
3491.156960  	0.059249 
3493.085776  	0.058338 
3495.014592  	0.057505 
3496.943408  	0.056906 
3498.872224  	0.056425 
3500.801040  	0.056149 
3502.729856  	0.055237 
3504.658672  	0.053831 
3506.587488  	0.053269 
3508.516304  	0.052867 
3510.445120  	0.051886 
3512.373936  	0.050862 
3514.302752  	0.050321 
3516.231568  	0.049983 
3518.160384  	0.049408 
3520.089200  	0.048539 
3522.018016  	0.048133 
3523.946832  	0.048113 
3525.875648  	0.047317 
3527.804464  	0.045739 
3529.733280  	0.044672 
3531.662096  	0.044125 
3533.590912  	0.043431 
3535.519728  	0.043124 
3537.448544  	0.042643 
3539.377360  	0.041572 
3541.306176  	0.040911 
3543.234992  	0.040745 
3545.163808  	0.040948 
3547.092624  	0.039945 
3549.021440  	0.038189 
3550.950256  	0.037290 
3552.879072  	0.036728 
3554.807888  	0.036101 
3556.736704  	0.035420 
3558.665520  	0.035059 
3560.594336  	0.034555 
3562.523152  	0.033683 
3564.451968  	0.033595 
3566.380784  	0.033719 
3568.309600  	0.032047 
3570.238416  	0.030680 
3572.167232  	0.029959 
3574.096048  	0.029029 
3576.024864  	0.028138 
3577.953680  	0.027738 
3579.882496  	0.027149 
3581.811312  	0.026208 
3583.740128  	0.025548 
3585.668944  	0.025631 
3587.597760  	0.024494 
3589.526576  	0.022703 
3591.455392  	0.021882 
3593.384208  	0.021319 
3595.313024  	0.020115 
3597.241840  	0.018656 
3599.170656  	0.017356 
3601.099472  	0.016480 
3603.028288  	0.016190 
3604.957104  	0.015907 
3606.885920  	0.015263 
3608.814736  	0.014146 
3610.743552  	0.013641 
3612.672368  	0.012414 
3614.601184  	0.011160 
3616.530000  	0.010698 
3618.458816  	0.008612 
3620.387632  	0.006997 
3622.316448  	0.007004 
3624.245264  	0.006669 
3626.174080  	0.006149 
3628.102896  	0.003397 
3630.031712  	0.000480 
3631.960528  	0.002000 
3633.889344  	0.001789 
3635.818160  	0.001185 
3637.746976  	0.000169 
3639.675792  	-0.000389 
3641.604608  	-0.000601 
3643.533424  	-0.001021 
3645.462240  	-0.002186 
3647.391056  	-0.005826 
3649.319872  	-0.010378 
3651.248688  	-0.010823 
3653.177504  	-0.007950 
3655.106320  	-0.008498 
3657.035136  	-0.010784 
3658.963952  	-0.010550 
3660.892768  	-0.010650 
3662.821584  	-0.011122 
3664.750400  	-0.011175 
3666.679216  	-0.011490 
3668.608032  	-0.014161 
3670.536848  	-0.017191 
3672.465664  	-0.015057 
3674.394480  	-0.016703 
3676.323296  	-0.020410 
3678.252112  	-0.016237 
3680.180928  	-0.014533 
3682.109744  	-0.014013 
3684.038560  	-0.014260 
3685.967376  	-0.014691 
3687.896192  	-0.017664 
3689.825008  	-0.020223 
3691.753824  	-0.018401 
3693.682640  	-0.015877 
3695.611456  	-0.014795 
3697.540272  	-0.013899 
3699.469088  	-0.013384 
3701.397904  	-0.014418 
3703.326720  	-0.014093 
3705.255536  	-0.012769 
3707.184352  	-0.012734 
3709.113168  	-0.014500 
3711.041984  	-0.016545 
3712.970800  	-0.014694 
3714.899616  	-0.011564 
3716.828432  	-0.011027 
3718.757248  	-0.011735 
3720.686064  	-0.012515 
3722.614880  	-0.013013 
3724.543696  	-0.012188 
3726.472512  	-0.012284 
3728.401328  	-0.012347 
3730.330144  	-0.013414 
3732.258960  	-0.015523 
3734.187776  	-0.014844 
3736.116592  	-0.014931 
3738.045408  	-0.013994 
3739.974224  	-0.012302 
3741.903040  	-0.011484 
3743.831856  	-0.014045 
3745.760672  	-0.015429 
3747.689488  	-0.013974 
3749.618304  	-0.016867 
3751.547120  	-0.018063 
3753.475936  	-0.014905 
3755.404752  	-0.012375 
3757.333568  	-0.012202 
3759.262384  	-0.013064 
3761.191200  	-0.012468 
3763.120016  	-0.010815 
3765.048832  	-0.011430 
3766.977648  	-0.011280 
3768.906464  	-0.012187 
3770.835280  	-0.012903 
3772.764096  	-0.011261 
3774.692912  	-0.010519 
3776.621728  	-0.010699 
3778.550544  	-0.012270 
3780.479360  	-0.012880 
3782.408176  	-0.011204 
3784.336992  	-0.011379 
3786.265808  	-0.011263 
3788.194624  	-0.010788 
3790.123440  	-0.010689 
3792.052256  	-0.010699 
3793.981072  	-0.010846 
3795.909888  	-0.012477 
3797.838704  	-0.012510 
3799.767520  	-0.013175 
3801.696336  	-0.016855 
3803.625152  	-0.014245 
3805.553968  	-0.013259 
3807.482784  	-0.014482 
3809.411600  	-0.011790 
3811.340416  	-0.010449 
3813.269232  	-0.010561 
3815.198048  	-0.013544 
3817.126864  	-0.014665 
3819.055680  	-0.013485 
3820.984496  	-0.016616 
3822.913312  	-0.014520 
3824.842128  	-0.011861 
3826.770944  	-0.012404 
3828.699760  	-0.011701 
3830.628576  	-0.012064 
3832.557392  	-0.012905 
3834.486208  	-0.013075 
3836.415024  	-0.014507 
3838.343840  	-0.015969 
3840.272656  	-0.014678 
3842.201472  	-0.013118 
3844.130288  	-0.012587 
3846.059104  	-0.011265 
3847.987920  	-0.010565 
3849.916736  	-0.010994 
3851.845552  	-0.014018 
3853.774368  	-0.018903 
3855.703184  	-0.014869 
3857.632000  	-0.011754 
3859.560816  	-0.010705 
3861.489632  	-0.010947 
3863.418448  	-0.012014 
3865.347264  	-0.012339 
3867.276080  	-0.011020 
3869.204896  	-0.012520 
3871.133712  	-0.012397 
3873.062528  	-0.011480 
3874.991344  	-0.012041 
3876.920160  	-0.010339 
3878.848976  	-0.009929 
3880.777792  	-0.010721 
3882.706608  	-0.010046 
3884.635424  	-0.010600 
3886.564240  	-0.011556 
3888.493056  	-0.010634 
3890.421872  	-0.011413 
3892.350688  	-0.012014 
3894.279504  	-0.010642 
3896.208320  	-0.009873 
3898.137136  	-0.009926 
3900.065952  	-0.010162 
3901.994768  	-0.010092 
3903.923584  	-0.010949 
3905.852400  	-0.011039 
3907.781216  	-0.010522 
3909.710032  	-0.010359 
3911.638848  	-0.010257 
3913.567664  	-0.009851 
3915.496480  	-0.009354 
3917.425296  	-0.009580 
3919.354112  	-0.009883 
3921.282928  	-0.009701 
3923.211744  	-0.009332 
3925.140560  	-0.009376 
3927.069376  	-0.009470 
3928.998192  	-0.009535 
3930.927008  	-0.009204 
3932.855824  	-0.009065 
3934.784640  	-0.009521 
3936.713456  	-0.009814 
3938.642272  	-0.009640 
3940.571088  	-0.009251 
3942.499904  	-0.009072 
3944.428720  	-0.009232 
3946.357536  	-0.008940 
3948.286352  	-0.008676 
3950.215168  	-0.009318 
3952.143984  	-0.010149 
3954.072800  	-0.010230 
3956.001616  	-0.009892 
3957.930432  	-0.009771 
3959.859248  	-0.009602 
3961.788064  	-0.009547 
3963.716880  	-0.009832 
3965.645696  	-0.010027 
3967.574512  	-0.009897 
3969.503328  	-0.009788 
3971.432144  	-0.009899 
3973.360960  	-0.009859 
3975.289776  	-0.009636 
3977.218592  	-0.009668 
3979.147408  	-0.009819 
3981.076224  	-0.009905 
3983.005040  	-0.009886 
3984.933856  	-0.009739 
3986.862672  	-0.009808 
3988.791488  	-0.009744 
3990.720304  	-0.009548 
3992.649120  	-0.009670 
3994.577936  	-0.009912 
3996.506752  	-0.009957 
3998.435568  	-0.009933 
4000.364384  	-0.009909 