##TITLE=No Description
##DATA TYPE=INFRARED SPECTRUM
##XUNITS=1/CM
##YUNITS=Abs
399.264912  	0.606018 
401.193728  	0.598582 
403.122544  	0.607897 
405.051360  	0.603483 
406.980176  	0.609476 
408.908992  	0.602200 
410.837808  	0.607381 
412.766624  	0.606439 
414.695440  	0.605195 
416.624256  	0.602875 
418.553072  	0.605388 
420.481888  	0.586664 
422.410704  	0.592247 
424.339520  	0.581554 
426.268336  	0.571776 
428.197152  	0.562908 
430.125968  	0.560466 
432.054784  	0.557046 
433.983600  	0.564610 
435.912416  	0.557430 
437.841232  	0.555415 
439.770048  	0.549638 
441.698864  	0.545155 
443.627680  	0.547424 
445.556496  	0.549571 
447.485312  	0.540057 
449.414128  	0.543208 
451.342944  	0.541675 
453.271760  	0.542036 
455.200576  	0.540841 
457.129392  	0.544666 
459.058208  	0.545326 
460.987024  	0.546714 
462.915840  	0.538665 
464.844656  	0.541058 
466.773472  	0.540536 
468.702288  	0.538559 
470.631104  	0.534259 
472.559920  	0.535260 
474.488736  	0.531890 
476.417552  	0.535974 
478.346368  	0.534390 
480.275184  	0.531554 
482.204000  	0.529756 
484.132816  	0.533340 
486.061632  	0.530071 
487.990448  	0.528659 
489.919264  	0.525469 
491.848080  	0.527577 
493.776896  	0.524196 
495.705712  	0.520895 
497.634528  	0.519461 
499.563344  	0.520815 
501.492160  	0.519242 
503.420976  	0.520030 
505.349792  	0.520771 
507.278608  	0.522381 
509.207424  	0.519668 
511.136240  	0.519086 
513.065056  	0.517037 
514.993872  	0.519663 
516.922688  	0.522181 
518.851504  	0.521798 
520.780320  	0.518855 
522.709136  	0.519655 
524.637952  	0.518498 
526.566768  	0.517218 
528.495584  	0.513581 
530.424400  	0.510364 
532.353216  	0.504517 
534.282032  	0.501496 
536.210848  	0.498396 
538.139664  	0.495135 
540.068480  	0.489285 
541.997296  	0.485289 
543.926112  	0.479174 
545.854928  	0.476587 
547.783744  	0.474524 
549.712560  	0.472351 
551.641376  	0.468144 
553.570192  	0.464662 
555.499008  	0.461445 
557.427824  	0.459384 
559.356640  	0.453883 
561.285456  	0.450200 
563.214272  	0.446787 
565.143088  	0.444740 
567.071904  	0.441638 
569.000720  	0.438566 
570.929536  	0.434166 
572.858352  	0.431352 
574.787168  	0.428968 
576.715984  	0.427491 
578.644800  	0.423366 
580.573616  	0.418906 
582.502432  	0.414069 
584.431248  	0.411163 
586.360064  	0.407776 
588.288880  	0.405551 
590.217696  	0.403126 
592.146512  	0.400900 
594.075328  	0.397598 
596.004144  	0.395462 
597.932960  	0.393790 
599.861776  	0.392413 
601.790592  	0.389694 
603.719408  	0.388529 
605.648224  	0.387040 
607.577040  	0.385537 
609.505856  	0.384233 
611.434672  	0.383261 
613.363488  	0.380863 
615.292304  	0.379295 
617.221120  	0.377128 
619.149936  	0.375422 
621.078752  	0.373486 
623.007568  	0.372760 
624.936384  	0.371599 
626.865200  	0.370013 
628.794016  	0.367910 
630.722832  	0.367174 
632.651648  	0.366752 
634.580464  	0.366554 
636.509280  	0.366002 
638.438096  	0.365667 
640.366912  	0.364260 
642.295728  	0.363015 
644.224544  	0.360414 
646.153360  	0.356757 
648.082176  	0.352055 
650.010992  	0.348343 
651.939808  	0.344202 
653.868624  	0.340713 
655.797440  	0.337237 
657.726256  	0.333126 
659.655072  	0.329036 
661.583888  	0.325456 
663.512704  	0.321970 
665.441520  	0.319409 
667.370336  	0.311558 
669.299152  	0.305123 
671.227968  	0.305528 
673.156784  	0.302925 
675.085600  	0.300202 
677.014416  	0.297859 
678.943232  	0.295149 
680.872048  	0.293004 
682.800864  	0.291380 
684.729680  	0.290308 
686.658496  	0.289074 
688.587312  	0.287806 
690.516128  	0.286128 
692.444944  	0.284915 
694.373760  	0.284059 
696.302576  	0.282316 
698.231392  	0.279648 
700.160208  	0.276932 
702.089024  	0.274781 
704.017840  	0.272802 
705.946656  	0.270293 
707.875472  	0.267660 
709.804288  	0.265579 
711.733104  	0.263550 
713.661920  	0.261278 
715.590736  	0.260021 
717.519552  	0.259213 
719.448368  	0.259185 
721.377184  	0.259046 
723.306000  	0.259204 
725.234816  	0.259305 
727.163632  	0.258613 
729.092448  	0.256464 
731.021264  	0.253532 
732.950080  	0.250222 
734.878896  	0.247142 
736.807712  	0.244218 
738.736528  	0.241613 
740.665344  	0.239639 
742.594160  	0.237860 
744.522976  	0.236221 
746.451792  	0.234814 
748.380608  	0.233230 
750.309424  	0.231473 
752.238240  	0.230124 
754.167056  	0.229388 
756.095872  	0.228079 
758.024688  	0.226808 
759.953504  	0.225920 
761.882320  	0.226046 
763.811136  	0.226394 
765.739952  	0.225467 
767.668768  	0.223065 
769.597584  	0.220785 
771.526400  	0.219679 
773.455216  	0.220452 
775.384032  	0.223026 
777.312848  	0.226932 
779.241664  	0.230131 
781.170480  	0.230069 
783.099296  	0.226980 
785.028112  	0.221969 
786.956928  	0.216193 
788.885744  	0.211150 
790.814560  	0.207270 
792.743376  	0.204775 
794.672192  	0.203635 
796.601008  	0.202894 
798.529824  	0.199986 
800.458640  	0.195306 
802.387456  	0.191819 
804.316272  	0.189691 
806.245088  	0.188211 
808.173904  	0.187376 
810.102720  	0.186912 
812.031536  	0.186404 
813.960352  	0.186036 
815.889168  	0.185993 
817.817984  	0.185820 
819.746800  	0.185641 
821.675616  	0.185400 
823.604432  	0.184937 
825.533248  	0.184467 
827.462064  	0.183559 
829.390880  	0.182059 
831.319696  	0.180706 
833.248512  	0.179176 
835.177328  	0.177009 
837.106144  	0.174599 
839.034960  	0.171440 
840.963776  	0.167858 
842.892592  	0.164367 
844.821408  	0.160913 
846.750224  	0.157697 
848.679040  	0.155025 
850.607856  	0.152881 
852.536672  	0.151036 
854.465488  	0.149292 
856.394304  	0.147748 
858.323120  	0.146214 
860.251936  	0.144306 
862.180752  	0.141754 
864.109568  	0.138728 
866.038384  	0.136075 
867.967200  	0.134254 
869.896016  	0.132262 
871.824832  	0.131064 
873.753648  	0.130694 
875.682464  	0.131059 
877.611280  	0.131021 
879.540096  	0.131470 
881.468912  	0.133183 
883.397728  	0.134179 
885.326544  	0.135170 
887.255360  	0.135479 
889.184176  	0.134366 
891.112992  	0.132253 
893.041808  	0.130568 
894.970624  	0.128247 
896.899440  	0.125079 
898.828256  	0.121326 
900.757072  	0.117679 
902.685888  	0.114843 
904.614704  	0.113005 
906.543520  	0.112978 
908.472336  	0.114210 
910.401152  	0.116381 
912.329968  	0.118781 
914.258784  	0.121586 
916.187600  	0.124262 
918.116416  	0.126473 
920.045232  	0.128030 
921.974048  	0.128866 
923.902864  	0.129131 
925.831680  	0.128768 
927.760496  	0.128540 
929.689312  	0.128728 
931.618128  	0.129360 
933.546944  	0.129801 
935.475760  	0.129968 
937.404576  	0.129873 
939.333392  	0.129414 
941.262208  	0.129516 
943.191024  	0.130777 
945.119840  	0.133903 
947.048656  	0.138822 
948.977472  	0.144971 
950.906288  	0.152688 
952.835104  	0.161976 
954.763920  	0.171886 
956.692736  	0.181145 
958.621552  	0.189290 
960.550368  	0.195042 
962.479184  	0.198038 
964.408000  	0.197583 
966.336816  	0.193466 
968.265632  	0.186328 
970.194448  	0.176441 
972.123264  	0.164656 
974.052080  	0.152302 
975.980896  	0.140081 
977.909712  	0.128603 
979.838528  	0.118308 
981.767344  	0.109724 
983.696160  	0.103092 
985.624976  	0.098714 
987.553792  	0.096786 
989.482608  	0.097369 
991.411424  	0.099944 
993.340240  	0.103962 
995.269056  	0.109241 
997.197872  	0.115081 
999.126688  	0.120921 
1001.055504  	0.126689 
1002.984320  	0.132662 
1004.913136  	0.138568 
1006.841952  	0.144291 
1008.770768  	0.149086 
1010.699584  	0.152297 
1012.628400  	0.154216 
1014.557216  	0.155077 
1016.486032  	0.155160 
1018.414848  	0.154914 
1020.343664  	0.154584 
1022.272480  	0.153993 
1024.201296  	0.152787 
1026.130112  	0.149526 
1028.058928  	0.148084 
1029.987744  	0.150865 
1031.916560  	0.152584 
1033.845376  	0.153237 
1035.774192  	0.153781 
1037.703008  	0.155805 
1039.631824  	0.161225 
1041.560640  	0.168667 
1043.489456  	0.178607 
1045.418272  	0.191151 
1047.347088  	0.205840 
1049.275904  	0.220123 
1051.204720  	0.232056 
1053.133536  	0.240195 
1055.062352  	0.244496 
1056.991168  	0.245751 
1058.919984  	0.248023 
1060.848800  	0.249753 
1062.777616  	0.248090 
1064.706432  	0.242595 
1066.635248  	0.237566 
1068.564064  	0.236148 
1070.492880  	0.232073 
1072.421696  	0.224928 
1074.350512  	0.219446 
1076.279328  	0.217283 
1078.208144  	0.219127 
1080.136960  	0.223588 
1082.065776  	0.229166 
1083.994592  	0.233442 
1085.923408  	0.235364 
1087.852224  	0.234315 
1089.781040  	0.231161 
1091.709856  	0.226465 
1093.638672  	0.219497 
1095.567488  	0.209838 
1097.496304  	0.198777 
1099.425120  	0.186967 
1101.353936  	0.174871 
1103.282752  	0.162998 
1105.211568  	0.151563 
1107.140384  	0.140475 
1109.069200  	0.130068 
1110.998016  	0.120574 
1112.926832  	0.112027 
1114.855648  	0.104214 
1116.784464  	0.096734 
1118.713280  	0.089583 
1120.642096  	0.082982 
1122.570912  	0.077028 
1124.499728  	0.071250 
1126.428544  	0.065918 
1128.357360  	0.061164 
1130.286176  	0.057313 
1132.214992  	0.053898 
1134.143808  	0.051258 
1136.072624  	0.049092 
1138.001440  	0.047173 
1139.930256  	0.044929 
1141.859072  	0.042745 
1143.787888  	0.040443 
1145.716704  	0.038398 
1147.645520  	0.036336 
1149.574336  	0.034525 
1151.503152  	0.033106 
1153.431968  	0.032533 
1155.360784  	0.032526 
1157.289600  	0.033282 
1159.218416  	0.034456 
1161.147232  	0.036143 
1163.076048  	0.037984 
1165.004864  	0.040140 
1166.933680  	0.042064 
1168.862496  	0.044264 
1170.791312  	0.046321 
1172.720128  	0.048934 
1174.648944  	0.051392 
1176.577760  	0.053729 
1178.506576  	0.055919 
1180.435392  	0.058405 
1182.364208  	0.060880 
1184.293024  	0.063920 
1186.221840  	0.067043 
1188.150656  	0.070612 
1190.079472  	0.074504 
1192.008288  	0.079379 
1193.937104  	0.085239 
1195.865920  	0.092058 
1197.794736  	0.099555 
1199.723552  	0.107744 
1201.652368  	0.116090 
1203.581184  	0.124600 
1205.510000  	0.133100 
1207.438816  	0.141241 
1209.367632  	0.148851 
1211.296448  	0.155605 
1213.225264  	0.161191 
1215.154080  	0.165643 
1217.082896  	0.169189 
1219.011712  	0.171733 
1220.940528  	0.173516 
1222.869344  	0.174581 
1224.798160  	0.175016 
1226.726976  	0.174805 
1228.655792  	0.174037 
1230.584608  	0.172792 
1232.513424  	0.171072 
1234.442240  	0.168726 
1236.371056  	0.165710 
1238.299872  	0.161571 
1240.228688  	0.154814 
1242.157504  	0.148038 
1244.086320  	0.142608 
1246.015136  	0.135532 
1247.943952  	0.127651 
1249.872768  	0.119868 
1251.801584  	0.113144 
1253.730400  	0.106480 
1255.659216  	0.099675 
1257.588032  	0.093346 
1259.516848  	0.087384 
1261.445664  	0.081856 
1263.374480  	0.076801 
1265.303296  	0.072671 
1267.232112  	0.069390 
1269.160928  	0.066835 
1271.089744  	0.064869 
1273.018560  	0.063729 
1274.947376  	0.063276 
1276.876192  	0.063446 
1278.805008  	0.063251 
1280.733824  	0.062147 
1282.662640  	0.060161 
1284.591456  	0.057866 
1286.520272  	0.055941 
1288.449088  	0.054616 
1290.377904  	0.053740 
1292.306720  	0.053704 
1294.235536  	0.053638 
1296.164352  	0.052890 
1298.093168  	0.050696 
1300.021984  	0.047859 
1301.950800  	0.044932 
1303.879616  	0.042225 
1305.808432  	0.039258 
1307.737248  	0.036461 
1309.666064  	0.033681 
1311.594880  	0.031832 
1313.523696  	0.030443 
1315.452512  	0.029483 
1317.381328  	0.028888 
1319.310144  	0.028642 
1321.238960  	0.028559 
1323.167776  	0.029093 
1325.096592  	0.029805 
1327.025408  	0.030340 
1328.954224  	0.030313 
1330.883040  	0.029865 
1332.811856  	0.028940 
1334.740672  	0.028583 
1336.669488  	0.028980 
1338.598304  	0.029599 
1340.527120  	0.027978 
1342.455936  	0.025702 
1344.384752  	0.025087 
1346.313568  	0.025256 
1348.242384  	0.025775 
1350.171200  	0.027039 
1352.100016  	0.028622 
1354.028832  	0.030576 
1355.957648  	0.032255 
1357.886464  	0.034228 
1359.815280  	0.036727 
1361.744096  	0.039424 
1363.672912  	0.040242 
1365.601728  	0.040617 
1367.530544  	0.041841 
1369.459360  	0.042246 
1371.388176  	0.042040 
1373.316992  	0.041027 
1375.245808  	0.037606 
1377.174624  	0.035045 
1379.103440  	0.032239 
1381.032256  	0.029140 
1382.961072  	0.027011 
1384.889888  	0.026642 
1386.818704  	0.026350 
1388.747520  	0.024359 
1390.676336  	0.021996 
1392.605152  	0.019020 
1394.533968  	0.017285 
1396.462784  	0.020209 
1398.391600  	0.021326 
1400.320416  	0.020039 
1402.249232  	0.020305 
1404.178048  	0.021118 
1406.106864  	0.021519 
1408.035680  	0.023233 
1409.964496  	0.025803 
1411.893312  	0.028574 
1413.822128  	0.031511 
1415.750944  	0.035727 
1417.679760  	0.038636 
1419.608576  	0.037369 
1421.537392  	0.037442 
1423.466208  	0.038030 
1425.395024  	0.036358 
1427.323840  	0.035238 
1429.252656  	0.032982 
1431.181472  	0.031338 
1433.110288  	0.031493 
1435.039104  	0.032357 
1436.967920  	0.031026 
1438.896736  	0.031257 
1440.825552  	0.032414 
1442.754368  	0.032910 
1444.683184  	0.033223 
1446.612000  	0.033263 
1448.540816  	0.031880 
1450.469632  	0.032351 
1452.398448  	0.033431 
1454.327264  	0.034722 
1456.256080  	0.033760 
1458.184896  	0.030069 
1460.113712  	0.032012 
1462.042528  	0.034081 
1463.971344  	0.033659 
1465.900160  	0.033788 
1467.828976  	0.036913 
1469.757792  	0.040443 
1471.686608  	0.043030 
1473.615424  	0.047744 
1475.544240  	0.054312 
1477.473056  	0.059508 
1479.401872  	0.063245 
1481.330688  	0.066251 
1483.259504  	0.068043 
1485.188320  	0.069567 
1487.117136  	0.069436 
1489.045952  	0.068738 
1490.974768  	0.065281 
1492.903584  	0.063425 
1494.832400  	0.060788 
1496.761216  	0.054021 
1498.690032  	0.048217 
1500.618848  	0.045297 
1502.547664  	0.042485 
1504.476480  	0.038537 
1506.405296  	0.031721 
1508.334112  	0.030652 
1510.262928  	0.031423 
1512.191744  	0.029411 
1514.120560  	0.028735 
1516.049376  	0.028117 
1517.978192  	0.026363 
1519.907008  	0.027643 
1521.835824  	0.026797 
1523.764640  	0.031241 
1525.693456  	0.035785 
1527.622272  	0.037680 
1529.551088  	0.038662 
1531.479904  	0.039043 
1533.408720  	0.034704 
1535.337536  	0.032100 
1537.266352  	0.031003 
1539.195168  	0.022098 
1541.123984  	0.014499 
1543.052800  	0.019083 
1544.981616  	0.020465 
1546.910432  	0.020045 
1548.839248  	0.020834 
1550.768064  	0.020738 
1552.696880  	0.020297 
1554.625696  	0.020159 
1556.554512  	0.019842 
1558.483328  	0.015413 
1560.412144  	0.018923 
1562.340960  	0.027605 
1564.269776  	0.031621 
1566.198592  	0.036591 
1568.127408  	0.040343 
1570.056224  	0.044028 
1571.985040  	0.051384 
1573.913856  	0.056067 
1575.842672  	0.055543 
1577.771488  	0.058417 
1579.700304  	0.061439 
1581.629120  	0.061580 
1583.557936  	0.061113 
1585.486752  	0.061746 
1587.415568  	0.063833 
1589.344384  	0.067857 
1591.273200  	0.073312 
1593.202016  	0.079822 
1595.130832  	0.086636 
1597.059648  	0.093990 
1598.988464  	0.100308 
1600.917280  	0.105831 
1602.846096  	0.109426 
1604.774912  	0.111804 
1606.703728  	0.112172 
1608.632544  	0.111295 
1610.561360  	0.109526 
1612.490176  	0.108401 
1614.418992  	0.106087 
1616.347808  	0.101970 
1618.276624  	0.103298 
1620.205440  	0.108754 
1622.134256  	0.111173 
1624.063072  	0.115876 
1625.991888  	0.122960 
1627.920704  	0.130365 
1629.849520  	0.139842 
1631.778336  	0.149339 
1633.707152  	0.155138 
1635.635968  	0.160482 
1637.564784  	0.171602 
1639.493600  	0.181001 
1641.422416  	0.186948 
1643.351232  	0.191326 
1645.280048  	0.191526 
1647.208864  	0.190413 
1649.137680  	0.193300 
1651.066496  	0.194241 
1652.995312  	0.185193 
1654.924128  	0.186226 
1656.852944  	0.189011 
1658.781760  	0.187809 
1660.710576  	0.184215 
1662.639392  	0.178519 
1664.568208  	0.175311 
1666.497024  	0.173853 
1668.425840  	0.168099 
1670.354656  	0.160719 
1672.283472  	0.158714 
1674.212288  	0.156184 
1676.141104  	0.151456 
1678.069920  	0.151919 
1679.998736  	0.151847 
1681.927552  	0.150184 
1683.856368  	0.143216 
1685.785184  	0.142451 
1687.714000  	0.146405 
1689.642816  	0.146233 
1691.571632  	0.144499 
1693.500448  	0.143606 
1695.429264  	0.138509 
1697.358080  	0.135166 
1699.286896  	0.132932 
1701.215712  	0.127065 
1703.144528  	0.127669 
1705.073344  	0.123280 
1707.002160  	0.117378 
1708.930976  	0.114073 
1710.859792  	0.108673 
1712.788608  	0.102507 
1714.717424  	0.094476 
1716.646240  	0.083355 
1718.575056  	0.069654 
1720.503872  	0.063520 
1722.432688  	0.058033 
1724.361504  	0.049229 
1726.290320  	0.041953 
1728.219136  	0.036268 
1730.147952  	0.030971 
1732.076768  	0.026246 
1734.005584  	0.018082 
1735.934400  	0.013124 
1737.863216  	0.013759 
1739.792032  	0.009508 
1741.720848  	0.008698 
1743.649664  	0.008772 
1745.578480  	0.007914 
1747.507296  	0.006028 
1749.436112  	0.005039 
1751.364928  	0.003870 
1753.293744  	0.003253 
1755.222560  	0.003317 
1757.151376  	0.002528 
1759.080192  	0.002117 
1761.009008  	0.001412 
1762.937824  	-0.000467 
1764.866640  	0.000440 
1766.795456  	0.001234 
1768.724272  	0.000509 
1770.653088  	-0.002134 
1772.581904  	-0.005549 
1774.510720  	-0.003621 
1776.439536  	-0.001433 
1778.368352  	-0.001034 
1780.297168  	-0.001436 
1782.225984  	-0.001950 
1784.154800  	-0.001424 
1786.083616  	-0.002183 
1788.012432  	-0.001865 
1789.941248  	-0.001358 
1791.870064  	-0.003199 
1793.798880  	-0.004625 
1795.727696  	-0.002649 
1797.656512  	-0.003012 
1799.585328  	-0.003168 
1801.514144  	-0.002748 
1803.442960  	-0.002821 
1805.371776  	-0.003494 
1807.300592  	-0.003181 
1809.229408  	-0.003709 
1811.158224  	-0.004216 
1813.087040  	-0.004455 
1815.015856  	-0.004026 
1816.944672  	-0.003766 
1818.873488  	-0.003813 
1820.802304  	-0.004189 
1822.731120  	-0.003338 
1824.659936  	-0.003740 
1826.588752  	-0.004316 
1828.517568  	-0.005081 
1830.446384  	-0.006113 
1832.375200  	-0.005094 
1834.304016  	-0.004064 
1836.232832  	-0.004286 
1838.161648  	-0.004343 
1840.090464  	-0.004407 
1842.019280  	-0.003444 
1843.948096  	-0.005189 
1845.876912  	-0.005430 
1847.805728  	-0.004221 
1849.734544  	-0.004391 
1851.663360  	-0.004843 
1853.592176  	-0.004825 
1855.520992  	-0.005035 
1857.449808  	-0.004832 
1859.378624  	-0.004784 
1861.307440  	-0.004700 
1863.236256  	-0.005076 
1865.165072  	-0.004879 
1867.093888  	-0.005169 
1869.022704  	-0.005667 
1870.951520  	-0.005464 
1872.880336  	-0.004891 
1874.809152  	-0.005434 
1876.737968  	-0.005382 
1878.666784  	-0.005483 
1880.595600  	-0.005005 
1882.524416  	-0.005297 
1884.453232  	-0.005263 
1886.382048  	-0.005541 
1888.310864  	-0.005297 
1890.239680  	-0.005984 
1892.168496  	-0.005253 
1894.097312  	-0.005039 
1896.026128  	-0.005236 
1897.954944  	-0.005622 
1899.883760  	-0.005409 
1901.812576  	-0.005627 
1903.741392  	-0.005713 
1905.670208  	-0.005612 
1907.599024  	-0.004770 
1909.527840  	-0.004893 
1911.456656  	-0.004813 
1913.385472  	-0.005220 
1915.314288  	-0.004888 
1917.243104  	-0.005177 
1919.171920  	-0.005683 
1921.100736  	-0.005234 
1923.029552  	-0.004684 
1924.958368  	-0.005378 
1926.887184  	-0.005311 
1928.816000  	-0.006054 
1930.744816  	-0.006209 
1932.673632  	-0.006028 
1934.602448  	-0.005482 
1936.531264  	-0.005864 
1938.460080  	-0.005425 
1940.388896  	-0.005302 
1942.317712  	-0.004858 
1944.246528  	-0.005493 
1946.175344  	-0.004982 
1948.104160  	-0.005392 
1950.032976  	-0.004986 
1951.961792  	-0.005202 
1953.890608  	-0.004956 
1955.819424  	-0.005510 
1957.748240  	-0.005203 
1959.677056  	-0.005874 
1961.605872  	-0.005203 
1963.534688  	-0.005310 
1965.463504  	-0.004502 
1967.392320  	-0.005554 
1969.321136  	-0.006122 
1971.249952  	-0.006470 
1973.178768  	-0.005404 
1975.107584  	-0.005888 
1977.036400  	-0.004149 
1978.965216  	-0.002895 
1980.894032  	-0.003528 
1982.822848  	-0.005100 
1984.751664  	-0.004504 
1986.680480  	-0.005239 
1988.609296  	-0.004640 
1990.538112  	-0.004836 
1992.466928  	-0.004711 
1994.395744  	-0.005774 
1996.324560  	-0.005567 
1998.253376  	-0.005908 
2000.182192  	-0.006101 
2002.111008  	-0.005724 
2004.039824  	-0.004144 
2005.968640  	-0.004486 
2007.897456  	-0.004161 
2009.826272  	-0.004642 
2011.755088  	-0.004557 
2013.683904  	-0.005935 
2015.612720  	-0.005393 
2017.541536  	-0.005239 
2019.470352  	-0.004410 
2021.399168  	-0.005284 
2023.327984  	-0.005617 
2025.256800  	-0.005176 
2027.185616  	-0.004142 
2029.114432  	-0.004067 
2031.043248  	-0.003361 
2032.972064  	-0.004043 
2034.900880  	-0.003301 
2036.829696  	-0.004238 
2038.758512  	-0.003752 
2040.687328  	-0.003724 
2042.616144  	-0.002892 
2044.544960  	-0.003440 
2046.473776  	-0.003654 
2048.402592  	-0.004210 
2050.331408  	-0.004273 
2052.260224  	-0.005263 
2054.189040  	-0.005521 
2056.117856  	-0.005687 
2058.046672  	-0.005458 
2059.975488  	-0.005262 
2061.904304  	-0.004793 
2063.833120  	-0.005280 
2065.761936  	-0.005260 
2067.690752  	-0.005448 
2069.619568  	-0.005082 
2071.548384  	-0.004633 
2073.477200  	-0.004769 
2075.406016  	-0.004846 
2077.334832  	-0.004228 
2079.263648  	-0.004605 
2081.192464  	-0.004766 
2083.121280  	-0.004870 
2085.050096  	-0.004893 
2086.978912  	-0.005150 
2088.907728  	-0.004931 
2090.836544  	-0.004836 
2092.765360  	-0.004558 
2094.694176  	-0.004459 
2096.622992  	-0.004455 
2098.551808  	-0.004619 
2100.480624  	-0.004387 
2102.409440  	-0.005076 
2104.338256  	-0.005097 
2106.267072  	-0.004885 
2108.195888  	-0.004600 
2110.124704  	-0.004643 
2112.053520  	-0.004329 
2113.982336  	-0.004258 
2115.911152  	-0.004210 
2117.839968  	-0.004191 
2119.768784  	-0.004072 
2121.697600  	-0.004600 
2123.626416  	-0.004743 
2125.555232  	-0.004898 
2127.484048  	-0.004711 
2129.412864  	-0.005190 
2131.341680  	-0.005249 
2133.270496  	-0.004938 
2135.199312  	-0.004206 
2137.128128  	-0.004137 
2139.056944  	-0.003881 
2140.985760  	-0.004199 
2142.914576  	-0.004049 
2144.843392  	-0.004184 
2146.772208  	-0.004653 
2148.701024  	-0.005216 
2150.629840  	-0.003723 
2152.558656  	-0.003296 
2154.487472  	-0.003148 
2156.416288  	-0.003819 
2158.345104  	-0.003112 
2160.273920  	-0.002086 
2162.202736  	-0.001831 
2164.131552  	-0.002671 
2166.060368  	-0.002120 
2167.989184  	-0.002361 
2169.918000  	-0.001881 
2171.846816  	-0.002782 
2173.775632  	-0.002440 
2175.704448  	-0.002288 
2177.633264  	-0.002059 
2179.562080  	-0.002599 
2181.490896  	-0.002433 
2183.419712  	-0.003344 
2185.348528  	-0.003635 
2187.277344  	-0.003773 
2189.206160  	-0.003672 
2191.134976  	-0.004301 
2193.063792  	-0.004472 
2194.992608  	-0.004587 
2196.921424  	-0.003990 
2198.850240  	-0.003359 
2200.779056  	-0.003677 
2202.707872  	-0.004902 
2204.636688  	-0.004630 
2206.565504  	-0.003795 
2208.494320  	-0.004105 
2210.423136  	-0.004587 
2212.351952  	-0.004223 
2214.280768  	-0.004709 
2216.209584  	-0.004716 
2218.138400  	-0.005006 
2220.067216  	-0.004697 
2221.996032  	-0.004592 
2223.924848  	-0.004047 
2225.853664  	-0.003619 
2227.782480  	-0.003710 
2229.711296  	-0.004859 
2231.640112  	-0.005343 
2233.568928  	-0.005188 
2235.497744  	-0.005308 
2237.426560  	-0.005747 
2239.355376  	-0.005680 
2241.284192  	-0.005753 
2243.213008  	-0.005451 
2245.141824  	-0.005428 
2247.070640  	-0.005264 
2248.999456  	-0.005624 
2250.928272  	-0.005935 
2252.857088  	-0.006390 
2254.785904  	-0.006257 
2256.714720  	-0.006343 
2258.643536  	-0.006481 
2260.572352  	-0.006784 
2262.501168  	-0.006681 
2264.429984  	-0.006584 
2266.358800  	-0.006599 
2268.287616  	-0.006766 
2270.216432  	-0.006366 
2272.145248  	-0.006220 
2274.074064  	-0.006084 
2276.002880  	-0.006018 
2277.931696  	-0.005791 
2279.860512  	-0.005772 
2281.789328  	-0.005476 
2283.718144  	-0.005488 
2285.646960  	-0.005468 
2287.575776  	-0.005379 
2289.504592  	-0.005611 
2291.433408  	-0.005916 
2293.362224  	-0.005851 
2295.291040  	-0.005602 
2297.219856  	-0.005273 
2299.148672  	-0.005358 
2301.077488  	-0.005262 
2303.006304  	-0.005321 
2304.935120  	-0.005287 
2306.863936  	-0.005278 
2308.792752  	-0.005545 
2310.721568  	-0.006233 
2312.650384  	-0.006990 
2314.579200  	-0.008113 
2316.508016  	-0.009341 
2318.436832  	-0.010635 
2320.365648  	-0.012359 
2322.294464  	-0.014575 
2324.223280  	-0.016793 
2326.152096  	-0.019264 
2328.080912  	-0.021538 
2330.009728  	-0.023784 
2331.938544  	-0.025760 
2333.867360  	-0.027443 
2335.796176  	-0.029339 
2337.724992  	-0.030867 
2339.653808  	-0.031247 
2341.582624  	-0.031479 
2343.511440  	-0.030029 
2345.440256  	-0.026731 
2347.369072  	-0.020051 
2349.297888  	-0.016105 
2351.226704  	-0.019795 
2353.155520  	-0.027186 
2355.084336  	-0.033063 
2357.013152  	-0.037728 
2358.941968  	-0.040068 
2360.870784  	-0.041487 
2362.799600  	-0.040558 
2364.728416  	-0.038421 
2366.657232  	-0.034856 
2368.586048  	-0.030029 
2370.514864  	-0.025307 
2372.443680  	-0.020806 
2374.372496  	-0.016212 
2376.301312  	-0.012217 
2378.230128  	-0.009275 
2380.158944  	-0.007176 
2382.087760  	-0.006153 
2384.016576  	-0.005996 
2385.945392  	-0.006130 
2387.874208  	-0.006335 
2389.803024  	-0.006500 
2391.731840  	-0.006784 
2393.660656  	-0.006818 
2395.589472  	-0.006746 
2397.518288  	-0.006545 
2399.447104  	-0.006680 
2401.375920  	-0.006875 
2403.304736  	-0.007121 
2405.233552  	-0.006896 
2407.162368  	-0.006861 
2409.091184  	-0.006901 
2411.020000  	-0.006962 
2412.948816  	-0.007044 
2414.877632  	-0.006917 
2416.806448  	-0.006830 
2418.735264  	-0.006928 
2420.664080  	-0.007012 
2422.592896  	-0.007061 
2424.521712  	-0.007016 
2426.450528  	-0.007020 
2428.379344  	-0.006779 
2430.308160  	-0.006687 
2432.236976  	-0.006662 
2434.165792  	-0.006782 
2436.094608  	-0.006636 
2438.023424  	-0.006475 
2439.952240  	-0.006216 
2441.881056  	-0.006344 
2443.809872  	-0.006439 
2445.738688  	-0.006189 
2447.667504  	-0.005993 
2449.596320  	-0.006097 
2451.525136  	-0.006059 
2453.453952  	-0.006176 
2455.382768  	-0.006347 
2457.311584  	-0.006275 
2459.240400  	-0.006320 
2461.169216  	-0.006477 
2463.098032  	-0.006510 
2465.026848  	-0.006394 
2466.955664  	-0.006344 
2468.884480  	-0.006634 
2470.813296  	-0.006665 
2472.742112  	-0.006552 
2474.670928  	-0.006596 
2476.599744  	-0.006630 
2478.528560  	-0.006298 
2480.457376  	-0.006202 
2482.386192  	-0.006327 
2484.315008  	-0.006337 
2486.243824  	-0.006421 
2488.172640  	-0.006426 
2490.101456  	-0.006136 
2492.030272  	-0.005959 
2493.959088  	-0.005820 
2495.887904  	-0.005809 
2497.816720  	-0.005752 
2499.745536  	-0.005675 
2501.674352  	-0.005442 
2503.603168  	-0.005255 
2505.531984  	-0.005382 
2507.460800  	-0.005713 
2509.389616  	-0.005636 
2511.318432  	-0.005556 
2513.247248  	-0.005604 
2515.176064  	-0.005577 
2517.104880  	-0.005459 
2519.033696  	-0.005553 
2520.962512  	-0.005398 
2522.891328  	-0.005168 
2524.820144  	-0.005206 
2526.748960  	-0.005413 
2528.677776  	-0.005252 
2530.606592  	-0.005236 
2532.535408  	-0.005326 
2534.464224  	-0.005441 
2536.393040  	-0.005342 
2538.321856  	-0.005115 
2540.250672  	-0.004819 
2542.179488  	-0.004779 
2544.108304  	-0.004816 
2546.037120  	-0.004792 
2547.965936  	-0.004831 
2549.894752  	-0.004861 
2551.823568  	-0.004756 
2553.752384  	-0.004640 
2555.681200  	-0.004378 
2557.610016  	-0.004285 
2559.538832  	-0.004140 
2561.467648  	-0.003904 
2563.396464  	-0.003910 
2565.325280  	-0.003851 
2567.254096  	-0.003771 
2569.182912  	-0.003871 
2571.111728  	-0.003834 
2573.040544  	-0.003748 
2574.969360  	-0.003483 
2576.898176  	-0.003462 
2578.826992  	-0.003613 
2580.755808  	-0.003688 
2582.684624  	-0.003532 
2584.613440  	-0.003402 
2586.542256  	-0.003379 
2588.471072  	-0.003343 
2590.399888  	-0.003249 
2592.328704  	-0.003173 
2594.257520  	-0.003082 
2596.186336  	-0.003074 
2598.115152  	-0.003107 
2600.043968  	-0.003101 
2601.972784  	-0.002855 
2603.901600  	-0.002769 
2605.830416  	-0.002687 
2607.759232  	-0.002590 
2609.688048  	-0.002354 
2611.616864  	-0.002146 
2613.545680  	-0.002001 
2615.474496  	-0.001885 
2617.403312  	-0.001734 
2619.332128  	-0.001718 
2621.260944  	-0.001713 
2623.189760  	-0.001690 
2625.118576  	-0.001656 
2627.047392  	-0.001595 
2628.976208  	-0.001456 
2630.905024  	-0.001244 
2632.833840  	-0.001220 
2634.762656  	-0.001216 
2636.691472  	-0.001104 
2638.620288  	-0.000986 
2640.549104  	-0.000912 
2642.477920  	-0.000838 
2644.406736  	-0.000643 
2646.335552  	-0.000599 
2648.264368  	-0.000471 
2650.193184  	-0.000352 
2652.122000  	-0.000267 
2654.050816  	-0.000164 
2655.979632  	-0.000046 
2657.908448  	0.000073 
2659.837264  	0.000126 
2661.766080  	0.000203 
2663.694896  	0.000382 
2665.623712  	0.000529 
2667.552528  	0.000698 
2669.481344  	0.000810 
2671.410160  	0.000910 
2673.338976  	0.001012 
2675.267792  	0.001145 
2677.196608  	0.001385 
2679.125424  	0.001499 
2681.054240  	0.001590 
2682.983056  	0.001689 
2684.911872  	0.001668 
2686.840688  	0.001782 
2688.769504  	0.001998 
2690.698320  	0.002074 
2692.627136  	0.002055 
2694.555952  	0.002187 
2696.484768  	0.002209 
2698.413584  	0.002223 
2700.342400  	0.002321 
2702.271216  	0.002522 
2704.200032  	0.002664 
2706.128848  	0.002657 
2708.057664  	0.002616 
2709.986480  	0.002752 
2711.915296  	0.002929 
2713.844112  	0.003034 
2715.772928  	0.003085 
2717.701744  	0.003182 
2719.630560  	0.003422 
2721.559376  	0.003524 
2723.488192  	0.003620 
2725.417008  	0.003829 
2727.345824  	0.004085 
2729.274640  	0.004239 
2731.203456  	0.004353 
2733.132272  	0.004514 
2735.061088  	0.004662 
2736.989904  	0.004784 
2738.918720  	0.004810 
2740.847536  	0.004898 
2742.776352  	0.004888 
2744.705168  	0.004933 
2746.633984  	0.005097 
2748.562800  	0.005175 
2750.491616  	0.005179 
2752.420432  	0.005303 
2754.349248  	0.005368 
2756.278064  	0.005284 
2758.206880  	0.005141 
2760.135696  	0.005106 
2762.064512  	0.005158 
2763.993328  	0.005215 
2765.922144  	0.005187 
2767.850960  	0.005142 
2769.779776  	0.005188 
2771.708592  	0.005229 
2773.637408  	0.005162 
2775.566224  	0.005126 
2777.495040  	0.005087 
2779.423856  	0.005116 
2781.352672  	0.005194 
2783.281488  	0.005200 
2785.210304  	0.005219 
2787.139120  	0.005252 
2789.067936  	0.005328 
2790.996752  	0.005459 
2792.925568  	0.005404 
2794.854384  	0.005386 
2796.783200  	0.005342 
2798.712016  	0.005299 
2800.640832  	0.005238 
2802.569648  	0.005257 
2804.498464  	0.005341 
2806.427280  	0.005294 
2808.356096  	0.005244 
2810.284912  	0.005400 
2812.213728  	0.005445 
2814.142544  	0.005324 
2816.071360  	0.005246 
2818.000176  	0.005009 
2819.928992  	0.004806 
2821.857808  	0.004763 
2823.786624  	0.004703 
2825.715440  	0.004618 
2827.644256  	0.004470 
2829.573072  	0.004325 
2831.501888  	0.004044 
2833.430704  	0.003750 
2835.359520  	0.003516 
2837.288336  	0.003304 
2839.217152  	0.002975 
2841.145968  	0.002624 
2843.074784  	0.002261 
2845.003600  	0.001839 
2846.932416  	0.001461 
2848.861232  	0.001112 
2850.790048  	0.000696 
2852.718864  	0.000233 
2854.647680  	-0.000253 
2856.576496  	-0.000865 
2858.505312  	-0.001508 
2860.434128  	-0.002092 
2862.362944  	-0.002797 
2864.291760  	-0.003623 
2866.220576  	-0.004358 
2868.149392  	-0.004692 
2870.078208  	-0.004955 
2872.007024  	-0.005089 
2873.935840  	-0.004990 
2875.864656  	-0.004998 
2877.793472  	-0.005110 
2879.722288  	-0.005347 
2881.651104  	-0.005824 
2883.579920  	-0.005967 
2885.508736  	-0.005752 
2887.437552  	-0.005472 
2889.366368  	-0.005525 
2891.295184  	-0.005879 
2893.224000  	-0.006078 
2895.152816  	-0.005989 
2897.081632  	-0.006277 
2899.010448  	-0.007975 
2900.939264  	-0.009498 
2902.868080  	-0.008135 
2904.796896  	-0.006764 
2906.725712  	-0.006285 
2908.654528  	-0.005628 
2910.583344  	-0.005187 
2912.512160  	-0.004589 
2914.440976  	-0.003501 
2916.369792  	-0.002671 
2918.298608  	-0.002215 
2920.227424  	-0.001784 
2922.156240  	-0.001108 
2924.085056  	-0.000275 
2926.013872  	0.000754 
2927.942688  	0.001736 
2929.871504  	0.002603 
2931.800320  	0.003544 
2933.729136  	0.004398 
2935.657952  	0.005029 
2937.586768  	0.005601 
2939.515584  	0.006082 
2941.444400  	0.006329 
2943.373216  	0.006396 
2945.302032  	0.006714 
2947.230848  	0.006954 
2949.159664  	0.006656 
2951.088480  	0.006086 
2953.017296  	0.005542 
2954.946112  	0.004891 
2956.874928  	0.004119 
2958.803744  	0.003330 
2960.732560  	0.002783 
2962.661376  	0.002192 
2964.590192  	0.001323 
2966.519008  	0.000166 
2968.447824  	-0.000908 
2970.376640  	-0.001811 
2972.305456  	-0.002293 
2974.234272  	-0.002014 
2976.163088  	-0.001631 
2978.091904  	-0.001579 
2980.020720  	-0.001586 
2981.949536  	-0.001400 
2983.878352  	-0.001626 
2985.807168  	-0.002608 
2987.735984  	-0.003575 
2989.664800  	-0.003229 
2991.593616  	-0.000201 
2993.522432  	0.001844 
2995.451248  	0.002377 
2997.380064  	0.003095 
2999.308880  	0.004324 
3001.237696  	0.005854 
3003.166512  	0.007472 
3005.095328  	0.008759 
3007.024144  	0.010149 
3008.952960  	0.011680 
3010.881776  	0.013108 
3012.810592  	0.014506 
3014.739408  	0.015874 
3016.668224  	0.017078 
3018.597040  	0.018391 
3020.525856  	0.019645 
3022.454672  	0.020720 
3024.383488  	0.021819 
3026.312304  	0.022814 
3028.241120  	0.023815 
3030.169936  	0.024712 
3032.098752  	0.025514 
3034.027568  	0.026294 
3035.956384  	0.027124 
3037.885200  	0.028154 
3039.814016  	0.028876 
3041.742832  	0.029452 
3043.671648  	0.030014 
3045.600464  	0.030651 
3047.529280  	0.031173 
3049.458096  	0.031720 
3051.386912  	0.032433 
3053.315728  	0.032945 
3055.244544  	0.033432 
3057.173360  	0.034053 
3059.102176  	0.034675 
3061.030992  	0.035349 
3062.959808  	0.036065 
3064.888624  	0.036672 
3066.817440  	0.037362 
3068.746256  	0.038302 
3070.675072  	0.039101 
3072.603888  	0.039827 
3074.532704  	0.040521 
3076.461520  	0.041229 
3078.390336  	0.042055 
3080.319152  	0.042777 
3082.247968  	0.043498 
3084.176784  	0.044305 
3086.105600  	0.045106 
3088.034416  	0.045813 
3089.963232  	0.046575 
3091.892048  	0.047302 
3093.820864  	0.047956 
3095.749680  	0.048629 
3097.678496  	0.049471 
3099.607312  	0.050322 
3101.536128  	0.051158 
3103.464944  	0.052129 
3105.393760  	0.052924 
3107.322576  	0.053712 
3109.251392  	0.054538 
3111.180208  	0.055140 
3113.109024  	0.055820 
3115.037840  	0.056619 
3116.966656  	0.057321 
3118.895472  	0.057951 
3120.824288  	0.058621 
3122.753104  	0.059265 
3124.681920  	0.059817 
3126.610736  	0.060311 
3128.539552  	0.061032 
3130.468368  	0.061736 
3132.397184  	0.062240 
3134.326000  	0.062937 
3136.254816  	0.063543 
3138.183632  	0.064259 
3140.112448  	0.064935 
3142.041264  	0.065458 
3143.970080  	0.065989 
3145.898896  	0.066615 
3147.827712  	0.067344 
3149.756528  	0.067950 
3151.685344  	0.068466 
3153.614160  	0.069230 
3155.542976  	0.070033 
3157.471792  	0.070726 
3159.400608  	0.071560 
3161.329424  	0.072297 
3163.258240  	0.072584 
3165.187056  	0.072940 
3167.115872  	0.073660 
3169.044688  	0.074257 
3170.973504  	0.074735 
3172.902320  	0.075107 
3174.831136  	0.075567 
3176.759952  	0.076178 
3178.688768  	0.076570 
3180.617584  	0.076900 
3182.546400  	0.077347 
3184.475216  	0.077565 
3186.404032  	0.077658 
3188.332848  	0.077901 
3190.261664  	0.078237 
3192.190480  	0.078539 
3194.119296  	0.078500 
3196.048112  	0.078429 
3197.976928  	0.078464 
3199.905744  	0.078471 
3201.834560  	0.078564 
3203.763376  	0.078761 
3205.692192  	0.078848 
3207.621008  	0.078632 
3209.549824  	0.078431 
3211.478640  	0.078535 
3213.407456  	0.078547 
3215.336272  	0.078378 
3217.265088  	0.078260 
3219.193904  	0.078042 
3221.122720  	0.077819 
3223.051536  	0.077728 
3224.980352  	0.077645 
3226.909168  	0.077368 
3228.837984  	0.077000 
3230.766800  	0.076919 
3232.695616  	0.076947 
3234.624432  	0.076903 
3236.553248  	0.076915 
3238.482064  	0.076981 
3240.410880  	0.076965 
3242.339696  	0.077066 
3244.268512  	0.076889 
3246.197328  	0.077009 
3248.126144  	0.077317 
3250.054960  	0.077339 
3251.983776  	0.077631 
3253.912592  	0.077863 
3255.841408  	0.077996 
3257.770224  	0.078407 
3259.699040  	0.078724 
3261.627856  	0.078955 
3263.556672  	0.079050 
3265.485488  	0.079164 
3267.414304  	0.079439 
3269.343120  	0.079888 
3271.271936  	0.080265 
3273.200752  	0.080314 
3275.129568  	0.080304 
3277.058384  	0.080755 
3278.987200  	0.081180 
3280.916016  	0.081319 
3282.844832  	0.081421 
3284.773648  	0.081703 
3286.702464  	0.081919 
3288.631280  	0.082121 
3290.560096  	0.082450 
3292.488912  	0.082857 
3294.417728  	0.082946 
3296.346544  	0.083204 
3298.275360  	0.083638 
3300.204176  	0.083985 
3302.132992  	0.084345 
3304.061808  	0.084670 
3305.990624  	0.085097 
3307.919440  	0.085597 
3309.848256  	0.085951 
3311.777072  	0.086230 
3313.705888  	0.086533 
3315.634704  	0.086997 
3317.563520  	0.087536 
3319.492336  	0.087944 
3321.421152  	0.088070 
3323.349968  	0.088290 
3325.278784  	0.088523 
3327.207600  	0.088696 
3329.136416  	0.088704 
3331.065232  	0.088803 
3332.994048  	0.089160 
3334.922864  	0.089455 
3336.851680  	0.089458 
3338.780496  	0.089215 
3340.709312  	0.089115 
3342.638128  	0.089057 
3344.566944  	0.088773 
3346.495760  	0.088458 
3348.424576  	0.088076 
3350.353392  	0.087834 
3352.282208  	0.087664 
3354.211024  	0.087293 
3356.139840  	0.087028 
3358.068656  	0.086782 
3359.997472  	0.086457 
3361.926288  	0.086070 
3363.855104  	0.085673 
3365.783920  	0.085151 
3367.712736  	0.084823 
3369.641552  	0.084697 
3371.570368  	0.084251 
3373.499184  	0.083778 
3375.428000  	0.083325 
3377.356816  	0.082888 
3379.285632  	0.082598 
3381.214448  	0.082251 
3383.143264  	0.082115 
3385.072080  	0.081814 
3387.000896  	0.081135 
3388.929712  	0.080662 
3390.858528  	0.080612 
3392.787344  	0.080368 
3394.716160  	0.079809 
3396.644976  	0.079429 
3398.573792  	0.079107 
3400.502608  	0.078651 
3402.431424  	0.078005 
3404.360240  	0.077414 
3406.289056  	0.076808 
3408.217872  	0.076395 
3410.146688  	0.075993 
3412.075504  	0.075514 
3414.004320  	0.074957 
3415.933136  	0.074564 
3417.861952  	0.074150 
3419.790768  	0.073679 
3421.719584  	0.073069 
3423.648400  	0.072534 
3425.577216  	0.071867 
3427.506032  	0.071138 
3429.434848  	0.070580 
3431.363664  	0.070061 
3433.292480  	0.069542 
3435.221296  	0.068961 
3437.150112  	0.068409 
3439.078928  	0.068061 
3441.007744  	0.067448 
3442.936560  	0.066974 
3444.865376  	0.066650 
3446.794192  	0.065792 
3448.723008  	0.064958 
3450.651824  	0.064338 
3452.580640  	0.063586 
3454.509456  	0.063089 
3456.438272  	0.062733 
3458.367088  	0.062214 
3460.295904  	0.061393 
3462.224720  	0.060403 
3464.153536  	0.059605 
3466.082352  	0.058865 
3468.011168  	0.057835 
3469.939984  	0.056932 
3471.868800  	0.056283 
3473.797616  	0.055641 
3475.726432  	0.054893 
3477.655248  	0.054111 
3479.584064  	0.053668 
3481.512880  	0.052839 
3483.441696  	0.051634 
3485.370512  	0.051016 
3487.299328  	0.050203 
3489.228144  	0.049430 
3491.156960  	0.048652 
3493.085776  	0.047776 
3495.014592  	0.047044 
3496.943408  	0.046335 
3498.872224  	0.045699 
3500.801040  	0.045649 
3502.729856  	0.045018 
3504.658672  	0.043788 
3506.587488  	0.043111 
3508.516304  	0.042740 
3510.445120  	0.041985 
3512.373936  	0.040910 
3514.302752  	0.040319 
3516.231568  	0.039992 
3518.160384  	0.039371 
3520.089200  	0.038735 
3522.018016  	0.038686 
3523.946832  	0.038771 
3525.875648  	0.037888 
3527.804464  	0.036350 
3529.733280  	0.035346 
3531.662096  	0.034740 
3533.590912  	0.034132 
3535.519728  	0.033905 
3537.448544  	0.033340 
3539.377360  	0.032270 
3541.306176  	0.031804 
3543.234992  	0.031940 
3545.163808  	0.032329 
3547.092624  	0.031261 
3549.021440  	0.029485 
3550.950256  	0.028694 
3552.879072  	0.027968 
3554.807888  	0.027360 
3556.736704  	0.026813 
3558.665520  	0.026719 
3560.594336  	0.026493 
3562.523152  	0.025615 
3564.451968  	0.025670 
3566.380784  	0.026114 
3568.309600  	0.024307 
3570.238416  	0.022724 
3572.167232  	0.022072 
3574.096048  	0.020982 
3576.024864  	0.019949 
3577.953680  	0.019478 
3579.882496  	0.018980 
3581.811312  	0.018265 
3583.740128  	0.017802 
3585.668944  	0.017988 
3587.597760  	0.016839 
3589.526576  	0.015096 
3591.455392  	0.014293 
3593.384208  	0.013873 
3595.313024  	0.012931 
3597.241840  	0.011481 
3599.170656  	0.010006 
3601.099472  	0.008961 
3603.028288  	0.008915 
3604.957104  	0.008947 
3606.885920  	0.008315 
3608.814736  	0.007246 
3610.743552  	0.007083 
3612.672368  	0.005934 
3614.601184  	0.004489 
3616.530000  	0.003964 
3618.458816  	0.001601 
3620.387632  	-0.000186 
3622.316448  	0.000202 
3624.245264  	0.000206 
3626.174080  	0.000047 
3628.102896  	-0.002984 
3630.031712  	-0.006315 
3631.960528  	-0.004266 
3633.889344  	-0.004576 
3635.818160  	-0.005445 
3637.746976  	-0.006447 
3639.675792  	-0.006802 
3641.604608  	-0.006788 
3643.533424  	-0.007068 
3645.462240  	-0.007621 
3647.391056  	-0.011062 
3649.319872  	-0.016245 
3651.248688  	-0.017401 
3653.177504  	-0.013837 
3655.106320  	-0.014229 
3657.035136  	-0.016865 
3658.963952  	-0.016316 
3660.892768  	-0.016195 
3662.821584  	-0.016535 
3664.750400  	-0.016609 
3666.679216  	-0.016801 
3668.608032  	-0.019376 
3670.536848  	-0.022914 
3672.465664  	-0.020414 
3674.394480  	-0.022134 
3676.323296  	-0.026973 
3678.252112  	-0.022103 
3680.180928  	-0.019884 
3682.109744  	-0.019094 
3684.038560  	-0.019344 
3685.967376  	-0.019493 
3687.896192  	-0.022771 
3689.825008  	-0.026301 
3691.753824  	-0.024564 
3693.682640  	-0.021463 
3695.611456  	-0.019997 
3697.540272  	-0.019167 
3699.469088  	-0.018640 
3701.397904  	-0.019980 
3703.326720  	-0.019762 
3705.255536  	-0.017792 
3707.184352  	-0.017308 
3709.113168  	-0.019249 
3711.041984  	-0.021749 
3712.970800  	-0.020079 
3714.899616  	-0.016536 
3716.828432  	-0.016006 
3718.757248  	-0.016645 
3720.686064  	-0.017338 
3722.614880  	-0.017847 
3724.543696  	-0.017004 
3726.472512  	-0.017419 
3728.401328  	-0.017494 
3730.330144  	-0.018101 
3732.258960  	-0.020222 
3734.187776  	-0.019281 
3736.116592  	-0.019799 
3738.045408  	-0.019398 
3739.974224  	-0.017209 
3741.903040  	-0.015894 
3743.831856  	-0.018843 
3745.760672  	-0.020847 
3747.689488  	-0.018754 
3749.618304  	-0.022111 
3751.547120  	-0.023909 
3753.475936  	-0.020429 
3755.404752  	-0.017370 
3757.333568  	-0.017216 
3759.262384  	-0.018207 
3761.191200  	-0.017683 
3763.120016  	-0.015680 
3765.048832  	-0.016514 
3766.977648  	-0.016676 
3768.906464  	-0.017627 
3770.835280  	-0.018414 
3772.764096  	-0.016478 
3774.692912  	-0.015654 
3776.621728  	-0.015685 
3778.550544  	-0.017219 
3780.479360  	-0.018203 
3782.408176  	-0.016308 
3784.336992  	-0.016506 
3786.265808  	-0.016483 
3788.194624  	-0.016020 
3790.123440  	-0.016020 
3792.052256  	-0.016057 
3793.981072  	-0.016106 
3795.909888  	-0.017777 
3797.838704  	-0.017644 
3799.767520  	-0.018068 
3801.696336  	-0.022545 
3803.625152  	-0.019688 
3805.553968  	-0.018458 
3807.482784  	-0.020519 
3809.411600  	-0.017587 
3811.340416  	-0.015833 
3813.269232  	-0.015584 
3815.198048  	-0.018718 
3817.126864  	-0.020171 
3819.055680  	-0.018454 
3820.984496  	-0.022222 
3822.913312  	-0.020388 
3824.842128  	-0.017391 
3826.770944  	-0.018033 
3828.699760  	-0.016978 
3830.628576  	-0.017153 
3832.557392  	-0.018244 
3834.486208  	-0.018221 
3836.415024  	-0.019729 
3838.343840  	-0.021381 
3840.272656  	-0.019921 
3842.201472  	-0.018248 
3844.130288  	-0.018022 
3846.059104  	-0.016703 
3847.987920  	-0.015721 
3849.916736  	-0.015808 
3851.845552  	-0.018771 
3853.774368  	-0.025029 
3855.703184  	-0.021032 
3857.632000  	-0.017321 
3859.560816  	-0.015855 
3861.489632  	-0.016127 
3863.418448  	-0.017234 
3865.347264  	-0.017734 
3867.276080  	-0.016198 
3869.204896  	-0.017729 
3871.133712  	-0.018106 
3873.062528  	-0.016874 
3874.991344  	-0.017473 
3876.920160  	-0.015610 
3878.848976  	-0.015099 
3880.777792  	-0.016104 
3882.706608  	-0.015141 
3884.635424  	-0.015618 
3886.564240  	-0.017252 
3888.493056  	-0.015863 
3890.421872  	-0.016463 
3892.350688  	-0.017437 
3894.279504  	-0.015828 
3896.208320  	-0.014774 
3898.137136  	-0.014894 
3900.065952  	-0.015349 
3901.994768  	-0.015316 
3903.923584  	-0.016439 
3905.852400  	-0.016698 
3907.781216  	-0.015940 
3909.710032  	-0.015746 
3911.638848  	-0.015786 
3913.567664  	-0.015331 
3915.496480  	-0.014750 
3917.425296  	-0.014875 
3919.354112  	-0.015246 
3921.282928  	-0.015139 
3923.211744  	-0.014526 
3925.140560  	-0.014842 
3927.069376  	-0.015170 
3928.998192  	-0.014944 
3930.927008  	-0.014337 
3932.855824  	-0.014416 
3934.784640  	-0.015142 
3936.713456  	-0.015377 
3938.642272  	-0.015089 
3940.571088  	-0.014719 
3942.499904  	-0.014512 
3944.428720  	-0.014753 
3946.357536  	-0.014546 
3948.286352  	-0.014337 
3950.215168  	-0.014972 
3952.143984  	-0.015612 
3954.072800  	-0.015575 
3956.001616  	-0.015362 
3957.930432  	-0.015528 
3959.859248  	-0.015443 
3961.788064  	-0.015230 
3963.716880  	-0.015610 
3965.645696  	-0.016003 
3967.574512  	-0.015730 
3969.503328  	-0.015339 
3971.432144  	-0.015403 
3973.360960  	-0.015429 
3975.289776  	-0.015293 
3977.218592  	-0.015383 
3979.147408  	-0.015617 
3981.076224  	-0.015677 
3983.005040  	-0.015661 
3984.933856  	-0.015513 
3986.862672  	-0.015501 
3988.791488  	-0.015421 
3990.720304  	-0.015124 
3992.649120  	-0.015260 
3994.577936  	-0.015558 
3996.506752  	-0.015662 
3998.435568  	-0.015718 
4000.364384  	-0.015597 