##TITLE=No Description
##DATA TYPE=INFRARED SPECTRUM
##XUNITS=1/CM
##YUNITS=Abs
399.264912  	0.669323 
401.193728  	0.638476 
403.122544  	0.635820 
405.051360  	0.615670 
406.980176  	0.606393 
408.908992  	0.601781 
410.837808  	0.604732 
412.766624  	0.595238 
414.695440  	0.599917 
416.624256  	0.603198 
418.553072  	0.621876 
420.481888  	0.610793 
422.410704  	0.592735 
424.339520  	0.579684 
426.268336  	0.574172 
428.197152  	0.562444 
430.125968  	0.567391 
432.054784  	0.570045 
433.983600  	0.567317 
435.912416  	0.562032 
437.841232  	0.563649 
439.770048  	0.555225 
441.698864  	0.554458 
443.627680  	0.555287 
445.556496  	0.549397 
447.485312  	0.539699 
449.414128  	0.539407 
451.342944  	0.539163 
453.271760  	0.544599 
455.200576  	0.543526 
457.129392  	0.549705 
459.058208  	0.544471 
460.987024  	0.546325 
462.915840  	0.545857 
464.844656  	0.545622 
466.773472  	0.546112 
468.702288  	0.547770 
470.631104  	0.543281 
472.559920  	0.544016 
474.488736  	0.539973 
476.417552  	0.539713 
478.346368  	0.536902 
480.275184  	0.538886 
482.204000  	0.534931 
484.132816  	0.536436 
486.061632  	0.538341 
487.990448  	0.540020 
489.919264  	0.533463 
491.848080  	0.529939 
493.776896  	0.525001 
495.705712  	0.525612 
497.634528  	0.523127 
499.563344  	0.523133 
501.492160  	0.522217 
503.420976  	0.528123 
505.349792  	0.524636 
507.278608  	0.520765 
509.207424  	0.520334 
511.136240  	0.523374 
513.065056  	0.522070 
514.993872  	0.523685 
516.922688  	0.524919 
518.851504  	0.527999 
520.780320  	0.524966 
522.709136  	0.523330 
524.637952  	0.521340 
526.566768  	0.521548 
528.495584  	0.518642 
530.424400  	0.515216 
532.353216  	0.509425 
534.282032  	0.505328 
536.210848  	0.500942 
538.139664  	0.498422 
540.068480  	0.493763 
541.997296  	0.490999 
543.926112  	0.485414 
545.854928  	0.481579 
547.783744  	0.478616 
549.712560  	0.475427 
551.641376  	0.470587 
553.570192  	0.466695 
555.499008  	0.463163 
557.427824  	0.460623 
559.356640  	0.456145 
561.285456  	0.453094 
563.214272  	0.449521 
565.143088  	0.445824 
567.071904  	0.441671 
569.000720  	0.439706 
570.929536  	0.436418 
572.858352  	0.433419 
574.787168  	0.430637 
576.715984  	0.429099 
578.644800  	0.424888 
580.573616  	0.421284 
582.502432  	0.416096 
584.431248  	0.413059 
586.360064  	0.410046 
588.288880  	0.407329 
590.217696  	0.404706 
592.146512  	0.403245 
594.075328  	0.400216 
596.004144  	0.397649 
597.932960  	0.395408 
599.861776  	0.393747 
601.790592  	0.391857 
603.719408  	0.390787 
605.648224  	0.388902 
607.577040  	0.387199 
609.505856  	0.385539 
611.434672  	0.384659 
613.363488  	0.382342 
615.292304  	0.381188 
617.221120  	0.379695 
619.149936  	0.378282 
621.078752  	0.376655 
623.007568  	0.375595 
624.936384  	0.373676 
626.865200  	0.371523 
628.794016  	0.369439 
630.722832  	0.369030 
632.651648  	0.368738 
634.580464  	0.368884 
636.509280  	0.368769 
638.438096  	0.368335 
640.366912  	0.366933 
642.295728  	0.365251 
644.224544  	0.362627 
646.153360  	0.359060 
648.082176  	0.354147 
650.010992  	0.350380 
651.939808  	0.346607 
653.868624  	0.342395 
655.797440  	0.338044 
657.726256  	0.334648 
659.655072  	0.331620 
661.583888  	0.327889 
663.512704  	0.323558 
665.441520  	0.320448 
667.370336  	0.313325 
669.299152  	0.307269 
671.227968  	0.306842 
673.156784  	0.304468 
675.085600  	0.301871 
677.014416  	0.299052 
678.943232  	0.297045 
680.872048  	0.295670 
682.800864  	0.293427 
684.729680  	0.291412 
686.658496  	0.289965 
688.587312  	0.289189 
690.516128  	0.288110 
692.444944  	0.286519 
694.373760  	0.285116 
696.302576  	0.283694 
698.231392  	0.281303 
700.160208  	0.278922 
702.089024  	0.276886 
704.017840  	0.274407 
705.946656  	0.271736 
707.875472  	0.269592 
709.804288  	0.267436 
711.733104  	0.265365 
713.661920  	0.262855 
715.590736  	0.261234 
717.519552  	0.260360 
719.448368  	0.260249 
721.377184  	0.260494 
723.306000  	0.261193 
725.234816  	0.260975 
727.163632  	0.260202 
729.092448  	0.258103 
731.021264  	0.255075 
732.950080  	0.251755 
734.878896  	0.248947 
736.807712  	0.246164 
738.736528  	0.243753 
740.665344  	0.241913 
742.594160  	0.240295 
744.522976  	0.238351 
746.451792  	0.236339 
748.380608  	0.234574 
750.309424  	0.233148 
752.238240  	0.232137 
754.167056  	0.231228 
756.095872  	0.229531 
758.024688  	0.228169 
759.953504  	0.227429 
761.882320  	0.227618 
763.811136  	0.228081 
765.739952  	0.227550 
767.668768  	0.225194 
769.597584  	0.222523 
771.526400  	0.221239 
773.455216  	0.221958 
775.384032  	0.224788 
777.312848  	0.229262 
779.241664  	0.232851 
781.170480  	0.233068 
783.099296  	0.229791 
785.028112  	0.224610 
786.956928  	0.218967 
788.885744  	0.213938 
790.814560  	0.210175 
792.743376  	0.207451 
794.672192  	0.206082 
796.601008  	0.205055 
798.529824  	0.202159 
800.458640  	0.197782 
802.387456  	0.194282 
804.316272  	0.192083 
806.245088  	0.190563 
808.173904  	0.189452 
810.102720  	0.188683 
812.031536  	0.188204 
813.960352  	0.188534 
815.889168  	0.188866 
817.817984  	0.188753 
819.746800  	0.188649 
821.675616  	0.188846 
823.604432  	0.188428 
825.533248  	0.187991 
827.462064  	0.187396 
829.390880  	0.186304 
831.319696  	0.184863 
833.248512  	0.182756 
835.177328  	0.180436 
837.106144  	0.178018 
839.034960  	0.175044 
840.963776  	0.171530 
842.892592  	0.167811 
844.821408  	0.164356 
846.750224  	0.161366 
848.679040  	0.158938 
850.607856  	0.156613 
852.536672  	0.154740 
854.465488  	0.152985 
856.394304  	0.151596 
858.323120  	0.150105 
860.251936  	0.147829 
862.180752  	0.145538 
864.109568  	0.142999 
866.038384  	0.140417 
867.967200  	0.138268 
869.896016  	0.136440 
871.824832  	0.135147 
873.753648  	0.134421 
875.682464  	0.134783 
877.611280  	0.135321 
879.540096  	0.136146 
881.468912  	0.137964 
883.397728  	0.139179 
885.326544  	0.140055 
887.255360  	0.140427 
889.184176  	0.139429 
891.112992  	0.137354 
893.041808  	0.135608 
894.970624  	0.133290 
896.899440  	0.129999 
898.828256  	0.125955 
900.757072  	0.122193 
902.685888  	0.119277 
904.614704  	0.117305 
906.543520  	0.117188 
908.472336  	0.118535 
910.401152  	0.120695 
912.329968  	0.123318 
914.258784  	0.126236 
916.187600  	0.128864 
918.116416  	0.131068 
920.045232  	0.132714 
921.974048  	0.133738 
923.902864  	0.133927 
925.831680  	0.133651 
927.760496  	0.133738 
929.689312  	0.133975 
931.618128  	0.134460 
933.546944  	0.135036 
935.475760  	0.135298 
937.404576  	0.135149 
939.333392  	0.134664 
941.262208  	0.134457 
943.191024  	0.135580 
945.119840  	0.138770 
947.048656  	0.144024 
948.977472  	0.150980 
950.906288  	0.159385 
952.835104  	0.169004 
954.763920  	0.179359 
956.692736  	0.189250 
958.621552  	0.198057 
960.550368  	0.204348 
962.479184  	0.207661 
964.408000  	0.207368 
966.336816  	0.203276 
968.265632  	0.195603 
970.194448  	0.185260 
972.123264  	0.173104 
974.052080  	0.160123 
975.980896  	0.147439 
977.909712  	0.135501 
979.838528  	0.124572 
981.767344  	0.115375 
983.696160  	0.108358 
985.624976  	0.103757 
987.553792  	0.101693 
989.482608  	0.102231 
991.411424  	0.104931 
993.340240  	0.109338 
995.269056  	0.114743 
997.197872  	0.120726 
999.126688  	0.127024 
1001.055504  	0.133284 
1002.984320  	0.139562 
1004.913136  	0.145776 
1006.841952  	0.151713 
1008.770768  	0.156734 
1010.699584  	0.160591 
1012.628400  	0.162865 
1014.557216  	0.163669 
1016.486032  	0.163758 
1018.414848  	0.163648 
1020.343664  	0.163450 
1022.272480  	0.162576 
1024.201296  	0.160957 
1026.130112  	0.157573 
1028.058928  	0.156313 
1029.987744  	0.159292 
1031.916560  	0.161124 
1033.845376  	0.162080 
1035.774192  	0.163050 
1037.703008  	0.165354 
1039.631824  	0.171295 
1041.560640  	0.179699 
1043.489456  	0.190471 
1045.418272  	0.204112 
1047.347088  	0.219777 
1049.275904  	0.234587 
1051.204720  	0.246819 
1053.133536  	0.255098 
1055.062352  	0.259222 
1056.991168  	0.259788 
1058.919984  	0.261315 
1060.848800  	0.262630 
1062.777616  	0.260622 
1064.706432  	0.254722 
1066.635248  	0.249802 
1068.564064  	0.248463 
1070.492880  	0.244103 
1072.421696  	0.236583 
1074.350512  	0.231222 
1076.279328  	0.229386 
1078.208144  	0.231348 
1080.136960  	0.236148 
1082.065776  	0.242283 
1083.994592  	0.246831 
1085.923408  	0.248680 
1087.852224  	0.246962 
1089.781040  	0.243028 
1091.709856  	0.237808 
1093.638672  	0.230255 
1095.567488  	0.219534 
1097.496304  	0.207454 
1099.425120  	0.194732 
1101.353936  	0.182035 
1103.282752  	0.169554 
1105.211568  	0.157620 
1107.140384  	0.146217 
1109.069200  	0.135359 
1110.998016  	0.125611 
1112.926832  	0.116743 
1114.855648  	0.108522 
1116.784464  	0.100995 
1118.713280  	0.093829 
1120.642096  	0.087096 
1122.570912  	0.080811 
1124.499728  	0.074754 
1126.428544  	0.069468 
1128.357360  	0.064681 
1130.286176  	0.060610 
1132.214992  	0.057092 
1134.143808  	0.054520 
1136.072624  	0.052244 
1138.001440  	0.050239 
1139.930256  	0.048032 
1141.859072  	0.045856 
1143.787888  	0.043599 
1145.716704  	0.041396 
1147.645520  	0.039239 
1149.574336  	0.037502 
1151.503152  	0.036096 
1153.431968  	0.035566 
1155.360784  	0.035643 
1157.289600  	0.036413 
1159.218416  	0.037738 
1161.147232  	0.039673 
1163.076048  	0.041548 
1165.004864  	0.043634 
1166.933680  	0.045650 
1168.862496  	0.048015 
1170.791312  	0.050319 
1172.720128  	0.053110 
1174.648944  	0.055759 
1176.577760  	0.058521 
1178.506576  	0.061009 
1180.435392  	0.063568 
1182.364208  	0.066159 
1184.293024  	0.069203 
1186.221840  	0.072496 
1188.150656  	0.076346 
1190.079472  	0.080717 
1192.008288  	0.085800 
1193.937104  	0.091926 
1195.865920  	0.099224 
1197.794736  	0.107123 
1199.723552  	0.115882 
1201.652368  	0.124982 
1203.581184  	0.134014 
1205.510000  	0.142741 
1207.438816  	0.151156 
1209.367632  	0.159228 
1211.296448  	0.166263 
1213.225264  	0.172176 
1215.154080  	0.176674 
1217.082896  	0.180153 
1219.011712  	0.182451 
1220.940528  	0.183968 
1222.869344  	0.184789 
1224.798160  	0.184815 
1226.726976  	0.184363 
1228.655792  	0.183497 
1230.584608  	0.181888 
1232.513424  	0.179819 
1234.442240  	0.177105 
1236.371056  	0.173729 
1238.299872  	0.169174 
1240.228688  	0.162083 
1242.157504  	0.155136 
1244.086320  	0.149317 
1246.015136  	0.141900 
1247.943952  	0.133805 
1249.872768  	0.125754 
1251.801584  	0.118730 
1253.730400  	0.111792 
1255.659216  	0.104918 
1257.588032  	0.098519 
1259.516848  	0.092356 
1261.445664  	0.086694 
1263.374480  	0.081526 
1265.303296  	0.077161 
1267.232112  	0.073700 
1269.160928  	0.071040 
1271.089744  	0.068980 
1273.018560  	0.067927 
1274.947376  	0.067771 
1276.876192  	0.068008 
1278.805008  	0.067820 
1280.733824  	0.066799 
1282.662640  	0.064883 
1284.591456  	0.062527 
1286.520272  	0.060441 
1288.449088  	0.059009 
1290.377904  	0.058128 
1292.306720  	0.058206 
1294.235536  	0.058285 
1296.164352  	0.057473 
1298.093168  	0.055246 
1300.021984  	0.052383 
1301.950800  	0.049306 
1303.879616  	0.046530 
1305.808432  	0.043572 
1307.737248  	0.040616 
1309.666064  	0.037637 
1311.594880  	0.035592 
1313.523696  	0.034034 
1315.452512  	0.032938 
1317.381328  	0.032259 
1319.310144  	0.032109 
1321.238960  	0.032148 
1323.167776  	0.032709 
1325.096592  	0.033505 
1327.025408  	0.034100 
1328.954224  	0.034009 
1330.883040  	0.033557 
1332.811856  	0.032663 
1334.740672  	0.032177 
1336.669488  	0.032390 
1338.598304  	0.032805 
1340.527120  	0.031334 
1342.455936  	0.029405 
1344.384752  	0.028863 
1346.313568  	0.029063 
1348.242384  	0.029620 
1350.171200  	0.030729 
1352.100016  	0.032249 
1354.028832  	0.034193 
1355.957648  	0.035986 
1357.886464  	0.037961 
1359.815280  	0.040257 
1361.744096  	0.042825 
1363.672912  	0.044063 
1365.601728  	0.044756 
1367.530544  	0.046013 
1369.459360  	0.046498 
1371.388176  	0.046274 
1373.316992  	0.045127 
1375.245808  	0.041928 
1377.174624  	0.039493 
1379.103440  	0.036691 
1381.032256  	0.033550 
1382.961072  	0.031280 
1384.889888  	0.030587 
1386.818704  	0.030149 
1388.747520  	0.028411 
1390.676336  	0.025988 
1392.605152  	0.022745 
1394.533968  	0.020887 
1396.462784  	0.023817 
1398.391600  	0.024982 
1400.320416  	0.024063 
1402.249232  	0.024242 
1404.178048  	0.024864 
1406.106864  	0.025422 
1408.035680  	0.027276 
1409.964496  	0.029846 
1411.893312  	0.032620 
1413.822128  	0.035510 
1415.750944  	0.039498 
1417.679760  	0.042294 
1419.608576  	0.041742 
1421.537392  	0.042039 
1423.466208  	0.042451 
1425.395024  	0.040869 
1427.323840  	0.039504 
1429.252656  	0.037052 
1431.181472  	0.035361 
1433.110288  	0.035298 
1435.039104  	0.035804 
1436.967920  	0.035100 
1438.896736  	0.035725 
1440.825552  	0.036825 
1442.754368  	0.037383 
1444.683184  	0.037536 
1446.612000  	0.037399 
1448.540816  	0.036254 
1450.469632  	0.036747 
1452.398448  	0.037754 
1454.327264  	0.038779 
1456.256080  	0.037672 
1458.184896  	0.034898 
1460.113712  	0.036871 
1462.042528  	0.038481 
1463.971344  	0.037810 
1465.900160  	0.038175 
1467.828976  	0.041151 
1469.757792  	0.044290 
1471.686608  	0.046738 
1473.615424  	0.052138 
1475.544240  	0.058997 
1477.473056  	0.064545 
1479.401872  	0.068386 
1481.330688  	0.071551 
1483.259504  	0.073599 
1485.188320  	0.075145 
1487.117136  	0.074994 
1489.045952  	0.074278 
1490.974768  	0.071060 
1492.903584  	0.069034 
1494.832400  	0.065870 
1496.761216  	0.059007 
1498.690032  	0.053229 
1500.618848  	0.050076 
1502.547664  	0.046816 
1504.476480  	0.042290 
1506.405296  	0.035107 
1508.334112  	0.034393 
1510.262928  	0.035146 
1512.191744  	0.033220 
1514.120560  	0.032234 
1516.049376  	0.031282 
1517.978192  	0.029863 
1519.907008  	0.030911 
1521.835824  	0.030536 
1523.764640  	0.035158 
1525.693456  	0.039806 
1527.622272  	0.042201 
1529.551088  	0.043166 
1531.479904  	0.043056 
1533.408720  	0.038810 
1535.337536  	0.036265 
1537.266352  	0.034457 
1539.195168  	0.025529 
1541.123984  	0.018441 
1543.052800  	0.022664 
1544.981616  	0.024047 
1546.910432  	0.023755 
1548.839248  	0.024233 
1550.768064  	0.024186 
1552.696880  	0.023745 
1554.625696  	0.023664 
1556.554512  	0.023034 
1558.483328  	0.018802 
1560.412144  	0.023858 
1562.340960  	0.032111 
1564.269776  	0.035935 
1566.198592  	0.041039 
1568.127408  	0.044695 
1570.056224  	0.048981 
1571.985040  	0.056596 
1573.913856  	0.061032 
1575.842672  	0.060927 
1577.771488  	0.064477 
1579.700304  	0.067264 
1581.629120  	0.067282 
1583.557936  	0.066723 
1585.486752  	0.067416 
1587.415568  	0.069532 
1589.344384  	0.073662 
1591.273200  	0.079244 
1593.202016  	0.085990 
1595.130832  	0.093080 
1597.059648  	0.100751 
1598.988464  	0.107381 
1600.917280  	0.113231 
1602.846096  	0.117049 
1604.774912  	0.119592 
1606.703728  	0.119943 
1608.632544  	0.119088 
1610.561360  	0.117376 
1612.490176  	0.116109 
1614.418992  	0.113538 
1616.347808  	0.109739 
1618.276624  	0.111348 
1620.205440  	0.116471 
1622.134256  	0.118755 
1624.063072  	0.123790 
1625.991888  	0.130926 
1627.920704  	0.138721 
1629.849520  	0.148832 
1631.778336  	0.158197 
1633.707152  	0.163668 
1635.635968  	0.169796 
1637.564784  	0.181584 
1639.493600  	0.190871 
1641.422416  	0.196736 
1643.351232  	0.200801 
1645.280048  	0.200649 
1647.208864  	0.199886 
1649.137680  	0.202754 
1651.066496  	0.203146 
1652.995312  	0.194419 
1654.924128  	0.195769 
1656.852944  	0.198041 
1658.781760  	0.196524 
1660.710576  	0.192811 
1662.639392  	0.187273 
1664.568208  	0.183801 
1666.497024  	0.181715 
1668.425840  	0.175524 
1670.354656  	0.168162 
1672.283472  	0.165802 
1674.212288  	0.162910 
1676.141104  	0.158307 
1678.069920  	0.158335 
1679.998736  	0.157757 
1681.927552  	0.155766 
1683.856368  	0.149093 
1685.785184  	0.148847 
1687.714000  	0.152229 
1689.642816  	0.151850 
1691.571632  	0.150319 
1693.500448  	0.149162 
1695.429264  	0.144007 
1697.358080  	0.140618 
1699.286896  	0.137996 
1701.215712  	0.133029 
1703.144528  	0.133449 
1705.073344  	0.129075 
1707.002160  	0.123479 
1708.930976  	0.120017 
1710.859792  	0.114445 
1712.788608  	0.107889 
1714.717424  	0.099295 
1716.646240  	0.087810 
1718.575056  	0.074657 
1720.503872  	0.068339 
1722.432688  	0.062386 
1724.361504  	0.053393 
1726.290320  	0.045867 
1728.219136  	0.039685 
1730.147952  	0.034076 
1732.076768  	0.029015 
1734.005584  	0.021213 
1735.934400  	0.016485 
1737.863216  	0.016549 
1739.792032  	0.012545 
1741.720848  	0.011637 
1743.649664  	0.011401 
1745.578480  	0.010443 
1747.507296  	0.008427 
1749.436112  	0.007433 
1751.364928  	0.006422 
1753.293744  	0.005992 
1755.222560  	0.005878 
1757.151376  	0.005136 
1759.080192  	0.004532 
1761.009008  	0.003668 
1762.937824  	0.002176 
1764.866640  	0.002900 
1766.795456  	0.003353 
1768.724272  	0.002755 
1770.653088  	0.000199 
1772.581904  	-0.002657 
1774.510720  	-0.000741 
1776.439536  	0.001209 
1778.368352  	0.001369 
1780.297168  	0.000820 
1782.225984  	0.000376 
1784.154800  	0.001012 
1786.083616  	0.000372 
1788.012432  	0.000568 
1789.941248  	0.000831 
1791.870064  	-0.000871 
1793.798880  	-0.002167 
1795.727696  	-0.000309 
1797.656512  	-0.000612 
1799.585328  	-0.000887 
1801.514144  	-0.000434 
1803.442960  	-0.000573 
1805.371776  	-0.001306 
1807.300592  	-0.000926 
1809.229408  	-0.001370 
1811.158224  	-0.001751 
1813.087040  	-0.001814 
1815.015856  	-0.001532 
1816.944672  	-0.001480 
1818.873488  	-0.001417 
1820.802304  	-0.001666 
1822.731120  	-0.000999 
1824.659936  	-0.001910 
1826.588752  	-0.002701 
1828.517568  	-0.003324 
1830.446384  	-0.003579 
1832.375200  	-0.002518 
1834.304016  	-0.001740 
1836.232832  	-0.001934 
1838.161648  	-0.001788 
1840.090464  	-0.001804 
1842.019280  	-0.001076 
1843.948096  	-0.002600 
1845.876912  	-0.002654 
1847.805728  	-0.001817 
1849.734544  	-0.001876 
1851.663360  	-0.002269 
1853.592176  	-0.002150 
1855.520992  	-0.002307 
1857.449808  	-0.002168 
1859.378624  	-0.002386 
1861.307440  	-0.002233 
1863.236256  	-0.002473 
1865.165072  	-0.002387 
1867.093888  	-0.002825 
1869.022704  	-0.003165 
1870.951520  	-0.003153 
1872.880336  	-0.002653 
1874.809152  	-0.003029 
1876.737968  	-0.003076 
1878.666784  	-0.003100 
1880.595600  	-0.002473 
1882.524416  	-0.002798 
1884.453232  	-0.002855 
1886.382048  	-0.003021 
1888.310864  	-0.002647 
1890.239680  	-0.003168 
1892.168496  	-0.002766 
1894.097312  	-0.002718 
1896.026128  	-0.002529 
1897.954944  	-0.002906 
1899.883760  	-0.002802 
1901.812576  	-0.003061 
1903.741392  	-0.003280 
1905.670208  	-0.003432 
1907.599024  	-0.002781 
1909.527840  	-0.002876 
1911.456656  	-0.002641 
1913.385472  	-0.002599 
1915.314288  	-0.002104 
1917.243104  	-0.002793 
1919.171920  	-0.002928 
1921.100736  	-0.002672 
1923.029552  	-0.002508 
1924.958368  	-0.003385 
1926.887184  	-0.003184 
1928.816000  	-0.003345 
1930.744816  	-0.003234 
1932.673632  	-0.003120 
1934.602448  	-0.002778 
1936.531264  	-0.003275 
1938.460080  	-0.002781 
1940.388896  	-0.002741 
1942.317712  	-0.002941 
1944.246528  	-0.003800 
1946.175344  	-0.003153 
1948.104160  	-0.003424 
1950.032976  	-0.003231 
1951.961792  	-0.003397 
1953.890608  	-0.002881 
1955.819424  	-0.002779 
1957.748240  	-0.002235 
1959.677056  	-0.002885 
1961.605872  	-0.002236 
1963.534688  	-0.002729 
1965.463504  	-0.002711 
1967.392320  	-0.003404 
1969.321136  	-0.002976 
1971.249952  	-0.003154 
1973.178768  	-0.002579 
1975.107584  	-0.003242 
1977.036400  	-0.001880 
1978.965216  	-0.000318 
1980.894032  	-0.000249 
1982.822848  	-0.001767 
1984.751664  	-0.001785 
1986.680480  	-0.002785 
1988.609296  	-0.002446 
1990.538112  	-0.002633 
1992.466928  	-0.001490 
1994.395744  	-0.002467 
1996.324560  	-0.002843 
1998.253376  	-0.003377 
2000.182192  	-0.003267 
2002.111008  	-0.002770 
2004.039824  	-0.001510 
2005.968640  	-0.002742 
2007.897456  	-0.002293 
2009.826272  	-0.002598 
2011.755088  	-0.002390 
2013.683904  	-0.002988 
2015.612720  	-0.002239 
2017.541536  	-0.002427 
2019.470352  	-0.002355 
2021.399168  	-0.003540 
2023.327984  	-0.002909 
2025.256800  	-0.002741 
2027.185616  	-0.001501 
2029.114432  	-0.001284 
2031.043248  	-0.001033 
2032.972064  	-0.001427 
2034.900880  	-0.001686 
2036.829696  	-0.002574 
2038.758512  	-0.001223 
2040.687328  	-0.001774 
2042.616144  	-0.001639 
2044.544960  	-0.002621 
2046.473776  	-0.002268 
2048.402592  	-0.002110 
2050.331408  	-0.001619 
2052.260224  	-0.002512 
2054.189040  	-0.002754 
2056.117856  	-0.002722 
2058.046672  	-0.002547 
2059.975488  	-0.002889 
2061.904304  	-0.002896 
2063.833120  	-0.003004 
2065.761936  	-0.002748 
2067.690752  	-0.003135 
2069.619568  	-0.002344 
2071.548384  	-0.002195 
2073.477200  	-0.002564 
2075.406016  	-0.002174 
2077.334832  	-0.001820 
2079.263648  	-0.002249 
2081.192464  	-0.002231 
2083.121280  	-0.002452 
2085.050096  	-0.002609 
2086.978912  	-0.002587 
2088.907728  	-0.002163 
2090.836544  	-0.002507 
2092.765360  	-0.002499 
2094.694176  	-0.002246 
2096.622992  	-0.001853 
2098.551808  	-0.001974 
2100.480624  	-0.001703 
2102.409440  	-0.001712 
2104.338256  	-0.001769 
2106.267072  	-0.001886 
2108.195888  	-0.001800 
2110.124704  	-0.002123 
2112.053520  	-0.001721 
2113.982336  	-0.001893 
2115.911152  	-0.001706 
2117.839968  	-0.001734 
2119.768784  	-0.001707 
2121.697600  	-0.002015 
2123.626416  	-0.002327 
2125.555232  	-0.002855 
2127.484048  	-0.002731 
2129.412864  	-0.002672 
2131.341680  	-0.002347 
2133.270496  	-0.002700 
2135.199312  	-0.002492 
2137.128128  	-0.001916 
2139.056944  	-0.001163 
2140.985760  	-0.001624 
2142.914576  	-0.001167 
2144.843392  	-0.000970 
2146.772208  	-0.000704 
2148.701024  	-0.001117 
2150.629840  	-0.000848 
2152.558656  	-0.001084 
2154.487472  	-0.001945 
2156.416288  	-0.003034 
2158.345104  	-0.001014 
2160.273920  	0.001458 
2162.202736  	0.001950 
2164.131552  	0.000684 
2166.060368  	-0.000002 
2167.989184  	0.000088 
2169.918000  	0.001354 
2171.846816  	0.000330 
2173.775632  	0.000258 
2175.704448  	0.000543 
2177.633264  	0.000974 
2179.562080  	0.000450 
2181.490896  	0.000354 
2183.419712  	-0.000069 
2185.348528  	0.000347 
2187.277344  	0.000301 
2189.206160  	0.000503 
2191.134976  	-0.000024 
2193.063792  	-0.001113 
2194.992608  	-0.001543 
2196.921424  	-0.000494 
2198.850240  	-0.000601 
2200.779056  	-0.000836 
2202.707872  	-0.001430 
2204.636688  	-0.001592 
2206.565504  	-0.001246 
2208.494320  	-0.000678 
2210.423136  	-0.001330 
2212.351952  	-0.001888 
2214.280768  	-0.002067 
2216.209584  	-0.001645 
2218.138400  	-0.002217 
2220.067216  	-0.002078 
2221.996032  	-0.001933 
2223.924848  	-0.001437 
2225.853664  	-0.001246 
2227.782480  	-0.001275 
2229.711296  	-0.002029 
2231.640112  	-0.002374 
2233.568928  	-0.002405 
2235.497744  	-0.002142 
2237.426560  	-0.002287 
2239.355376  	-0.002442 
2241.284192  	-0.002214 
2243.213008  	-0.001555 
2245.141824  	-0.001837 
2247.070640  	-0.001868 
2248.999456  	-0.002179 
2250.928272  	-0.002668 
2252.857088  	-0.003259 
2254.785904  	-0.003211 
2256.714720  	-0.003513 
2258.643536  	-0.003468 
2260.572352  	-0.003564 
2262.501168  	-0.003770 
2264.429984  	-0.003826 
2266.358800  	-0.003628 
2268.287616  	-0.003474 
2270.216432  	-0.003012 
2272.145248  	-0.002929 
2274.074064  	-0.003016 
2276.002880  	-0.003009 
2277.931696  	-0.002611 
2279.860512  	-0.002676 
2281.789328  	-0.002597 
2283.718144  	-0.002456 
2285.646960  	-0.002221 
2287.575776  	-0.002128 
2289.504592  	-0.002585 
2291.433408  	-0.002924 
2293.362224  	-0.002674 
2295.291040  	-0.002316 
2297.219856  	-0.002019 
2299.148672  	-0.002035 
2301.077488  	-0.001956 
2303.006304  	-0.002193 
2304.935120  	-0.002223 
2306.863936  	-0.002295 
2308.792752  	-0.002647 
2310.721568  	-0.003244 
2312.650384  	-0.003993 
2314.579200  	-0.005019 
2316.508016  	-0.006153 
2318.436832  	-0.007616 
2320.365648  	-0.009461 
2322.294464  	-0.011391 
2324.223280  	-0.013467 
2326.152096  	-0.015962 
2328.080912  	-0.018308 
2330.009728  	-0.020596 
2331.938544  	-0.022597 
2333.867360  	-0.024103 
2335.796176  	-0.025680 
2337.724992  	-0.027146 
2339.653808  	-0.027209 
2341.582624  	-0.027256 
2343.511440  	-0.026008 
2345.440256  	-0.022655 
2347.369072  	-0.016256 
2349.297888  	-0.012900 
2351.226704  	-0.016660 
2353.155520  	-0.023801 
2355.084336  	-0.029471 
2357.013152  	-0.033770 
2358.941968  	-0.036393 
2360.870784  	-0.037583 
2362.799600  	-0.036289 
2364.728416  	-0.034142 
2366.657232  	-0.030506 
2368.586048  	-0.026185 
2370.514864  	-0.021698 
2372.443680  	-0.017228 
2374.372496  	-0.012731 
2376.301312  	-0.008942 
2378.230128  	-0.005904 
2380.158944  	-0.003931 
2382.087760  	-0.002899 
2384.016576  	-0.002508 
2385.945392  	-0.002595 
2387.874208  	-0.002981 
2389.803024  	-0.003321 
2391.731840  	-0.003654 
2393.660656  	-0.003620 
2395.589472  	-0.003426 
2397.518288  	-0.003174 
2399.447104  	-0.003281 
2401.375920  	-0.003560 
2403.304736  	-0.003791 
2405.233552  	-0.003566 
2407.162368  	-0.003552 
2409.091184  	-0.003589 
2411.020000  	-0.003600 
2412.948816  	-0.003379 
2414.877632  	-0.003237 
2416.806448  	-0.003327 
2418.735264  	-0.003445 
2420.664080  	-0.003386 
2422.592896  	-0.003396 
2424.521712  	-0.003324 
2426.450528  	-0.003498 
2428.379344  	-0.003269 
2430.308160  	-0.003168 
2432.236976  	-0.003199 
2434.165792  	-0.003223 
2436.094608  	-0.003154 
2438.023424  	-0.002875 
2439.952240  	-0.002744 
2441.881056  	-0.002890 
2443.809872  	-0.003012 
2445.738688  	-0.002887 
2447.667504  	-0.002484 
2449.596320  	-0.002546 
2451.525136  	-0.002560 
2453.453952  	-0.002453 
2455.382768  	-0.002547 
2457.311584  	-0.002780 
2459.240400  	-0.002846 
2461.169216  	-0.002981 
2463.098032  	-0.003074 
2465.026848  	-0.003033 
2466.955664  	-0.002967 
2468.884480  	-0.003126 
2470.813296  	-0.003217 
2472.742112  	-0.003289 
2474.670928  	-0.003093 
2476.599744  	-0.002946 
2478.528560  	-0.002945 
2480.457376  	-0.002985 
2482.386192  	-0.002871 
2484.315008  	-0.002718 
2486.243824  	-0.002709 
2488.172640  	-0.002715 
2490.101456  	-0.002509 
2492.030272  	-0.002391 
2493.959088  	-0.002312 
2495.887904  	-0.002300 
2497.816720  	-0.002198 
2499.745536  	-0.001975 
2501.674352  	-0.001813 
2503.603168  	-0.001745 
2505.531984  	-0.001774 
2507.460800  	-0.002049 
2509.389616  	-0.001920 
2511.318432  	-0.001836 
2513.247248  	-0.001851 
2515.176064  	-0.001750 
2517.104880  	-0.001521 
2519.033696  	-0.001768 
2520.962512  	-0.001881 
2522.891328  	-0.001779 
2524.820144  	-0.001839 
2526.748960  	-0.001759 
2528.677776  	-0.001549 
2530.606592  	-0.001445 
2532.535408  	-0.001328 
2534.464224  	-0.001397 
2536.393040  	-0.001447 
2538.321856  	-0.001406 
2540.250672  	-0.001296 
2542.179488  	-0.001277 
2544.108304  	-0.001166 
2546.037120  	-0.001106 
2547.965936  	-0.001103 
2549.894752  	-0.000965 
2551.823568  	-0.000907 
2553.752384  	-0.000854 
2555.681200  	-0.000476 
2557.610016  	-0.000325 
2559.538832  	-0.000329 
2561.467648  	-0.000317 
2563.396464  	-0.000144 
2565.325280  	0.000052 
2567.254096  	-0.000136 
2569.182912  	-0.000296 
2571.111728  	-0.000081 
2573.040544  	0.000072 
2574.969360  	0.000189 
2576.898176  	0.000398 
2578.826992  	0.000317 
2580.755808  	0.000212 
2582.684624  	0.000366 
2584.613440  	0.000418 
2586.542256  	0.000469 
2588.471072  	0.000560 
2590.399888  	0.000548 
2592.328704  	0.000528 
2594.257520  	0.000558 
2596.186336  	0.000709 
2598.115152  	0.000921 
2600.043968  	0.000993 
2601.972784  	0.001203 
2603.901600  	0.001189 
2605.830416  	0.001172 
2607.759232  	0.001350 
2609.688048  	0.001456 
2611.616864  	0.001529 
2613.545680  	0.001633 
2615.474496  	0.001700 
2617.403312  	0.001965 
2619.332128  	0.002119 
2621.260944  	0.002140 
2623.189760  	0.002125 
2625.118576  	0.002227 
2627.047392  	0.002305 
2628.976208  	0.002451 
2630.905024  	0.002563 
2632.833840  	0.002605 
2634.762656  	0.002687 
2636.691472  	0.002807 
2638.620288  	0.002904 
2640.549104  	0.002938 
2642.477920  	0.002996 
2644.406736  	0.003298 
2646.335552  	0.003466 
2648.264368  	0.003553 
2650.193184  	0.003631 
2652.122000  	0.003717 
2654.050816  	0.003969 
2655.979632  	0.004139 
2657.908448  	0.004122 
2659.837264  	0.004166 
2661.766080  	0.004338 
2663.694896  	0.004473 
2665.623712  	0.004540 
2667.552528  	0.004746 
2669.481344  	0.004932 
2671.410160  	0.005002 
2673.338976  	0.005091 
2675.267792  	0.005295 
2677.196608  	0.005532 
2679.125424  	0.005681 
2681.054240  	0.005789 
2682.983056  	0.005925 
2684.911872  	0.005909 
2686.840688  	0.005964 
2688.769504  	0.006086 
2690.698320  	0.006098 
2692.627136  	0.006213 
2694.555952  	0.006328 
2696.484768  	0.006369 
2698.413584  	0.006473 
2700.342400  	0.006530 
2702.271216  	0.006694 
2704.200032  	0.006853 
2706.128848  	0.006927 
2708.057664  	0.006981 
2709.986480  	0.007126 
2711.915296  	0.007208 
2713.844112  	0.007347 
2715.772928  	0.007542 
2717.701744  	0.007680 
2719.630560  	0.007825 
2721.559376  	0.007973 
2723.488192  	0.008136 
2725.417008  	0.008348 
2727.345824  	0.008510 
2729.274640  	0.008608 
2731.203456  	0.008756 
2733.132272  	0.008964 
2735.061088  	0.009097 
2736.989904  	0.009173 
2738.918720  	0.009237 
2740.847536  	0.009361 
2742.776352  	0.009397 
2744.705168  	0.009548 
2746.633984  	0.009616 
2748.562800  	0.009613 
2750.491616  	0.009711 
2752.420432  	0.009863 
2754.349248  	0.009787 
2756.278064  	0.009767 
2758.206880  	0.009695 
2760.135696  	0.009609 
2762.064512  	0.009604 
2763.993328  	0.009620 
2765.922144  	0.009684 
2767.850960  	0.009814 
2769.779776  	0.009857 
2771.708592  	0.009778 
2773.637408  	0.009662 
2775.566224  	0.009635 
2777.495040  	0.009662 
2779.423856  	0.009749 
2781.352672  	0.009876 
2783.281488  	0.009923 
2785.210304  	0.009813 
2787.139120  	0.009873 
2789.067936  	0.009986 
2790.996752  	0.010047 
2792.925568  	0.009958 
2794.854384  	0.009984 
2796.783200  	0.009952 
2798.712016  	0.009840 
2800.640832  	0.009790 
2802.569648  	0.009882 
2804.498464  	0.009958 
2806.427280  	0.009941 
2808.356096  	0.009815 
2810.284912  	0.009810 
2812.213728  	0.009785 
2814.142544  	0.009667 
2816.071360  	0.009666 
2818.000176  	0.009568 
2819.928992  	0.009499 
2821.857808  	0.009462 
2823.786624  	0.009319 
2825.715440  	0.009176 
2827.644256  	0.009015 
2829.573072  	0.008899 
2831.501888  	0.008634 
2833.430704  	0.008315 
2835.359520  	0.008063 
2837.288336  	0.007807 
2839.217152  	0.007503 
2841.145968  	0.007190 
2843.074784  	0.006825 
2845.003600  	0.006353 
2846.932416  	0.005865 
2848.861232  	0.005539 
2850.790048  	0.005252 
2852.718864  	0.004861 
2854.647680  	0.004287 
2856.576496  	0.003624 
2858.505312  	0.003064 
2860.434128  	0.002582 
2862.362944  	0.001783 
2864.291760  	0.000904 
2866.220576  	0.000343 
2868.149392  	0.000053 
2870.078208  	-0.000247 
2872.007024  	-0.000335 
2873.935840  	-0.000184 
2875.864656  	-0.000194 
2877.793472  	-0.000396 
2879.722288  	-0.000737 
2881.651104  	-0.001213 
2883.579920  	-0.001372 
2885.508736  	-0.001141 
2887.437552  	-0.000885 
2889.366368  	-0.000772 
2891.295184  	-0.000906 
2893.224000  	-0.001145 
2895.152816  	-0.001219 
2897.081632  	-0.001500 
2899.010448  	-0.003205 
2900.939264  	-0.004679 
2902.868080  	-0.003379 
2904.796896  	-0.002074 
2906.725712  	-0.001376 
2908.654528  	-0.000643 
2910.583344  	-0.000184 
2912.512160  	0.000443 
2914.440976  	0.001588 
2916.369792  	0.002411 
2918.298608  	0.002950 
2920.227424  	0.003428 
2922.156240  	0.004047 
2924.085056  	0.004992 
2926.013872  	0.006100 
2927.942688  	0.007167 
2929.871504  	0.008086 
2931.800320  	0.008922 
2933.729136  	0.009651 
2935.657952  	0.010145 
2937.586768  	0.010892 
2939.515584  	0.011591 
2941.444400  	0.011810 
2943.373216  	0.011908 
2945.302032  	0.012153 
2947.230848  	0.012441 
2949.159664  	0.012220 
2951.088480  	0.011615 
2953.017296  	0.011138 
2954.946112  	0.010604 
2956.874928  	0.009874 
2958.803744  	0.009020 
2960.732560  	0.008393 
2962.661376  	0.007870 
2964.590192  	0.007018 
2966.519008  	0.005783 
2968.447824  	0.004675 
2970.376640  	0.003795 
2972.305456  	0.003328 
2974.234272  	0.003580 
2976.163088  	0.003918 
2978.091904  	0.003947 
2980.020720  	0.004012 
2981.949536  	0.004226 
2983.878352  	0.004020 
2985.807168  	0.003101 
2987.735984  	0.002121 
2989.664800  	0.002338 
2991.593616  	0.005382 
2993.522432  	0.007520 
2995.451248  	0.008121 
2997.380064  	0.008939 
2999.308880  	0.010268 
3001.237696  	0.011694 
3003.166512  	0.013221 
3005.095328  	0.014733 
3007.024144  	0.016030 
3008.952960  	0.017400 
3010.881776  	0.018923 
3012.810592  	0.020388 
3014.739408  	0.021778 
3016.668224  	0.023039 
3018.597040  	0.024316 
3020.525856  	0.025534 
3022.454672  	0.026698 
3024.383488  	0.027796 
3026.312304  	0.028840 
3028.241120  	0.029817 
3030.169936  	0.030731 
3032.098752  	0.031636 
3034.027568  	0.032619 
3035.956384  	0.033581 
3037.885200  	0.034403 
3039.814016  	0.035149 
3041.742832  	0.035837 
3043.671648  	0.036376 
3045.600464  	0.037001 
3047.529280  	0.037583 
3049.458096  	0.038184 
3051.386912  	0.038890 
3053.315728  	0.039452 
3055.244544  	0.040122 
3057.173360  	0.040876 
3059.102176  	0.041416 
3061.030992  	0.042079 
3062.959808  	0.042926 
3064.888624  	0.043600 
3066.817440  	0.044292 
3068.746256  	0.045083 
3070.675072  	0.045934 
3072.603888  	0.046766 
3074.532704  	0.047763 
3076.461520  	0.048574 
3078.390336  	0.049248 
3080.319152  	0.050020 
3082.247968  	0.050929 
3084.176784  	0.051672 
3086.105600  	0.052374 
3088.034416  	0.053148 
3089.963232  	0.054088 
3091.892048  	0.054841 
3093.820864  	0.055653 
3095.749680  	0.056472 
3097.678496  	0.057401 
3099.607312  	0.058294 
3101.536128  	0.059228 
3103.464944  	0.060319 
3105.393760  	0.061059 
3107.322576  	0.061772 
3109.251392  	0.062610 
3111.180208  	0.063289 
3113.109024  	0.063849 
3115.037840  	0.064595 
3116.966656  	0.065526 
3118.895472  	0.066254 
3120.824288  	0.066844 
3122.753104  	0.067534 
3124.681920  	0.068224 
3126.610736  	0.068801 
3128.539552  	0.069491 
3130.468368  	0.070148 
3132.397184  	0.070746 
3134.326000  	0.071479 
3136.254816  	0.072175 
3138.183632  	0.072962 
3140.112448  	0.073693 
3142.041264  	0.074343 
3143.970080  	0.075005 
3145.898896  	0.075673 
3147.827712  	0.076330 
3149.756528  	0.077010 
3151.685344  	0.077609 
3153.614160  	0.078300 
3155.542976  	0.079019 
3157.471792  	0.079795 
3159.400608  	0.080624 
3161.329424  	0.081274 
3163.258240  	0.081674 
3165.187056  	0.082170 
3167.115872  	0.082809 
3169.044688  	0.083283 
3170.973504  	0.083786 
3172.902320  	0.084232 
3174.831136  	0.084642 
3176.759952  	0.085214 
3178.688768  	0.085781 
3180.617584  	0.086118 
3182.546400  	0.086422 
3184.475216  	0.086808 
3186.404032  	0.087107 
3188.332848  	0.087197 
3190.261664  	0.087378 
3192.190480  	0.087639 
3194.119296  	0.087752 
3196.048112  	0.088073 
3197.976928  	0.088102 
3199.905744  	0.088010 
3201.834560  	0.087925 
3203.763376  	0.087902 
3205.692192  	0.087935 
3207.621008  	0.087811 
3209.549824  	0.087614 
3211.478640  	0.087710 
3213.407456  	0.087782 
3215.336272  	0.087534 
3217.265088  	0.087310 
3219.193904  	0.087304 
3221.122720  	0.087191 
3223.051536  	0.086895 
3224.980352  	0.086775 
3226.909168  	0.086808 
3228.837984  	0.086490 
3230.766800  	0.086333 
3232.695616  	0.086264 
3234.624432  	0.086064 
3236.553248  	0.086064 
3238.482064  	0.086118 
3240.410880  	0.086172 
3242.339696  	0.086234 
3244.268512  	0.085980 
3246.197328  	0.086117 
3248.126144  	0.086609 
3250.054960  	0.086839 
3251.983776  	0.086928 
3253.912592  	0.087058 
3255.841408  	0.087270 
3257.770224  	0.087571 
3259.699040  	0.087973 
3261.627856  	0.088376 
3263.556672  	0.088679 
3265.485488  	0.088756 
3267.414304  	0.088821 
3269.343120  	0.089248 
3271.271936  	0.089725 
3273.200752  	0.089603 
3275.129568  	0.089767 
3277.058384  	0.090363 
3278.987200  	0.090559 
3280.916016  	0.090751 
3282.844832  	0.090918 
3284.773648  	0.091079 
3286.702464  	0.091307 
3288.631280  	0.091528 
3290.560096  	0.091675 
3292.488912  	0.092134 
3294.417728  	0.092534 
3296.346544  	0.092840 
3298.275360  	0.093218 
3300.204176  	0.093618 
3302.132992  	0.093961 
3304.061808  	0.094193 
3305.990624  	0.094708 
3307.919440  	0.095124 
3309.848256  	0.095370 
3311.777072  	0.095702 
3313.705888  	0.096129 
3315.634704  	0.096559 
3317.563520  	0.096974 
3319.492336  	0.097355 
3321.421152  	0.097635 
3323.349968  	0.097848 
3325.278784  	0.097948 
3327.207600  	0.098061 
3329.136416  	0.098181 
3331.065232  	0.098462 
3332.994048  	0.098699 
3334.922864  	0.098693 
3336.851680  	0.098571 
3338.780496  	0.098558 
3340.709312  	0.098432 
3342.638128  	0.098279 
3344.566944  	0.098013 
3346.495760  	0.097673 
3348.424576  	0.097335 
3350.353392  	0.097089 
3352.282208  	0.096914 
3354.211024  	0.096685 
3356.139840  	0.096401 
3358.068656  	0.095950 
3359.997472  	0.095557 
3361.926288  	0.095237 
3363.855104  	0.094831 
3365.783920  	0.094380 
3367.712736  	0.094002 
3369.641552  	0.093593 
3371.570368  	0.093159 
3373.499184  	0.092849 
3375.428000  	0.092603 
3377.356816  	0.092280 
3379.285632  	0.092014 
3381.214448  	0.091537 
3383.143264  	0.091054 
3385.072080  	0.090721 
3387.000896  	0.090361 
3388.929712  	0.089993 
3390.858528  	0.089636 
3392.787344  	0.089255 
3394.716160  	0.088734 
3396.644976  	0.088328 
3398.573792  	0.087911 
3400.502608  	0.087475 
3402.431424  	0.086855 
3404.360240  	0.086166 
3406.289056  	0.085531 
3408.217872  	0.085137 
3410.146688  	0.084639 
3412.075504  	0.084232 
3414.004320  	0.083866 
3415.933136  	0.083354 
3417.861952  	0.082477 
3419.790768  	0.081910 
3421.719584  	0.081446 
3423.648400  	0.080910 
3425.577216  	0.080363 
3427.506032  	0.079862 
3429.434848  	0.079303 
3431.363664  	0.078770 
3433.292480  	0.078200 
3435.221296  	0.077561 
3437.150112  	0.077027 
3439.078928  	0.076615 
3441.007744  	0.075923 
3442.936560  	0.075365 
3444.865376  	0.074984 
3446.794192  	0.074081 
3448.723008  	0.073264 
3450.651824  	0.072481 
3452.580640  	0.071790 
3454.509456  	0.071356 
3456.438272  	0.070790 
3458.367088  	0.070106 
3460.295904  	0.069534 
3462.224720  	0.068736 
3464.153536  	0.067807 
3466.082352  	0.066920 
3468.011168  	0.065800 
3469.939984  	0.064968 
3471.868800  	0.064264 
3473.797616  	0.063411 
3475.726432  	0.062676 
3477.655248  	0.061920 
3479.584064  	0.061459 
3481.512880  	0.060761 
3483.441696  	0.059461 
3485.370512  	0.058542 
3487.299328  	0.057522 
3489.228144  	0.056764 
3491.156960  	0.056064 
3493.085776  	0.055363 
3495.014592  	0.054623 
3496.943408  	0.053962 
3498.872224  	0.053340 
3500.801040  	0.053146 
3502.729856  	0.052371 
3504.658672  	0.051098 
3506.587488  	0.050446 
3508.516304  	0.049997 
3510.445120  	0.049175 
3512.373936  	0.047998 
3514.302752  	0.047230 
3516.231568  	0.046988 
3518.160384  	0.046616 
3520.089200  	0.045902 
3522.018016  	0.045499 
3523.946832  	0.045539 
3525.875648  	0.044782 
3527.804464  	0.043206 
3529.733280  	0.042147 
3531.662096  	0.041479 
3533.590912  	0.040939 
3535.519728  	0.040810 
3537.448544  	0.040264 
3539.377360  	0.038981 
3541.306176  	0.038263 
3543.234992  	0.038073 
3545.163808  	0.038321 
3547.092624  	0.037682 
3549.021440  	0.036081 
3550.950256  	0.035114 
3552.879072  	0.034519 
3554.807888  	0.034005 
3556.736704  	0.033267 
3558.665520  	0.032934 
3560.594336  	0.032653 
3562.523152  	0.031623 
3564.451968  	0.031457 
3566.380784  	0.031896 
3568.309600  	0.030428 
3570.238416  	0.029080 
3572.167232  	0.028262 
3574.096048  	0.027066 
3576.024864  	0.026054 
3577.953680  	0.025639 
3579.882496  	0.025119 
3581.811312  	0.024392 
3583.740128  	0.023610 
3585.668944  	0.023439 
3587.597760  	0.022496 
3589.526576  	0.020973 
3591.455392  	0.020062 
3593.384208  	0.019408 
3595.313024  	0.018553 
3597.241840  	0.017328 
3599.170656  	0.015907 
3601.099472  	0.014962 
3603.028288  	0.014793 
3604.957104  	0.014530 
3606.885920  	0.013725 
3608.814736  	0.012537 
3610.743552  	0.012085 
3612.672368  	0.011044 
3614.601184  	0.009808 
3616.530000  	0.009298 
3618.458816  	0.007277 
3620.387632  	0.005937 
3622.316448  	0.006008 
3624.245264  	0.005606 
3626.174080  	0.004731 
3628.102896  	0.001607 
3630.031712  	-0.000791 
3631.960528  	0.000876 
3633.889344  	0.000506 
3635.818160  	-0.000213 
3637.746976  	-0.000955 
3639.675792  	-0.001201 
3641.604608  	-0.001352 
3643.533424  	-0.001941 
3645.462240  	-0.003179 
3647.391056  	-0.006605 
3649.319872  	-0.011237 
3651.248688  	-0.011694 
3653.177504  	-0.008903 
3655.106320  	-0.009656 
3657.035136  	-0.011992 
3658.963952  	-0.011658 
3660.892768  	-0.011601 
3662.821584  	-0.011836 
3664.750400  	-0.011985 
3666.679216  	-0.012474 
3668.608032  	-0.015008 
3670.536848  	-0.017758 
3672.465664  	-0.015668 
3674.394480  	-0.017779 
3676.323296  	-0.021566 
3678.252112  	-0.017111 
3680.180928  	-0.015064 
3682.109744  	-0.014454 
3684.038560  	-0.014943 
3685.967376  	-0.015517 
3687.896192  	-0.018561 
3689.825008  	-0.020958 
3691.753824  	-0.019101 
3693.682640  	-0.016605 
3695.611456  	-0.015572 
3697.540272  	-0.014759 
3699.469088  	-0.014173 
3701.397904  	-0.015032 
3703.326720  	-0.014777 
3705.255536  	-0.013276 
3707.184352  	-0.013211 
3709.113168  	-0.015179 
3711.041984  	-0.017324 
3712.970800  	-0.015448 
3714.899616  	-0.012218 
3716.828432  	-0.011745 
3718.757248  	-0.012380 
3720.686064  	-0.013062 
3722.614880  	-0.013407 
3724.543696  	-0.012746 
3726.472512  	-0.012947 
3728.401328  	-0.013043 
3730.330144  	-0.014177 
3732.258960  	-0.016235 
3734.187776  	-0.015439 
3736.116592  	-0.015648 
3738.045408  	-0.014734 
3739.974224  	-0.012851 
3741.903040  	-0.012330 
3743.831856  	-0.015080 
3745.760672  	-0.016264 
3747.689488  	-0.014873 
3749.618304  	-0.017721 
3751.547120  	-0.018735 
3753.475936  	-0.015423 
3755.404752  	-0.013016 
3757.333568  	-0.013005 
3759.262384  	-0.013661 
3761.191200  	-0.013100 
3763.120016  	-0.011314 
3765.048832  	-0.011922 
3766.977648  	-0.012081 
3768.906464  	-0.013144 
3770.835280  	-0.013467 
3772.764096  	-0.011682 
3774.692912  	-0.011084 
3776.621728  	-0.011266 
3778.550544  	-0.012767 
3780.479360  	-0.013312 
3782.408176  	-0.011784 
3784.336992  	-0.012100 
3786.265808  	-0.011792 
3788.194624  	-0.011224 
3790.123440  	-0.011403 
3792.052256  	-0.011436 
3793.981072  	-0.011378 
3795.909888  	-0.012920 
3797.838704  	-0.012992 
3799.767520  	-0.013833 
3801.696336  	-0.017528 
3803.625152  	-0.014861 
3805.553968  	-0.013908 
3807.482784  	-0.014913 
3809.411600  	-0.012242 
3811.340416  	-0.011011 
3813.269232  	-0.011175 
3815.198048  	-0.014241 
3817.126864  	-0.015357 
3819.055680  	-0.014259 
3820.984496  	-0.017487 
3822.913312  	-0.015181 
3824.842128  	-0.012562 
3826.770944  	-0.013091 
3828.699760  	-0.012474 
3830.628576  	-0.012956 
3832.557392  	-0.013785 
3834.486208  	-0.013746 
3836.415024  	-0.014838 
3838.343840  	-0.016300 
3840.272656  	-0.015179 
3842.201472  	-0.013476 
3844.130288  	-0.012821 
3846.059104  	-0.011567 
3847.987920  	-0.011083 
3849.916736  	-0.011688 
3851.845552  	-0.014857 
3853.774368  	-0.019461 
3855.703184  	-0.015383 
3857.632000  	-0.012406 
3859.560816  	-0.011475 
3861.489632  	-0.011767 
3863.418448  	-0.012609 
3865.347264  	-0.012853 
3867.276080  	-0.011701 
3869.204896  	-0.013084 
3871.133712  	-0.012862 
3873.062528  	-0.012188 
3874.991344  	-0.012594 
3876.920160  	-0.010974 
3878.848976  	-0.010835 
3880.777792  	-0.011570 
3882.706608  	-0.010543 
3884.635424  	-0.010980 
3886.564240  	-0.012021 
3888.493056  	-0.011209 
3890.421872  	-0.012076 
3892.350688  	-0.012575 
3894.279504  	-0.011094 
3896.208320  	-0.010400 
3898.137136  	-0.010744 
3900.065952  	-0.011068 
3901.994768  	-0.010867 
3903.923584  	-0.011572 
3905.852400  	-0.011522 
3907.781216  	-0.010905 
3909.710032  	-0.010803 
3911.638848  	-0.010781 
3913.567664  	-0.010525 
3915.496480  	-0.010287 
3917.425296  	-0.010328 
3919.354112  	-0.010558 
3921.282928  	-0.010450 
3923.211744  	-0.010034 
3925.140560  	-0.009974 
3927.069376  	-0.010142 
3928.998192  	-0.010250 
3930.927008  	-0.009803 
3932.855824  	-0.009605 
3934.784640  	-0.010097 
3936.713456  	-0.010412 
3938.642272  	-0.010219 
3940.571088  	-0.009917 
3942.499904  	-0.009734 
3944.428720  	-0.009914 
3946.357536  	-0.009688 
3948.286352  	-0.009397 
3950.215168  	-0.009962 
3952.143984  	-0.010729 
3954.072800  	-0.010902 
3956.001616  	-0.010543 
3957.930432  	-0.010536 
3959.859248  	-0.010532 
3961.788064  	-0.010408 
3963.716880  	-0.010599 
3965.645696  	-0.010911 
3967.574512  	-0.010648 
3969.503328  	-0.010360 
3971.432144  	-0.010504 
3973.360960  	-0.010421 
3975.289776  	-0.010223 
3977.218592  	-0.010189 
3979.147408  	-0.010307 
3981.076224  	-0.010390 
3983.005040  	-0.010426 
3984.933856  	-0.010388 
3986.862672  	-0.010423 
3988.791488  	-0.010329 
3990.720304  	-0.010109 
3992.649120  	-0.010241 
3994.577936  	-0.010512 
3996.506752  	-0.010603 
3998.435568  	-0.010662 
4000.364384  	-0.010530 