##TITLE=No Description
##DATA TYPE=INFRARED SPECTRUM
##XUNITS=1/CM
##YUNITS=Abs
399.264912  	0.657876 
401.193728  	0.635525 
403.122544  	0.641959 
405.051360  	0.618251 
406.980176  	0.593773 
408.908992  	0.585724 
410.837808  	0.598788 
412.766624  	0.607262 
414.695440  	0.617982 
416.624256  	0.606300 
418.553072  	0.601581 
420.481888  	0.587095 
422.410704  	0.592974 
424.339520  	0.593480 
426.268336  	0.593284 
428.197152  	0.583563 
430.125968  	0.578244 
432.054784  	0.574942 
433.983600  	0.577227 
435.912416  	0.576649 
437.841232  	0.576304 
439.770048  	0.571314 
441.698864  	0.568199 
443.627680  	0.559904 
445.556496  	0.561059 
447.485312  	0.556845 
449.414128  	0.555691 
451.342944  	0.556999 
453.271760  	0.563483 
455.200576  	0.565921 
457.129392  	0.564255 
459.058208  	0.554483 
460.987024  	0.557720 
462.915840  	0.551676 
464.844656  	0.554212 
466.773472  	0.557426 
468.702288  	0.556018 
470.631104  	0.553998 
472.559920  	0.552443 
474.488736  	0.545508 
476.417552  	0.544813 
478.346368  	0.542113 
480.275184  	0.545506 
482.204000  	0.545707 
484.132816  	0.545410 
486.061632  	0.540324 
487.990448  	0.542611 
489.919264  	0.537613 
491.848080  	0.539583 
493.776896  	0.536506 
495.705712  	0.533445 
497.634528  	0.532632 
499.563344  	0.534144 
501.492160  	0.530572 
503.420976  	0.532577 
505.349792  	0.532039 
507.278608  	0.533230 
509.207424  	0.534548 
511.136240  	0.536491 
513.065056  	0.533467 
514.993872  	0.533400 
516.922688  	0.534109 
518.851504  	0.536974 
520.780320  	0.533388 
522.709136  	0.533419 
524.637952  	0.533051 
526.566768  	0.531648 
528.495584  	0.527583 
530.424400  	0.527344 
532.353216  	0.522660 
534.282032  	0.518150 
536.210848  	0.512137 
538.139664  	0.508248 
540.068480  	0.501552 
541.997296  	0.496864 
543.926112  	0.493536 
545.854928  	0.491003 
547.783744  	0.487596 
549.712560  	0.484692 
551.641376  	0.479220 
553.570192  	0.475410 
555.499008  	0.470957 
557.427824  	0.467823 
559.356640  	0.464003 
561.285456  	0.461756 
563.214272  	0.459176 
565.143088  	0.456235 
567.071904  	0.452094 
569.000720  	0.448282 
570.929536  	0.445095 
572.858352  	0.443159 
574.787168  	0.439865 
576.715984  	0.437229 
578.644800  	0.433648 
580.573616  	0.430801 
582.502432  	0.425513 
584.431248  	0.421361 
586.360064  	0.418207 
588.288880  	0.416852 
590.217696  	0.414738 
592.146512  	0.412514 
594.075328  	0.409106 
596.004144  	0.406755 
597.932960  	0.404755 
599.861776  	0.403292 
601.790592  	0.400397 
603.719408  	0.398911 
605.648224  	0.397915 
607.577040  	0.397160 
609.505856  	0.395518 
611.434672  	0.393664 
613.363488  	0.391354 
615.292304  	0.390191 
617.221120  	0.388093 
619.149936  	0.386746 
621.078752  	0.384983 
623.007568  	0.383754 
624.936384  	0.381605 
626.865200  	0.380130 
628.794016  	0.378832 
630.722832  	0.377899 
632.651648  	0.377142 
634.580464  	0.376590 
636.509280  	0.376439 
638.438096  	0.376351 
640.366912  	0.375073 
642.295728  	0.372740 
644.224544  	0.369565 
646.153360  	0.366644 
648.082176  	0.361965 
650.010992  	0.358003 
651.939808  	0.354241 
653.868624  	0.350641 
655.797440  	0.346464 
657.726256  	0.342763 
659.655072  	0.339122 
661.583888  	0.335339 
663.512704  	0.331452 
665.441520  	0.328530 
667.370336  	0.321022 
669.299152  	0.314846 
671.227968  	0.314711 
673.156784  	0.312820 
675.085600  	0.310254 
677.014416  	0.306957 
678.943232  	0.304176 
680.872048  	0.302895 
682.800864  	0.301318 
684.729680  	0.299407 
686.658496  	0.297442 
688.587312  	0.296296 
690.516128  	0.295005 
692.444944  	0.293788 
694.373760  	0.292584 
696.302576  	0.290146 
698.231392  	0.287825 
700.160208  	0.285594 
702.089024  	0.283292 
704.017840  	0.280711 
705.946656  	0.277927 
707.875472  	0.275768 
709.804288  	0.273949 
711.733104  	0.271852 
713.661920  	0.269415 
715.590736  	0.267810 
717.519552  	0.266940 
719.448368  	0.266578 
721.377184  	0.266339 
723.306000  	0.266518 
725.234816  	0.266547 
727.163632  	0.266055 
729.092448  	0.264276 
731.021264  	0.261202 
732.950080  	0.257692 
734.878896  	0.254653 
736.807712  	0.251704 
738.736528  	0.249324 
740.665344  	0.247385 
742.594160  	0.245178 
744.522976  	0.243288 
746.451792  	0.241624 
748.380608  	0.240060 
750.309424  	0.238859 
752.238240  	0.237571 
754.167056  	0.236189 
756.095872  	0.234737 
758.024688  	0.233663 
759.953504  	0.232809 
761.882320  	0.232912 
763.811136  	0.232945 
765.739952  	0.231994 
767.668768  	0.229578 
769.597584  	0.227148 
771.526400  	0.225889 
773.455216  	0.226708 
775.384032  	0.229368 
777.312848  	0.233206 
779.241664  	0.236656 
781.170480  	0.236897 
783.099296  	0.233489 
785.028112  	0.228264 
786.956928  	0.222690 
788.885744  	0.217971 
790.814560  	0.214262 
792.743376  	0.211408 
794.672192  	0.209642 
796.601008  	0.208494 
798.529824  	0.206059 
800.458640  	0.201734 
802.387456  	0.198077 
804.316272  	0.195868 
806.245088  	0.194409 
808.173904  	0.193190 
810.102720  	0.192209 
812.031536  	0.191831 
813.960352  	0.191544 
815.889168  	0.191128 
817.817984  	0.190923 
819.746800  	0.191027 
821.675616  	0.191112 
823.604432  	0.190278 
825.533248  	0.189096 
827.462064  	0.188246 
829.390880  	0.187248 
831.319696  	0.185819 
833.248512  	0.183888 
835.177328  	0.181546 
837.106144  	0.179017 
839.034960  	0.175969 
840.963776  	0.172371 
842.892592  	0.168891 
844.821408  	0.165531 
846.750224  	0.162418 
848.679040  	0.159720 
850.607856  	0.157428 
852.536672  	0.155284 
854.465488  	0.153560 
856.394304  	0.152009 
858.323120  	0.150534 
860.251936  	0.148526 
862.180752  	0.145975 
864.109568  	0.143190 
866.038384  	0.140669 
867.967200  	0.138634 
869.896016  	0.136621 
871.824832  	0.135322 
873.753648  	0.134568 
875.682464  	0.134807 
877.611280  	0.134856 
879.540096  	0.135012 
881.468912  	0.136531 
883.397728  	0.137795 
885.326544  	0.138659 
887.255360  	0.138613 
889.184176  	0.137354 
891.112992  	0.135359 
893.041808  	0.133825 
894.970624  	0.131604 
896.899440  	0.128403 
898.828256  	0.124762 
900.757072  	0.121244 
902.685888  	0.118288 
904.614704  	0.116392 
906.543520  	0.116276 
908.472336  	0.117365 
910.401152  	0.119541 
912.329968  	0.122060 
914.258784  	0.124795 
916.187600  	0.127374 
918.116416  	0.129612 
920.045232  	0.131077 
921.974048  	0.131738 
923.902864  	0.131844 
925.831680  	0.131507 
927.760496  	0.131361 
929.689312  	0.131577 
931.618128  	0.132082 
933.546944  	0.132588 
935.475760  	0.132888 
937.404576  	0.132798 
939.333392  	0.132420 
941.262208  	0.132335 
943.191024  	0.133413 
945.119840  	0.136513 
947.048656  	0.141605 
948.977472  	0.148055 
950.906288  	0.155877 
952.835104  	0.164698 
954.763920  	0.174131 
956.692736  	0.183281 
958.621552  	0.191172 
960.550368  	0.196757 
962.479184  	0.199672 
964.408000  	0.199248 
966.336816  	0.195165 
968.265632  	0.187934 
970.194448  	0.178181 
972.123264  	0.166702 
974.052080  	0.154408 
975.980896  	0.142275 
977.909712  	0.130841 
979.838528  	0.120615 
981.767344  	0.112108 
983.696160  	0.105379 
985.624976  	0.100868 
987.553792  	0.098913 
989.482608  	0.099556 
991.411424  	0.102215 
993.340240  	0.106229 
995.269056  	0.111298 
997.197872  	0.116951 
999.126688  	0.122834 
1001.055504  	0.128856 
1002.984320  	0.134947 
1004.913136  	0.140757 
1006.841952  	0.146249 
1008.770768  	0.150775 
1010.699584  	0.154115 
1012.628400  	0.156135 
1014.557216  	0.156939 
1016.486032  	0.157153 
1018.414848  	0.157030 
1020.343664  	0.156633 
1022.272480  	0.155834 
1024.201296  	0.154592 
1026.130112  	0.151564 
1028.058928  	0.150317 
1029.987744  	0.152963 
1031.916560  	0.154548 
1033.845376  	0.155180 
1035.774192  	0.155627 
1037.703008  	0.157508 
1039.631824  	0.162838 
1041.560640  	0.170367 
1043.489456  	0.180294 
1045.418272  	0.192704 
1047.347088  	0.207322 
1049.275904  	0.221804 
1051.204720  	0.234078 
1053.133536  	0.242643 
1055.062352  	0.247378 
1056.991168  	0.248830 
1058.919984  	0.251450 
1060.848800  	0.253775 
1062.777616  	0.252258 
1064.706432  	0.246205 
1066.635248  	0.241171 
1068.564064  	0.240169 
1070.492880  	0.235870 
1072.421696  	0.228477 
1074.350512  	0.223210 
1076.279328  	0.221372 
1078.208144  	0.223227 
1080.136960  	0.227539 
1082.065776  	0.232854 
1083.994592  	0.236917 
1085.923408  	0.238768 
1087.852224  	0.237458 
1089.781040  	0.234299 
1091.709856  	0.230139 
1093.638672  	0.223164 
1095.567488  	0.213342 
1097.496304  	0.202079 
1099.425120  	0.189916 
1101.353936  	0.177962 
1103.282752  	0.166195 
1105.211568  	0.154782 
1107.140384  	0.143666 
1109.069200  	0.133148 
1110.998016  	0.123639 
1112.926832  	0.114727 
1114.855648  	0.106689 
1116.784464  	0.099315 
1118.713280  	0.092201 
1120.642096  	0.085460 
1122.570912  	0.079288 
1124.499728  	0.073406 
1126.428544  	0.067948 
1128.357360  	0.063091 
1130.286176  	0.059273 
1132.214992  	0.056044 
1134.143808  	0.053356 
1136.072624  	0.050898 
1138.001440  	0.048832 
1139.930256  	0.046496 
1141.859072  	0.044273 
1143.787888  	0.041801 
1145.716704  	0.039721 
1147.645520  	0.037765 
1149.574336  	0.036058 
1151.503152  	0.034500 
1153.431968  	0.033800 
1155.360784  	0.033862 
1157.289600  	0.034617 
1159.218416  	0.035738 
1161.147232  	0.037422 
1163.076048  	0.039338 
1165.004864  	0.041528 
1166.933680  	0.043493 
1168.862496  	0.045686 
1170.791312  	0.047771 
1172.720128  	0.050347 
1174.648944  	0.052825 
1176.577760  	0.055374 
1178.506576  	0.057642 
1180.435392  	0.060071 
1182.364208  	0.062445 
1184.293024  	0.065444 
1186.221840  	0.068506 
1188.150656  	0.071830 
1190.079472  	0.075763 
1192.008288  	0.080641 
1193.937104  	0.086505 
1195.865920  	0.093290 
1197.794736  	0.100614 
1199.723552  	0.108842 
1201.652368  	0.117296 
1203.581184  	0.125939 
1205.510000  	0.134289 
1207.438816  	0.142418 
1209.367632  	0.150177 
1211.296448  	0.157026 
1213.225264  	0.162830 
1215.154080  	0.167543 
1217.082896  	0.171163 
1219.011712  	0.173657 
1220.940528  	0.175358 
1222.869344  	0.176551 
1224.798160  	0.177056 
1226.726976  	0.176826 
1228.655792  	0.176275 
1230.584608  	0.175026 
1232.513424  	0.173271 
1234.442240  	0.171106 
1236.371056  	0.168111 
1238.299872  	0.163861 
1240.228688  	0.157274 
1242.157504  	0.150643 
1244.086320  	0.145060 
1246.015136  	0.137973 
1247.943952  	0.129957 
1249.872768  	0.122071 
1251.801584  	0.115268 
1253.730400  	0.108504 
1255.659216  	0.101758 
1257.588032  	0.095445 
1259.516848  	0.089411 
1261.445664  	0.083740 
1263.374480  	0.078517 
1265.303296  	0.074238 
1267.232112  	0.070833 
1269.160928  	0.068222 
1271.089744  	0.066155 
1273.018560  	0.064963 
1274.947376  	0.064565 
1276.876192  	0.064683 
1278.805008  	0.064497 
1280.733824  	0.063354 
1282.662640  	0.061360 
1284.591456  	0.059000 
1286.520272  	0.056952 
1288.449088  	0.055577 
1290.377904  	0.054652 
1292.306720  	0.054545 
1294.235536  	0.054364 
1296.164352  	0.053529 
1298.093168  	0.051301 
1300.021984  	0.048387 
1301.950800  	0.045398 
1303.879616  	0.042787 
1305.808432  	0.039868 
1307.737248  	0.037014 
1309.666064  	0.034281 
1311.594880  	0.032499 
1313.523696  	0.031179 
1315.452512  	0.030157 
1317.381328  	0.029559 
1319.310144  	0.029329 
1321.238960  	0.029285 
1323.167776  	0.029781 
1325.096592  	0.030409 
1327.025408  	0.030979 
1328.954224  	0.031010 
1330.883040  	0.030587 
1332.811856  	0.029737 
1334.740672  	0.029434 
1336.669488  	0.029812 
1338.598304  	0.030367 
1340.527120  	0.028740 
1342.455936  	0.026505 
1344.384752  	0.025826 
1346.313568  	0.026072 
1348.242384  	0.026725 
1350.171200  	0.027922 
1352.100016  	0.029438 
1354.028832  	0.031472 
1355.957648  	0.033269 
1357.886464  	0.035278 
1359.815280  	0.037705 
1361.744096  	0.040336 
1363.672912  	0.041180 
1365.601728  	0.041646 
1367.530544  	0.042823 
1369.459360  	0.043201 
1371.388176  	0.043105 
1373.316992  	0.042034 
1375.245808  	0.038477 
1377.174624  	0.035952 
1379.103440  	0.033236 
1381.032256  	0.030203 
1382.961072  	0.027888 
1384.889888  	0.027413 
1386.818704  	0.027087 
1388.747520  	0.025059 
1390.676336  	0.022743 
1392.605152  	0.019903 
1394.533968  	0.018192 
1396.462784  	0.021100 
1398.391600  	0.022219 
1400.320416  	0.020929 
1402.249232  	0.021243 
1404.178048  	0.021973 
1406.106864  	0.022452 
1408.035680  	0.024288 
1409.964496  	0.026887 
1411.893312  	0.029671 
1413.822128  	0.032639 
1415.750944  	0.036813 
1417.679760  	0.039597 
1419.608576  	0.038256 
1421.537392  	0.038449 
1423.466208  	0.039015 
1425.395024  	0.037343 
1427.323840  	0.036240 
1429.252656  	0.033830 
1431.181472  	0.032117 
1433.110288  	0.032382 
1435.039104  	0.033281 
1436.967920  	0.031805 
1438.896736  	0.032020 
1440.825552  	0.033256 
1442.754368  	0.033879 
1444.683184  	0.034113 
1446.612000  	0.034081 
1448.540816  	0.032698 
1450.469632  	0.033164 
1452.398448  	0.034242 
1454.327264  	0.035783 
1456.256080  	0.035005 
1458.184896  	0.031109 
1460.113712  	0.032886 
1462.042528  	0.034979 
1463.971344  	0.034587 
1465.900160  	0.034769 
1467.828976  	0.038017 
1469.757792  	0.041750 
1471.686608  	0.044523 
1473.615424  	0.049256 
1475.544240  	0.055904 
1477.473056  	0.061190 
1479.401872  	0.064893 
1481.330688  	0.067765 
1483.259504  	0.069672 
1485.188320  	0.071257 
1487.117136  	0.071034 
1489.045952  	0.070174 
1490.974768  	0.066405 
1492.903584  	0.064517 
1494.832400  	0.061912 
1496.761216  	0.055045 
1498.690032  	0.049244 
1500.618848  	0.046306 
1502.547664  	0.043504 
1504.476480  	0.039665 
1506.405296  	0.032768 
1508.334112  	0.031320 
1510.262928  	0.032119 
1512.191744  	0.030194 
1514.120560  	0.029541 
1516.049376  	0.028878 
1517.978192  	0.027089 
1519.907008  	0.028317 
1521.835824  	0.027374 
1523.764640  	0.031867 
1525.693456  	0.036567 
1527.622272  	0.038707 
1529.551088  	0.039852 
1531.479904  	0.040286 
1533.408720  	0.035839 
1535.337536  	0.033230 
1537.266352  	0.032240 
1539.195168  	0.023450 
1541.123984  	0.015625 
1543.052800  	0.019980 
1544.981616  	0.021264 
1546.910432  	0.020885 
1548.839248  	0.021721 
1550.768064  	0.021545 
1552.696880  	0.021201 
1554.625696  	0.021227 
1556.554512  	0.021083 
1558.483328  	0.016628 
1560.412144  	0.019924 
1562.340960  	0.028734 
1564.269776  	0.032772 
1566.198592  	0.037835 
1568.127408  	0.041735 
1570.056224  	0.045444 
1571.985040  	0.052911 
1573.913856  	0.057887 
1575.842672  	0.057482 
1577.771488  	0.060198 
1579.700304  	0.063272 
1581.629120  	0.063304 
1583.557936  	0.062705 
1585.486752  	0.063391 
1587.415568  	0.065571 
1589.344384  	0.069620 
1591.273200  	0.075061 
1593.202016  	0.081725 
1595.130832  	0.088755 
1597.059648  	0.096231 
1598.988464  	0.102651 
1600.917280  	0.108238 
1602.846096  	0.111738 
1604.774912  	0.114074 
1606.703728  	0.114374 
1608.632544  	0.113332 
1610.561360  	0.111549 
1612.490176  	0.110537 
1614.418992  	0.108626 
1616.347808  	0.104606 
1618.276624  	0.105550 
1620.205440  	0.111234 
1622.134256  	0.113887 
1624.063072  	0.118321 
1625.991888  	0.125654 
1627.920704  	0.133360 
1629.849520  	0.143070 
1631.778336  	0.153079 
1633.707152  	0.159457 
1635.635968  	0.164631 
1637.564784  	0.175201 
1639.493600  	0.185066 
1641.422416  	0.191316 
1643.351232  	0.196167 
1645.280048  	0.196682 
1647.208864  	0.194953 
1649.137680  	0.197910 
1651.066496  	0.199941 
1652.995312  	0.190254 
1654.924128  	0.189779 
1656.852944  	0.193102 
1658.781760  	0.192112 
1660.710576  	0.188706 
1662.639392  	0.182785 
1664.568208  	0.179229 
1666.497024  	0.178188 
1668.425840  	0.172560 
1670.354656  	0.164716 
1672.283472  	0.162595 
1674.212288  	0.160144 
1676.141104  	0.155156 
1678.069920  	0.155813 
1679.998736  	0.155728 
1681.927552  	0.154436 
1683.856368  	0.147365 
1685.785184  	0.146105 
1687.714000  	0.150278 
1689.642816  	0.149832 
1691.571632  	0.148045 
1693.500448  	0.147523 
1695.429264  	0.142277 
1697.358080  	0.138568 
1699.286896  	0.136660 
1701.215712  	0.129915 
1703.144528  	0.130638 
1705.073344  	0.126183 
1707.002160  	0.119916 
1708.930976  	0.116597 
1710.859792  	0.111243 
1712.788608  	0.104905 
1714.717424  	0.096651 
1716.646240  	0.085141 
1718.575056  	0.071197 
1720.503872  	0.065306 
1722.432688  	0.059867 
1724.361504  	0.050937 
1726.290320  	0.043572 
1728.219136  	0.037697 
1730.147952  	0.032399 
1732.076768  	0.027583 
1734.005584  	0.019121 
1735.934400  	0.014262 
1737.863216  	0.015074 
1739.792032  	0.010691 
1741.720848  	0.009692 
1743.649664  	0.009661 
1745.578480  	0.008783 
1747.507296  	0.006886 
1749.436112  	0.005864 
1751.364928  	0.004586 
1753.293744  	0.004007 
1755.222560  	0.004038 
1757.151376  	0.003262 
1759.080192  	0.002790 
1761.009008  	0.001921 
1762.937824  	0.000049 
1764.866640  	0.000945 
1766.795456  	0.001733 
1768.724272  	0.001237 
1770.653088  	-0.001143 
1772.581904  	-0.004581 
1774.510720  	-0.002964 
1776.439536  	-0.000905 
1778.368352  	-0.000432 
1780.297168  	-0.000807 
1782.225984  	-0.001362 
1784.154800  	-0.000800 
1786.083616  	-0.001488 
1788.012432  	-0.001111 
1789.941248  	-0.000586 
1791.870064  	-0.002370 
1793.798880  	-0.003929 
1795.727696  	-0.002005 
1797.656512  	-0.002198 
1799.585328  	-0.002468 
1801.514144  	-0.002132 
1803.442960  	-0.002275 
1805.371776  	-0.002932 
1807.300592  	-0.002389 
1809.229408  	-0.002917 
1811.158224  	-0.003469 
1813.087040  	-0.003615 
1815.015856  	-0.003104 
1816.944672  	-0.002981 
1818.873488  	-0.003178 
1820.802304  	-0.003392 
1822.731120  	-0.002506 
1824.659936  	-0.003204 
1826.588752  	-0.003717 
1828.517568  	-0.004158 
1830.446384  	-0.005065 
1832.375200  	-0.004170 
1834.304016  	-0.003312 
1836.232832  	-0.003515 
1838.161648  	-0.003479 
1840.090464  	-0.003558 
1842.019280  	-0.002467 
1843.948096  	-0.003970 
1845.876912  	-0.004145 
1847.805728  	-0.003290 
1849.734544  	-0.003559 
1851.663360  	-0.004094 
1853.592176  	-0.004092 
1855.520992  	-0.004007 
1857.449808  	-0.003598 
1859.378624  	-0.003817 
1861.307440  	-0.003904 
1863.236256  	-0.004202 
1865.165072  	-0.003814 
1867.093888  	-0.004204 
1869.022704  	-0.004891 
1870.951520  	-0.004704 
1872.880336  	-0.003991 
1874.809152  	-0.004350 
1876.737968  	-0.004339 
1878.666784  	-0.004589 
1880.595600  	-0.004220 
1882.524416  	-0.004483 
1884.453232  	-0.004152 
1886.382048  	-0.004222 
1888.310864  	-0.004087 
1890.239680  	-0.004760 
1892.168496  	-0.004162 
1894.097312  	-0.004197 
1896.026128  	-0.004147 
1897.954944  	-0.004304 
1899.883760  	-0.004313 
1901.812576  	-0.004564 
1903.741392  	-0.004706 
1905.670208  	-0.005001 
1907.599024  	-0.004182 
1909.527840  	-0.004103 
1911.456656  	-0.004098 
1913.385472  	-0.004508 
1915.314288  	-0.003942 
1917.243104  	-0.004436 
1919.171920  	-0.004707 
1921.100736  	-0.004159 
1923.029552  	-0.003832 
1924.958368  	-0.004647 
1926.887184  	-0.004388 
1928.816000  	-0.004544 
1930.744816  	-0.004348 
1932.673632  	-0.004960 
1934.602448  	-0.004746 
1936.531264  	-0.004442 
1938.460080  	-0.003958 
1940.388896  	-0.004188 
1942.317712  	-0.003894 
1944.246528  	-0.004195 
1946.175344  	-0.003891 
1948.104160  	-0.004706 
1950.032976  	-0.004483 
1951.961792  	-0.004453 
1953.890608  	-0.003951 
1955.819424  	-0.004609 
1957.748240  	-0.004191 
1959.677056  	-0.004603 
1961.605872  	-0.003780 
1963.534688  	-0.003997 
1965.463504  	-0.003380 
1967.392320  	-0.004540 
1969.321136  	-0.004502 
1971.249952  	-0.004786 
1973.178768  	-0.003799 
1975.107584  	-0.003840 
1977.036400  	-0.003439 
1978.965216  	-0.003542 
1980.894032  	-0.003135 
1982.822848  	-0.003744 
1984.751664  	-0.003624 
1986.680480  	-0.004669 
1988.609296  	-0.004346 
1990.538112  	-0.004469 
1992.466928  	-0.004099 
1994.395744  	-0.004870 
1996.324560  	-0.004280 
1998.253376  	-0.004749 
2000.182192  	-0.004973 
2002.111008  	-0.004693 
2004.039824  	-0.003852 
2005.968640  	-0.004206 
2007.897456  	-0.003584 
2009.826272  	-0.004826 
2011.755088  	-0.004481 
2013.683904  	-0.005121 
2015.612720  	-0.004157 
2017.541536  	-0.003962 
2019.470352  	-0.003372 
2021.399168  	-0.005196 
2023.327984  	-0.005498 
2025.256800  	-0.005157 
2027.185616  	-0.003819 
2029.114432  	-0.003215 
2031.043248  	-0.002549 
2032.972064  	-0.003235 
2034.900880  	-0.003378 
2036.829696  	-0.003754 
2038.758512  	-0.002968 
2040.687328  	-0.003892 
2042.616144  	-0.003420 
2044.544960  	-0.003426 
2046.473776  	-0.003327 
2048.402592  	-0.003389 
2050.331408  	-0.002898 
2052.260224  	-0.004164 
2054.189040  	-0.004498 
2056.117856  	-0.004939 
2058.046672  	-0.004976 
2059.975488  	-0.005132 
2061.904304  	-0.004857 
2063.833120  	-0.004513 
2065.761936  	-0.004361 
2067.690752  	-0.005415 
2069.619568  	-0.005017 
2071.548384  	-0.004567 
2073.477200  	-0.004566 
2075.406016  	-0.004442 
2077.334832  	-0.004329 
2079.263648  	-0.004503 
2081.192464  	-0.003920 
2083.121280  	-0.003775 
2085.050096  	-0.004231 
2086.978912  	-0.004866 
2088.907728  	-0.004608 
2090.836544  	-0.004850 
2092.765360  	-0.004789 
2094.694176  	-0.004437 
2096.622992  	-0.004028 
2098.551808  	-0.004071 
2100.480624  	-0.003465 
2102.409440  	-0.003593 
2104.338256  	-0.004111 
2106.267072  	-0.004294 
2108.195888  	-0.003897 
2110.124704  	-0.003896 
2112.053520  	-0.003760 
2113.982336  	-0.004206 
2115.911152  	-0.004052 
2117.839968  	-0.003786 
2119.768784  	-0.003861 
2121.697600  	-0.004494 
2123.626416  	-0.004510 
2125.555232  	-0.004782 
2127.484048  	-0.004654 
2129.412864  	-0.004944 
2131.341680  	-0.004866 
2133.270496  	-0.004906 
2135.199312  	-0.004292 
2137.128128  	-0.003975 
2139.056944  	-0.003331 
2140.985760  	-0.003498 
2142.914576  	-0.003555 
2144.843392  	-0.003594 
2146.772208  	-0.003595 
2148.701024  	-0.004305 
2150.629840  	-0.003639 
2152.558656  	-0.003380 
2154.487472  	-0.002998 
2156.416288  	-0.003971 
2158.345104  	-0.003205 
2160.273920  	-0.001163 
2162.202736  	-0.000193 
2164.131552  	-0.002070 
2166.060368  	-0.001894 
2167.989184  	-0.000712 
2169.918000  	0.000337 
2171.846816  	-0.000907 
2173.775632  	-0.000900 
2175.704448  	-0.000964 
2177.633264  	-0.001645 
2179.562080  	-0.002323 
2181.490896  	-0.002066 
2183.419712  	-0.003337 
2185.348528  	-0.003070 
2187.277344  	-0.002689 
2189.206160  	-0.002903 
2191.134976  	-0.003649 
2193.063792  	-0.002978 
2194.992608  	-0.002830 
2196.921424  	-0.002720 
2198.850240  	-0.002444 
2200.779056  	-0.002777 
2202.707872  	-0.003623 
2204.636688  	-0.003860 
2206.565504  	-0.004170 
2208.494320  	-0.004245 
2210.423136  	-0.004927 
2212.351952  	-0.004637 
2214.280768  	-0.004672 
2216.209584  	-0.004543 
2218.138400  	-0.004683 
2220.067216  	-0.004411 
2221.996032  	-0.004216 
2223.924848  	-0.003885 
2225.853664  	-0.003692 
2227.782480  	-0.003684 
2229.711296  	-0.004321 
2231.640112  	-0.005133 
2233.568928  	-0.005281 
2235.497744  	-0.004501 
2237.426560  	-0.004742 
2239.355376  	-0.004833 
2241.284192  	-0.004920 
2243.213008  	-0.004920 
2245.141824  	-0.005345 
2247.070640  	-0.005356 
2248.999456  	-0.005472 
2250.928272  	-0.005620 
2252.857088  	-0.005641 
2254.785904  	-0.005189 
2256.714720  	-0.005607 
2258.643536  	-0.006302 
2260.572352  	-0.006610 
2262.501168  	-0.006247 
2264.429984  	-0.006138 
2266.358800  	-0.005994 
2268.287616  	-0.006125 
2270.216432  	-0.006061 
2272.145248  	-0.006185 
2274.074064  	-0.005924 
2276.002880  	-0.005557 
2277.931696  	-0.005437 
2279.860512  	-0.005476 
2281.789328  	-0.005090 
2283.718144  	-0.004979 
2285.646960  	-0.004833 
2287.575776  	-0.004715 
2289.504592  	-0.004968 
2291.433408  	-0.005543 
2293.362224  	-0.005325 
2295.291040  	-0.004919 
2297.219856  	-0.004544 
2299.148672  	-0.004504 
2301.077488  	-0.004398 
2303.006304  	-0.004566 
2304.935120  	-0.004537 
2306.863936  	-0.004409 
2308.792752  	-0.004703 
2310.721568  	-0.005320 
2312.650384  	-0.005952 
2314.579200  	-0.007021 
2316.508016  	-0.008072 
2318.436832  	-0.009398 
2320.365648  	-0.011185 
2322.294464  	-0.013090 
2324.223280  	-0.014849 
2326.152096  	-0.017131 
2328.080912  	-0.019138 
2330.009728  	-0.021599 
2331.938544  	-0.023910 
2333.867360  	-0.025498 
2335.796176  	-0.026819 
2337.724992  	-0.027857 
2339.653808  	-0.028199 
2341.582624  	-0.028800 
2343.511440  	-0.027502 
2345.440256  	-0.024310 
2347.369072  	-0.018125 
2349.297888  	-0.014305 
2351.226704  	-0.017634 
2353.155520  	-0.024505 
2355.084336  	-0.029709 
2357.013152  	-0.033969 
2358.941968  	-0.036706 
2360.870784  	-0.038290 
2362.799600  	-0.037290 
2364.728416  	-0.035325 
2366.657232  	-0.031880 
2368.586048  	-0.027161 
2370.514864  	-0.022854 
2372.443680  	-0.018899 
2374.372496  	-0.014741 
2376.301312  	-0.010884 
2378.230128  	-0.007842 
2380.158944  	-0.006096 
2382.087760  	-0.005312 
2384.016576  	-0.005278 
2385.945392  	-0.005499 
2387.874208  	-0.005688 
2389.803024  	-0.005904 
2391.731840  	-0.006120 
2393.660656  	-0.006138 
2395.589472  	-0.006255 
2397.518288  	-0.006191 
2399.447104  	-0.006247 
2401.375920  	-0.006342 
2403.304736  	-0.006586 
2405.233552  	-0.006539 
2407.162368  	-0.006657 
2409.091184  	-0.006647 
2411.020000  	-0.006504 
2412.948816  	-0.006501 
2414.877632  	-0.006525 
2416.806448  	-0.006427 
2418.735264  	-0.006514 
2420.664080  	-0.006507 
2422.592896  	-0.006581 
2424.521712  	-0.006439 
2426.450528  	-0.006551 
2428.379344  	-0.006330 
2430.308160  	-0.006052 
2432.236976  	-0.005947 
2434.165792  	-0.006123 
2436.094608  	-0.006217 
2438.023424  	-0.005937 
2439.952240  	-0.005511 
2441.881056  	-0.005622 
2443.809872  	-0.005808 
2445.738688  	-0.005649 
2447.667504  	-0.005368 
2449.596320  	-0.005485 
2451.525136  	-0.005460 
2453.453952  	-0.005490 
2455.382768  	-0.005637 
2457.311584  	-0.005731 
2459.240400  	-0.005794 
2461.169216  	-0.005850 
2463.098032  	-0.005914 
2465.026848  	-0.005861 
2466.955664  	-0.005715 
2468.884480  	-0.005763 
2470.813296  	-0.005982 
2472.742112  	-0.006133 
2474.670928  	-0.005924 
2476.599744  	-0.005774 
2478.528560  	-0.005688 
2480.457376  	-0.005879 
2482.386192  	-0.005992 
2484.315008  	-0.005739 
2486.243824  	-0.005607 
2488.172640  	-0.005603 
2490.101456  	-0.005351 
2492.030272  	-0.005212 
2493.959088  	-0.005332 
2495.887904  	-0.005382 
2497.816720  	-0.005281 
2499.745536  	-0.005082 
2501.674352  	-0.004911 
2503.603168  	-0.004622 
2505.531984  	-0.004652 
2507.460800  	-0.005061 
2509.389616  	-0.005101 
2511.318432  	-0.005058 
2513.247248  	-0.004890 
2515.176064  	-0.004909 
2517.104880  	-0.004989 
2519.033696  	-0.004999 
2520.962512  	-0.004820 
2522.891328  	-0.004647 
2524.820144  	-0.004606 
2526.748960  	-0.004679 
2528.677776  	-0.004595 
2530.606592  	-0.004740 
2532.535408  	-0.004873 
2534.464224  	-0.004905 
2536.393040  	-0.004811 
2538.321856  	-0.004619 
2540.250672  	-0.004338 
2542.179488  	-0.004210 
2544.108304  	-0.004270 
2546.037120  	-0.004221 
2547.965936  	-0.004162 
2549.894752  	-0.004020 
2551.823568  	-0.003874 
2553.752384  	-0.003799 
2555.681200  	-0.003537 
2557.610016  	-0.003634 
2559.538832  	-0.003658 
2561.467648  	-0.003534 
2563.396464  	-0.003409 
2565.325280  	-0.003287 
2567.254096  	-0.003294 
2569.182912  	-0.003457 
2571.111728  	-0.003381 
2573.040544  	-0.003236 
2574.969360  	-0.003122 
2576.898176  	-0.002956 
2578.826992  	-0.002974 
2580.755808  	-0.003123 
2582.684624  	-0.003056 
2584.613440  	-0.002946 
2586.542256  	-0.002805 
2588.471072  	-0.002673 
2590.399888  	-0.002641 
2592.328704  	-0.002668 
2594.257520  	-0.002725 
2596.186336  	-0.002795 
2598.115152  	-0.002605 
2600.043968  	-0.002482 
2601.972784  	-0.002286 
2603.901600  	-0.002200 
2605.830416  	-0.002166 
2607.759232  	-0.002109 
2609.688048  	-0.001884 
2611.616864  	-0.001595 
2613.545680  	-0.001417 
2615.474496  	-0.001323 
2617.403312  	-0.001254 
2619.332128  	-0.001244 
2621.260944  	-0.001155 
2623.189760  	-0.001018 
2625.118576  	-0.000920 
2627.047392  	-0.000948 
2628.976208  	-0.000768 
2630.905024  	-0.000655 
2632.833840  	-0.000654 
2634.762656  	-0.000552 
2636.691472  	-0.000533 
2638.620288  	-0.000431 
2640.549104  	-0.000218 
2642.477920  	-0.000127 
2644.406736  	-0.000068 
2646.335552  	-0.000022 
2648.264368  	0.000013 
2650.193184  	0.000104 
2652.122000  	0.000383 
2654.050816  	0.000568 
2655.979632  	0.000605 
2657.908448  	0.000631 
2659.837264  	0.000778 
2661.766080  	0.000929 
2663.694896  	0.001098 
2665.623712  	0.001165 
2667.552528  	0.001371 
2669.481344  	0.001569 
2671.410160  	0.001606 
2673.338976  	0.001712 
2675.267792  	0.001922 
2677.196608  	0.002102 
2679.125424  	0.002230 
2681.054240  	0.002392 
2682.983056  	0.002542 
2684.911872  	0.002543 
2686.840688  	0.002628 
2688.769504  	0.002711 
2690.698320  	0.002729 
2692.627136  	0.002802 
2694.555952  	0.002827 
2696.484768  	0.002896 
2698.413584  	0.003003 
2700.342400  	0.003039 
2702.271216  	0.003274 
2704.200032  	0.003561 
2706.128848  	0.003607 
2708.057664  	0.003539 
2709.986480  	0.003614 
2711.915296  	0.003796 
2713.844112  	0.003983 
2715.772928  	0.004031 
2717.701744  	0.004177 
2719.630560  	0.004398 
2721.559376  	0.004465 
2723.488192  	0.004608 
2725.417008  	0.004875 
2727.345824  	0.005086 
2729.274640  	0.005198 
2731.203456  	0.005259 
2733.132272  	0.005408 
2735.061088  	0.005560 
2736.989904  	0.005764 
2738.918720  	0.005916 
2740.847536  	0.005948 
2742.776352  	0.005866 
2744.705168  	0.005910 
2746.633984  	0.006103 
2748.562800  	0.006217 
2750.491616  	0.006281 
2752.420432  	0.006408 
2754.349248  	0.006310 
2756.278064  	0.006227 
2758.206880  	0.006093 
2760.135696  	0.006134 
2762.064512  	0.006211 
2763.993328  	0.006159 
2765.922144  	0.006178 
2767.850960  	0.006261 
2769.779776  	0.006327 
2771.708592  	0.006345 
2773.637408  	0.006286 
2775.566224  	0.006175 
2777.495040  	0.006119 
2779.423856  	0.006307 
2781.352672  	0.006430 
2783.281488  	0.006360 
2785.210304  	0.006370 
2787.139120  	0.006518 
2789.067936  	0.006593 
2790.996752  	0.006561 
2792.925568  	0.006520 
2794.854384  	0.006566 
2796.783200  	0.006554 
2798.712016  	0.006533 
2800.640832  	0.006509 
2802.569648  	0.006591 
2804.498464  	0.006650 
2806.427280  	0.006644 
2808.356096  	0.006628 
2810.284912  	0.006632 
2812.213728  	0.006614 
2814.142544  	0.006580 
2816.071360  	0.006529 
2818.000176  	0.006364 
2819.928992  	0.006257 
2821.857808  	0.006261 
2823.786624  	0.006149 
2825.715440  	0.006038 
2827.644256  	0.005916 
2829.573072  	0.005784 
2831.501888  	0.005437 
2833.430704  	0.005012 
2835.359520  	0.004758 
2837.288336  	0.004568 
2839.217152  	0.004199 
2841.145968  	0.003813 
2843.074784  	0.003472 
2845.003600  	0.003066 
2846.932416  	0.002650 
2848.861232  	0.002300 
2850.790048  	0.001956 
2852.718864  	0.001511 
2854.647680  	0.000977 
2856.576496  	0.000357 
2858.505312  	-0.000217 
2860.434128  	-0.000824 
2862.362944  	-0.001607 
2864.291760  	-0.002408 
2866.220576  	-0.003020 
2868.149392  	-0.003390 
2870.078208  	-0.003626 
2872.007024  	-0.003670 
2873.935840  	-0.003573 
2875.864656  	-0.003608 
2877.793472  	-0.003768 
2879.722288  	-0.003970 
2881.651104  	-0.004385 
2883.579920  	-0.004693 
2885.508736  	-0.004603 
2887.437552  	-0.004258 
2889.366368  	-0.004079 
2891.295184  	-0.004297 
2893.224000  	-0.004473 
2895.152816  	-0.004403 
2897.081632  	-0.004732 
2899.010448  	-0.006493 
2900.939264  	-0.008022 
2902.868080  	-0.006777 
2904.796896  	-0.005435 
2906.725712  	-0.004714 
2908.654528  	-0.004120 
2910.583344  	-0.003815 
2912.512160  	-0.003222 
2914.440976  	-0.002031 
2916.369792  	-0.001167 
2918.298608  	-0.000683 
2920.227424  	-0.000242 
2922.156240  	0.000538 
2924.085056  	0.001536 
2926.013872  	0.002465 
2927.942688  	0.003464 
2929.871504  	0.004377 
2931.800320  	0.005230 
2933.729136  	0.006074 
2935.657952  	0.006756 
2937.586768  	0.007418 
2939.515584  	0.007952 
2941.444400  	0.008108 
2943.373216  	0.008192 
2945.302032  	0.008471 
2947.230848  	0.008633 
2949.159664  	0.008414 
2951.088480  	0.007965 
2953.017296  	0.007378 
2954.946112  	0.006679 
2956.874928  	0.005965 
2958.803744  	0.005144 
2960.732560  	0.004580 
2962.661376  	0.004134 
2964.590192  	0.003255 
2966.519008  	0.001933 
2968.447824  	0.000862 
2970.376640  	0.000002 
2972.305456  	-0.000520 
2974.234272  	-0.000228 
2976.163088  	0.000145 
2978.091904  	0.000113 
2980.020720  	0.000029 
2981.949536  	0.000259 
2983.878352  	0.000096 
2985.807168  	-0.000889 
2987.735984  	-0.001845 
2989.664800  	-0.001436 
2991.593616  	0.001722 
2993.522432  	0.003820 
2995.451248  	0.004240 
2997.380064  	0.004925 
2999.308880  	0.006219 
3001.237696  	0.007685 
3003.166512  	0.009184 
3005.095328  	0.010597 
3007.024144  	0.011983 
3008.952960  	0.013454 
3010.881776  	0.015013 
3012.810592  	0.016503 
3014.739408  	0.017777 
3016.668224  	0.018869 
3018.597040  	0.020088 
3020.525856  	0.021276 
3022.454672  	0.022372 
3024.383488  	0.023663 
3026.312304  	0.024787 
3028.241120  	0.025723 
3030.169936  	0.026619 
3032.098752  	0.027349 
3034.027568  	0.028208 
3035.956384  	0.029151 
3037.885200  	0.030016 
3039.814016  	0.030607 
3041.742832  	0.031182 
3043.671648  	0.031831 
3045.600464  	0.032503 
3047.529280  	0.033045 
3049.458096  	0.033600 
3051.386912  	0.034226 
3053.315728  	0.034737 
3055.244544  	0.035386 
3057.173360  	0.036134 
3059.102176  	0.036603 
3061.030992  	0.037267 
3062.959808  	0.038010 
3064.888624  	0.038594 
3066.817440  	0.039250 
3068.746256  	0.040207 
3070.675072  	0.041157 
3072.603888  	0.041731 
3074.532704  	0.042372 
3076.461520  	0.043184 
3078.390336  	0.044057 
3080.319152  	0.044680 
3082.247968  	0.045446 
3084.176784  	0.046294 
3086.105600  	0.047162 
3088.034416  	0.047940 
3089.963232  	0.048615 
3091.892048  	0.049324 
3093.820864  	0.050099 
3095.749680  	0.050837 
3097.678496  	0.051613 
3099.607312  	0.052506 
3101.536128  	0.053523 
3103.464944  	0.054456 
3105.393760  	0.055181 
3107.322576  	0.055795 
3109.251392  	0.056508 
3111.180208  	0.057191 
3113.109024  	0.057947 
3115.037840  	0.058727 
3116.966656  	0.059564 
3118.895472  	0.060260 
3120.824288  	0.060917 
3122.753104  	0.061549 
3124.681920  	0.062139 
3126.610736  	0.062707 
3128.539552  	0.063479 
3130.468368  	0.064212 
3132.397184  	0.064748 
3134.326000  	0.065527 
3136.254816  	0.066240 
3138.183632  	0.066785 
3140.112448  	0.067211 
3142.041264  	0.067748 
3143.970080  	0.068417 
3145.898896  	0.069097 
3147.827712  	0.069781 
3149.756528  	0.070466 
3151.685344  	0.071094 
3153.614160  	0.071908 
3155.542976  	0.072564 
3157.471792  	0.073146 
3159.400608  	0.073881 
3161.329424  	0.074532 
3163.258240  	0.074926 
3165.187056  	0.075463 
3167.115872  	0.076200 
3169.044688  	0.076706 
3170.973504  	0.077086 
3172.902320  	0.077580 
3174.831136  	0.078152 
3176.759952  	0.078619 
3178.688768  	0.079039 
3180.617584  	0.079483 
3182.546400  	0.079868 
3184.475216  	0.079991 
3186.404032  	0.080085 
3188.332848  	0.080457 
3190.261664  	0.080815 
3192.190480  	0.081189 
3194.119296  	0.081178 
3196.048112  	0.081316 
3197.976928  	0.081428 
3199.905744  	0.081451 
3201.834560  	0.081378 
3203.763376  	0.081396 
3205.692192  	0.081534 
3207.621008  	0.081268 
3209.549824  	0.081194 
3211.478640  	0.081320 
3213.407456  	0.081245 
3215.336272  	0.081048 
3217.265088  	0.081018 
3219.193904  	0.080893 
3221.122720  	0.080865 
3223.051536  	0.080727 
3224.980352  	0.080325 
3226.909168  	0.080006 
3228.837984  	0.079816 
3230.766800  	0.079785 
3232.695616  	0.079732 
3234.624432  	0.079525 
3236.553248  	0.079450 
3238.482064  	0.079554 
3240.410880  	0.079532 
3242.339696  	0.079683 
3244.268512  	0.079606 
3246.197328  	0.079689 
3248.126144  	0.079973 
3250.054960  	0.080050 
3251.983776  	0.080191 
3253.912592  	0.080447 
3255.841408  	0.080890 
3257.770224  	0.081289 
3259.699040  	0.081395 
3261.627856  	0.081584 
3263.556672  	0.081833 
3265.485488  	0.082023 
3267.414304  	0.082368 
3269.343120  	0.082842 
3271.271936  	0.083248 
3273.200752  	0.083103 
3275.129568  	0.083079 
3277.058384  	0.083525 
3278.987200  	0.083726 
3280.916016  	0.083891 
3282.844832  	0.084166 
3284.773648  	0.084435 
3286.702464  	0.084649 
3288.631280  	0.084981 
3290.560096  	0.085296 
3292.488912  	0.085628 
3294.417728  	0.085980 
3296.346544  	0.086485 
3298.275360  	0.086769 
3300.204176  	0.086976 
3302.132992  	0.087368 
3304.061808  	0.087798 
3305.990624  	0.088259 
3307.919440  	0.088551 
3309.848256  	0.088881 
3311.777072  	0.089181 
3313.705888  	0.089656 
3315.634704  	0.090284 
3317.563520  	0.090584 
3319.492336  	0.090852 
3321.421152  	0.091060 
3323.349968  	0.091494 
3325.278784  	0.091885 
3327.207600  	0.091998 
3329.136416  	0.091800 
3331.065232  	0.091937 
3332.994048  	0.092369 
3334.922864  	0.092666 
3336.851680  	0.092638 
3338.780496  	0.092384 
3340.709312  	0.092281 
3342.638128  	0.092277 
3344.566944  	0.092020 
3346.495760  	0.091738 
3348.424576  	0.091336 
3350.353392  	0.091001 
3352.282208  	0.090948 
3354.211024  	0.090833 
3356.139840  	0.090531 
3358.068656  	0.090054 
3359.997472  	0.089661 
3361.926288  	0.089322 
3363.855104  	0.089048 
3365.783920  	0.088607 
3367.712736  	0.088164 
3369.641552  	0.087850 
3371.570368  	0.087445 
3373.499184  	0.087112 
3375.428000  	0.086591 
3377.356816  	0.086154 
3379.285632  	0.086134 
3381.214448  	0.085900 
3383.143264  	0.085352 
3385.072080  	0.084821 
3387.000896  	0.084380 
3388.929712  	0.084028 
3390.858528  	0.083637 
3392.787344  	0.083236 
3394.716160  	0.082897 
3396.644976  	0.082607 
3398.573792  	0.082148 
3400.502608  	0.081563 
3402.431424  	0.080959 
3404.360240  	0.080371 
3406.289056  	0.079664 
3408.217872  	0.079264 
3410.146688  	0.078931 
3412.075504  	0.078460 
3414.004320  	0.077887 
3415.933136  	0.077444 
3417.861952  	0.076908 
3419.790768  	0.076394 
3421.719584  	0.075935 
3423.648400  	0.075581 
3425.577216  	0.075086 
3427.506032  	0.074370 
3429.434848  	0.073713 
3431.363664  	0.073039 
3433.292480  	0.072482 
3435.221296  	0.072004 
3437.150112  	0.071458 
3439.078928  	0.070961 
3441.007744  	0.070274 
3442.936560  	0.069943 
3444.865376  	0.069826 
3446.794192  	0.068885 
3448.723008  	0.067783 
3450.651824  	0.067103 
3452.580640  	0.066619 
3454.509456  	0.066245 
3456.438272  	0.065653 
3458.367088  	0.064975 
3460.295904  	0.064242 
3462.224720  	0.063295 
3464.153536  	0.062400 
3466.082352  	0.061543 
3468.011168  	0.060622 
3469.939984  	0.059923 
3471.868800  	0.059221 
3473.797616  	0.058283 
3475.726432  	0.057360 
3477.655248  	0.056728 
3479.584064  	0.056362 
3481.512880  	0.055601 
3483.441696  	0.054442 
3485.370512  	0.053769 
3487.299328  	0.052740 
3489.228144  	0.051872 
3491.156960  	0.051049 
3493.085776  	0.050200 
3495.014592  	0.049486 
3496.943408  	0.048864 
3498.872224  	0.048373 
3500.801040  	0.048247 
3502.729856  	0.047456 
3504.658672  	0.046167 
3506.587488  	0.045722 
3508.516304  	0.045249 
3510.445120  	0.044144 
3512.373936  	0.043106 
3514.302752  	0.042623 
3516.231568  	0.042423 
3518.160384  	0.041821 
3520.089200  	0.041140 
3522.018016  	0.040900 
3523.946832  	0.040933 
3525.875648  	0.040124 
3527.804464  	0.038593 
3529.733280  	0.037545 
3531.662096  	0.036856 
3533.590912  	0.036322 
3535.519728  	0.036035 
3537.448544  	0.035446 
3539.377360  	0.034548 
3541.306176  	0.033997 
3543.234992  	0.033993 
3545.163808  	0.034442 
3547.092624  	0.033613 
3549.021440  	0.031822 
3550.950256  	0.030825 
3552.879072  	0.030115 
3554.807888  	0.029573 
3556.736704  	0.028924 
3558.665520  	0.028793 
3560.594336  	0.028640 
3562.523152  	0.027803 
3564.451968  	0.027844 
3566.380784  	0.028099 
3568.309600  	0.026064 
3570.238416  	0.024578 
3572.167232  	0.023975 
3574.096048  	0.022965 
3576.024864  	0.022043 
3577.953680  	0.021576 
3579.882496  	0.020885 
3581.811312  	0.020175 
3583.740128  	0.019823 
3585.668944  	0.020162 
3587.597760  	0.018899 
3589.526576  	0.016949 
3591.455392  	0.016127 
3593.384208  	0.015740 
3595.313024  	0.014885 
3597.241840  	0.013364 
3599.170656  	0.011894 
3601.099472  	0.010854 
3603.028288  	0.010748 
3604.957104  	0.010918 
3606.885920  	0.010286 
3608.814736  	0.008988 
3610.743552  	0.008639 
3612.672368  	0.007305 
3614.601184  	0.006054 
3616.530000  	0.005858 
3618.458816  	0.003532 
3620.387632  	0.001609 
3622.316448  	0.001961 
3624.245264  	0.001958 
3626.174080  	0.001660 
3628.102896  	-0.001511 
3630.031712  	-0.004707 
3631.960528  	-0.002601 
3633.889344  	-0.003002 
3635.818160  	-0.003728 
3637.746976  	-0.004639 
3639.675792  	-0.004959 
3641.604608  	-0.005032 
3643.533424  	-0.005458 
3645.462240  	-0.006396 
3647.391056  	-0.009994 
3649.319872  	-0.015037 
3651.248688  	-0.015737 
3653.177504  	-0.012355 
3655.106320  	-0.013181 
3657.035136  	-0.016021 
3658.963952  	-0.015198 
3660.892768  	-0.015070 
3662.821584  	-0.015504 
3664.750400  	-0.015498 
3666.679216  	-0.015489 
3668.608032  	-0.017726 
3670.536848  	-0.021128 
3672.465664  	-0.018766 
3674.394480  	-0.020601 
3676.323296  	-0.025294 
3678.252112  	-0.020615 
3680.180928  	-0.018686 
3682.109744  	-0.018024 
3684.038560  	-0.018164 
3685.967376  	-0.018280 
3687.896192  	-0.021595 
3689.825008  	-0.024744 
3691.753824  	-0.023127 
3693.682640  	-0.020166 
3695.611456  	-0.018898 
3697.540272  	-0.018056 
3699.469088  	-0.017257 
3701.397904  	-0.018496 
3703.326720  	-0.018370 
3705.255536  	-0.016637 
3707.184352  	-0.016342 
3709.113168  	-0.018181 
3711.041984  	-0.020726 
3712.970800  	-0.019398 
3714.899616  	-0.015631 
3716.828432  	-0.014893 
3718.757248  	-0.015553 
3720.686064  	-0.016164 
3722.614880  	-0.016567 
3724.543696  	-0.015736 
3726.472512  	-0.016094 
3728.401328  	-0.016071 
3730.330144  	-0.016818 
3732.258960  	-0.019032 
3734.187776  	-0.018220 
3736.116592  	-0.018540 
3738.045408  	-0.017816 
3739.974224  	-0.015920 
3741.903040  	-0.014780 
3743.831856  	-0.017934 
3745.760672  	-0.019762 
3747.689488  	-0.017444 
3749.618304  	-0.020934 
3751.547120  	-0.022911 
3753.475936  	-0.019356 
3755.404752  	-0.016318 
3757.333568  	-0.016205 
3759.262384  	-0.017258 
3761.191200  	-0.016958 
3763.120016  	-0.014832 
3765.048832  	-0.015633 
3766.977648  	-0.015644 
3768.906464  	-0.016662 
3770.835280  	-0.017441 
3772.764096  	-0.015452 
3774.692912  	-0.014715 
3776.621728  	-0.014640 
3778.550544  	-0.016212 
3780.479360  	-0.017186 
3782.408176  	-0.015398 
3784.336992  	-0.015794 
3786.265808  	-0.015601 
3788.194624  	-0.015014 
3790.123440  	-0.014985 
3792.052256  	-0.014942 
3793.981072  	-0.014897 
3795.909888  	-0.016651 
3797.838704  	-0.016551 
3799.767520  	-0.016879 
3801.696336  	-0.021424 
3803.625152  	-0.018625 
3805.553968  	-0.017261 
3807.482784  	-0.019219 
3809.411600  	-0.016364 
3811.340416  	-0.014675 
3813.269232  	-0.014420 
3815.198048  	-0.017617 
3817.126864  	-0.018925 
3819.055680  	-0.017317 
3820.984496  	-0.021277 
3822.913312  	-0.019228 
3824.842128  	-0.016042 
3826.770944  	-0.016448 
3828.699760  	-0.015683 
3830.628576  	-0.016058 
3832.557392  	-0.016930 
3834.486208  	-0.016875 
3836.415024  	-0.018310 
3838.343840  	-0.019897 
3840.272656  	-0.018645 
3842.201472  	-0.016901 
3844.130288  	-0.016581 
3846.059104  	-0.015224 
3847.987920  	-0.014320 
3849.916736  	-0.014658 
3851.845552  	-0.017793 
3853.774368  	-0.023782 
3855.703184  	-0.019641 
3857.632000  	-0.016060 
3859.560816  	-0.014798 
3861.489632  	-0.015008 
3863.418448  	-0.016015 
3865.347264  	-0.016523 
3867.276080  	-0.014880 
3869.204896  	-0.016562 
3871.133712  	-0.016761 
3873.062528  	-0.015594 
3874.991344  	-0.016304 
3876.920160  	-0.014421 
3878.848976  	-0.014143 
3880.777792  	-0.015373 
3882.706608  	-0.014207 
3884.635424  	-0.014607 
3886.564240  	-0.016131 
3888.493056  	-0.014696 
3890.421872  	-0.015430 
3892.350688  	-0.016257 
3894.279504  	-0.014642 
3896.208320  	-0.013690 
3898.137136  	-0.013830 
3900.065952  	-0.014313 
3901.994768  	-0.014232 
3903.923584  	-0.015316 
3905.852400  	-0.015587 
3907.781216  	-0.014951 
3909.710032  	-0.014784 
3911.638848  	-0.014609 
3913.567664  	-0.014108 
3915.496480  	-0.013610 
3917.425296  	-0.013739 
3919.354112  	-0.014185 
3921.282928  	-0.014084 
3923.211744  	-0.013499 
3925.140560  	-0.013686 
3927.069376  	-0.013934 
3928.998192  	-0.013994 
3930.927008  	-0.013443 
3932.855824  	-0.013327 
3934.784640  	-0.013918 
3936.713456  	-0.014242 
3938.642272  	-0.014069 
3940.571088  	-0.013637 
3942.499904  	-0.013467 
3944.428720  	-0.013702 
3946.357536  	-0.013427 
3948.286352  	-0.013260 
3950.215168  	-0.013808 
3952.143984  	-0.014563 
3954.072800  	-0.014708 
3956.001616  	-0.014399 
3957.930432  	-0.014319 
3959.859248  	-0.014167 
3961.788064  	-0.014086 
3963.716880  	-0.014455 
3965.645696  	-0.014847 
3967.574512  	-0.014703 
3969.503328  	-0.014221 
3971.432144  	-0.014140 
3973.360960  	-0.014146 
3975.289776  	-0.014071 
3977.218592  	-0.014112 
3979.147408  	-0.014251 
3981.076224  	-0.014188 
3983.005040  	-0.014180 
3984.933856  	-0.014142 
3986.862672  	-0.014255 
3988.791488  	-0.014195 
3990.720304  	-0.014006 
3992.649120  	-0.014174 
3994.577936  	-0.014399 
3996.506752  	-0.014387 
3998.435568  	-0.014425 
4000.364384  	-0.014461 