##TITLE=No Description
##DATA TYPE=INFRARED SPECTRUM
##XUNITS=1/CM
##YUNITS=Abs
399.264912  	0.619962 
401.193728  	0.615208 
403.122544  	0.622192 
405.051360  	0.602474 
406.980176  	0.578331 
408.908992  	0.572278 
410.837808  	0.579177 
412.766624  	0.580330 
414.695440  	0.596342 
416.624256  	0.597157 
418.553072  	0.589077 
420.481888  	0.573091 
422.410704  	0.570485 
424.339520  	0.558692 
426.268336  	0.549320 
428.197152  	0.547354 
430.125968  	0.555103 
432.054784  	0.554807 
433.983600  	0.550665 
435.912416  	0.545415 
437.841232  	0.548308 
439.770048  	0.541838 
441.698864  	0.543442 
443.627680  	0.539191 
445.556496  	0.539439 
447.485312  	0.536411 
449.414128  	0.533965 
451.342944  	0.532062 
453.271760  	0.532635 
455.200576  	0.532582 
457.129392  	0.539357 
459.058208  	0.539290 
460.987024  	0.541259 
462.915840  	0.537117 
464.844656  	0.535905 
466.773472  	0.534157 
468.702288  	0.537330 
470.631104  	0.536121 
472.559920  	0.531587 
474.488736  	0.523328 
476.417552  	0.527569 
478.346368  	0.526772 
480.275184  	0.526955 
482.204000  	0.525932 
484.132816  	0.525053 
486.061632  	0.520261 
487.990448  	0.523331 
489.919264  	0.521067 
491.848080  	0.519365 
493.776896  	0.517583 
495.705712  	0.517123 
497.634528  	0.514114 
499.563344  	0.515389 
501.492160  	0.513827 
503.420976  	0.512762 
505.349792  	0.510609 
507.278608  	0.511759 
509.207424  	0.513254 
511.136240  	0.514811 
513.065056  	0.513330 
514.993872  	0.515432 
516.922688  	0.517006 
518.851504  	0.519357 
520.780320  	0.518688 
522.709136  	0.518661 
524.637952  	0.516619 
526.566768  	0.516215 
528.495584  	0.512208 
530.424400  	0.510444 
532.353216  	0.507137 
534.282032  	0.502576 
536.210848  	0.495935 
538.139664  	0.491483 
540.068480  	0.485951 
541.997296  	0.481227 
543.926112  	0.475777 
545.854928  	0.472140 
547.783744  	0.468613 
549.712560  	0.465406 
551.641376  	0.460688 
553.570192  	0.457903 
555.499008  	0.454612 
557.427824  	0.450918 
559.356640  	0.447092 
561.285456  	0.445362 
563.214272  	0.441378 
565.143088  	0.437155 
567.071904  	0.433478 
569.000720  	0.430763 
570.929536  	0.426684 
572.858352  	0.423766 
574.787168  	0.420969 
576.715984  	0.418464 
578.644800  	0.414854 
580.573616  	0.411251 
582.502432  	0.406449 
584.431248  	0.403517 
586.360064  	0.400477 
588.288880  	0.398421 
590.217696  	0.396316 
592.146512  	0.394020 
594.075328  	0.390854 
596.004144  	0.388670 
597.932960  	0.386573 
599.861776  	0.384847 
601.790592  	0.382526 
603.719408  	0.381976 
605.648224  	0.380855 
607.577040  	0.379080 
609.505856  	0.376942 
611.434672  	0.375828 
613.363488  	0.373772 
615.292304  	0.372333 
617.221120  	0.370354 
619.149936  	0.368734 
621.078752  	0.366875 
623.007568  	0.366110 
624.936384  	0.364993 
626.865200  	0.363373 
628.794016  	0.362122 
630.722832  	0.361338 
632.651648  	0.360479 
634.580464  	0.360713 
636.509280  	0.361425 
638.438096  	0.361637 
640.366912  	0.359636 
642.295728  	0.357645 
644.224544  	0.355303 
646.153360  	0.352122 
648.082176  	0.347707 
650.010992  	0.343445 
651.939808  	0.339075 
653.868624  	0.335070 
655.797440  	0.331215 
657.726256  	0.327843 
659.655072  	0.324152 
661.583888  	0.320218 
663.512704  	0.316387 
665.441520  	0.313471 
667.370336  	0.306191 
669.299152  	0.300312 
671.227968  	0.299370 
673.156784  	0.296466 
675.085600  	0.293986 
677.014416  	0.291611 
678.943232  	0.289863 
680.872048  	0.288192 
682.800864  	0.286255 
684.729680  	0.284460 
686.658496  	0.283364 
688.587312  	0.282686 
690.516128  	0.281271 
692.444944  	0.279960 
694.373760  	0.278671 
696.302576  	0.276617 
698.231392  	0.274582 
700.160208  	0.272372 
702.089024  	0.270242 
704.017840  	0.267887 
705.946656  	0.265112 
707.875472  	0.262959 
709.804288  	0.260915 
711.733104  	0.258752 
713.661920  	0.256509 
715.590736  	0.255386 
717.519552  	0.255204 
719.448368  	0.255398 
721.377184  	0.255637 
723.306000  	0.256230 
725.234816  	0.256238 
727.163632  	0.255361 
729.092448  	0.253076 
731.021264  	0.249855 
732.950080  	0.246651 
734.878896  	0.243790 
736.807712  	0.240869 
738.736528  	0.238265 
740.665344  	0.236268 
742.594160  	0.234731 
744.522976  	0.233098 
746.451792  	0.231579 
748.380608  	0.229762 
750.309424  	0.228196 
752.238240  	0.227275 
754.167056  	0.226490 
756.095872  	0.225357 
758.024688  	0.224457 
759.953504  	0.223754 
761.882320  	0.224117 
763.811136  	0.224438 
765.739952  	0.223471 
767.668768  	0.221063 
769.597584  	0.218679 
771.526400  	0.217555 
773.455216  	0.218639 
775.384032  	0.222044 
777.312848  	0.227046 
779.241664  	0.231109 
781.170480  	0.231638 
783.099296  	0.228099 
785.028112  	0.222292 
786.956928  	0.216388 
788.885744  	0.211417 
790.814560  	0.207894 
792.743376  	0.205585 
794.672192  	0.203988 
796.601008  	0.202944 
798.529824  	0.200142 
800.458640  	0.195623 
802.387456  	0.191729 
804.316272  	0.189736 
806.245088  	0.188702 
808.173904  	0.187915 
810.102720  	0.187571 
812.031536  	0.187504 
813.960352  	0.187687 
815.889168  	0.188111 
817.817984  	0.188150 
819.746800  	0.188221 
821.675616  	0.188664 
823.604432  	0.188558 
825.533248  	0.188037 
827.462064  	0.187776 
829.390880  	0.187057 
831.319696  	0.185626 
833.248512  	0.183762 
835.177328  	0.181489 
837.106144  	0.178727 
839.034960  	0.175524 
840.963776  	0.172034 
842.892592  	0.168449 
844.821408  	0.164918 
846.750224  	0.161647 
848.679040  	0.158883 
850.607856  	0.156686 
852.536672  	0.155117 
854.465488  	0.153518 
856.394304  	0.152011 
858.323120  	0.150428 
860.251936  	0.148490 
862.180752  	0.146456 
864.109568  	0.143813 
866.038384  	0.140910 
867.967200  	0.138709 
869.896016  	0.136927 
871.824832  	0.135943 
873.753648  	0.135608 
875.682464  	0.136119 
877.611280  	0.136625 
879.540096  	0.137359 
881.468912  	0.139546 
883.397728  	0.141198 
885.326544  	0.142352 
887.255360  	0.142699 
889.184176  	0.141785 
891.112992  	0.139750 
893.041808  	0.137867 
894.970624  	0.135559 
896.899440  	0.131981 
898.828256  	0.127770 
900.757072  	0.123796 
902.685888  	0.120648 
904.614704  	0.118957 
906.543520  	0.118968 
908.472336  	0.120136 
910.401152  	0.122549 
912.329968  	0.125481 
914.258784  	0.128830 
916.187600  	0.131719 
918.116416  	0.134043 
920.045232  	0.135836 
921.974048  	0.136858 
923.902864  	0.137209 
925.831680  	0.137161 
927.760496  	0.137297 
929.689312  	0.137634 
931.618128  	0.138301 
933.546944  	0.138895 
935.475760  	0.139260 
937.404576  	0.139090 
939.333392  	0.138663 
941.262208  	0.138574 
943.191024  	0.139668 
945.119840  	0.143235 
947.048656  	0.148933 
948.977472  	0.156393 
950.906288  	0.165659 
952.835104  	0.176264 
954.763920  	0.187614 
956.692736  	0.198489 
958.621552  	0.207934 
960.550368  	0.214673 
962.479184  	0.218218 
964.408000  	0.217547 
966.336816  	0.212917 
968.265632  	0.204743 
970.194448  	0.193880 
972.123264  	0.180857 
974.052080  	0.167063 
975.980896  	0.153430 
977.909712  	0.140673 
979.838528  	0.129288 
981.767344  	0.119744 
983.696160  	0.112411 
985.624976  	0.107825 
987.553792  	0.105944 
989.482608  	0.106777 
991.411424  	0.109981 
993.340240  	0.114849 
995.269056  	0.120876 
997.197872  	0.127434 
999.126688  	0.134260 
1001.055504  	0.141112 
1002.984320  	0.147886 
1004.913136  	0.154639 
1006.841952  	0.161111 
1008.770768  	0.166491 
1010.699584  	0.170289 
1012.628400  	0.172650 
1014.557216  	0.173666 
1016.486032  	0.173670 
1018.414848  	0.173309 
1020.343664  	0.173026 
1022.272480  	0.172297 
1024.201296  	0.170835 
1026.130112  	0.167434 
1028.058928  	0.166235 
1029.987744  	0.169259 
1031.916560  	0.171244 
1033.845376  	0.172514 
1035.774192  	0.173720 
1037.703008  	0.176727 
1039.631824  	0.183213 
1041.560640  	0.192227 
1043.489456  	0.204526 
1045.418272  	0.219545 
1047.347088  	0.235889 
1049.275904  	0.251300 
1051.204720  	0.263991 
1053.133536  	0.271842 
1055.062352  	0.275285 
1056.991168  	0.274807 
1058.919984  	0.276012 
1060.848800  	0.276944 
1062.777616  	0.274322 
1064.706432  	0.268078 
1066.635248  	0.262682 
1068.564064  	0.260477 
1070.492880  	0.255302 
1072.421696  	0.247310 
1074.350512  	0.241480 
1076.279328  	0.239525 
1078.208144  	0.241883 
1080.136960  	0.246977 
1082.065776  	0.252838 
1083.994592  	0.256773 
1085.923408  	0.257806 
1087.852224  	0.255374 
1089.781040  	0.251265 
1091.709856  	0.245742 
1093.638672  	0.237093 
1095.567488  	0.225593 
1097.496304  	0.212963 
1099.425120  	0.199860 
1101.353936  	0.186622 
1103.282752  	0.173737 
1105.211568  	0.161531 
1107.140384  	0.149621 
1109.069200  	0.138394 
1110.998016  	0.128456 
1112.926832  	0.119689 
1114.855648  	0.111377 
1116.784464  	0.103508 
1118.713280  	0.096188 
1120.642096  	0.089307 
1122.570912  	0.082963 
1124.499728  	0.076746 
1126.428544  	0.071124 
1128.357360  	0.066116 
1130.286176  	0.062226 
1132.214992  	0.059002 
1134.143808  	0.056310 
1136.072624  	0.054021 
1138.001440  	0.052021 
1139.930256  	0.049822 
1141.859072  	0.047587 
1143.787888  	0.045109 
1145.716704  	0.042870 
1147.645520  	0.040840 
1149.574336  	0.039088 
1151.503152  	0.037689 
1153.431968  	0.037180 
1155.360784  	0.037272 
1157.289600  	0.038004 
1159.218416  	0.039329 
1161.147232  	0.041421 
1163.076048  	0.043536 
1165.004864  	0.045953 
1166.933680  	0.048185 
1168.862496  	0.050647 
1170.791312  	0.053259 
1172.720128  	0.056223 
1174.648944  	0.058908 
1176.577760  	0.061595 
1178.506576  	0.064290 
1180.435392  	0.067180 
1182.364208  	0.070015 
1184.293024  	0.073260 
1186.221840  	0.076716 
1188.150656  	0.080706 
1190.079472  	0.085362 
1192.008288  	0.090955 
1193.937104  	0.097704 
1195.865920  	0.105481 
1197.794736  	0.113961 
1199.723552  	0.123473 
1201.652368  	0.132857 
1203.581184  	0.142219 
1205.510000  	0.151374 
1207.438816  	0.160170 
1209.367632  	0.168525 
1211.296448  	0.175627 
1213.225264  	0.181566 
1215.154080  	0.186137 
1217.082896  	0.189447 
1219.011712  	0.191542 
1220.940528  	0.193063 
1222.869344  	0.193784 
1224.798160  	0.193773 
1226.726976  	0.192996 
1228.655792  	0.191792 
1230.584608  	0.189850 
1232.513424  	0.187354 
1234.442240  	0.184301 
1236.371056  	0.180465 
1238.299872  	0.175362 
1240.228688  	0.168065 
1242.157504  	0.160727 
1244.086320  	0.154363 
1246.015136  	0.146702 
1247.943952  	0.138280 
1249.872768  	0.130038 
1251.801584  	0.122908 
1253.730400  	0.115677 
1255.659216  	0.108592 
1257.588032  	0.102045 
1259.516848  	0.095909 
1261.445664  	0.090144 
1263.374480  	0.084789 
1265.303296  	0.080361 
1267.232112  	0.076919 
1269.160928  	0.074305 
1271.089744  	0.072297 
1273.018560  	0.071150 
1274.947376  	0.070869 
1276.876192  	0.071157 
1278.805008  	0.071128 
1280.733824  	0.070204 
1282.662640  	0.068293 
1284.591456  	0.065928 
1286.520272  	0.063761 
1288.449088  	0.062283 
1290.377904  	0.061471 
1292.306720  	0.061582 
1294.235536  	0.061673 
1296.164352  	0.060854 
1298.093168  	0.058523 
1300.021984  	0.055543 
1301.950800  	0.052423 
1303.879616  	0.049543 
1305.808432  	0.046373 
1307.737248  	0.043225 
1309.666064  	0.040206 
1311.594880  	0.038105 
1313.523696  	0.036503 
1315.452512  	0.035375 
1317.381328  	0.034723 
1319.310144  	0.034616 
1321.238960  	0.034616 
1323.167776  	0.035232 
1325.096592  	0.036054 
1327.025408  	0.036630 
1328.954224  	0.036576 
1330.883040  	0.036139 
1332.811856  	0.035248 
1334.740672  	0.034733 
1336.669488  	0.034806 
1338.598304  	0.035273 
1340.527120  	0.033845 
1342.455936  	0.031865 
1344.384752  	0.031322 
1346.313568  	0.031518 
1348.242384  	0.032134 
1350.171200  	0.033402 
1352.100016  	0.034981 
1354.028832  	0.036953 
1355.957648  	0.038814 
1357.886464  	0.040878 
1359.815280  	0.043264 
1361.744096  	0.045880 
1363.672912  	0.047167 
1365.601728  	0.047937 
1367.530544  	0.049248 
1369.459360  	0.049802 
1371.388176  	0.049638 
1373.316992  	0.048539 
1375.245808  	0.045276 
1377.174624  	0.042588 
1379.103440  	0.039725 
1381.032256  	0.036583 
1382.961072  	0.034221 
1384.889888  	0.033566 
1386.818704  	0.033203 
1388.747520  	0.031312 
1390.676336  	0.028826 
1392.605152  	0.025619 
1394.533968  	0.023785 
1396.462784  	0.026747 
1398.391600  	0.027917 
1400.320416  	0.026962 
1402.249232  	0.027133 
1404.178048  	0.027793 
1406.106864  	0.028337 
1408.035680  	0.030139 
1409.964496  	0.032752 
1411.893312  	0.035728 
1413.822128  	0.038692 
1415.750944  	0.042672 
1417.679760  	0.045363 
1419.608576  	0.044743 
1421.537392  	0.045067 
1423.466208  	0.045482 
1425.395024  	0.043905 
1427.323840  	0.042493 
1429.252656  	0.039988 
1431.181472  	0.038229 
1433.110288  	0.038262 
1435.039104  	0.038862 
1436.967920  	0.038151 
1438.896736  	0.038745 
1440.825552  	0.039953 
1442.754368  	0.040495 
1444.683184  	0.040717 
1446.612000  	0.040710 
1448.540816  	0.039654 
1450.469632  	0.040132 
1452.398448  	0.040997 
1454.327264  	0.041947 
1456.256080  	0.041086 
1458.184896  	0.038447 
1460.113712  	0.040026 
1462.042528  	0.041551 
1463.971344  	0.040986 
1465.900160  	0.041384 
1467.828976  	0.044350 
1469.757792  	0.047572 
1471.686608  	0.050288 
1473.615424  	0.055903 
1475.544240  	0.062746 
1477.473056  	0.068310 
1479.401872  	0.072131 
1481.330688  	0.075317 
1483.259504  	0.077552 
1485.188320  	0.079199 
1487.117136  	0.078915 
1489.045952  	0.078081 
1490.974768  	0.074988 
1492.903584  	0.072881 
1494.832400  	0.069601 
1496.761216  	0.062639 
1498.690032  	0.056665 
1500.618848  	0.053223 
1502.547664  	0.049734 
1504.476480  	0.045059 
1506.405296  	0.038101 
1508.334112  	0.037218 
1510.262928  	0.037871 
1512.191744  	0.035825 
1514.120560  	0.034778 
1516.049376  	0.033958 
1517.978192  	0.032696 
1519.907008  	0.033800 
1521.835824  	0.033731 
1523.764640  	0.038415 
1525.693456  	0.043095 
1527.622272  	0.045431 
1529.551088  	0.046317 
1531.479904  	0.046101 
1533.408720  	0.041892 
1535.337536  	0.039115 
1537.266352  	0.037085 
1539.195168  	0.028176 
1541.123984  	0.021252 
1543.052800  	0.025364 
1544.981616  	0.026622 
1546.910432  	0.026218 
1548.839248  	0.026707 
1550.768064  	0.026815 
1552.696880  	0.026338 
1554.625696  	0.026272 
1556.554512  	0.025735 
1558.483328  	0.022210 
1560.412144  	0.027416 
1562.340960  	0.035343 
1564.269776  	0.039245 
1566.198592  	0.044446 
1568.127408  	0.048251 
1570.056224  	0.052815 
1571.985040  	0.060422 
1573.913856  	0.065067 
1575.842672  	0.065331 
1577.771488  	0.068783 
1579.700304  	0.071435 
1581.629120  	0.071332 
1583.557936  	0.070752 
1585.486752  	0.071504 
1587.415568  	0.073714 
1589.344384  	0.077998 
1591.273200  	0.083696 
1593.202016  	0.090817 
1595.130832  	0.098363 
1597.059648  	0.106389 
1598.988464  	0.113220 
1600.917280  	0.119113 
1602.846096  	0.122995 
1604.774912  	0.125615 
1606.703728  	0.125911 
1608.632544  	0.124886 
1610.561360  	0.122951 
1612.490176  	0.121615 
1614.418992  	0.119155 
1616.347808  	0.115382 
1618.276624  	0.116748 
1620.205440  	0.121998 
1622.134256  	0.124627 
1624.063072  	0.129906 
1625.991888  	0.137273 
1627.920704  	0.145199 
1629.849520  	0.155270 
1631.778336  	0.165119 
1633.707152  	0.171053 
1635.635968  	0.177009 
1637.564784  	0.188165 
1639.493600  	0.197292 
1641.422416  	0.202977 
1643.351232  	0.207058 
1645.280048  	0.207028 
1647.208864  	0.205399 
1649.137680  	0.207691 
1651.066496  	0.208441 
1652.995312  	0.199709 
1654.924128  	0.200288 
1656.852944  	0.202400 
1658.781760  	0.200669 
1660.710576  	0.196672 
1662.639392  	0.190828 
1664.568208  	0.187271 
1666.497024  	0.185203 
1668.425840  	0.178956 
1670.354656  	0.171334 
1672.283472  	0.168864 
1674.212288  	0.166004 
1676.141104  	0.161185 
1678.069920  	0.160888 
1679.998736  	0.160233 
1681.927552  	0.158475 
1683.856368  	0.151983 
1685.785184  	0.151291 
1687.714000  	0.154665 
1689.642816  	0.154234 
1691.571632  	0.152519 
1693.500448  	0.151270 
1695.429264  	0.146063 
1697.358080  	0.142572 
1699.286896  	0.140356 
1701.215712  	0.135178 
1703.144528  	0.135372 
1705.073344  	0.131096 
1707.002160  	0.125335 
1708.930976  	0.121837 
1710.859792  	0.116316 
1712.788608  	0.109693 
1714.717424  	0.100970 
1716.646240  	0.089453 
1718.575056  	0.076417 
1720.503872  	0.069956 
1722.432688  	0.063883 
1724.361504  	0.054809 
1726.290320  	0.047158 
1728.219136  	0.040864 
1730.147952  	0.035357 
1732.076768  	0.030380 
1734.005584  	0.022783 
1735.934400  	0.017934 
1737.863216  	0.017923 
1739.792032  	0.014043 
1741.720848  	0.013149 
1743.649664  	0.012904 
1745.578480  	0.011839 
1747.507296  	0.009846 
1749.436112  	0.008890 
1751.364928  	0.007883 
1753.293744  	0.007335 
1755.222560  	0.007020 
1757.151376  	0.006285 
1759.080192  	0.005745 
1761.009008  	0.005118 
1762.937824  	0.003578 
1764.866640  	0.004076 
1766.795456  	0.004629 
1768.724272  	0.004181 
1770.653088  	0.001534 
1772.581904  	-0.001414 
1774.510720  	0.000406 
1776.439536  	0.002447 
1778.368352  	0.002675 
1780.297168  	0.002143 
1782.225984  	0.001705 
1784.154800  	0.002339 
1786.083616  	0.001753 
1788.012432  	0.001898 
1789.941248  	0.002095 
1791.870064  	0.000561 
1793.798880  	-0.000635 
1795.727696  	0.000992 
1797.656512  	0.000620 
1799.585328  	0.000334 
1801.514144  	0.000913 
1803.442960  	0.000850 
1805.371776  	0.000081 
1807.300592  	0.000401 
1809.229408  	-0.000187 
1811.158224  	-0.000640 
1813.087040  	-0.000715 
1815.015856  	-0.000309 
1816.944672  	-0.000111 
1818.873488  	-0.000036 
1820.802304  	-0.000264 
1822.731120  	0.000304 
1824.659936  	-0.000348 
1826.588752  	-0.000889 
1828.517568  	-0.001882 
1830.446384  	-0.002437 
1832.375200  	-0.001429 
1834.304016  	-0.000527 
1836.232832  	-0.000585 
1838.161648  	-0.000341 
1840.090464  	-0.000535 
1842.019280  	-0.000093 
1843.948096  	-0.001564 
1845.876912  	-0.001429 
1847.805728  	-0.000644 
1849.734544  	-0.000781 
1851.663360  	-0.001011 
1853.592176  	-0.000964 
1855.520992  	-0.001224 
1857.449808  	-0.000833 
1859.378624  	-0.000865 
1861.307440  	-0.000850 
1863.236256  	-0.001183 
1865.165072  	-0.000968 
1867.093888  	-0.001344 
1869.022704  	-0.001839 
1870.951520  	-0.002056 
1872.880336  	-0.001494 
1874.809152  	-0.001761 
1876.737968  	-0.001726 
1878.666784  	-0.001921 
1880.595600  	-0.001446 
1882.524416  	-0.001652 
1884.453232  	-0.001431 
1886.382048  	-0.001632 
1888.310864  	-0.001556 
1890.239680  	-0.002168 
1892.168496  	-0.001688 
1894.097312  	-0.001565 
1896.026128  	-0.001504 
1897.954944  	-0.001797 
1899.883760  	-0.001565 
1901.812576  	-0.001846 
1903.741392  	-0.002096 
1905.670208  	-0.002015 
1907.599024  	-0.001398 
1909.527840  	-0.001800 
1911.456656  	-0.001315 
1913.385472  	-0.001466 
1915.314288  	-0.001077 
1917.243104  	-0.001714 
1919.171920  	-0.002067 
1921.100736  	-0.002030 
1923.029552  	-0.001480 
1924.958368  	-0.001838 
1926.887184  	-0.001589 
1928.816000  	-0.002068 
1930.744816  	-0.001885 
1932.673632  	-0.001811 
1934.602448  	-0.001676 
1936.531264  	-0.002134 
1938.460080  	-0.001721 
1940.388896  	-0.001735 
1942.317712  	-0.001220 
1944.246528  	-0.001702 
1946.175344  	-0.001156 
1948.104160  	-0.001644 
1950.032976  	-0.001555 
1951.961792  	-0.001964 
1953.890608  	-0.001674 
1955.819424  	-0.002147 
1957.748240  	-0.001103 
1959.677056  	-0.001631 
1961.605872  	-0.001284 
1963.534688  	-0.001494 
1965.463504  	-0.000713 
1967.392320  	-0.001636 
1969.321136  	-0.001488 
1971.249952  	-0.001220 
1973.178768  	-0.000497 
1975.107584  	-0.002024 
1977.036400  	-0.000825 
1978.965216  	0.000487 
1980.894032  	0.000080 
1982.822848  	-0.000753 
1984.751664  	0.000023 
1986.680480  	-0.001144 
1988.609296  	-0.000907 
1990.538112  	-0.001650 
1992.466928  	-0.001404 
1994.395744  	-0.001697 
1996.324560  	-0.001755 
1998.253376  	-0.002709 
2000.182192  	-0.003499 
2002.111008  	-0.003387 
2004.039824  	-0.001438 
2005.968640  	-0.002152 
2007.897456  	-0.000985 
2009.826272  	-0.000604 
2011.755088  	-0.000924 
2013.683904  	-0.002582 
2015.612720  	-0.001797 
2017.541536  	-0.001910 
2019.470352  	-0.000793 
2021.399168  	-0.001797 
2023.327984  	-0.001811 
2025.256800  	-0.001690 
2027.185616  	-0.001071 
2029.114432  	-0.000829 
2031.043248  	0.000457 
2032.972064  	0.000423 
2034.900880  	0.000487 
2036.829696  	-0.000488 
2038.758512  	0.000213 
2040.687328  	0.000004 
2042.616144  	0.000417 
2044.544960  	-0.000153 
2046.473776  	-0.000035 
2048.402592  	-0.000669 
2050.331408  	-0.000824 
2052.260224  	-0.001575 
2054.189040  	-0.001605 
2056.117856  	-0.001617 
2058.046672  	-0.001085 
2059.975488  	-0.001458 
2061.904304  	-0.001584 
2063.833120  	-0.001483 
2065.761936  	-0.001014 
2067.690752  	-0.001584 
2069.619568  	-0.001174 
2071.548384  	-0.000851 
2073.477200  	-0.000861 
2075.406016  	-0.000842 
2077.334832  	-0.000655 
2079.263648  	-0.001015 
2081.192464  	-0.000913 
2083.121280  	-0.000770 
2085.050096  	-0.000632 
2086.978912  	-0.001037 
2088.907728  	-0.001063 
2090.836544  	-0.001189 
2092.765360  	-0.000784 
2094.694176  	-0.000978 
2096.622992  	-0.000830 
2098.551808  	-0.000587 
2100.480624  	-0.000089 
2102.409440  	-0.000083 
2104.338256  	-0.000505 
2106.267072  	-0.000352 
2108.195888  	0.000073 
2110.124704  	-0.000250 
2112.053520  	-0.000256 
2113.982336  	-0.000470 
2115.911152  	-0.000337 
2117.839968  	-0.000424 
2119.768784  	-0.000572 
2121.697600  	-0.000623 
2123.626416  	-0.000424 
2125.555232  	-0.000747 
2127.484048  	-0.000623 
2129.412864  	-0.000820 
2131.341680  	-0.001020 
2133.270496  	-0.001518 
2135.199312  	-0.000659 
2137.128128  	-0.000058 
2139.056944  	0.000054 
2140.985760  	-0.000178 
2142.914576  	-0.000103 
2144.843392  	-0.000032 
2146.772208  	0.000255 
2148.701024  	-0.000543 
2150.629840  	0.000499 
2152.558656  	0.000076 
2154.487472  	-0.000771 
2156.416288  	-0.001140 
2158.345104  	0.000549 
2160.273920  	0.001659 
2162.202736  	0.002091 
2164.131552  	0.000899 
2166.060368  	0.001679 
2167.989184  	0.003124 
2169.918000  	0.003527 
2171.846816  	0.001701 
2173.775632  	0.001569 
2175.704448  	0.002921 
2177.633264  	0.003118 
2179.562080  	0.001838 
2181.490896  	0.001859 
2183.419712  	0.000718 
2185.348528  	0.000397 
2187.277344  	0.000034 
2189.206160  	0.000083 
2191.134976  	0.000456 
2193.063792  	0.001358 
2194.992608  	0.001667 
2196.921424  	0.000963 
2198.850240  	-0.000348 
2200.779056  	-0.000367 
2202.707872  	-0.000074 
2204.636688  	0.000597 
2206.565504  	0.001126 
2208.494320  	0.000555 
2210.423136  	-0.000440 
2212.351952  	-0.000403 
2214.280768  	-0.001031 
2216.209584  	-0.000646 
2218.138400  	-0.000607 
2220.067216  	-0.000607 
2221.996032  	-0.000861 
2223.924848  	-0.000301 
2225.853664  	0.000330 
2227.782480  	0.000264 
2229.711296  	-0.000546 
2231.640112  	-0.000904 
2233.568928  	-0.001338 
2235.497744  	-0.001044 
2237.426560  	-0.001025 
2239.355376  	-0.000968 
2241.284192  	-0.000932 
2243.213008  	-0.000409 
2245.141824  	-0.000821 
2247.070640  	-0.001100 
2248.999456  	-0.000869 
2250.928272  	-0.000847 
2252.857088  	-0.001335 
2254.785904  	-0.001364 
2256.714720  	-0.001889 
2258.643536  	-0.002157 
2260.572352  	-0.002379 
2262.501168  	-0.002009 
2264.429984  	-0.001699 
2266.358800  	-0.001666 
2268.287616  	-0.001794 
2270.216432  	-0.001477 
2272.145248  	-0.001463 
2274.074064  	-0.001822 
2276.002880  	-0.001859 
2277.931696  	-0.001206 
2279.860512  	-0.001109 
2281.789328  	-0.001000 
2283.718144  	-0.001013 
2285.646960  	-0.000804 
2287.575776  	-0.000765 
2289.504592  	-0.001036 
2291.433408  	-0.001332 
2293.362224  	-0.001010 
2295.291040  	-0.000853 
2297.219856  	-0.000700 
2299.148672  	-0.000726 
2301.077488  	-0.000651 
2303.006304  	-0.000770 
2304.935120  	-0.000672 
2306.863936  	-0.000789 
2308.792752  	-0.001098 
2310.721568  	-0.001598 
2312.650384  	-0.002070 
2314.579200  	-0.003017 
2316.508016  	-0.004219 
2318.436832  	-0.005581 
2320.365648  	-0.007168 
2322.294464  	-0.008998 
2324.223280  	-0.011157 
2326.152096  	-0.013564 
2328.080912  	-0.015475 
2330.009728  	-0.017652 
2331.938544  	-0.019715 
2333.867360  	-0.021337 
2335.796176  	-0.022623 
2337.724992  	-0.023825 
2339.653808  	-0.024151 
2341.582624  	-0.024350 
2343.511440  	-0.022891 
2345.440256  	-0.019670 
2347.369072  	-0.013769 
2349.297888  	-0.010567 
2351.226704  	-0.013983 
2353.155520  	-0.020523 
2355.084336  	-0.025624 
2357.013152  	-0.029833 
2358.941968  	-0.032162 
2360.870784  	-0.033001 
2362.799600  	-0.031896 
2364.728416  	-0.030463 
2366.657232  	-0.027545 
2368.586048  	-0.022965 
2370.514864  	-0.018239 
2372.443680  	-0.014144 
2374.372496  	-0.010273 
2376.301312  	-0.006690 
2378.230128  	-0.003701 
2380.158944  	-0.001928 
2382.087760  	-0.001222 
2384.016576  	-0.001046 
2385.945392  	-0.001062 
2387.874208  	-0.001459 
2389.803024  	-0.001745 
2391.731840  	-0.002015 
2393.660656  	-0.002029 
2395.589472  	-0.001911 
2397.518288  	-0.001715 
2399.447104  	-0.001965 
2401.375920  	-0.002253 
2403.304736  	-0.002398 
2405.233552  	-0.002206 
2407.162368  	-0.002263 
2409.091184  	-0.002244 
2411.020000  	-0.002192 
2412.948816  	-0.002129 
2414.877632  	-0.002020 
2416.806448  	-0.001889 
2418.735264  	-0.002139 
2420.664080  	-0.002220 
2422.592896  	-0.002108 
2424.521712  	-0.002014 
2426.450528  	-0.002161 
2428.379344  	-0.001864 
2430.308160  	-0.001564 
2432.236976  	-0.001488 
2434.165792  	-0.001689 
2436.094608  	-0.001836 
2438.023424  	-0.001876 
2439.952240  	-0.001668 
2441.881056  	-0.001546 
2443.809872  	-0.001423 
2445.738688  	-0.001317 
2447.667504  	-0.001036 
2449.596320  	-0.000936 
2451.525136  	-0.000879 
2453.453952  	-0.001023 
2455.382768  	-0.001197 
2457.311584  	-0.001178 
2459.240400  	-0.001190 
2461.169216  	-0.001379 
2463.098032  	-0.001555 
2465.026848  	-0.001597 
2466.955664  	-0.001444 
2468.884480  	-0.001547 
2470.813296  	-0.001622 
2472.742112  	-0.001580 
2474.670928  	-0.001519 
2476.599744  	-0.001516 
2478.528560  	-0.001343 
2480.457376  	-0.001412 
2482.386192  	-0.001400 
2484.315008  	-0.001156 
2486.243824  	-0.001229 
2488.172640  	-0.001467 
2490.101456  	-0.001258 
2492.030272  	-0.000960 
2493.959088  	-0.000873 
2495.887904  	-0.000944 
2497.816720  	-0.000742 
2499.745536  	-0.000514 
2501.674352  	-0.000442 
2503.603168  	-0.000291 
2505.531984  	-0.000326 
2507.460800  	-0.000585 
2509.389616  	-0.000471 
2511.318432  	-0.000395 
2513.247248  	-0.000516 
2515.176064  	-0.000505 
2517.104880  	-0.000437 
2519.033696  	-0.000468 
2520.962512  	-0.000326 
2522.891328  	-0.000201 
2524.820144  	-0.000257 
2526.748960  	-0.000230 
2528.677776  	0.000133 
2530.606592  	0.000162 
2532.535408  	0.000077 
2534.464224  	-0.000050 
2536.393040  	-0.000001 
2538.321856  	0.000100 
2540.250672  	0.000242 
2542.179488  	0.000255 
2544.108304  	0.000272 
2546.037120  	0.000252 
2547.965936  	0.000248 
2549.894752  	0.000431 
2551.823568  	0.000613 
2553.752384  	0.000695 
2555.681200  	0.000969 
2557.610016  	0.001145 
2559.538832  	0.001210 
2561.467648  	0.001153 
2563.396464  	0.001243 
2565.325280  	0.001515 
2567.254096  	0.001568 
2569.182912  	0.001548 
2571.111728  	0.001592 
2573.040544  	0.001369 
2574.969360  	0.001487 
2576.898176  	0.001835 
2578.826992  	0.001887 
2580.755808  	0.001891 
2582.684624  	0.002107 
2584.613440  	0.002205 
2586.542256  	0.002207 
2588.471072  	0.002199 
2590.399888  	0.002289 
2592.328704  	0.002368 
2594.257520  	0.002233 
2596.186336  	0.002300 
2598.115152  	0.002484 
2600.043968  	0.002458 
2601.972784  	0.002673 
2603.901600  	0.002804 
2605.830416  	0.002964 
2607.759232  	0.002971 
2609.688048  	0.002945 
2611.616864  	0.003189 
2613.545680  	0.003463 
2615.474496  	0.003659 
2617.403312  	0.003690 
2619.332128  	0.003756 
2621.260944  	0.003880 
2623.189760  	0.003958 
2625.118576  	0.004042 
2627.047392  	0.004114 
2628.976208  	0.004369 
2630.905024  	0.004464 
2632.833840  	0.004443 
2634.762656  	0.004585 
2636.691472  	0.004674 
2638.620288  	0.004746 
2640.549104  	0.004860 
2642.477920  	0.004961 
2644.406736  	0.005149 
2646.335552  	0.005248 
2648.264368  	0.005268 
2650.193184  	0.005349 
2652.122000  	0.005557 
2654.050816  	0.005708 
2655.979632  	0.005855 
2657.908448  	0.006011 
2659.837264  	0.006144 
2661.766080  	0.006210 
2663.694896  	0.006361 
2665.623712  	0.006480 
2667.552528  	0.006585 
2669.481344  	0.006733 
2671.410160  	0.006892 
2673.338976  	0.006925 
2675.267792  	0.007036 
2677.196608  	0.007221 
2679.125424  	0.007390 
2681.054240  	0.007588 
2682.983056  	0.007721 
2684.911872  	0.007780 
2686.840688  	0.007923 
2688.769504  	0.007999 
2690.698320  	0.007950 
2692.627136  	0.007986 
2694.555952  	0.008159 
2696.484768  	0.008283 
2698.413584  	0.008323 
2700.342400  	0.008369 
2702.271216  	0.008515 
2704.200032  	0.008734 
2706.128848  	0.008853 
2708.057664  	0.008879 
2709.986480  	0.009004 
2711.915296  	0.009071 
2713.844112  	0.009245 
2715.772928  	0.009346 
2717.701744  	0.009441 
2719.630560  	0.009671 
2721.559376  	0.009889 
2723.488192  	0.010052 
2725.417008  	0.010216 
2727.345824  	0.010341 
2729.274640  	0.010441 
2731.203456  	0.010623 
2733.132272  	0.010858 
2735.061088  	0.010957 
2736.989904  	0.011095 
2738.918720  	0.011207 
2740.847536  	0.011226 
2742.776352  	0.011204 
2744.705168  	0.011339 
2746.633984  	0.011498 
2748.562800  	0.011554 
2750.491616  	0.011574 
2752.420432  	0.011697 
2754.349248  	0.011672 
2756.278064  	0.011598 
2758.206880  	0.011498 
2760.135696  	0.011500 
2762.064512  	0.011530 
2763.993328  	0.011519 
2765.922144  	0.011469 
2767.850960  	0.011570 
2769.779776  	0.011620 
2771.708592  	0.011633 
2773.637408  	0.011601 
2775.566224  	0.011580 
2777.495040  	0.011572 
2779.423856  	0.011650 
2781.352672  	0.011690 
2783.281488  	0.011620 
2785.210304  	0.011571 
2787.139120  	0.011661 
2789.067936  	0.011817 
2790.996752  	0.011827 
2792.925568  	0.011732 
2794.854384  	0.011700 
2796.783200  	0.011670 
2798.712016  	0.011614 
2800.640832  	0.011522 
2802.569648  	0.011670 
2804.498464  	0.011794 
2806.427280  	0.011700 
2808.356096  	0.011597 
2810.284912  	0.011666 
2812.213728  	0.011724 
2814.142544  	0.011617 
2816.071360  	0.011540 
2818.000176  	0.011443 
2819.928992  	0.011338 
2821.857808  	0.011201 
2823.786624  	0.011027 
2825.715440  	0.011005 
2827.644256  	0.010855 
2829.573072  	0.010738 
2831.501888  	0.010407 
2833.430704  	0.010016 
2835.359520  	0.009773 
2837.288336  	0.009562 
2839.217152  	0.009249 
2841.145968  	0.008905 
2843.074784  	0.008505 
2845.003600  	0.008028 
2846.932416  	0.007701 
2848.861232  	0.007491 
2850.790048  	0.007156 
2852.718864  	0.006695 
2854.647680  	0.006152 
2856.576496  	0.005500 
2858.505312  	0.004855 
2860.434128  	0.004323 
2862.362944  	0.003608 
2864.291760  	0.002798 
2866.220576  	0.002145 
2868.149392  	0.001813 
2870.078208  	0.001581 
2872.007024  	0.001474 
2873.935840  	0.001608 
2875.864656  	0.001674 
2877.793472  	0.001484 
2879.722288  	0.001199 
2881.651104  	0.000817 
2883.579920  	0.000694 
2885.508736  	0.000947 
2887.437552  	0.001252 
2889.366368  	0.001331 
2891.295184  	0.001063 
2893.224000  	0.000855 
2895.152816  	0.000891 
2897.081632  	0.000596 
2899.010448  	-0.001154 
2900.939264  	-0.002678 
2902.868080  	-0.001353 
2904.796896  	0.000015 
2906.725712  	0.000643 
2908.654528  	0.001304 
2910.583344  	0.001803 
2912.512160  	0.002482 
2914.440976  	0.003684 
2916.369792  	0.004545 
2918.298608  	0.005074 
2920.227424  	0.005612 
2922.156240  	0.006330 
2924.085056  	0.007150 
2926.013872  	0.008249 
2927.942688  	0.009324 
2929.871504  	0.010198 
2931.800320  	0.011029 
2933.729136  	0.011831 
2935.657952  	0.012399 
2937.586768  	0.013018 
2939.515584  	0.013680 
2941.444400  	0.013962 
2943.373216  	0.014041 
2945.302032  	0.014300 
2947.230848  	0.014455 
2949.159664  	0.014088 
2951.088480  	0.013643 
2953.017296  	0.013288 
2954.946112  	0.012633 
2956.874928  	0.011809 
2958.803744  	0.011075 
2960.732560  	0.010598 
2962.661376  	0.010051 
2964.590192  	0.009191 
2966.519008  	0.008071 
2968.447824  	0.007003 
2970.376640  	0.006080 
2972.305456  	0.005564 
2974.234272  	0.005715 
2976.163088  	0.006054 
2978.091904  	0.006127 
2980.020720  	0.006108 
2981.949536  	0.006302 
2983.878352  	0.006097 
2985.807168  	0.005102 
2987.735984  	0.004068 
2989.664800  	0.004418 
2991.593616  	0.007590 
2993.522432  	0.009772 
2995.451248  	0.010277 
2997.380064  	0.011018 
2999.308880  	0.012298 
3001.237696  	0.013698 
3003.166512  	0.015190 
3005.095328  	0.016682 
3007.024144  	0.018107 
3008.952960  	0.019649 
3010.881776  	0.021230 
3012.810592  	0.022598 
3014.739408  	0.023860 
3016.668224  	0.025145 
3018.597040  	0.026445 
3020.525856  	0.027619 
3022.454672  	0.028880 
3024.383488  	0.029942 
3026.312304  	0.030863 
3028.241120  	0.031949 
3030.169936  	0.032949 
3032.098752  	0.033881 
3034.027568  	0.034766 
3035.956384  	0.035685 
3037.885200  	0.036596 
3039.814016  	0.037364 
3041.742832  	0.038151 
3043.671648  	0.038741 
3045.600464  	0.039357 
3047.529280  	0.039851 
3049.458096  	0.040465 
3051.386912  	0.041357 
3053.315728  	0.041940 
3055.244544  	0.042570 
3057.173360  	0.043306 
3059.102176  	0.043931 
3061.030992  	0.044526 
3062.959808  	0.045281 
3064.888624  	0.046047 
3066.817440  	0.046731 
3068.746256  	0.047571 
3070.675072  	0.048495 
3072.603888  	0.049192 
3074.532704  	0.049830 
3076.461520  	0.050704 
3078.390336  	0.051726 
3080.319152  	0.052535 
3082.247968  	0.053451 
3084.176784  	0.054390 
3086.105600  	0.055226 
3088.034416  	0.056024 
3089.963232  	0.056785 
3091.892048  	0.057477 
3093.820864  	0.058252 
3095.749680  	0.059184 
3097.678496  	0.060224 
3099.607312  	0.061135 
3101.536128  	0.062063 
3103.464944  	0.063005 
3105.393760  	0.063736 
3107.322576  	0.064348 
3109.251392  	0.065059 
3111.180208  	0.065938 
3113.109024  	0.066924 
3115.037840  	0.067674 
3116.966656  	0.068309 
3118.895472  	0.068949 
3120.824288  	0.069601 
3122.753104  	0.070376 
3124.681920  	0.070950 
3126.610736  	0.071418 
3128.539552  	0.072121 
3130.468368  	0.072853 
3132.397184  	0.073431 
3134.326000  	0.074194 
3136.254816  	0.074804 
3138.183632  	0.075509 
3140.112448  	0.076309 
3142.041264  	0.077061 
3143.970080  	0.077689 
3145.898896  	0.078157 
3147.827712  	0.078867 
3149.756528  	0.079514 
3151.685344  	0.080126 
3153.614160  	0.080896 
3155.542976  	0.081700 
3157.471792  	0.082470 
3159.400608  	0.083124 
3161.329424  	0.083647 
3163.258240  	0.084104 
3165.187056  	0.084662 
3167.115872  	0.085389 
3169.044688  	0.085919 
3170.973504  	0.086300 
3172.902320  	0.086801 
3174.831136  	0.087300 
3176.759952  	0.087760 
3178.688768  	0.088114 
3180.617584  	0.088519 
3182.546400  	0.088732 
3184.475216  	0.089011 
3186.404032  	0.089152 
3188.332848  	0.089411 
3190.261664  	0.089781 
3192.190480  	0.089877 
3194.119296  	0.089800 
3196.048112  	0.089888 
3197.976928  	0.090005 
3199.905744  	0.090111 
3201.834560  	0.090178 
3203.763376  	0.090128 
3205.692192  	0.090022 
3207.621008  	0.089844 
3209.549824  	0.089706 
3211.478640  	0.089765 
3213.407456  	0.089577 
3215.336272  	0.089361 
3217.265088  	0.089438 
3219.193904  	0.089273 
3221.122720  	0.089048 
3223.051536  	0.088967 
3224.980352  	0.088714 
3226.909168  	0.088524 
3228.837984  	0.088219 
3230.766800  	0.088006 
3232.695616  	0.088102 
3234.624432  	0.087997 
3236.553248  	0.087759 
3238.482064  	0.087742 
3240.410880  	0.087767 
3242.339696  	0.087980 
3244.268512  	0.088044 
3246.197328  	0.088253 
3248.126144  	0.088429 
3250.054960  	0.088449 
3251.983776  	0.088618 
3253.912592  	0.088966 
3255.841408  	0.089204 
3257.770224  	0.089550 
3259.699040  	0.089842 
3261.627856  	0.090087 
3263.556672  	0.090345 
3265.485488  	0.090492 
3267.414304  	0.090728 
3269.343120  	0.091153 
3271.271936  	0.091382 
3273.200752  	0.091364 
3275.129568  	0.091331 
3277.058384  	0.091671 
3278.987200  	0.091961 
3280.916016  	0.092254 
3282.844832  	0.092477 
3284.773648  	0.092702 
3286.702464  	0.092912 
3288.631280  	0.093108 
3290.560096  	0.093521 
3292.488912  	0.093931 
3294.417728  	0.094091 
3296.346544  	0.094363 
3298.275360  	0.094625 
3300.204176  	0.095025 
3302.132992  	0.095331 
3304.061808  	0.095570 
3305.990624  	0.095952 
3307.919440  	0.096335 
3309.848256  	0.096684 
3311.777072  	0.097032 
3313.705888  	0.097378 
3315.634704  	0.098013 
3317.563520  	0.098390 
3319.492336  	0.098563 
3321.421152  	0.098607 
3323.349968  	0.098815 
3325.278784  	0.099064 
3327.207600  	0.099177 
3329.136416  	0.099109 
3331.065232  	0.099256 
3332.994048  	0.099422 
3334.922864  	0.099582 
3336.851680  	0.099535 
3338.780496  	0.099381 
3340.709312  	0.099357 
3342.638128  	0.099221 
3344.566944  	0.098788 
3346.495760  	0.098490 
3348.424576  	0.098192 
3350.353392  	0.097850 
3352.282208  	0.097534 
3354.211024  	0.097254 
3356.139840  	0.097031 
3358.068656  	0.096795 
3359.997472  	0.096527 
3361.926288  	0.095996 
3363.855104  	0.095398 
3365.783920  	0.094967 
3367.712736  	0.094643 
3369.641552  	0.094305 
3371.570368  	0.093938 
3373.499184  	0.093562 
3375.428000  	0.093225 
3377.356816  	0.092891 
3379.285632  	0.092652 
3381.214448  	0.092252 
3383.143264  	0.091798 
3385.072080  	0.091214 
3387.000896  	0.090457 
3388.929712  	0.090178 
3390.858528  	0.089981 
3392.787344  	0.089568 
3394.716160  	0.089141 
3396.644976  	0.088840 
3398.573792  	0.088408 
3400.502608  	0.087972 
3402.431424  	0.087300 
3404.360240  	0.086763 
3406.289056  	0.086177 
3408.217872  	0.085658 
3410.146688  	0.085224 
3412.075504  	0.084668 
3414.004320  	0.084048 
3415.933136  	0.083713 
3417.861952  	0.082967 
3419.790768  	0.082339 
3421.719584  	0.082113 
3423.648400  	0.081835 
3425.577216  	0.081022 
3427.506032  	0.080314 
3429.434848  	0.079668 
3431.363664  	0.079144 
3433.292480  	0.078672 
3435.221296  	0.078000 
3437.150112  	0.077478 
3439.078928  	0.077016 
3441.007744  	0.076309 
3442.936560  	0.075861 
3444.865376  	0.075549 
3446.794192  	0.074843 
3448.723008  	0.073752 
3450.651824  	0.072815 
3452.580640  	0.072210 
3454.509456  	0.071772 
3456.438272  	0.071361 
3458.367088  	0.070762 
3460.295904  	0.070121 
3462.224720  	0.069157 
3464.153536  	0.068036 
3466.082352  	0.067080 
3468.011168  	0.066151 
3469.939984  	0.065442 
3471.868800  	0.064870 
3473.797616  	0.063928 
3475.726432  	0.063075 
3477.655248  	0.062235 
3479.584064  	0.061641 
3481.512880  	0.061000 
3483.441696  	0.060004 
3485.370512  	0.059277 
3487.299328  	0.058302 
3489.228144  	0.057469 
3491.156960  	0.056827 
3493.085776  	0.056032 
3495.014592  	0.055074 
3496.943408  	0.054483 
3498.872224  	0.053978 
3500.801040  	0.053716 
3502.729856  	0.052958 
3504.658672  	0.051642 
3506.587488  	0.051043 
3508.516304  	0.050749 
3510.445120  	0.050004 
3512.373936  	0.048976 
3514.302752  	0.048299 
3516.231568  	0.047971 
3518.160384  	0.047373 
3520.089200  	0.046481 
3522.018016  	0.045895 
3523.946832  	0.045997 
3525.875648  	0.045243 
3527.804464  	0.043883 
3529.733280  	0.042936 
3531.662096  	0.042196 
3533.590912  	0.041543 
3535.519728  	0.041372 
3537.448544  	0.040866 
3539.377360  	0.039799 
3541.306176  	0.039099 
3543.234992  	0.038981 
3545.163808  	0.039391 
3547.092624  	0.038589 
3549.021440  	0.036851 
3550.950256  	0.035754 
3552.879072  	0.035173 
3554.807888  	0.034632 
3556.736704  	0.033963 
3558.665520  	0.033635 
3560.594336  	0.033472 
3562.523152  	0.032499 
3564.451968  	0.032022 
3566.380784  	0.032346 
3568.309600  	0.031341 
3570.238416  	0.030079 
3572.167232  	0.029092 
3574.096048  	0.027847 
3576.024864  	0.027000 
3577.953680  	0.026612 
3579.882496  	0.025851 
3581.811312  	0.025033 
3583.740128  	0.024304 
3585.668944  	0.024251 
3587.597760  	0.023724 
3589.526576  	0.022242 
3591.455392  	0.020964 
3593.384208  	0.020287 
3595.313024  	0.019457 
3597.241840  	0.018063 
3599.170656  	0.016454 
3601.099472  	0.015874 
3603.028288  	0.015934 
3604.957104  	0.015482 
3606.885920  	0.014617 
3608.814736  	0.013571 
3610.743552  	0.013312 
3612.672368  	0.012205 
3614.601184  	0.011020 
3616.530000  	0.010471 
3618.458816  	0.008441 
3620.387632  	0.006902 
3622.316448  	0.006919 
3624.245264  	0.006395 
3626.174080  	0.005503 
3628.102896  	0.003161 
3630.031712  	0.001047 
3631.960528  	0.002256 
3633.889344  	0.001965 
3635.818160  	0.001341 
3637.746976  	0.000321 
3639.675792  	-0.000230 
3641.604608  	-0.000438 
3643.533424  	-0.001124 
3645.462240  	-0.002556 
3647.391056  	-0.005681 
3649.319872  	-0.009354 
3651.248688  	-0.009686 
3653.177504  	-0.007368 
3655.106320  	-0.008189 
3657.035136  	-0.010199 
3658.963952  	-0.009947 
3660.892768  	-0.010158 
3662.821584  	-0.010535 
3664.750400  	-0.010765 
3666.679216  	-0.011434 
3668.608032  	-0.013857 
3670.536848  	-0.016153 
3672.465664  	-0.014368 
3674.394480  	-0.016268 
3676.323296  	-0.019393 
3678.252112  	-0.015596 
3680.180928  	-0.013956 
3682.109744  	-0.013396 
3684.038560  	-0.013567 
3685.967376  	-0.014190 
3687.896192  	-0.017293 
3689.825008  	-0.019446 
3691.753824  	-0.017433 
3693.682640  	-0.015005 
3695.611456  	-0.014073 
3697.540272  	-0.013359 
3699.469088  	-0.012912 
3701.397904  	-0.013909 
3703.326720  	-0.013478 
3705.255536  	-0.012117 
3707.184352  	-0.012227 
3709.113168  	-0.014120 
3711.041984  	-0.015801 
3712.970800  	-0.013600 
3714.899616  	-0.010553 
3716.828432  	-0.010359 
3718.757248  	-0.011075 
3720.686064  	-0.011837 
3722.614880  	-0.012225 
3724.543696  	-0.011401 
3726.472512  	-0.011396 
3728.401328  	-0.011604 
3730.330144  	-0.012889 
3732.258960  	-0.014904 
3734.187776  	-0.013872 
3736.116592  	-0.013792 
3738.045408  	-0.013046 
3739.974224  	-0.011337 
3741.903040  	-0.010875 
3743.831856  	-0.013062 
3745.760672  	-0.013879 
3747.689488  	-0.013051 
3749.618304  	-0.016038 
3751.547120  	-0.016942 
3753.475936  	-0.013769 
3755.404752  	-0.011736 
3757.333568  	-0.011535 
3759.262384  	-0.012113 
3761.191200  	-0.011509 
3763.120016  	-0.010044 
3765.048832  	-0.010636 
3766.977648  	-0.010686 
3768.906464  	-0.011660 
3770.835280  	-0.011894 
3772.764096  	-0.010216 
3774.692912  	-0.009773 
3776.621728  	-0.009922 
3778.550544  	-0.011240 
3780.479360  	-0.011785 
3782.408176  	-0.010507 
3784.336992  	-0.010705 
3786.265808  	-0.010376 
3788.194624  	-0.009969 
3790.123440  	-0.009950 
3792.052256  	-0.010138 
3793.981072  	-0.010408 
3795.909888  	-0.011575 
3797.838704  	-0.011556 
3799.767520  	-0.012575 
3801.696336  	-0.015881 
3803.625152  	-0.013332 
3805.553968  	-0.012615 
3807.482784  	-0.013397 
3809.411600  	-0.010866 
3811.340416  	-0.009782 
3813.269232  	-0.010073 
3815.198048  	-0.012902 
3817.126864  	-0.013807 
3819.055680  	-0.013011 
3820.984496  	-0.015671 
3822.913312  	-0.013271 
3824.842128  	-0.010977 
3826.770944  	-0.011356 
3828.699760  	-0.010877 
3830.628576  	-0.011354 
3832.557392  	-0.012187 
3834.486208  	-0.012381 
3836.415024  	-0.013604 
3838.343840  	-0.014623 
3840.272656  	-0.013416 
3842.201472  	-0.011964 
3844.130288  	-0.011379 
3846.059104  	-0.010395 
3847.987920  	-0.010054 
3849.916736  	-0.010669 
3851.845552  	-0.013786 
3853.774368  	-0.017572 
3855.703184  	-0.013341 
3857.632000  	-0.010690 
3859.560816  	-0.009862 
3861.489632  	-0.010126 
3863.418448  	-0.011144 
3865.347264  	-0.011285 
3867.276080  	-0.010267 
3869.204896  	-0.011642 
3871.133712  	-0.011327 
3873.062528  	-0.010688 
3874.991344  	-0.010898 
3876.920160  	-0.009459 
3878.848976  	-0.009386 
3880.777792  	-0.009936 
3882.706608  	-0.009159 
3884.635424  	-0.009700 
3886.564240  	-0.010461 
3888.493056  	-0.009771 
3890.421872  	-0.010553 
3892.350688  	-0.010890 
3894.279504  	-0.009472 
3896.208320  	-0.009047 
3898.137136  	-0.009239 
3900.065952  	-0.009308 
3901.994768  	-0.009197 
3903.923584  	-0.009798 
3905.852400  	-0.009827 
3907.781216  	-0.009549 
3909.710032  	-0.009532 
3911.638848  	-0.009454 
3913.567664  	-0.009199 
3915.496480  	-0.008810 
3917.425296  	-0.008760 
3919.354112  	-0.009108 
3921.282928  	-0.009018 
3923.211744  	-0.008674 
3925.140560  	-0.008572 
3927.069376  	-0.008773 
3928.998192  	-0.008976 
3930.927008  	-0.008572 
3932.855824  	-0.008217 
3934.784640  	-0.008645 
3936.713456  	-0.009074 
3938.642272  	-0.008874 
3940.571088  	-0.008514 
3942.499904  	-0.008216 
3944.428720  	-0.008280 
3946.357536  	-0.008248 
3948.286352  	-0.008096 
3950.215168  	-0.008618 
3952.143984  	-0.009219 
3954.072800  	-0.009276 
3956.001616  	-0.008934 
3957.930432  	-0.008984 
3959.859248  	-0.008897 
3961.788064  	-0.008732 
3963.716880  	-0.009230 
3965.645696  	-0.009626 
3967.574512  	-0.009363 
3969.503328  	-0.009003 
3971.432144  	-0.009033 
3973.360960  	-0.009079 
3975.289776  	-0.008847 
3977.218592  	-0.008790 
3979.147408  	-0.008962 
3981.076224  	-0.009110 
3983.005040  	-0.009177 
3984.933856  	-0.009144 
3986.862672  	-0.009102 
3988.791488  	-0.008874 
3990.720304  	-0.008664 
3992.649120  	-0.008878 
3994.577936  	-0.009126 
3996.506752  	-0.009199 
3998.435568  	-0.009213 
4000.364384  	-0.009213 