##TITLE=No Description
##DATA TYPE=INFRARED SPECTRUM
##XUNITS=1/CM
##YUNITS=Abs
399.264912  	0.611264 
401.193728  	0.616220 
403.122544  	0.631108 
405.051360  	0.635539 
406.980176  	0.628558 
408.908992  	0.614254 
410.837808  	0.612791 
412.766624  	0.598891 
414.695440  	0.602078 
416.624256  	0.598705 
418.553072  	0.600278 
420.481888  	0.591769 
422.410704  	0.588298 
424.339520  	0.585536 
426.268336  	0.590703 
428.197152  	0.582146 
430.125968  	0.582261 
432.054784  	0.574249 
433.983600  	0.578579 
435.912416  	0.577535 
437.841232  	0.576293 
439.770048  	0.575227 
441.698864  	0.574821 
443.627680  	0.565702 
445.556496  	0.568199 
447.485312  	0.562809 
449.414128  	0.561164 
451.342944  	0.561083 
453.271760  	0.559205 
455.200576  	0.556112 
457.129392  	0.557633 
459.058208  	0.555901 
460.987024  	0.558827 
462.915840  	0.552657 
464.844656  	0.552200 
466.773472  	0.557877 
468.702288  	0.561616 
470.631104  	0.556287 
472.559920  	0.557670 
474.488736  	0.551705 
476.417552  	0.549612 
478.346368  	0.541975 
480.275184  	0.544172 
482.204000  	0.544649 
484.132816  	0.543143 
486.061632  	0.541498 
487.990448  	0.545065 
489.919264  	0.544207 
491.848080  	0.542391 
493.776896  	0.536235 
495.705712  	0.534902 
497.634528  	0.531528 
499.563344  	0.535067 
501.492160  	0.535628 
503.420976  	0.535099 
505.349792  	0.533437 
507.278608  	0.530395 
509.207424  	0.526474 
511.136240  	0.528218 
513.065056  	0.527104 
514.993872  	0.529986 
516.922688  	0.532801 
518.851504  	0.537096 
520.780320  	0.534141 
522.709136  	0.531934 
524.637952  	0.530976 
526.566768  	0.529264 
528.495584  	0.525460 
530.424400  	0.525955 
532.353216  	0.522975 
534.282032  	0.517635 
536.210848  	0.511164 
538.139664  	0.507111 
540.068480  	0.502422 
541.997296  	0.498640 
543.926112  	0.492320 
545.854928  	0.489306 
547.783744  	0.485511 
549.712560  	0.483141 
551.641376  	0.479387 
553.570192  	0.476416 
555.499008  	0.472671 
557.427824  	0.468896 
559.356640  	0.464856 
561.285456  	0.462436 
563.214272  	0.459247 
565.143088  	0.455730 
567.071904  	0.450494 
569.000720  	0.447260 
570.929536  	0.444025 
572.858352  	0.441104 
574.787168  	0.438280 
576.715984  	0.436709 
578.644800  	0.432969 
580.573616  	0.429568 
582.502432  	0.424903 
584.431248  	0.421639 
586.360064  	0.418016 
588.288880  	0.416092 
590.217696  	0.413980 
592.146512  	0.411722 
594.075328  	0.408901 
596.004144  	0.407081 
597.932960  	0.404788 
599.861776  	0.402868 
601.790592  	0.400454 
603.719408  	0.399031 
605.648224  	0.397469 
607.577040  	0.396097 
609.505856  	0.394795 
611.434672  	0.393098 
613.363488  	0.390523 
615.292304  	0.389629 
617.221120  	0.387912 
619.149936  	0.386111 
621.078752  	0.384220 
623.007568  	0.383406 
624.936384  	0.381580 
626.865200  	0.379351 
628.794016  	0.377884 
630.722832  	0.377501 
632.651648  	0.376622 
634.580464  	0.375758 
636.509280  	0.374621 
638.438096  	0.374478 
640.366912  	0.373641 
642.295728  	0.371734 
644.224544  	0.369073 
646.153360  	0.366104 
648.082176  	0.361520 
650.010992  	0.357707 
651.939808  	0.353810 
653.868624  	0.349996 
655.797440  	0.345791 
657.726256  	0.342116 
659.655072  	0.338232 
661.583888  	0.334199 
663.512704  	0.330518 
665.441520  	0.327613 
667.370336  	0.319329 
669.299152  	0.312612 
671.227968  	0.313454 
673.156784  	0.311350 
675.085600  	0.308764 
677.014416  	0.306101 
678.943232  	0.303554 
680.872048  	0.301641 
682.800864  	0.299678 
684.729680  	0.297825 
686.658496  	0.296644 
688.587312  	0.296031 
690.516128  	0.294503 
692.444944  	0.293094 
694.373760  	0.292056 
696.302576  	0.290544 
698.231392  	0.287824 
700.160208  	0.285071 
702.089024  	0.283086 
704.017840  	0.280690 
705.946656  	0.278020 
707.875472  	0.275475 
709.804288  	0.273334 
711.733104  	0.271395 
713.661920  	0.269305 
715.590736  	0.267638 
717.519552  	0.266250 
719.448368  	0.266135 
721.377184  	0.266304 
723.306000  	0.266627 
725.234816  	0.266679 
727.163632  	0.265940 
729.092448  	0.263797 
731.021264  	0.260642 
732.950080  	0.257021 
734.878896  	0.253935 
736.807712  	0.250971 
738.736528  	0.248521 
740.665344  	0.246741 
742.594160  	0.244874 
744.522976  	0.243114 
746.451792  	0.241335 
748.380608  	0.239521 
750.309424  	0.238064 
752.238240  	0.236603 
754.167056  	0.235640 
756.095872  	0.234653 
758.024688  	0.233664 
759.953504  	0.232607 
761.882320  	0.232559 
763.811136  	0.232675 
765.739952  	0.231701 
767.668768  	0.229488 
769.597584  	0.226868 
771.526400  	0.225469 
773.455216  	0.226395 
775.384032  	0.229220 
777.312848  	0.233004 
779.241664  	0.236051 
781.170480  	0.236175 
783.099296  	0.233144 
785.028112  	0.227950 
786.956928  	0.222144 
788.885744  	0.217069 
790.814560  	0.213342 
792.743376  	0.210895 
794.672192  	0.209442 
796.601008  	0.208614 
798.529824  	0.205774 
800.458640  	0.201127 
802.387456  	0.197216 
804.316272  	0.194876 
806.245088  	0.193576 
808.173904  	0.192647 
810.102720  	0.191821 
812.031536  	0.191293 
813.960352  	0.191106 
815.889168  	0.190928 
817.817984  	0.190419 
819.746800  	0.190121 
821.675616  	0.190043 
823.604432  	0.189572 
825.533248  	0.188485 
827.462064  	0.187541 
829.390880  	0.186857 
831.319696  	0.185319 
833.248512  	0.183093 
835.177328  	0.180845 
837.106144  	0.178212 
839.034960  	0.175038 
840.963776  	0.171715 
842.892592  	0.168438 
844.821408  	0.165205 
846.750224  	0.162235 
848.679040  	0.159344 
850.607856  	0.156708 
852.536672  	0.154733 
854.465488  	0.153118 
856.394304  	0.151682 
858.323120  	0.150255 
860.251936  	0.148189 
862.180752  	0.145681 
864.109568  	0.142854 
866.038384  	0.140195 
867.967200  	0.138060 
869.896016  	0.135994 
871.824832  	0.134791 
873.753648  	0.134252 
875.682464  	0.134345 
877.611280  	0.134309 
879.540096  	0.134914 
881.468912  	0.136694 
883.397728  	0.137609 
885.326544  	0.138227 
887.255360  	0.138212 
889.184176  	0.136969 
891.112992  	0.134973 
893.041808  	0.133386 
894.970624  	0.131205 
896.899440  	0.128198 
898.828256  	0.124473 
900.757072  	0.120787 
902.685888  	0.118031 
904.614704  	0.116357 
906.543520  	0.116234 
908.472336  	0.117224 
910.401152  	0.119159 
912.329968  	0.121582 
914.258784  	0.124468 
916.187600  	0.127034 
918.116416  	0.129109 
920.045232  	0.130624 
921.974048  	0.131466 
923.902864  	0.131571 
925.831680  	0.131305 
927.760496  	0.131033 
929.689312  	0.131307 
931.618128  	0.132010 
933.546944  	0.132369 
935.475760  	0.132421 
937.404576  	0.132341 
939.333392  	0.132074 
941.262208  	0.132176 
943.191024  	0.133361 
945.119840  	0.136245 
947.048656  	0.141024 
948.977472  	0.147466 
950.906288  	0.155458 
952.835104  	0.164329 
954.763920  	0.173740 
956.692736  	0.182685 
958.621552  	0.190619 
960.550368  	0.196372 
962.479184  	0.199247 
964.408000  	0.198725 
966.336816  	0.194756 
968.265632  	0.187467 
970.194448  	0.177674 
972.123264  	0.166200 
974.052080  	0.153926 
975.980896  	0.141881 
977.909712  	0.130443 
979.838528  	0.120181 
981.767344  	0.111655 
983.696160  	0.105042 
985.624976  	0.100582 
987.553792  	0.098528 
989.482608  	0.098982 
991.411424  	0.101613 
993.340240  	0.105738 
995.269056  	0.110984 
997.197872  	0.116680 
999.126688  	0.122475 
1001.055504  	0.128309 
1002.984320  	0.134286 
1004.913136  	0.140178 
1006.841952  	0.145746 
1008.770768  	0.150253 
1010.699584  	0.153599 
1012.628400  	0.155721 
1014.557216  	0.156494 
1016.486032  	0.156363 
1018.414848  	0.156091 
1020.343664  	0.155815 
1022.272480  	0.155199 
1024.201296  	0.154083 
1026.130112  	0.150716 
1028.058928  	0.149275 
1029.987744  	0.152045 
1031.916560  	0.153622 
1033.845376  	0.154263 
1035.774192  	0.154832 
1037.703008  	0.156908 
1039.631824  	0.162302 
1041.560640  	0.169630 
1043.489456  	0.179364 
1045.418272  	0.191830 
1047.347088  	0.206497 
1049.275904  	0.220956 
1051.204720  	0.233179 
1053.133536  	0.241734 
1055.062352  	0.246427 
1056.991168  	0.247919 
1058.919984  	0.250424 
1060.848800  	0.252400 
1062.777616  	0.250572 
1064.706432  	0.244648 
1066.635248  	0.239929 
1068.564064  	0.238765 
1070.492880  	0.234695 
1072.421696  	0.227631 
1074.350512  	0.222371 
1076.279328  	0.220404 
1078.208144  	0.222132 
1080.136960  	0.226481 
1082.065776  	0.232039 
1083.994592  	0.236157 
1085.923408  	0.237764 
1087.852224  	0.236546 
1089.781040  	0.233501 
1091.709856  	0.229148 
1093.638672  	0.222245 
1095.567488  	0.212309 
1097.496304  	0.200988 
1099.425120  	0.189365 
1101.353936  	0.177414 
1103.282752  	0.165402 
1105.211568  	0.154061 
1107.140384  	0.142983 
1109.069200  	0.132554 
1110.998016  	0.122972 
1112.926832  	0.114182 
1114.855648  	0.106162 
1116.784464  	0.098768 
1118.713280  	0.091863 
1120.642096  	0.085373 
1122.570912  	0.079279 
1124.499728  	0.073118 
1126.428544  	0.067554 
1128.357360  	0.062860 
1130.286176  	0.059080 
1132.214992  	0.055589 
1134.143808  	0.052892 
1136.072624  	0.050693 
1138.001440  	0.048846 
1139.930256  	0.046413 
1141.859072  	0.044061 
1143.787888  	0.041842 
1145.716704  	0.039724 
1147.645520  	0.037651 
1149.574336  	0.035931 
1151.503152  	0.034392 
1153.431968  	0.033680 
1155.360784  	0.033661 
1157.289600  	0.034364 
1159.218416  	0.035601 
1161.147232  	0.037499 
1163.076048  	0.039310 
1165.004864  	0.041501 
1166.933680  	0.043408 
1168.862496  	0.045493 
1170.791312  	0.047719 
1172.720128  	0.050512 
1174.648944  	0.052939 
1176.577760  	0.055351 
1178.506576  	0.057547 
1180.435392  	0.060066 
1182.364208  	0.062477 
1184.293024  	0.065418 
1186.221840  	0.068384 
1188.150656  	0.071633 
1190.079472  	0.075573 
1192.008288  	0.080567 
1193.937104  	0.086477 
1195.865920  	0.093300 
1197.794736  	0.100675 
1199.723552  	0.109072 
1201.652368  	0.117538 
1203.581184  	0.125893 
1205.510000  	0.134343 
1207.438816  	0.142454 
1209.367632  	0.150031 
1211.296448  	0.156796 
1213.225264  	0.162666 
1215.154080  	0.167172 
1217.082896  	0.170460 
1219.011712  	0.172797 
1220.940528  	0.174575 
1222.869344  	0.175834 
1224.798160  	0.176294 
1226.726976  	0.176133 
1228.655792  	0.175498 
1230.584608  	0.174128 
1232.513424  	0.172224 
1234.442240  	0.170012 
1236.371056  	0.167257 
1238.299872  	0.163080 
1240.228688  	0.156263 
1242.157504  	0.149424 
1244.086320  	0.144000 
1246.015136  	0.137053 
1247.943952  	0.129107 
1249.872768  	0.121230 
1251.801584  	0.114415 
1253.730400  	0.107661 
1255.659216  	0.100936 
1257.588032  	0.094708 
1259.516848  	0.088603 
1261.445664  	0.083021 
1263.374480  	0.077986 
1265.303296  	0.073724 
1267.232112  	0.070254 
1269.160928  	0.067658 
1271.089744  	0.065680 
1273.018560  	0.064610 
1274.947376  	0.064264 
1276.876192  	0.064421 
1278.805008  	0.064180 
1280.733824  	0.063021 
1282.662640  	0.061007 
1284.591456  	0.058715 
1286.520272  	0.056834 
1288.449088  	0.055507 
1290.377904  	0.054486 
1292.306720  	0.054284 
1294.235536  	0.054163 
1296.164352  	0.053344 
1298.093168  	0.051159 
1300.021984  	0.048403 
1301.950800  	0.045410 
1303.879616  	0.042691 
1305.808432  	0.039764 
1307.737248  	0.036986 
1309.666064  	0.034267 
1311.594880  	0.032489 
1313.523696  	0.030973 
1315.452512  	0.029895 
1317.381328  	0.029338 
1319.310144  	0.029194 
1321.238960  	0.029237 
1323.167776  	0.029754 
1325.096592  	0.030397 
1327.025408  	0.030931 
1328.954224  	0.030919 
1330.883040  	0.030511 
1332.811856  	0.029710 
1334.740672  	0.029369 
1336.669488  	0.029670 
1338.598304  	0.030190 
1340.527120  	0.028567 
1342.455936  	0.026408 
1344.384752  	0.025804 
1346.313568  	0.026057 
1348.242384  	0.026618 
1350.171200  	0.027786 
1352.100016  	0.029345 
1354.028832  	0.031296 
1355.957648  	0.033003 
1357.886464  	0.035034 
1359.815280  	0.037504 
1361.744096  	0.039989 
1363.672912  	0.040782 
1365.601728  	0.041482 
1367.530544  	0.042748 
1369.459360  	0.043014 
1371.388176  	0.042779 
1373.316992  	0.041671 
1375.245808  	0.038144 
1377.174624  	0.035680 
1379.103440  	0.032965 
1381.032256  	0.029960 
1382.961072  	0.027787 
1384.889888  	0.027405 
1386.818704  	0.027023 
1388.747520  	0.024963 
1390.676336  	0.022692 
1392.605152  	0.019840 
1394.533968  	0.018007 
1396.462784  	0.020780 
1398.391600  	0.021875 
1400.320416  	0.020657 
1402.249232  	0.021099 
1404.178048  	0.021853 
1406.106864  	0.022340 
1408.035680  	0.024202 
1409.964496  	0.026759 
1411.893312  	0.029483 
1413.822128  	0.032392 
1415.750944  	0.036585 
1417.679760  	0.039403 
1419.608576  	0.037928 
1421.537392  	0.038211 
1423.466208  	0.038807 
1425.395024  	0.037001 
1427.323840  	0.036030 
1429.252656  	0.033620 
1431.181472  	0.031889 
1433.110288  	0.032205 
1435.039104  	0.033131 
1436.967920  	0.031434 
1438.896736  	0.031767 
1440.825552  	0.033121 
1442.754368  	0.033720 
1444.683184  	0.034043 
1446.612000  	0.033968 
1448.540816  	0.032375 
1450.469632  	0.032980 
1452.398448  	0.034128 
1454.327264  	0.035618 
1456.256080  	0.034691 
1458.184896  	0.030518 
1460.113712  	0.032607 
1462.042528  	0.034830 
1463.971344  	0.034354 
1465.900160  	0.034398 
1467.828976  	0.037669 
1469.757792  	0.041582 
1471.686608  	0.044412 
1473.615424  	0.048853 
1475.544240  	0.055450 
1477.473056  	0.060711 
1479.401872  	0.064495 
1481.330688  	0.067346 
1483.259504  	0.069147 
1485.188320  	0.070781 
1487.117136  	0.070534 
1489.045952  	0.069605 
1490.974768  	0.065849 
1492.903584  	0.064064 
1494.832400  	0.061547 
1496.761216  	0.054602 
1498.690032  	0.048710 
1500.618848  	0.045852 
1502.547664  	0.043306 
1504.476480  	0.039713 
1506.405296  	0.032485 
1508.334112  	0.030602 
1510.262928  	0.031828 
1512.191744  	0.030051 
1514.120560  	0.029327 
1516.049376  	0.028537 
1517.978192  	0.026619 
1519.907008  	0.028128 
1521.835824  	0.027025 
1523.764640  	0.031613 
1525.693456  	0.036447 
1527.622272  	0.038590 
1529.551088  	0.039739 
1531.479904  	0.040171 
1533.408720  	0.035595 
1535.337536  	0.032955 
1537.266352  	0.032128 
1539.195168  	0.023151 
1541.123984  	0.015074 
1543.052800  	0.019511 
1544.981616  	0.020925 
1546.910432  	0.020762 
1548.839248  	0.021556 
1550.768064  	0.021348 
1552.696880  	0.021174 
1554.625696  	0.021152 
1556.554512  	0.021115 
1558.483328  	0.016429 
1560.412144  	0.019233 
1562.340960  	0.028512 
1564.269776  	0.032736 
1566.198592  	0.037693 
1568.127408  	0.041479 
1570.056224  	0.044925 
1571.985040  	0.052444 
1573.913856  	0.057564 
1575.842672  	0.056963 
1577.771488  	0.059446 
1579.700304  	0.062695 
1581.629120  	0.062848 
1583.557936  	0.062352 
1585.486752  	0.063028 
1587.415568  	0.065177 
1589.344384  	0.069215 
1591.273200  	0.074655 
1593.202016  	0.081199 
1595.130832  	0.088121 
1597.059648  	0.095556 
1598.988464  	0.101975 
1600.917280  	0.107527 
1602.846096  	0.111056 
1604.774912  	0.113373 
1606.703728  	0.113658 
1608.632544  	0.112653 
1610.561360  	0.110822 
1612.490176  	0.109855 
1614.418992  	0.108106 
1616.347808  	0.103724 
1618.276624  	0.104472 
1620.205440  	0.110520 
1622.134256  	0.113299 
1624.063072  	0.117528 
1625.991888  	0.124833 
1627.920704  	0.132520 
1629.849520  	0.142173 
1631.778336  	0.152086 
1633.707152  	0.158323 
1635.635968  	0.163173 
1637.564784  	0.173673 
1639.493600  	0.183815 
1641.422416  	0.190083 
1643.351232  	0.194855 
1645.280048  	0.195254 
1647.208864  	0.193081 
1649.137680  	0.196060 
1651.066496  	0.198556 
1652.995312  	0.188717 
1654.924128  	0.188052 
1656.852944  	0.191670 
1658.781760  	0.190965 
1660.710576  	0.187756 
1662.639392  	0.181605 
1664.568208  	0.177869 
1666.497024  	0.177046 
1668.425840  	0.171271 
1670.354656  	0.163235 
1672.283472  	0.161431 
1674.212288  	0.159032 
1676.141104  	0.153665 
1678.069920  	0.154353 
1679.998736  	0.154444 
1681.927552  	0.153275 
1683.856368  	0.145989 
1685.785184  	0.144677 
1687.714000  	0.149127 
1689.642816  	0.148703 
1691.571632  	0.147021 
1693.500448  	0.146657 
1695.429264  	0.141323 
1697.358080  	0.137370 
1699.286896  	0.135366 
1701.215712  	0.128414 
1703.144528  	0.129689 
1705.073344  	0.125590 
1707.002160  	0.119279 
1708.930976  	0.115913 
1710.859792  	0.110614 
1712.788608  	0.104516 
1714.717424  	0.096210 
1716.646240  	0.084628 
1718.575056  	0.070611 
1720.503872  	0.064866 
1722.432688  	0.059475 
1724.361504  	0.050497 
1726.290320  	0.043249 
1728.219136  	0.037462 
1730.147952  	0.032131 
1732.076768  	0.027533 
1734.005584  	0.018973 
1735.934400  	0.013800 
1737.863216  	0.014845 
1739.792032  	0.010547 
1741.720848  	0.009558 
1743.649664  	0.009550 
1745.578480  	0.008678 
1747.507296  	0.006769 
1749.436112  	0.005633 
1751.364928  	0.004206 
1753.293744  	0.003770 
1755.222560  	0.004009 
1757.151376  	0.003193 
1759.080192  	0.002827 
1761.009008  	0.002054 
1762.937824  	0.000002 
1764.866640  	0.001011 
1766.795456  	0.001912 
1768.724272  	0.001227 
1770.653088  	-0.001159 
1772.581904  	-0.004749 
1774.510720  	-0.003083 
1776.439536  	-0.000849 
1778.368352  	-0.000342 
1780.297168  	-0.000819 
1782.225984  	-0.001436 
1784.154800  	-0.000907 
1786.083616  	-0.001772 
1788.012432  	-0.001394 
1789.941248  	-0.000741 
1791.870064  	-0.002726 
1793.798880  	-0.004450 
1795.727696  	-0.002232 
1797.656512  	-0.002387 
1799.585328  	-0.002666 
1801.514144  	-0.002349 
1803.442960  	-0.002439 
1805.371776  	-0.002966 
1807.300592  	-0.002498 
1809.229408  	-0.003192 
1811.158224  	-0.003745 
1813.087040  	-0.003847 
1815.015856  	-0.003315 
1816.944672  	-0.003245 
1818.873488  	-0.003256 
1820.802304  	-0.003287 
1822.731120  	-0.002483 
1824.659936  	-0.003305 
1826.588752  	-0.003934 
1828.517568  	-0.004493 
1830.446384  	-0.005504 
1832.375200  	-0.004438 
1834.304016  	-0.003425 
1836.232832  	-0.003682 
1838.161648  	-0.003575 
1840.090464  	-0.003413 
1842.019280  	-0.002436 
1843.948096  	-0.004314 
1845.876912  	-0.004668 
1847.805728  	-0.003490 
1849.734544  	-0.003462 
1851.663360  	-0.003960 
1853.592176  	-0.004057 
1855.520992  	-0.004123 
1857.449808  	-0.003793 
1859.378624  	-0.004055 
1861.307440  	-0.004294 
1863.236256  	-0.004436 
1865.165072  	-0.003848 
1867.093888  	-0.004008 
1869.022704  	-0.004743 
1870.951520  	-0.004947 
1872.880336  	-0.004276 
1874.809152  	-0.004568 
1876.737968  	-0.004598 
1878.666784  	-0.004728 
1880.595600  	-0.004155 
1882.524416  	-0.004469 
1884.453232  	-0.004436 
1886.382048  	-0.004688 
1888.310864  	-0.004597 
1890.239680  	-0.005206 
1892.168496  	-0.004521 
1894.097312  	-0.004313 
1896.026128  	-0.004201 
1897.954944  	-0.004331 
1899.883760  	-0.004033 
1901.812576  	-0.004417 
1903.741392  	-0.004826 
1905.670208  	-0.005089 
1907.599024  	-0.004529 
1909.527840  	-0.004705 
1911.456656  	-0.004235 
1913.385472  	-0.004241 
1915.314288  	-0.003780 
1917.243104  	-0.004503 
1919.171920  	-0.004822 
1921.100736  	-0.004532 
1923.029552  	-0.004385 
1924.958368  	-0.005091 
1926.887184  	-0.004631 
1928.816000  	-0.004860 
1930.744816  	-0.004776 
1932.673632  	-0.004674 
1934.602448  	-0.004512 
1936.531264  	-0.004956 
1938.460080  	-0.004005 
1940.388896  	-0.003907 
1942.317712  	-0.004604 
1944.246528  	-0.005553 
1946.175344  	-0.004793 
1948.104160  	-0.004845 
1950.032976  	-0.004200 
1951.961792  	-0.004447 
1953.890608  	-0.003967 
1955.819424  	-0.004424 
1957.748240  	-0.004363 
1959.677056  	-0.004958 
1961.605872  	-0.004038 
1963.534688  	-0.004331 
1965.463504  	-0.003105 
1967.392320  	-0.003729 
1969.321136  	-0.004581 
1971.249952  	-0.005221 
1973.178768  	-0.003705 
1975.107584  	-0.004277 
1977.036400  	-0.003994 
1978.965216  	-0.003199 
1980.894032  	-0.003445 
1982.822848  	-0.004610 
1984.751664  	-0.003968 
1986.680480  	-0.004863 
1988.609296  	-0.004571 
1990.538112  	-0.004805 
1992.466928  	-0.004023 
1994.395744  	-0.004461 
1996.324560  	-0.004430 
1998.253376  	-0.005347 
2000.182192  	-0.005252 
2002.111008  	-0.004780 
2004.039824  	-0.003961 
2005.968640  	-0.004560 
2007.897456  	-0.003574 
2009.826272  	-0.004664 
2011.755088  	-0.004099 
2013.683904  	-0.004001 
2015.612720  	-0.003557 
2017.541536  	-0.003895 
2019.470352  	-0.003303 
2021.399168  	-0.005090 
2023.327984  	-0.004440 
2025.256800  	-0.003545 
2027.185616  	-0.003405 
2029.114432  	-0.004315 
2031.043248  	-0.003622 
2032.972064  	-0.004116 
2034.900880  	-0.003676 
2036.829696  	-0.003479 
2038.758512  	-0.002111 
2040.687328  	-0.003243 
2042.616144  	-0.003490 
2044.544960  	-0.003683 
2046.473776  	-0.003648 
2048.402592  	-0.004264 
2050.331408  	-0.003739 
2052.260224  	-0.004240 
2054.189040  	-0.004980 
2056.117856  	-0.005443 
2058.046672  	-0.004531 
2059.975488  	-0.004909 
2061.904304  	-0.005057 
2063.833120  	-0.004859 
2065.761936  	-0.004698 
2067.690752  	-0.005171 
2069.619568  	-0.004478 
2071.548384  	-0.004401 
2073.477200  	-0.004508 
2075.406016  	-0.004284 
2077.334832  	-0.003904 
2079.263648  	-0.004022 
2081.192464  	-0.004071 
2083.121280  	-0.004273 
2085.050096  	-0.004207 
2086.978912  	-0.004226 
2088.907728  	-0.004003 
2090.836544  	-0.004224 
2092.765360  	-0.004377 
2094.694176  	-0.004389 
2096.622992  	-0.004030 
2098.551808  	-0.004169 
2100.480624  	-0.003705 
2102.409440  	-0.003914 
2104.338256  	-0.003888 
2106.267072  	-0.003697 
2108.195888  	-0.003580 
2110.124704  	-0.003970 
2112.053520  	-0.003700 
2113.982336  	-0.003636 
2115.911152  	-0.003305 
2117.839968  	-0.003518 
2119.768784  	-0.004170 
2121.697600  	-0.004375 
2123.626416  	-0.003725 
2125.555232  	-0.004043 
2127.484048  	-0.004378 
2129.412864  	-0.004945 
2131.341680  	-0.004870 
2133.270496  	-0.004950 
2135.199312  	-0.004126 
2137.128128  	-0.003950 
2139.056944  	-0.003669 
2140.985760  	-0.003993 
2142.914576  	-0.003556 
2144.843392  	-0.003397 
2146.772208  	-0.003592 
2148.701024  	-0.004667 
2150.629840  	-0.003864 
2152.558656  	-0.003246 
2154.487472  	-0.003244 
2156.416288  	-0.003502 
2158.345104  	-0.001986 
2160.273920  	-0.000557 
2162.202736  	-0.000376 
2164.131552  	-0.001158 
2166.060368  	-0.001164 
2167.989184  	-0.001033 
2169.918000  	-0.000284 
2171.846816  	-0.002161 
2173.775632  	-0.002360 
2175.704448  	-0.001402 
2177.633264  	-0.001489 
2179.562080  	-0.002742 
2181.490896  	-0.002795 
2183.419712  	-0.003014 
2185.348528  	-0.002829 
2187.277344  	-0.002445 
2189.206160  	-0.001934 
2191.134976  	-0.002657 
2193.063792  	-0.002456 
2194.992608  	-0.002494 
2196.921424  	-0.002797 
2198.850240  	-0.003094 
2200.779056  	-0.002661 
2202.707872  	-0.003032 
2204.636688  	-0.003570 
2206.565504  	-0.003881 
2208.494320  	-0.003647 
2210.423136  	-0.003895 
2212.351952  	-0.003855 
2214.280768  	-0.003545 
2216.209584  	-0.003216 
2218.138400  	-0.003914 
2220.067216  	-0.004053 
2221.996032  	-0.003819 
2223.924848  	-0.003501 
2225.853664  	-0.003392 
2227.782480  	-0.002556 
2229.711296  	-0.003175 
2231.640112  	-0.004307 
2233.568928  	-0.004827 
2235.497744  	-0.004398 
2237.426560  	-0.004554 
2239.355376  	-0.004588 
2241.284192  	-0.004493 
2243.213008  	-0.004269 
2245.141824  	-0.004490 
2247.070640  	-0.004577 
2248.999456  	-0.004903 
2250.928272  	-0.005392 
2252.857088  	-0.005771 
2254.785904  	-0.005609 
2256.714720  	-0.005995 
2258.643536  	-0.005724 
2260.572352  	-0.005582 
2262.501168  	-0.005697 
2264.429984  	-0.005843 
2266.358800  	-0.005772 
2268.287616  	-0.005840 
2270.216432  	-0.005595 
2272.145248  	-0.005500 
2274.074064  	-0.005526 
2276.002880  	-0.005555 
2277.931696  	-0.005117 
2279.860512  	-0.004998 
2281.789328  	-0.004860 
2283.718144  	-0.004795 
2285.646960  	-0.004608 
2287.575776  	-0.004700 
2289.504592  	-0.004873 
2291.433408  	-0.005266 
2293.362224  	-0.005179 
2295.291040  	-0.005081 
2297.219856  	-0.004914 
2299.148672  	-0.005027 
2301.077488  	-0.004988 
2303.006304  	-0.005002 
2304.935120  	-0.004906 
2306.863936  	-0.005031 
2308.792752  	-0.005273 
2310.721568  	-0.005955 
2312.650384  	-0.006761 
2314.579200  	-0.007966 
2316.508016  	-0.009247 
2318.436832  	-0.010694 
2320.365648  	-0.012517 
2322.294464  	-0.014794 
2324.223280  	-0.016953 
2326.152096  	-0.019291 
2328.080912  	-0.021506 
2330.009728  	-0.024047 
2331.938544  	-0.026324 
2333.867360  	-0.027869 
2335.796176  	-0.029502 
2337.724992  	-0.031221 
2339.653808  	-0.031567 
2341.582624  	-0.031674 
2343.511440  	-0.030320 
2345.440256  	-0.027112 
2347.369072  	-0.020482 
2349.297888  	-0.016196 
2351.226704  	-0.019724 
2353.155520  	-0.027177 
2355.084336  	-0.033398 
2357.013152  	-0.038470 
2358.941968  	-0.040648 
2360.870784  	-0.041628 
2362.799600  	-0.040584 
2364.728416  	-0.038657 
2366.657232  	-0.035283 
2368.586048  	-0.030571 
2370.514864  	-0.025388 
2372.443680  	-0.020522 
2374.372496  	-0.016247 
2376.301312  	-0.012338 
2378.230128  	-0.008889 
2380.158944  	-0.006705 
2382.087760  	-0.005556 
2384.016576  	-0.005346 
2385.945392  	-0.005453 
2387.874208  	-0.005626 
2389.803024  	-0.005763 
2391.731840  	-0.006020 
2393.660656  	-0.006071 
2395.589472  	-0.005926 
2397.518288  	-0.005719 
2399.447104  	-0.005930 
2401.375920  	-0.006177 
2403.304736  	-0.006336 
2405.233552  	-0.006188 
2407.162368  	-0.006327 
2409.091184  	-0.006238 
2411.020000  	-0.006173 
2412.948816  	-0.006243 
2414.877632  	-0.006056 
2416.806448  	-0.005814 
2418.735264  	-0.005988 
2420.664080  	-0.006069 
2422.592896  	-0.006029 
2424.521712  	-0.005882 
2426.450528  	-0.006135 
2428.379344  	-0.005948 
2430.308160  	-0.005600 
2432.236976  	-0.005537 
2434.165792  	-0.005772 
2436.094608  	-0.005788 
2438.023424  	-0.005607 
2439.952240  	-0.005361 
2441.881056  	-0.005473 
2443.809872  	-0.005527 
2445.738688  	-0.005461 
2447.667504  	-0.005416 
2449.596320  	-0.005491 
2451.525136  	-0.005201 
2453.453952  	-0.005185 
2455.382768  	-0.005410 
2457.311584  	-0.005531 
2459.240400  	-0.005664 
2461.169216  	-0.005819 
2463.098032  	-0.005813 
2465.026848  	-0.005630 
2466.955664  	-0.005562 
2468.884480  	-0.005855 
2470.813296  	-0.005922 
2472.742112  	-0.005805 
2474.670928  	-0.005776 
2476.599744  	-0.005905 
2478.528560  	-0.005577 
2480.457376  	-0.005549 
2482.386192  	-0.005675 
2484.315008  	-0.005498 
2486.243824  	-0.005394 
2488.172640  	-0.005352 
2490.101456  	-0.005143 
2492.030272  	-0.005040 
2493.959088  	-0.005014 
2495.887904  	-0.005033 
2497.816720  	-0.004936 
2499.745536  	-0.004892 
2501.674352  	-0.004648 
2503.603168  	-0.004445 
2505.531984  	-0.004582 
2507.460800  	-0.004822 
2509.389616  	-0.004791 
2511.318432  	-0.004737 
2513.247248  	-0.004726 
2515.176064  	-0.004537 
2517.104880  	-0.004438 
2519.033696  	-0.004608 
2520.962512  	-0.004556 
2522.891328  	-0.004533 
2524.820144  	-0.004712 
2526.748960  	-0.004656 
2528.677776  	-0.004248 
2530.606592  	-0.004227 
2532.535408  	-0.004349 
2534.464224  	-0.004458 
2536.393040  	-0.004392 
2538.321856  	-0.004204 
2540.250672  	-0.003938 
2542.179488  	-0.003875 
2544.108304  	-0.003803 
2546.037120  	-0.003857 
2547.965936  	-0.003835 
2549.894752  	-0.003772 
2551.823568  	-0.003937 
2553.752384  	-0.003828 
2555.681200  	-0.003430 
2557.610016  	-0.003304 
2559.538832  	-0.003280 
2561.467648  	-0.003107 
2563.396464  	-0.003023 
2565.325280  	-0.003091 
2567.254096  	-0.003064 
2569.182912  	-0.003040 
2571.111728  	-0.002990 
2573.040544  	-0.003057 
2574.969360  	-0.002924 
2576.898176  	-0.002683 
2578.826992  	-0.002668 
2580.755808  	-0.002761 
2582.684624  	-0.002635 
2584.613440  	-0.002436 
2586.542256  	-0.002258 
2588.471072  	-0.002343 
2590.399888  	-0.002421 
2592.328704  	-0.002433 
2594.257520  	-0.002432 
2596.186336  	-0.002285 
2598.115152  	-0.002239 
2600.043968  	-0.002299 
2601.972784  	-0.002067 
2603.901600  	-0.001875 
2605.830416  	-0.001684 
2607.759232  	-0.001548 
2609.688048  	-0.001608 
2611.616864  	-0.001560 
2613.545680  	-0.001353 
2615.474496  	-0.001260 
2617.403312  	-0.001158 
2619.332128  	-0.001086 
2621.260944  	-0.001023 
2623.189760  	-0.000861 
2625.118576  	-0.000714 
2627.047392  	-0.000730 
2628.976208  	-0.000650 
2630.905024  	-0.000495 
2632.833840  	-0.000444 
2634.762656  	-0.000374 
2636.691472  	-0.000359 
2638.620288  	-0.000280 
2640.549104  	-0.000191 
2642.477920  	-0.000248 
2644.406736  	-0.000071 
2646.335552  	0.000151 
2648.264368  	0.000302 
2650.193184  	0.000309 
2652.122000  	0.000379 
2654.050816  	0.000594 
2655.979632  	0.000773 
2657.908448  	0.000914 
2659.837264  	0.001035 
2661.766080  	0.001097 
2663.694896  	0.001244 
2665.623712  	0.001303 
2667.552528  	0.001496 
2669.481344  	0.001734 
2671.410160  	0.001798 
2673.338976  	0.001873 
2675.267792  	0.002131 
2677.196608  	0.002316 
2679.125424  	0.002331 
2681.054240  	0.002402 
2682.983056  	0.002553 
2684.911872  	0.002533 
2686.840688  	0.002621 
2688.769504  	0.002814 
2690.698320  	0.002853 
2692.627136  	0.002847 
2694.555952  	0.002927 
2696.484768  	0.002993 
2698.413584  	0.003027 
2700.342400  	0.003061 
2702.271216  	0.003242 
2704.200032  	0.003558 
2706.128848  	0.003675 
2708.057664  	0.003585 
2709.986480  	0.003635 
2711.915296  	0.003783 
2713.844112  	0.004049 
2715.772928  	0.004205 
2717.701744  	0.004361 
2719.630560  	0.004544 
2721.559376  	0.004646 
2723.488192  	0.004719 
2725.417008  	0.004887 
2727.345824  	0.005038 
2729.274640  	0.005206 
2731.203456  	0.005375 
2733.132272  	0.005512 
2735.061088  	0.005631 
2736.989904  	0.005807 
2738.918720  	0.005884 
2740.847536  	0.005883 
2742.776352  	0.005864 
2744.705168  	0.005973 
2746.633984  	0.006110 
2748.562800  	0.006187 
2750.491616  	0.006148 
2752.420432  	0.006245 
2754.349248  	0.006326 
2756.278064  	0.006310 
2758.206880  	0.006191 
2760.135696  	0.006135 
2762.064512  	0.006131 
2763.993328  	0.006217 
2765.922144  	0.006263 
2767.850960  	0.006233 
2769.779776  	0.006246 
2771.708592  	0.006356 
2773.637408  	0.006313 
2775.566224  	0.006214 
2777.495040  	0.006173 
2779.423856  	0.006322 
2781.352672  	0.006472 
2783.281488  	0.006480 
2785.210304  	0.006440 
2787.139120  	0.006506 
2789.067936  	0.006613 
2790.996752  	0.006703 
2792.925568  	0.006604 
2794.854384  	0.006477 
2796.783200  	0.006454 
2798.712016  	0.006433 
2800.640832  	0.006436 
2802.569648  	0.006582 
2804.498464  	0.006621 
2806.427280  	0.006551 
2808.356096  	0.006524 
2810.284912  	0.006656 
2812.213728  	0.006695 
2814.142544  	0.006598 
2816.071360  	0.006415 
2818.000176  	0.006266 
2819.928992  	0.006245 
2821.857808  	0.006195 
2823.786624  	0.006073 
2825.715440  	0.005994 
2827.644256  	0.005826 
2829.573072  	0.005722 
2831.501888  	0.005542 
2833.430704  	0.005177 
2835.359520  	0.004816 
2837.288336  	0.004507 
2839.217152  	0.004208 
2841.145968  	0.003889 
2843.074784  	0.003545 
2845.003600  	0.003086 
2846.932416  	0.002580 
2848.861232  	0.002235 
2850.790048  	0.001841 
2852.718864  	0.001417 
2854.647680  	0.000987 
2856.576496  	0.000423 
2858.505312  	-0.000199 
2860.434128  	-0.000801 
2862.362944  	-0.001588 
2864.291760  	-0.002438 
2866.220576  	-0.003104 
2868.149392  	-0.003499 
2870.078208  	-0.003738 
2872.007024  	-0.003859 
2873.935840  	-0.003761 
2875.864656  	-0.003694 
2877.793472  	-0.003812 
2879.722288  	-0.004013 
2881.651104  	-0.004354 
2883.579920  	-0.004539 
2885.508736  	-0.004391 
2887.437552  	-0.004200 
2889.366368  	-0.004185 
2891.295184  	-0.004445 
2893.224000  	-0.004612 
2895.152816  	-0.004486 
2897.081632  	-0.004765 
2899.010448  	-0.006526 
2900.939264  	-0.008061 
2902.868080  	-0.006768 
2904.796896  	-0.005363 
2906.725712  	-0.004820 
2908.654528  	-0.004187 
2910.583344  	-0.003745 
2912.512160  	-0.003213 
2914.440976  	-0.002051 
2916.369792  	-0.001236 
2918.298608  	-0.000772 
2920.227424  	-0.000210 
2922.156240  	0.000611 
2924.085056  	0.001475 
2926.013872  	0.002384 
2927.942688  	0.003335 
2929.871504  	0.004328 
2931.800320  	0.005227 
2933.729136  	0.005934 
2935.657952  	0.006452 
2937.586768  	0.007057 
2939.515584  	0.007774 
2941.444400  	0.008099 
2943.373216  	0.008090 
2945.302032  	0.008311 
2947.230848  	0.008550 
2949.159664  	0.008366 
2951.088480  	0.007885 
2953.017296  	0.007342 
2954.946112  	0.006639 
2956.874928  	0.005905 
2958.803744  	0.005243 
2960.732560  	0.004724 
2962.661376  	0.003948 
2964.590192  	0.002913 
2966.519008  	0.001693 
2968.447824  	0.000643 
2970.376640  	-0.000156 
2972.305456  	-0.000588 
2974.234272  	-0.000319 
2976.163088  	0.000011 
2978.091904  	-0.000039 
2980.020720  	-0.000053 
2981.949536  	0.000201 
2983.878352  	-0.000031 
2985.807168  	-0.001001 
2987.735984  	-0.001925 
2989.664800  	-0.001605 
2991.593616  	0.001487 
2993.522432  	0.003550 
2995.451248  	0.004164 
2997.380064  	0.005002 
2999.308880  	0.006281 
3001.237696  	0.007693 
3003.166512  	0.009120 
3005.095328  	0.010506 
3007.024144  	0.011916 
3008.952960  	0.013361 
3010.881776  	0.014846 
3012.810592  	0.016288 
3014.739408  	0.017611 
3016.668224  	0.018754 
3018.597040  	0.020046 
3020.525856  	0.021294 
3022.454672  	0.022362 
3024.383488  	0.023463 
3026.312304  	0.024449 
3028.241120  	0.025435 
3030.169936  	0.026489 
3032.098752  	0.027216 
3034.027568  	0.027928 
3035.956384  	0.028903 
3037.885200  	0.029834 
3039.814016  	0.030469 
3041.742832  	0.031128 
3043.671648  	0.031749 
3045.600464  	0.032395 
3047.529280  	0.032798 
3049.458096  	0.033198 
3051.386912  	0.034044 
3053.315728  	0.034788 
3055.244544  	0.035288 
3057.173360  	0.035829 
3059.102176  	0.036422 
3061.030992  	0.037032 
3062.959808  	0.037820 
3064.888624  	0.038607 
3066.817440  	0.039152 
3068.746256  	0.040010 
3070.675072  	0.040848 
3072.603888  	0.041418 
3074.532704  	0.042094 
3076.461520  	0.043009 
3078.390336  	0.043907 
3080.319152  	0.044646 
3082.247968  	0.045368 
3084.176784  	0.046118 
3086.105600  	0.046826 
3088.034416  	0.047671 
3089.963232  	0.048534 
3091.892048  	0.049101 
3093.820864  	0.049813 
3095.749680  	0.050431 
3097.678496  	0.051310 
3099.607312  	0.052374 
3101.536128  	0.053217 
3103.464944  	0.054208 
3105.393760  	0.054994 
3107.322576  	0.055718 
3109.251392  	0.056463 
3111.180208  	0.057053 
3113.109024  	0.057734 
3115.037840  	0.058496 
3116.966656  	0.059128 
3118.895472  	0.059839 
3120.824288  	0.060496 
3122.753104  	0.061265 
3124.681920  	0.061942 
3126.610736  	0.062523 
3128.539552  	0.063234 
3130.468368  	0.063852 
3132.397184  	0.064442 
3134.326000  	0.065208 
3136.254816  	0.065814 
3138.183632  	0.066342 
3140.112448  	0.067032 
3142.041264  	0.067680 
3143.970080  	0.068174 
3145.898896  	0.068848 
3147.827712  	0.069642 
3149.756528  	0.070262 
3151.685344  	0.070734 
3153.614160  	0.071445 
3155.542976  	0.072257 
3157.471792  	0.073018 
3159.400608  	0.073708 
3161.329424  	0.074265 
3163.258240  	0.074704 
3165.187056  	0.075300 
3167.115872  	0.075845 
3169.044688  	0.076294 
3170.973504  	0.076820 
3172.902320  	0.077358 
3174.831136  	0.077967 
3176.759952  	0.078503 
3178.688768  	0.078771 
3180.617584  	0.079192 
3182.546400  	0.079656 
3184.475216  	0.079935 
3186.404032  	0.080027 
3188.332848  	0.080302 
3190.261664  	0.080737 
3192.190480  	0.080999 
3194.119296  	0.081163 
3196.048112  	0.081435 
3197.976928  	0.081425 
3199.905744  	0.081427 
3201.834560  	0.081394 
3203.763376  	0.081264 
3205.692192  	0.081196 
3207.621008  	0.081084 
3209.549824  	0.080992 
3211.478640  	0.081058 
3213.407456  	0.081105 
3215.336272  	0.080946 
3217.265088  	0.080815 
3219.193904  	0.080496 
3221.122720  	0.080280 
3223.051536  	0.080191 
3224.980352  	0.080134 
3226.909168  	0.079998 
3228.837984  	0.079679 
3230.766800  	0.079598 
3232.695616  	0.079615 
3234.624432  	0.079516 
3236.553248  	0.079518 
3238.482064  	0.079554 
3240.410880  	0.079583 
3242.339696  	0.079726 
3244.268512  	0.079489 
3246.197328  	0.079547 
3248.126144  	0.079881 
3250.054960  	0.080048 
3251.983776  	0.080101 
3253.912592  	0.080148 
3255.841408  	0.080584 
3257.770224  	0.080950 
3259.699040  	0.081157 
3261.627856  	0.081522 
3263.556672  	0.081806 
3265.485488  	0.081932 
3267.414304  	0.082226 
3269.343120  	0.082721 
3271.271936  	0.083082 
3273.200752  	0.082972 
3275.129568  	0.082917 
3277.058384  	0.083268 
3278.987200  	0.083576 
3280.916016  	0.083834 
3282.844832  	0.083895 
3284.773648  	0.084147 
3286.702464  	0.084521 
3288.631280  	0.084887 
3290.560096  	0.085248 
3292.488912  	0.085557 
3294.417728  	0.085730 
3296.346544  	0.086056 
3298.275360  	0.086483 
3300.204176  	0.086931 
3302.132992  	0.087279 
3304.061808  	0.087428 
3305.990624  	0.087929 
3307.919440  	0.088354 
3309.848256  	0.088725 
3311.777072  	0.089100 
3313.705888  	0.089417 
3315.634704  	0.090072 
3317.563520  	0.090514 
3319.492336  	0.090745 
3321.421152  	0.091011 
3323.349968  	0.091351 
3325.278784  	0.091481 
3327.207600  	0.091579 
3329.136416  	0.091599 
3331.065232  	0.091911 
3332.994048  	0.092194 
3334.922864  	0.092399 
3336.851680  	0.092430 
3338.780496  	0.092411 
3340.709312  	0.092381 
3342.638128  	0.092266 
3344.566944  	0.091991 
3346.495760  	0.091672 
3348.424576  	0.091303 
3350.353392  	0.090901 
3352.282208  	0.090646 
3354.211024  	0.090381 
3356.139840  	0.090210 
3358.068656  	0.090004 
3359.997472  	0.089664 
3361.926288  	0.089218 
3363.855104  	0.088811 
3365.783920  	0.088374 
3367.712736  	0.088047 
3369.641552  	0.087789 
3371.570368  	0.087174 
3373.499184  	0.086742 
3375.428000  	0.086351 
3377.356816  	0.086026 
3379.285632  	0.085883 
3381.214448  	0.085477 
3383.143264  	0.085080 
3385.072080  	0.084721 
3387.000896  	0.084321 
3388.929712  	0.084069 
3390.858528  	0.083610 
3392.787344  	0.082978 
3394.716160  	0.082524 
3396.644976  	0.082397 
3398.573792  	0.082030 
3400.502608  	0.081559 
3402.431424  	0.081032 
3404.360240  	0.080401 
3406.289056  	0.079747 
3408.217872  	0.079439 
3410.146688  	0.079052 
3412.075504  	0.078602 
3414.004320  	0.078018 
3415.933136  	0.077461 
3417.861952  	0.076930 
3419.790768  	0.076511 
3421.719584  	0.075968 
3423.648400  	0.075464 
3425.577216  	0.074856 
3427.506032  	0.074262 
3429.434848  	0.073767 
3431.363664  	0.073185 
3433.292480  	0.072656 
3435.221296  	0.071963 
3437.150112  	0.071470 
3439.078928  	0.071230 
3441.007744  	0.070523 
3442.936560  	0.069800 
3444.865376  	0.069543 
3446.794192  	0.068734 
3448.723008  	0.067747 
3450.651824  	0.067241 
3452.580640  	0.066666 
3454.509456  	0.066072 
3456.438272  	0.065342 
3458.367088  	0.064719 
3460.295904  	0.064160 
3462.224720  	0.063327 
3464.153536  	0.062486 
3466.082352  	0.061728 
3468.011168  	0.060856 
3469.939984  	0.060211 
3471.868800  	0.059473 
3473.797616  	0.058496 
3475.726432  	0.057556 
3477.655248  	0.056940 
3479.584064  	0.056582 
3481.512880  	0.055660 
3483.441696  	0.054425 
3485.370512  	0.053801 
3487.299328  	0.052848 
3489.228144  	0.051914 
3491.156960  	0.051201 
3493.085776  	0.050503 
3495.014592  	0.049647 
3496.943408  	0.048962 
3498.872224  	0.048629 
3500.801040  	0.048643 
3502.729856  	0.047632 
3504.658672  	0.046102 
3506.587488  	0.045615 
3508.516304  	0.045216 
3510.445120  	0.044398 
3512.373936  	0.043504 
3514.302752  	0.042748 
3516.231568  	0.042493 
3518.160384  	0.041987 
3520.089200  	0.041298 
3522.018016  	0.041084 
3523.946832  	0.041080 
3525.875648  	0.040231 
3527.804464  	0.038545 
3529.733280  	0.037514 
3531.662096  	0.036992 
3533.590912  	0.036524 
3535.519728  	0.036209 
3537.448544  	0.035576 
3539.377360  	0.034669 
3541.306176  	0.034075 
3543.234992  	0.034098 
3545.163808  	0.034393 
3547.092624  	0.033295 
3549.021440  	0.031802 
3550.950256  	0.031202 
3552.879072  	0.030119 
3554.807888  	0.029352 
3556.736704  	0.029023 
3558.665520  	0.028967 
3560.594336  	0.028795 
3562.523152  	0.027967 
3564.451968  	0.027917 
3566.380784  	0.027922 
3568.309600  	0.025681 
3570.238416  	0.024420 
3572.167232  	0.023973 
3574.096048  	0.023093 
3576.024864  	0.022144 
3577.953680  	0.021763 
3579.882496  	0.021296 
3581.811312  	0.020627 
3583.740128  	0.020142 
3585.668944  	0.020201 
3587.597760  	0.018697 
3589.526576  	0.016974 
3591.455392  	0.016627 
3593.384208  	0.016148 
3595.313024  	0.014996 
3597.241840  	0.013552 
3599.170656  	0.011943 
3601.099472  	0.010842 
3603.028288  	0.011106 
3604.957104  	0.011381 
3606.885920  	0.010705 
3608.814736  	0.008987 
3610.743552  	0.008575 
3612.672368  	0.007466 
3614.601184  	0.005954 
3616.530000  	0.005894 
3618.458816  	0.003644 
3620.387632  	0.001563 
3622.316448  	0.002086 
3624.245264  	0.002217 
3626.174080  	0.002161 
3628.102896  	-0.001098 
3630.031712  	-0.005337 
3631.960528  	-0.002952 
3633.889344  	-0.003051 
3635.818160  	-0.003847 
3637.746976  	-0.004676 
3639.675792  	-0.004935 
3641.604608  	-0.004880 
3643.533424  	-0.005003 
3645.462240  	-0.005524 
3647.391056  	-0.009193 
3649.319872  	-0.014545 
3651.248688  	-0.016091 
3653.177504  	-0.012531 
3655.106320  	-0.012620 
3657.035136  	-0.015371 
3658.963952  	-0.014737 
3660.892768  	-0.014640 
3662.821584  	-0.014955 
3664.750400  	-0.014833 
3666.679216  	-0.014780 
3668.608032  	-0.017217 
3670.536848  	-0.021399 
3672.465664  	-0.018596 
3674.394480  	-0.020031 
3676.323296  	-0.025732 
3678.252112  	-0.020804 
3680.180928  	-0.018462 
3682.109744  	-0.017591 
3684.038560  	-0.017678 
3685.967376  	-0.017568 
3687.896192  	-0.021006 
3689.825008  	-0.025012 
3691.753824  	-0.023459 
3693.682640  	-0.020143 
3695.611456  	-0.018582 
3697.540272  	-0.017746 
3699.469088  	-0.017015 
3701.397904  	-0.018416 
3703.326720  	-0.018517 
3705.255536  	-0.016537 
3707.184352  	-0.015981 
3709.113168  	-0.017714 
3711.041984  	-0.020345 
3712.970800  	-0.019274 
3714.899616  	-0.015582 
3716.828432  	-0.014664 
3718.757248  	-0.015079 
3720.686064  	-0.015737 
3722.614880  	-0.016718 
3724.543696  	-0.015997 
3726.472512  	-0.016362 
3728.401328  	-0.016261 
3730.330144  	-0.016533 
3732.258960  	-0.018691 
3734.187776  	-0.017989 
3736.116592  	-0.019170 
3738.045408  	-0.018569 
3739.974224  	-0.016064 
3741.903040  	-0.014365 
3743.831856  	-0.017340 
3745.760672  	-0.019935 
3747.689488  	-0.017154 
3749.618304  	-0.020191 
3751.547120  	-0.022701 
3753.475936  	-0.019708 
3755.404752  	-0.016352 
3757.333568  	-0.015809 
3759.262384  	-0.016768 
3761.191200  	-0.016610 
3763.120016  	-0.014403 
3765.048832  	-0.015147 
3766.977648  	-0.015278 
3768.906464  	-0.016252 
3770.835280  	-0.017213 
3772.764096  	-0.014961 
3774.692912  	-0.013942 
3776.621728  	-0.013903 
3778.550544  	-0.015571 
3780.479360  	-0.016749 
3782.408176  	-0.014964 
3784.336992  	-0.015333 
3786.265808  	-0.015294 
3788.194624  	-0.014694 
3790.123440  	-0.014624 
3792.052256  	-0.014514 
3793.981072  	-0.014210 
3795.909888  	-0.015845 
3797.838704  	-0.015845 
3799.767520  	-0.016248 
3801.696336  	-0.021521 
3803.625152  	-0.018805 
3805.553968  	-0.016993 
3807.482784  	-0.019149 
3809.411600  	-0.016274 
3811.340416  	-0.014288 
3813.269232  	-0.013773 
3815.198048  	-0.016935 
3817.126864  	-0.018945 
3819.055680  	-0.016959 
3820.984496  	-0.020924 
3822.913312  	-0.019392 
3824.842128  	-0.015857 
3826.770944  	-0.016505 
3828.699760  	-0.015651 
3830.628576  	-0.015701 
3832.557392  	-0.016617 
3834.486208  	-0.016341 
3836.415024  	-0.017726 
3838.343840  	-0.019872 
3840.272656  	-0.018991 
3842.201472  	-0.017113 
3844.130288  	-0.016601 
3846.059104  	-0.015107 
3847.987920  	-0.013954 
3849.916736  	-0.013984 
3851.845552  	-0.016901 
3853.774368  	-0.023955 
3855.703184  	-0.020142 
3857.632000  	-0.015926 
3859.560816  	-0.014188 
3861.489632  	-0.014502 
3863.418448  	-0.015688 
3865.347264  	-0.016290 
3867.276080  	-0.014332 
3869.204896  	-0.015855 
3871.133712  	-0.016675 
3873.062528  	-0.015431 
3874.991344  	-0.016294 
3876.920160  	-0.014109 
3878.848976  	-0.013490 
3880.777792  	-0.014773 
3882.706608  	-0.013674 
3884.635424  	-0.013960 
3886.564240  	-0.015842 
3888.493056  	-0.014247 
3890.421872  	-0.014895 
3892.350688  	-0.016237 
3894.279504  	-0.014549 
3896.208320  	-0.013195 
3898.137136  	-0.013131 
3900.065952  	-0.013844 
3901.994768  	-0.013903 
3903.923584  	-0.015128 
3905.852400  	-0.015523 
3907.781216  	-0.014751 
3909.710032  	-0.014360 
3911.638848  	-0.014160 
3913.567664  	-0.013776 
3915.496480  	-0.013231 
3917.425296  	-0.013466 
3919.354112  	-0.013938 
3921.282928  	-0.013774 
3923.211744  	-0.013119 
3925.140560  	-0.013471 
3927.069376  	-0.013631 
3928.998192  	-0.013428 
3930.927008  	-0.012904 
3932.855824  	-0.013039 
3934.784640  	-0.013649 
3936.713456  	-0.013703 
3938.642272  	-0.013389 
3940.571088  	-0.012938 
3942.499904  	-0.012997 
3944.428720  	-0.013296 
3946.357536  	-0.012712 
3948.286352  	-0.012572 
3950.215168  	-0.013473 
3952.143984  	-0.014164 
3954.072800  	-0.014030 
3956.001616  	-0.013867 
3957.930432  	-0.013939 
3959.859248  	-0.013754 
3961.788064  	-0.013717 
3963.716880  	-0.014051 
3965.645696  	-0.014319 
3967.574512  	-0.014106 
3969.503328  	-0.013833 
3971.432144  	-0.013996 
3973.360960  	-0.014073 
3975.289776  	-0.013951 
3977.218592  	-0.013838 
3979.147408  	-0.013936 
3981.076224  	-0.013939 
3983.005040  	-0.013841 
3984.933856  	-0.013830 
3986.862672  	-0.013916 
3988.791488  	-0.013606 
3990.720304  	-0.013424 
3992.649120  	-0.013688 
3994.577936  	-0.013920 
3996.506752  	-0.013951 
3998.435568  	-0.013940 
4000.364384  	-0.013884 