##TITLE=No Description
##DATA TYPE=INFRARED SPECTRUM
##XUNITS=1/CM
##YUNITS=Abs
399.264912  	0.634029 
401.193728  	0.580894 
403.122544  	0.596317 
405.051360  	0.608904 
406.980176  	0.614898 
408.908992  	0.610340 
410.837808  	0.612573 
412.766624  	0.599813 
414.695440  	0.587253 
416.624256  	0.574999 
418.553072  	0.577089 
420.481888  	0.571972 
422.410704  	0.584623 
424.339520  	0.584370 
426.268336  	0.574475 
428.197152  	0.563006 
430.125968  	0.565381 
432.054784  	0.559173 
433.983600  	0.549135 
435.912416  	0.543189 
437.841232  	0.550182 
439.770048  	0.549461 
441.698864  	0.550938 
443.627680  	0.541943 
445.556496  	0.537321 
447.485312  	0.536303 
449.414128  	0.538219 
451.342944  	0.539688 
453.271760  	0.542161 
455.200576  	0.538573 
457.129392  	0.540312 
459.058208  	0.534912 
460.987024  	0.538155 
462.915840  	0.538276 
464.844656  	0.535724 
466.773472  	0.527875 
468.702288  	0.532787 
470.631104  	0.535036 
472.559920  	0.533435 
474.488736  	0.525997 
476.417552  	0.525224 
478.346368  	0.521128 
480.275184  	0.522709 
482.204000  	0.519883 
484.132816  	0.519321 
486.061632  	0.520024 
487.990448  	0.527037 
489.919264  	0.523189 
491.848080  	0.518241 
493.776896  	0.513593 
495.705712  	0.513531 
497.634528  	0.512998 
499.563344  	0.513620 
501.492160  	0.512441 
503.420976  	0.514821 
505.349792  	0.511155 
507.278608  	0.507612 
509.207424  	0.508721 
511.136240  	0.513490 
513.065056  	0.511541 
514.993872  	0.510760 
516.922688  	0.510493 
518.851504  	0.513030 
520.780320  	0.513557 
522.709136  	0.513949 
524.637952  	0.514459 
526.566768  	0.511907 
528.495584  	0.507490 
530.424400  	0.506226 
532.353216  	0.500991 
534.282032  	0.495192 
536.210848  	0.489135 
538.139664  	0.487584 
540.068480  	0.483314 
541.997296  	0.479241 
543.926112  	0.475540 
545.854928  	0.471998 
547.783744  	0.467446 
549.712560  	0.465087 
551.641376  	0.461773 
553.570192  	0.458597 
555.499008  	0.455415 
557.427824  	0.452739 
559.356640  	0.448729 
561.285456  	0.445677 
563.214272  	0.442061 
565.143088  	0.439301 
567.071904  	0.435140 
569.000720  	0.432611 
570.929536  	0.430130 
572.858352  	0.427469 
574.787168  	0.425012 
576.715984  	0.423222 
578.644800  	0.418856 
580.573616  	0.414940 
582.502432  	0.410399 
584.431248  	0.407579 
586.360064  	0.404266 
588.288880  	0.402098 
590.217696  	0.399980 
592.146512  	0.398104 
594.075328  	0.395493 
596.004144  	0.393568 
597.932960  	0.391530 
599.861776  	0.389772 
601.790592  	0.387554 
603.719408  	0.385991 
605.648224  	0.384293 
607.577040  	0.383005 
609.505856  	0.380709 
611.434672  	0.379193 
613.363488  	0.377528 
615.292304  	0.376143 
617.221120  	0.374007 
619.149936  	0.372682 
621.078752  	0.370454 
623.007568  	0.369404 
624.936384  	0.368612 
626.865200  	0.367544 
628.794016  	0.365423 
630.722832  	0.364443 
632.651648  	0.363474 
634.580464  	0.362694 
636.509280  	0.361992 
638.438096  	0.361682 
640.366912  	0.360763 
642.295728  	0.358300 
644.224544  	0.355342 
646.153360  	0.352552 
648.082176  	0.348152 
650.010992  	0.344438 
651.939808  	0.340483 
653.868624  	0.337072 
655.797440  	0.333456 
657.726256  	0.330478 
659.655072  	0.326906 
661.583888  	0.323128 
663.512704  	0.319496 
665.441520  	0.316212 
667.370336  	0.307797 
669.299152  	0.302343 
671.227968  	0.302820 
673.156784  	0.300507 
675.085600  	0.297827 
677.014416  	0.295442 
678.943232  	0.293050 
680.872048  	0.291071 
682.800864  	0.289386 
684.729680  	0.288219 
686.658496  	0.286831 
688.587312  	0.285607 
690.516128  	0.284256 
692.444944  	0.282764 
694.373760  	0.281421 
696.302576  	0.280132 
698.231392  	0.277791 
700.160208  	0.275140 
702.089024  	0.272525 
704.017840  	0.270293 
705.946656  	0.267803 
707.875472  	0.265467 
709.804288  	0.263273 
711.733104  	0.261476 
713.661920  	0.259477 
715.590736  	0.257931 
717.519552  	0.257132 
719.448368  	0.256834 
721.377184  	0.256119 
723.306000  	0.255970 
725.234816  	0.256146 
727.163632  	0.255683 
729.092448  	0.253590 
731.021264  	0.250560 
732.950080  	0.247482 
734.878896  	0.244684 
736.807712  	0.241753 
738.736528  	0.239118 
740.665344  	0.237038 
742.594160  	0.235409 
744.522976  	0.233763 
746.451792  	0.232082 
748.380608  	0.230181 
750.309424  	0.228798 
752.238240  	0.227875 
754.167056  	0.226679 
756.095872  	0.225206 
758.024688  	0.224020 
759.953504  	0.222986 
761.882320  	0.223275 
763.811136  	0.223226 
765.739952  	0.221877 
767.668768  	0.219641 
769.597584  	0.217240 
771.526400  	0.215816 
773.455216  	0.216361 
775.384032  	0.218478 
777.312848  	0.221858 
779.241664  	0.224702 
781.170480  	0.225084 
783.099296  	0.222200 
785.028112  	0.217183 
786.956928  	0.211482 
788.885744  	0.206814 
790.814560  	0.203523 
792.743376  	0.201048 
794.672192  	0.199453 
796.601008  	0.198404 
798.529824  	0.195659 
800.458640  	0.191531 
802.387456  	0.187972 
804.316272  	0.185841 
806.245088  	0.184350 
808.173904  	0.183216 
810.102720  	0.182616 
812.031536  	0.182285 
813.960352  	0.181996 
815.889168  	0.181662 
817.817984  	0.181429 
819.746800  	0.181101 
821.675616  	0.180698 
823.604432  	0.180146 
825.533248  	0.179627 
827.462064  	0.178785 
829.390880  	0.177722 
831.319696  	0.176491 
833.248512  	0.174673 
835.177328  	0.172309 
837.106144  	0.169760 
839.034960  	0.166825 
840.963776  	0.163498 
842.892592  	0.160343 
844.821408  	0.157233 
846.750224  	0.154346 
848.679040  	0.151757 
850.607856  	0.149445 
852.536672  	0.147552 
854.465488  	0.145939 
856.394304  	0.144380 
858.323120  	0.142771 
860.251936  	0.140707 
862.180752  	0.138573 
864.109568  	0.136267 
866.038384  	0.133698 
867.967200  	0.131426 
869.896016  	0.129546 
871.824832  	0.128275 
873.753648  	0.127795 
875.682464  	0.128206 
877.611280  	0.128427 
879.540096  	0.128801 
881.468912  	0.130164 
883.397728  	0.131178 
885.326544  	0.132104 
887.255360  	0.132338 
889.184176  	0.131315 
891.112992  	0.129346 
893.041808  	0.127872 
894.970624  	0.125829 
896.899440  	0.122769 
898.828256  	0.119163 
900.757072  	0.115639 
902.685888  	0.112748 
904.614704  	0.111033 
906.543520  	0.110942 
908.472336  	0.112016 
910.401152  	0.113910 
912.329968  	0.116219 
914.258784  	0.118691 
916.187600  	0.121078 
918.116416  	0.122905 
920.045232  	0.124226 
921.974048  	0.125045 
923.902864  	0.125366 
925.831680  	0.125127 
927.760496  	0.124912 
929.689312  	0.124918 
931.618128  	0.125325 
933.546944  	0.125632 
935.475760  	0.125832 
937.404576  	0.125572 
939.333392  	0.124968 
941.262208  	0.124619 
943.191024  	0.125348 
945.119840  	0.128211 
947.048656  	0.132667 
948.977472  	0.138495 
950.906288  	0.145753 
952.835104  	0.154053 
954.763920  	0.162976 
956.692736  	0.171545 
958.621552  	0.179194 
960.550368  	0.184859 
962.479184  	0.188036 
964.408000  	0.187812 
966.336816  	0.184298 
968.265632  	0.177591 
970.194448  	0.168190 
972.123264  	0.157079 
974.052080  	0.145469 
975.980896  	0.133878 
977.909712  	0.122993 
979.838528  	0.113304 
981.767344  	0.105037 
983.696160  	0.098625 
985.624976  	0.094392 
987.553792  	0.092476 
989.482608  	0.092771 
991.411424  	0.095027 
993.340240  	0.098653 
995.269056  	0.103265 
997.197872  	0.108483 
999.126688  	0.113771 
1001.055504  	0.119057 
1002.984320  	0.124402 
1004.913136  	0.129737 
1006.841952  	0.134983 
1008.770768  	0.139290 
1010.699584  	0.142254 
1012.628400  	0.144178 
1014.557216  	0.145025 
1016.486032  	0.145127 
1018.414848  	0.144726 
1020.343664  	0.144457 
1022.272480  	0.143795 
1024.201296  	0.142409 
1026.130112  	0.139201 
1028.058928  	0.137823 
1029.987744  	0.140507 
1031.916560  	0.141957 
1033.845376  	0.142541 
1035.774192  	0.142834 
1037.703008  	0.144417 
1039.631824  	0.149232 
1041.560640  	0.156181 
1043.489456  	0.165613 
1045.418272  	0.177407 
1047.347088  	0.191095 
1049.275904  	0.204353 
1051.204720  	0.215488 
1053.133536  	0.222993 
1055.062352  	0.226986 
1056.991168  	0.227776 
1058.919984  	0.229775 
1060.848800  	0.231844 
1062.777616  	0.230477 
1064.706432  	0.225105 
1066.635248  	0.220762 
1068.564064  	0.220196 
1070.492880  	0.216653 
1072.421696  	0.209987 
1074.350512  	0.205001 
1076.279328  	0.203299 
1078.208144  	0.205321 
1080.136960  	0.210047 
1082.065776  	0.215977 
1083.994592  	0.220459 
1085.923408  	0.222555 
1087.852224  	0.221827 
1089.781040  	0.219278 
1091.709856  	0.215328 
1093.638672  	0.209223 
1095.567488  	0.199947 
1097.496304  	0.189208 
1099.425120  	0.177749 
1101.353936  	0.166041 
1103.282752  	0.154757 
1105.211568  	0.144121 
1107.140384  	0.133771 
1109.069200  	0.123963 
1110.998016  	0.114938 
1112.926832  	0.106776 
1114.855648  	0.099353 
1116.784464  	0.092415 
1118.713280  	0.085960 
1120.642096  	0.079703 
1122.570912  	0.073700 
1124.499728  	0.068277 
1126.428544  	0.063525 
1128.357360  	0.058928 
1130.286176  	0.055097 
1132.214992  	0.052092 
1134.143808  	0.049802 
1136.072624  	0.047828 
1138.001440  	0.046036 
1139.930256  	0.044001 
1141.859072  	0.041927 
1143.787888  	0.039772 
1145.716704  	0.037794 
1147.645520  	0.035875 
1149.574336  	0.034390 
1151.503152  	0.032965 
1153.431968  	0.032218 
1155.360784  	0.032268 
1157.289600  	0.032926 
1159.218416  	0.033942 
1161.147232  	0.035581 
1163.076048  	0.037316 
1165.004864  	0.039309 
1166.933680  	0.041055 
1168.862496  	0.043049 
1170.791312  	0.044958 
1172.720128  	0.047300 
1174.648944  	0.049623 
1176.577760  	0.051870 
1178.506576  	0.054126 
1180.435392  	0.056656 
1182.364208  	0.058819 
1184.293024  	0.061349 
1186.221840  	0.064176 
1188.150656  	0.067324 
1190.079472  	0.070981 
1192.008288  	0.075655 
1193.937104  	0.081198 
1195.865920  	0.087503 
1197.794736  	0.094391 
1199.723552  	0.102077 
1201.652368  	0.109849 
1203.581184  	0.117886 
1205.510000  	0.125834 
1207.438816  	0.133310 
1209.367632  	0.140383 
1211.296448  	0.146802 
1213.225264  	0.152216 
1215.154080  	0.156235 
1217.082896  	0.159320 
1219.011712  	0.161595 
1220.940528  	0.163241 
1222.869344  	0.164257 
1224.798160  	0.164556 
1226.726976  	0.164152 
1228.655792  	0.163481 
1230.584608  	0.162237 
1232.513424  	0.160572 
1234.442240  	0.158406 
1236.371056  	0.155609 
1238.299872  	0.151764 
1240.228688  	0.145523 
1242.157504  	0.139398 
1244.086320  	0.134348 
1246.015136  	0.127743 
1247.943952  	0.120249 
1249.872768  	0.112830 
1251.801584  	0.106621 
1253.730400  	0.100381 
1255.659216  	0.094084 
1257.588032  	0.088254 
1259.516848  	0.082742 
1261.445664  	0.077619 
1263.374480  	0.072864 
1265.303296  	0.068862 
1267.232112  	0.065756 
1269.160928  	0.063352 
1271.089744  	0.061492 
1273.018560  	0.060437 
1274.947376  	0.060187 
1276.876192  	0.060471 
1278.805008  	0.060395 
1280.733824  	0.059498 
1282.662640  	0.057691 
1284.591456  	0.055437 
1286.520272  	0.053566 
1288.449088  	0.052353 
1290.377904  	0.051594 
1292.306720  	0.051674 
1294.235536  	0.051722 
1296.164352  	0.051013 
1298.093168  	0.048946 
1300.021984  	0.046241 
1301.950800  	0.043509 
1303.879616  	0.041000 
1305.808432  	0.038228 
1307.737248  	0.035485 
1309.666064  	0.032880 
1311.594880  	0.031165 
1313.523696  	0.029795 
1315.452512  	0.028686 
1317.381328  	0.028041 
1319.310144  	0.027874 
1321.238960  	0.027847 
1323.167776  	0.028314 
1325.096592  	0.029070 
1327.025408  	0.029594 
1328.954224  	0.029543 
1330.883040  	0.029166 
1332.811856  	0.028319 
1334.740672  	0.027968 
1336.669488  	0.028226 
1338.598304  	0.028791 
1340.527120  	0.027478 
1342.455936  	0.025342 
1344.384752  	0.024736 
1346.313568  	0.024901 
1348.242384  	0.025360 
1350.171200  	0.026445 
1352.100016  	0.027884 
1354.028832  	0.029585 
1355.957648  	0.031114 
1357.886464  	0.032855 
1359.815280  	0.035068 
1361.744096  	0.037500 
1363.672912  	0.038498 
1365.601728  	0.038946 
1367.530544  	0.040014 
1369.459360  	0.040379 
1371.388176  	0.040021 
1373.316992  	0.039023 
1375.245808  	0.036150 
1377.174624  	0.033717 
1379.103440  	0.031163 
1381.032256  	0.028293 
1382.961072  	0.026062 
1384.889888  	0.025520 
1386.818704  	0.025480 
1388.747520  	0.023844 
1390.676336  	0.021426 
1392.605152  	0.018223 
1394.533968  	0.016657 
1396.462784  	0.019730 
1398.391600  	0.020764 
1400.320416  	0.019686 
1402.249232  	0.019693 
1404.178048  	0.020308 
1406.106864  	0.020799 
1408.035680  	0.022304 
1409.964496  	0.024651 
1411.893312  	0.027382 
1413.822128  	0.030083 
1415.750944  	0.033724 
1417.679760  	0.036304 
1419.608576  	0.036041 
1421.537392  	0.036324 
1423.466208  	0.036668 
1425.395024  	0.035333 
1427.323840  	0.034096 
1429.252656  	0.031954 
1431.181472  	0.030607 
1433.110288  	0.030682 
1435.039104  	0.031055 
1436.967920  	0.030413 
1438.896736  	0.030887 
1440.825552  	0.031791 
1442.754368  	0.032265 
1444.683184  	0.032381 
1446.612000  	0.032160 
1448.540816  	0.031116 
1450.469632  	0.031653 
1452.398448  	0.032531 
1454.327264  	0.033274 
1456.256080  	0.032322 
1458.184896  	0.029905 
1460.113712  	0.031616 
1462.042528  	0.032993 
1463.971344  	0.032383 
1465.900160  	0.032866 
1467.828976  	0.035523 
1469.757792  	0.038266 
1471.686608  	0.040471 
1473.615424  	0.045377 
1475.544240  	0.051432 
1477.473056  	0.056420 
1479.401872  	0.059851 
1481.330688  	0.062760 
1483.259504  	0.064629 
1485.188320  	0.065960 
1487.117136  	0.065781 
1489.045952  	0.065453 
1490.974768  	0.062932 
1492.903584  	0.060882 
1494.832400  	0.057851 
1496.761216  	0.051851 
1498.690032  	0.046817 
1500.618848  	0.044072 
1502.547664  	0.040945 
1504.476480  	0.036457 
1506.405296  	0.030239 
1508.334112  	0.030426 
1510.262928  	0.030946 
1512.191744  	0.028988 
1514.120560  	0.027970 
1516.049376  	0.027070 
1517.978192  	0.025745 
1519.907008  	0.026611 
1521.835824  	0.026214 
1523.764640  	0.030292 
1525.693456  	0.034619 
1527.622272  	0.036847 
1529.551088  	0.037648 
1531.479904  	0.037447 
1533.408720  	0.033650 
1535.337536  	0.031400 
1537.266352  	0.029292 
1539.195168  	0.020877 
1541.123984  	0.014993 
1543.052800  	0.019234 
1544.981616  	0.020603 
1546.910432  	0.020189 
1548.839248  	0.020680 
1550.768064  	0.020811 
1552.696880  	0.020042 
1554.625696  	0.019806 
1556.554512  	0.018853 
1558.483328  	0.014790 
1560.412144  	0.020131 
1562.340960  	0.027370 
1564.269776  	0.030547 
1566.198592  	0.034974 
1568.127408  	0.038104 
1570.056224  	0.042076 
1571.985040  	0.048860 
1573.913856  	0.052572 
1575.842672  	0.052363 
1577.771488  	0.055785 
1579.700304  	0.058395 
1581.629120  	0.058428 
1583.557936  	0.057875 
1585.486752  	0.058482 
1587.415568  	0.060342 
1589.344384  	0.063948 
1591.273200  	0.068798 
1593.202016  	0.074764 
1595.130832  	0.081173 
1597.059648  	0.088072 
1598.988464  	0.093951 
1600.917280  	0.099170 
1602.846096  	0.102646 
1604.774912  	0.104969 
1606.703728  	0.105374 
1608.632544  	0.104666 
1610.561360  	0.103119 
1612.490176  	0.102051 
1614.418992  	0.099639 
1616.347808  	0.095932 
1618.276624  	0.097470 
1620.205440  	0.102085 
1622.134256  	0.103957 
1624.063072  	0.108427 
1625.991888  	0.114721 
1627.920704  	0.121584 
1629.849520  	0.130671 
1631.778336  	0.139198 
1633.707152  	0.143997 
1635.635968  	0.149511 
1637.564784  	0.160491 
1639.493600  	0.169062 
1641.422416  	0.174618 
1643.351232  	0.178493 
1645.280048  	0.178603 
1647.208864  	0.178352 
1649.137680  	0.181409 
1651.066496  	0.181656 
1652.995312  	0.174343 
1654.924128  	0.176842 
1656.852944  	0.178942 
1658.781760  	0.177707 
1660.710576  	0.174206 
1662.639392  	0.169149 
1664.568208  	0.166477 
1666.497024  	0.164797 
1668.425840  	0.159125 
1670.354656  	0.152572 
1672.283472  	0.150602 
1674.212288  	0.147927 
1676.141104  	0.143991 
1678.069920  	0.143898 
1679.998736  	0.143403 
1681.927552  	0.141400 
1683.856368  	0.135331 
1685.785184  	0.135573 
1687.714000  	0.138640 
1689.642816  	0.138400 
1691.571632  	0.137110 
1693.500448  	0.135887 
1695.429264  	0.131260 
1697.358080  	0.128460 
1699.286896  	0.126021 
1701.215712  	0.121984 
1703.144528  	0.122322 
1705.073344  	0.118406 
1707.002160  	0.113429 
1708.930976  	0.110372 
1710.859792  	0.105316 
1712.788608  	0.099309 
1714.717424  	0.091328 
1716.646240  	0.080830 
1718.575056  	0.068967 
1720.503872  	0.062901 
1722.432688  	0.057105 
1724.361504  	0.048804 
1726.290320  	0.041745 
1728.219136  	0.035921 
1730.147952  	0.030624 
1732.076768  	0.025569 
1734.005584  	0.018502 
1735.934400  	0.014484 
1737.863216  	0.014355 
1739.792032  	0.010541 
1741.720848  	0.009842 
1743.649664  	0.009716 
1745.578480  	0.008721 
1747.507296  	0.006843 
1749.436112  	0.005989 
1751.364928  	0.005304 
1753.293744  	0.004731 
1755.222560  	0.004388 
1757.151376  	0.003816 
1759.080192  	0.003285 
1761.009008  	0.002546 
1762.937824  	0.001258 
1764.866640  	0.001733 
1766.795456  	0.002195 
1768.724272  	0.001694 
1770.653088  	-0.001016 
1772.581904  	-0.003515 
1774.510720  	-0.001614 
1776.439536  	0.000190 
1778.368352  	0.000410 
1780.297168  	0.000096 
1782.225984  	-0.000233 
1784.154800  	0.000212 
1786.083616  	-0.000366 
1788.012432  	-0.000344 
1789.941248  	-0.000227 
1791.870064  	-0.001779 
1793.798880  	-0.002843 
1795.727696  	-0.001137 
1797.656512  	-0.001430 
1799.585328  	-0.001664 
1801.514144  	-0.000960 
1803.442960  	-0.001088 
1805.371776  	-0.001879 
1807.300592  	-0.001616 
1809.229408  	-0.002169 
1811.158224  	-0.002516 
1813.087040  	-0.002619 
1815.015856  	-0.002396 
1816.944672  	-0.002191 
1818.873488  	-0.002247 
1820.802304  	-0.002482 
1822.731120  	-0.001758 
1824.659936  	-0.002266 
1826.588752  	-0.002839 
1828.517568  	-0.003757 
1830.446384  	-0.004173 
1832.375200  	-0.003065 
1834.304016  	-0.002215 
1836.232832  	-0.002351 
1838.161648  	-0.002385 
1840.090464  	-0.002578 
1842.019280  	-0.002174 
1843.948096  	-0.003413 
1845.876912  	-0.003048 
1847.805728  	-0.002288 
1849.734544  	-0.002498 
1851.663360  	-0.002936 
1853.592176  	-0.002825 
1855.520992  	-0.002775 
1857.449808  	-0.002504 
1859.378624  	-0.002663 
1861.307440  	-0.002666 
1863.236256  	-0.002957 
1865.165072  	-0.003122 
1867.093888  	-0.003467 
1869.022704  	-0.003439 
1870.951520  	-0.003442 
1872.880336  	-0.003259 
1874.809152  	-0.003672 
1876.737968  	-0.003723 
1878.666784  	-0.003851 
1880.595600  	-0.003236 
1882.524416  	-0.003491 
1884.453232  	-0.003511 
1886.382048  	-0.003401 
1888.310864  	-0.003037 
1890.239680  	-0.003553 
1892.168496  	-0.003091 
1894.097312  	-0.003093 
1896.026128  	-0.003000 
1897.954944  	-0.003211 
1899.883760  	-0.003253 
1901.812576  	-0.003746 
1903.741392  	-0.003804 
1905.670208  	-0.003747 
1907.599024  	-0.003179 
1909.527840  	-0.003379 
1911.456656  	-0.003397 
1913.385472  	-0.003391 
1915.314288  	-0.002884 
1917.243104  	-0.003302 
1919.171920  	-0.003522 
1921.100736  	-0.003205 
1923.029552  	-0.002556 
1924.958368  	-0.003187 
1926.887184  	-0.003241 
1928.816000  	-0.003655 
1930.744816  	-0.003668 
1932.673632  	-0.003909 
1934.602448  	-0.003917 
1936.531264  	-0.004128 
1938.460080  	-0.003404 
1940.388896  	-0.003365 
1942.317712  	-0.003160 
1944.246528  	-0.003645 
1946.175344  	-0.003106 
1948.104160  	-0.003195 
1950.032976  	-0.003065 
1951.961792  	-0.003671 
1953.890608  	-0.003414 
1955.819424  	-0.003429 
1957.748240  	-0.002575 
1959.677056  	-0.002967 
1961.605872  	-0.002563 
1963.534688  	-0.003287 
1965.463504  	-0.003079 
1967.392320  	-0.004014 
1969.321136  	-0.004302 
1971.249952  	-0.003897 
1973.178768  	-0.002707 
1975.107584  	-0.003148 
1977.036400  	-0.001969 
1978.965216  	-0.001355 
1980.894032  	-0.002146 
1982.822848  	-0.003152 
1984.751664  	-0.003214 
1986.680480  	-0.003822 
1988.609296  	-0.003109 
1990.538112  	-0.003405 
1992.466928  	-0.002669 
1994.395744  	-0.003377 
1996.324560  	-0.003487 
1998.253376  	-0.004046 
2000.182192  	-0.003775 
2002.111008  	-0.003518 
2004.039824  	-0.002915 
2005.968640  	-0.002822 
2007.897456  	-0.001995 
2009.826272  	-0.003220 
2011.755088  	-0.003351 
2013.683904  	-0.003749 
2015.612720  	-0.003175 
2017.541536  	-0.002809 
2019.470352  	-0.002592 
2021.399168  	-0.003878 
2023.327984  	-0.003414 
2025.256800  	-0.002469 
2027.185616  	-0.001971 
2029.114432  	-0.002852 
2031.043248  	-0.002886 
2032.972064  	-0.002951 
2034.900880  	-0.002491 
2036.829696  	-0.003349 
2038.758512  	-0.002157 
2040.687328  	-0.002649 
2042.616144  	-0.002185 
2044.544960  	-0.002609 
2046.473776  	-0.002305 
2048.402592  	-0.002390 
2050.331408  	-0.002474 
2052.260224  	-0.003663 
2054.189040  	-0.003969 
2056.117856  	-0.003988 
2058.046672  	-0.003483 
2059.975488  	-0.003769 
2061.904304  	-0.003684 
2063.833120  	-0.003092 
2065.761936  	-0.002733 
2067.690752  	-0.003298 
2069.619568  	-0.003096 
2071.548384  	-0.003305 
2073.477200  	-0.003874 
2075.406016  	-0.003599 
2077.334832  	-0.002865 
2079.263648  	-0.002932 
2081.192464  	-0.002834 
2083.121280  	-0.002826 
2085.050096  	-0.002737 
2086.978912  	-0.003041 
2088.907728  	-0.002956 
2090.836544  	-0.003084 
2092.765360  	-0.002757 
2094.694176  	-0.002795 
2096.622992  	-0.002796 
2098.551808  	-0.002740 
2100.480624  	-0.002552 
2102.409440  	-0.003009 
2104.338256  	-0.003084 
2106.267072  	-0.002807 
2108.195888  	-0.002818 
2110.124704  	-0.002880 
2112.053520  	-0.002255 
2113.982336  	-0.002328 
2115.911152  	-0.002700 
2117.839968  	-0.003052 
2119.768784  	-0.003027 
2121.697600  	-0.003194 
2123.626416  	-0.003192 
2125.555232  	-0.003714 
2127.484048  	-0.003566 
2129.412864  	-0.003524 
2131.341680  	-0.003435 
2133.270496  	-0.004023 
2135.199312  	-0.003737 
2137.128128  	-0.003395 
2139.056944  	-0.003299 
2140.985760  	-0.003038 
2142.914576  	-0.002528 
2144.843392  	-0.002517 
2146.772208  	-0.002169 
2148.701024  	-0.002718 
2150.629840  	-0.002151 
2152.558656  	-0.002028 
2154.487472  	-0.002923 
2156.416288  	-0.004655 
2158.345104  	-0.003211 
2160.273920  	-0.001116 
2162.202736  	0.000144 
2164.131552  	-0.000147 
2166.060368  	-0.000024 
2167.989184  	0.000207 
2169.918000  	0.001016 
2171.846816  	-0.000202 
2173.775632  	-0.000516 
2175.704448  	-0.000471 
2177.633264  	-0.000936 
2179.562080  	-0.001796 
2181.490896  	-0.001484 
2183.419712  	-0.002443 
2185.348528  	-0.002258 
2187.277344  	-0.001810 
2189.206160  	-0.001974 
2191.134976  	-0.002265 
2193.063792  	-0.002201 
2194.992608  	-0.002588 
2196.921424  	-0.002267 
2198.850240  	-0.001901 
2200.779056  	-0.002245 
2202.707872  	-0.002886 
2204.636688  	-0.002425 
2206.565504  	-0.001917 
2208.494320  	-0.001258 
2210.423136  	-0.001452 
2212.351952  	-0.001781 
2214.280768  	-0.002461 
2216.209584  	-0.002533 
2218.138400  	-0.002997 
2220.067216  	-0.002700 
2221.996032  	-0.002844 
2223.924848  	-0.002709 
2225.853664  	-0.002161 
2227.782480  	-0.001695 
2229.711296  	-0.002275 
2231.640112  	-0.003146 
2233.568928  	-0.003408 
2235.497744  	-0.002918 
2237.426560  	-0.003221 
2239.355376  	-0.003621 
2241.284192  	-0.003484 
2243.213008  	-0.003000 
2245.141824  	-0.003341 
2247.070640  	-0.003453 
2248.999456  	-0.003361 
2250.928272  	-0.003759 
2252.857088  	-0.004037 
2254.785904  	-0.003625 
2256.714720  	-0.004292 
2258.643536  	-0.004493 
2260.572352  	-0.004159 
2262.501168  	-0.004141 
2264.429984  	-0.004386 
2266.358800  	-0.004074 
2268.287616  	-0.004043 
2270.216432  	-0.004120 
2272.145248  	-0.003848 
2274.074064  	-0.003626 
2276.002880  	-0.003847 
2277.931696  	-0.003502 
2279.860512  	-0.003227 
2281.789328  	-0.002883 
2283.718144  	-0.002863 
2285.646960  	-0.002891 
2287.575776  	-0.002882 
2289.504592  	-0.003034 
2291.433408  	-0.003642 
2293.362224  	-0.003522 
2295.291040  	-0.002948 
2297.219856  	-0.002758 
2299.148672  	-0.003076 
2301.077488  	-0.003118 
2303.006304  	-0.003054 
2304.935120  	-0.002875 
2306.863936  	-0.003060 
2308.792752  	-0.003693 
2310.721568  	-0.004392 
2312.650384  	-0.004893 
2314.579200  	-0.005924 
2316.508016  	-0.007110 
2318.436832  	-0.008554 
2320.365648  	-0.010875 
2322.294464  	-0.012892 
2324.223280  	-0.014954 
2326.152096  	-0.017775 
2328.080912  	-0.019944 
2330.009728  	-0.022153 
2331.938544  	-0.024113 
2333.867360  	-0.025814 
2335.796176  	-0.027594 
2337.724992  	-0.028890 
2339.653808  	-0.029124 
2341.582624  	-0.029043 
2343.511440  	-0.027720 
2345.440256  	-0.024322 
2347.369072  	-0.017672 
2349.297888  	-0.014355 
2351.226704  	-0.018139 
2353.155520  	-0.025353 
2355.084336  	-0.031163 
2357.013152  	-0.035463 
2358.941968  	-0.037857 
2360.870784  	-0.039150 
2362.799600  	-0.038051 
2364.728416  	-0.035907 
2366.657232  	-0.032465 
2368.586048  	-0.027766 
2370.514864  	-0.022945 
2372.443680  	-0.018220 
2374.372496  	-0.013540 
2376.301312  	-0.009580 
2378.230128  	-0.006455 
2380.158944  	-0.004546 
2382.087760  	-0.003691 
2384.016576  	-0.003402 
2385.945392  	-0.003428 
2387.874208  	-0.003615 
2389.803024  	-0.003879 
2391.731840  	-0.004154 
2393.660656  	-0.004089 
2395.589472  	-0.004053 
2397.518288  	-0.004013 
2399.447104  	-0.004094 
2401.375920  	-0.004074 
2403.304736  	-0.004143 
2405.233552  	-0.004146 
2407.162368  	-0.004312 
2409.091184  	-0.004213 
2411.020000  	-0.004103 
2412.948816  	-0.004038 
2414.877632  	-0.004046 
2416.806448  	-0.003913 
2418.735264  	-0.004000 
2420.664080  	-0.004176 
2422.592896  	-0.004128 
2424.521712  	-0.003986 
2426.450528  	-0.004208 
2428.379344  	-0.004066 
2430.308160  	-0.003712 
2432.236976  	-0.003515 
2434.165792  	-0.003523 
2436.094608  	-0.003625 
2438.023424  	-0.003555 
2439.952240  	-0.003377 
2441.881056  	-0.003613 
2443.809872  	-0.003781 
2445.738688  	-0.003541 
2447.667504  	-0.003055 
2449.596320  	-0.002989 
2451.525136  	-0.002945 
2453.453952  	-0.003029 
2455.382768  	-0.003237 
2457.311584  	-0.003276 
2459.240400  	-0.003299 
2461.169216  	-0.003358 
2463.098032  	-0.003395 
2465.026848  	-0.003424 
2466.955664  	-0.003369 
2468.884480  	-0.003462 
2470.813296  	-0.003515 
2472.742112  	-0.003749 
2474.670928  	-0.003730 
2476.599744  	-0.003594 
2478.528560  	-0.003555 
2480.457376  	-0.003589 
2482.386192  	-0.003324 
2484.315008  	-0.002967 
2486.243824  	-0.003080 
2488.172640  	-0.003358 
2490.101456  	-0.003092 
2492.030272  	-0.002944 
2493.959088  	-0.002933 
2495.887904  	-0.002950 
2497.816720  	-0.002938 
2499.745536  	-0.002830 
2501.674352  	-0.002581 
2503.603168  	-0.002338 
2505.531984  	-0.002354 
2507.460800  	-0.002606 
2509.389616  	-0.002644 
2511.318432  	-0.002608 
2513.247248  	-0.002444 
2515.176064  	-0.002291 
2517.104880  	-0.002341 
2519.033696  	-0.002624 
2520.962512  	-0.002520 
2522.891328  	-0.002205 
2524.820144  	-0.002220 
2526.748960  	-0.002155 
2528.677776  	-0.001971 
2530.606592  	-0.002166 
2532.535408  	-0.002271 
2534.464224  	-0.002160 
2536.393040  	-0.002169 
2538.321856  	-0.002087 
2540.250672  	-0.002069 
2542.179488  	-0.002085 
2544.108304  	-0.001806 
2546.037120  	-0.001785 
2547.965936  	-0.001787 
2549.894752  	-0.001728 
2551.823568  	-0.001918 
2553.752384  	-0.001834 
2555.681200  	-0.001478 
2557.610016  	-0.001347 
2559.538832  	-0.001240 
2561.467648  	-0.001224 
2563.396464  	-0.001211 
2565.325280  	-0.001115 
2567.254096  	-0.000986 
2569.182912  	-0.000919 
2571.111728  	-0.000935 
2573.040544  	-0.001065 
2574.969360  	-0.000897 
2576.898176  	-0.000635 
2578.826992  	-0.000657 
2580.755808  	-0.000771 
2582.684624  	-0.000760 
2584.613440  	-0.000687 
2586.542256  	-0.000623 
2588.471072  	-0.000579 
2590.399888  	-0.000437 
2592.328704  	-0.000297 
2594.257520  	-0.000375 
2596.186336  	-0.000368 
2598.115152  	-0.000183 
2600.043968  	-0.000091 
2601.972784  	-0.000057 
2603.901600  	0.000006 
2605.830416  	0.000290 
2607.759232  	0.000453 
2609.688048  	0.000435 
2611.616864  	0.000517 
2613.545680  	0.000609 
2615.474496  	0.000709 
2617.403312  	0.000848 
2619.332128  	0.001030 
2621.260944  	0.001047 
2623.189760  	0.000910 
2625.118576  	0.000915 
2627.047392  	0.000970 
2628.976208  	0.001192 
2630.905024  	0.001345 
2632.833840  	0.001477 
2634.762656  	0.001674 
2636.691472  	0.001651 
2638.620288  	0.001625 
2640.549104  	0.001730 
2642.477920  	0.001842 
2644.406736  	0.001979 
2646.335552  	0.002041 
2648.264368  	0.002104 
2650.193184  	0.002176 
2652.122000  	0.002351 
2654.050816  	0.002545 
2655.979632  	0.002674 
2657.908448  	0.002744 
2659.837264  	0.002802 
2661.766080  	0.002802 
2663.694896  	0.002905 
2665.623712  	0.003033 
2667.552528  	0.003206 
2669.481344  	0.003331 
2671.410160  	0.003420 
2673.338976  	0.003504 
2675.267792  	0.003586 
2677.196608  	0.003772 
2679.125424  	0.003889 
2681.054240  	0.004103 
2682.983056  	0.004299 
2684.911872  	0.004307 
2686.840688  	0.004366 
2688.769504  	0.004487 
2690.698320  	0.004536 
2692.627136  	0.004538 
2694.555952  	0.004570 
2696.484768  	0.004635 
2698.413584  	0.004730 
2700.342400  	0.004812 
2702.271216  	0.004992 
2704.200032  	0.005175 
2706.128848  	0.005224 
2708.057664  	0.005211 
2709.986480  	0.005279 
2711.915296  	0.005356 
2713.844112  	0.005501 
2715.772928  	0.005577 
2717.701744  	0.005706 
2719.630560  	0.005940 
2721.559376  	0.006063 
2723.488192  	0.006178 
2725.417008  	0.006305 
2727.345824  	0.006451 
2729.274640  	0.006582 
2731.203456  	0.006760 
2733.132272  	0.007007 
2735.061088  	0.007160 
2736.989904  	0.007269 
2738.918720  	0.007313 
2740.847536  	0.007306 
2742.776352  	0.007287 
2744.705168  	0.007358 
2746.633984  	0.007494 
2748.562800  	0.007621 
2750.491616  	0.007731 
2752.420432  	0.007870 
2754.349248  	0.007772 
2756.278064  	0.007626 
2758.206880  	0.007453 
2760.135696  	0.007485 
2762.064512  	0.007640 
2763.993328  	0.007737 
2765.922144  	0.007622 
2767.850960  	0.007613 
2769.779776  	0.007655 
2771.708592  	0.007728 
2773.637408  	0.007672 
2775.566224  	0.007635 
2777.495040  	0.007559 
2779.423856  	0.007609 
2781.352672  	0.007724 
2783.281488  	0.007736 
2785.210304  	0.007706 
2787.139120  	0.007733 
2789.067936  	0.007842 
2790.996752  	0.007873 
2792.925568  	0.007761 
2794.854384  	0.007727 
2796.783200  	0.007664 
2798.712016  	0.007578 
2800.640832  	0.007588 
2802.569648  	0.007668 
2804.498464  	0.007676 
2806.427280  	0.007587 
2808.356096  	0.007585 
2810.284912  	0.007640 
2812.213728  	0.007678 
2814.142544  	0.007613 
2816.071360  	0.007560 
2818.000176  	0.007438 
2819.928992  	0.007373 
2821.857808  	0.007361 
2823.786624  	0.007149 
2825.715440  	0.006973 
2827.644256  	0.006832 
2829.573072  	0.006649 
2831.501888  	0.006428 
2833.430704  	0.006155 
2835.359520  	0.005854 
2837.288336  	0.005601 
2839.217152  	0.005325 
2841.145968  	0.004941 
2843.074784  	0.004528 
2845.003600  	0.004131 
2846.932416  	0.003770 
2848.861232  	0.003419 
2850.790048  	0.003033 
2852.718864  	0.002577 
2854.647680  	0.002139 
2856.576496  	0.001626 
2858.505312  	0.001011 
2860.434128  	0.000369 
2862.362944  	-0.000441 
2864.291760  	-0.001300 
2866.220576  	-0.001893 
2868.149392  	-0.002188 
2870.078208  	-0.002448 
2872.007024  	-0.002570 
2873.935840  	-0.002536 
2875.864656  	-0.002635 
2877.793472  	-0.002846 
2879.722288  	-0.003231 
2881.651104  	-0.003726 
2883.579920  	-0.003869 
2885.508736  	-0.003587 
2887.437552  	-0.003435 
2889.366368  	-0.003483 
2891.295184  	-0.003623 
2893.224000  	-0.003787 
2895.152816  	-0.003806 
2897.081632  	-0.004038 
2899.010448  	-0.005759 
2900.939264  	-0.007437 
2902.868080  	-0.006216 
2904.796896  	-0.004697 
2906.725712  	-0.004062 
2908.654528  	-0.003486 
2910.583344  	-0.003126 
2912.512160  	-0.002623 
2914.440976  	-0.001573 
2916.369792  	-0.000807 
2918.298608  	-0.000295 
2920.227424  	0.000232 
2922.156240  	0.000838 
2924.085056  	0.001666 
2926.013872  	0.002620 
2927.942688  	0.003576 
2929.871504  	0.004501 
2931.800320  	0.005221 
2933.729136  	0.005805 
2935.657952  	0.006328 
2937.586768  	0.006988 
2939.515584  	0.007589 
2941.444400  	0.007828 
2943.373216  	0.007876 
2945.302032  	0.008102 
2947.230848  	0.008338 
2949.159664  	0.008049 
2951.088480  	0.007464 
2953.017296  	0.006954 
2954.946112  	0.006300 
2956.874928  	0.005577 
2958.803744  	0.004735 
2960.732560  	0.004207 
2962.661376  	0.003662 
2964.590192  	0.002802 
2966.519008  	0.001652 
2968.447824  	0.000574 
2970.376640  	-0.000247 
2972.305456  	-0.000719 
2974.234272  	-0.000513 
2976.163088  	-0.000165 
2978.091904  	-0.000132 
2980.020720  	-0.000074 
2981.949536  	0.000139 
2983.878352  	-0.000112 
2985.807168  	-0.001078 
2987.735984  	-0.002013 
2989.664800  	-0.001617 
2991.593616  	0.001447 
2993.522432  	0.003418 
2995.451248  	0.003915 
2997.380064  	0.004744 
2999.308880  	0.005940 
3001.237696  	0.007335 
3003.166512  	0.008924 
3005.095328  	0.010414 
3007.024144  	0.011675 
3008.952960  	0.013058 
3010.881776  	0.014600 
3012.810592  	0.015972 
3014.739408  	0.017195 
3016.668224  	0.018443 
3018.597040  	0.019719 
3020.525856  	0.020898 
3022.454672  	0.021911 
3024.383488  	0.023021 
3026.312304  	0.024078 
3028.241120  	0.025117 
3030.169936  	0.026119 
3032.098752  	0.027026 
3034.027568  	0.027749 
3035.956384  	0.028531 
3037.885200  	0.029414 
3039.814016  	0.030079 
3041.742832  	0.030608 
3043.671648  	0.031064 
3045.600464  	0.031683 
3047.529280  	0.032264 
3049.458096  	0.032781 
3051.386912  	0.033420 
3053.315728  	0.034086 
3055.244544  	0.034686 
3057.173360  	0.035129 
3059.102176  	0.035596 
3061.030992  	0.036222 
3062.959808  	0.036930 
3064.888624  	0.037527 
3066.817440  	0.038195 
3068.746256  	0.039024 
3070.675072  	0.039792 
3072.603888  	0.040582 
3074.532704  	0.041343 
3076.461520  	0.041943 
3078.390336  	0.042577 
3080.319152  	0.043378 
3082.247968  	0.044324 
3084.176784  	0.045066 
3086.105600  	0.045743 
3088.034416  	0.046310 
3089.963232  	0.046939 
3091.892048  	0.047636 
3093.820864  	0.048506 
3095.749680  	0.049378 
3097.678496  	0.050176 
3099.607312  	0.050948 
3101.536128  	0.051736 
3103.464944  	0.052637 
3105.393760  	0.053321 
3107.322576  	0.053990 
3109.251392  	0.054717 
3111.180208  	0.055269 
3113.109024  	0.055830 
3115.037840  	0.056460 
3116.966656  	0.057255 
3118.895472  	0.057983 
3120.824288  	0.058676 
3122.753104  	0.059398 
3124.681920  	0.059887 
3126.610736  	0.060310 
3128.539552  	0.060922 
3130.468368  	0.061513 
3132.397184  	0.062061 
3134.326000  	0.062756 
3136.254816  	0.063363 
3138.183632  	0.063929 
3140.112448  	0.064713 
3142.041264  	0.065365 
3143.970080  	0.065681 
3145.898896  	0.066228 
3147.827712  	0.067081 
3149.756528  	0.067678 
3151.685344  	0.068221 
3153.614160  	0.068990 
3155.542976  	0.069682 
3157.471792  	0.070314 
3159.400608  	0.071100 
3161.329424  	0.071582 
3163.258240  	0.071970 
3165.187056  	0.072595 
3167.115872  	0.073170 
3169.044688  	0.073628 
3170.973504  	0.074025 
3172.902320  	0.074347 
3174.831136  	0.074724 
3176.759952  	0.075252 
3178.688768  	0.075736 
3180.617584  	0.076171 
3182.546400  	0.076507 
3184.475216  	0.076662 
3186.404032  	0.076854 
3188.332848  	0.077187 
3190.261664  	0.077420 
3192.190480  	0.077638 
3194.119296  	0.077625 
3196.048112  	0.077707 
3197.976928  	0.077905 
3199.905744  	0.077883 
3201.834560  	0.077912 
3203.763376  	0.078015 
3205.692192  	0.077975 
3207.621008  	0.077807 
3209.549824  	0.077741 
3211.478640  	0.077752 
3213.407456  	0.077730 
3215.336272  	0.077718 
3217.265088  	0.077582 
3219.193904  	0.077463 
3221.122720  	0.077323 
3223.051536  	0.077146 
3224.980352  	0.077017 
3226.909168  	0.076826 
3228.837984  	0.076690 
3230.766800  	0.076588 
3232.695616  	0.076567 
3234.624432  	0.076446 
3236.553248  	0.076332 
3238.482064  	0.076383 
3240.410880  	0.076459 
3242.339696  	0.076522 
3244.268512  	0.076486 
3246.197328  	0.076625 
3248.126144  	0.076788 
3250.054960  	0.076819 
3251.983776  	0.077022 
3253.912592  	0.077432 
3255.841408  	0.077735 
3257.770224  	0.078050 
3259.699040  	0.078337 
3261.627856  	0.078470 
3263.556672  	0.078739 
3265.485488  	0.078833 
3267.414304  	0.079089 
3269.343120  	0.079589 
3271.271936  	0.079687 
3273.200752  	0.079666 
3275.129568  	0.079907 
3277.058384  	0.080396 
3278.987200  	0.080620 
3280.916016  	0.080844 
3282.844832  	0.081063 
3284.773648  	0.081165 
3286.702464  	0.081353 
3288.631280  	0.081490 
3290.560096  	0.081611 
3292.488912  	0.082034 
3294.417728  	0.082462 
3296.346544  	0.082937 
3298.275360  	0.083353 
3300.204176  	0.083669 
3302.132992  	0.083886 
3304.061808  	0.084013 
3305.990624  	0.084324 
3307.919440  	0.084832 
3309.848256  	0.085193 
3311.777072  	0.085424 
3313.705888  	0.085802 
3315.634704  	0.086372 
3317.563520  	0.086790 
3319.492336  	0.087083 
3321.421152  	0.087381 
3323.349968  	0.087621 
3325.278784  	0.087741 
3327.207600  	0.087886 
3329.136416  	0.087878 
3331.065232  	0.088175 
3332.994048  	0.088435 
3334.922864  	0.088525 
3336.851680  	0.088704 
3338.780496  	0.088601 
3340.709312  	0.088321 
3342.638128  	0.088268 
3344.566944  	0.088028 
3346.495760  	0.087782 
3348.424576  	0.087597 
3350.353392  	0.087365 
3352.282208  	0.087080 
3354.211024  	0.086762 
3356.139840  	0.086426 
3358.068656  	0.086270 
3359.997472  	0.086233 
3361.926288  	0.085883 
3363.855104  	0.085405 
3365.783920  	0.084918 
3367.712736  	0.084564 
3369.641552  	0.084206 
3371.570368  	0.083876 
3373.499184  	0.083547 
3375.428000  	0.083098 
3377.356816  	0.082838 
3379.285632  	0.082850 
3381.214448  	0.082603 
3383.143264  	0.082142 
3385.072080  	0.081734 
3387.000896  	0.081253 
3388.929712  	0.080896 
3390.858528  	0.080589 
3392.787344  	0.080296 
3394.716160  	0.079849 
3396.644976  	0.079479 
3398.573792  	0.079200 
3400.502608  	0.078658 
3402.431424  	0.078094 
3404.360240  	0.077713 
3406.289056  	0.077134 
3408.217872  	0.076615 
3410.146688  	0.076279 
3412.075504  	0.075828 
3414.004320  	0.075221 
3415.933136  	0.074864 
3417.861952  	0.074446 
3419.790768  	0.074043 
3421.719584  	0.073613 
3423.648400  	0.073070 
3425.577216  	0.072389 
3427.506032  	0.071837 
3429.434848  	0.071269 
3431.363664  	0.070800 
3433.292480  	0.070357 
3435.221296  	0.069836 
3437.150112  	0.069424 
3439.078928  	0.069058 
3441.007744  	0.068444 
3442.936560  	0.068091 
3444.865376  	0.067725 
3446.794192  	0.066930 
3448.723008  	0.066103 
3450.651824  	0.065328 
3452.580640  	0.064545 
3454.509456  	0.064108 
3456.438272  	0.063830 
3458.367088  	0.063258 
3460.295904  	0.062640 
3462.224720  	0.061854 
3464.153536  	0.061010 
3466.082352  	0.060146 
3468.011168  	0.059257 
3469.939984  	0.058487 
3471.868800  	0.057824 
3473.797616  	0.057089 
3475.726432  	0.056328 
3477.655248  	0.055629 
3479.584064  	0.055148 
3481.512880  	0.054545 
3483.441696  	0.053622 
3485.370512  	0.052689 
3487.299328  	0.051807 
3489.228144  	0.051268 
3491.156960  	0.050495 
3493.085776  	0.049738 
3495.014592  	0.048861 
3496.943408  	0.048161 
3498.872224  	0.047755 
3500.801040  	0.047578 
3502.729856  	0.046927 
3504.658672  	0.045938 
3506.587488  	0.045390 
3508.516304  	0.044926 
3510.445120  	0.044096 
3512.373936  	0.043098 
3514.302752  	0.042547 
3516.231568  	0.042218 
3518.160384  	0.041682 
3520.089200  	0.040929 
3522.018016  	0.040723 
3523.946832  	0.041113 
3525.875648  	0.040354 
3527.804464  	0.038876 
3529.733280  	0.037803 
3531.662096  	0.037080 
3533.590912  	0.036450 
3535.519728  	0.036276 
3537.448544  	0.035933 
3539.377360  	0.034866 
3541.306176  	0.034153 
3543.234992  	0.034022 
3545.163808  	0.034624 
3547.092624  	0.033934 
3549.021440  	0.032197 
3550.950256  	0.031201 
3552.879072  	0.030663 
3554.807888  	0.030140 
3556.736704  	0.029406 
3558.665520  	0.029121 
3560.594336  	0.028880 
3562.523152  	0.027864 
3564.451968  	0.027664 
3566.380784  	0.028511 
3568.309600  	0.027561 
3570.238416  	0.025846 
3572.167232  	0.024663 
3574.096048  	0.023766 
3576.024864  	0.023007 
3577.953680  	0.022553 
3579.882496  	0.022029 
3581.811312  	0.021370 
3583.740128  	0.020642 
3585.668944  	0.020556 
3587.597760  	0.020314 
3589.526576  	0.018976 
3591.455392  	0.017520 
3593.384208  	0.016681 
3595.313024  	0.015976 
3597.241840  	0.014715 
3599.170656  	0.013220 
3601.099472  	0.012556 
3603.028288  	0.012676 
3604.957104  	0.012343 
3606.885920  	0.011586 
3608.814736  	0.010890 
3610.743552  	0.010408 
3612.672368  	0.009231 
3614.601184  	0.008074 
3616.530000  	0.007162 
3618.458816  	0.005444 
3620.387632  	0.004480 
3622.316448  	0.004368 
3624.245264  	0.003621 
3626.174080  	0.002678 
3628.102896  	0.000292 
3630.031712  	-0.000974 
3631.960528  	0.000143 
3633.889344  	-0.000360 
3635.818160  	-0.001197 
3637.746976  	-0.002073 
3639.675792  	-0.002198 
3641.604608  	-0.002317 
3643.533424  	-0.003124 
3645.462240  	-0.004870 
3647.391056  	-0.007996 
3649.319872  	-0.011113 
3651.248688  	-0.010881 
3653.177504  	-0.008995 
3655.106320  	-0.010153 
3657.035136  	-0.011813 
3658.963952  	-0.011501 
3660.892768  	-0.011676 
3662.821584  	-0.012002 
3664.750400  	-0.012176 
3666.679216  	-0.012822 
3668.608032  	-0.015313 
3670.536848  	-0.017284 
3672.465664  	-0.015877 
3674.394480  	-0.017994 
3676.323296  	-0.020091 
3678.252112  	-0.016270 
3680.180928  	-0.014747 
3682.109744  	-0.014502 
3684.038560  	-0.014963 
3685.967376  	-0.015727 
3687.896192  	-0.018677 
3689.825008  	-0.020605 
3691.753824  	-0.018562 
3693.682640  	-0.016146 
3695.611456  	-0.015240 
3697.540272  	-0.014558 
3699.469088  	-0.014278 
3701.397904  	-0.014993 
3703.326720  	-0.014421 
3705.255536  	-0.013195 
3707.184352  	-0.013417 
3709.113168  	-0.015343 
3711.041984  	-0.016855 
3712.970800  	-0.014512 
3714.899616  	-0.011658 
3716.828432  	-0.011648 
3718.757248  	-0.012433 
3720.686064  	-0.012972 
3722.614880  	-0.013234 
3724.543696  	-0.012622 
3726.472512  	-0.012628 
3728.401328  	-0.012899 
3730.330144  	-0.014350 
3732.258960  	-0.016056 
3734.187776  	-0.015005 
3736.116592  	-0.014536 
3738.045408  	-0.013981 
3739.974224  	-0.012803 
3741.903040  	-0.012403 
3743.831856  	-0.014747 
3745.760672  	-0.015344 
3747.689488  	-0.014628 
3749.618304  	-0.017518 
3751.547120  	-0.018330 
3753.475936  	-0.014820 
3755.404752  	-0.012705 
3757.333568  	-0.012719 
3759.262384  	-0.013359 
3761.191200  	-0.012769 
3763.120016  	-0.011442 
3765.048832  	-0.012043 
3766.977648  	-0.011954 
3768.906464  	-0.012864 
3770.835280  	-0.013003 
3772.764096  	-0.011434 
3774.692912  	-0.011011 
3776.621728  	-0.011324 
3778.550544  	-0.012664 
3780.479360  	-0.012951 
3782.408176  	-0.011652 
3784.336992  	-0.011925 
3786.265808  	-0.011704 
3788.194624  	-0.011412 
3790.123440  	-0.011328 
3792.052256  	-0.011256 
3793.981072  	-0.011566 
3795.909888  	-0.013002 
3797.838704  	-0.012914 
3799.767520  	-0.014094 
3801.696336  	-0.017140 
3803.625152  	-0.014456 
3805.553968  	-0.014061 
3807.482784  	-0.014702 
3809.411600  	-0.012067 
3811.340416  	-0.011084 
3813.269232  	-0.011549 
3815.198048  	-0.014270 
3817.126864  	-0.014837 
3819.055680  	-0.014463 
3820.984496  	-0.017295 
3822.913312  	-0.014464 
3824.842128  	-0.012314 
3826.770944  	-0.012658 
3828.699760  	-0.012002 
3830.628576  	-0.012670 
3832.557392  	-0.013614 
3834.486208  	-0.013814 
3836.415024  	-0.015034 
3838.343840  	-0.015870 
3840.272656  	-0.014417 
3842.201472  	-0.012989 
3844.130288  	-0.012492 
3846.059104  	-0.011413 
3847.987920  	-0.011220 
3849.916736  	-0.012106 
3851.845552  	-0.015142 
3853.774368  	-0.018129 
3855.703184  	-0.014192 
3857.632000  	-0.011917 
3859.560816  	-0.011364 
3861.489632  	-0.011898 
3863.418448  	-0.012610 
3865.347264  	-0.012408 
3867.276080  	-0.011635 
3869.204896  	-0.013014 
3871.133712  	-0.012404 
3873.062528  	-0.011954 
3874.991344  	-0.012005 
3876.920160  	-0.010803 
3878.848976  	-0.010832 
3880.777792  	-0.011065 
3882.706608  	-0.010407 
3884.635424  	-0.011071 
3886.564240  	-0.011508 
3888.493056  	-0.011094 
3890.421872  	-0.011981 
3892.350688  	-0.012105 
3894.279504  	-0.010845 
3896.208320  	-0.010432 
3898.137136  	-0.010682 
3900.065952  	-0.010769 
3901.994768  	-0.010364 
3903.923584  	-0.010869 
3905.852400  	-0.010949 
3907.781216  	-0.010883 
3909.710032  	-0.010957 
3911.638848  	-0.010896 
3913.567664  	-0.010541 
3915.496480  	-0.010091 
3917.425296  	-0.009991 
3919.354112  	-0.010181 
3921.282928  	-0.010087 
3923.211744  	-0.009912 
3925.140560  	-0.009872 
3927.069376  	-0.010169 
3928.998192  	-0.010366 
3930.927008  	-0.009750 
3932.855824  	-0.009312 
3934.784640  	-0.009813 
3936.713456  	-0.010244 
3938.642272  	-0.010069 
3940.571088  	-0.009920 
3942.499904  	-0.009619 
3944.428720  	-0.009448 
3946.357536  	-0.009411 
3948.286352  	-0.009337 
3950.215168  	-0.009894 
3952.143984  	-0.010498 
3954.072800  	-0.010550 
3956.001616  	-0.010320 
3957.930432  	-0.010379 
3959.859248  	-0.010286 
3961.788064  	-0.010174 
3963.716880  	-0.010447 
3965.645696  	-0.010759 
3967.574512  	-0.010631 
3969.503328  	-0.010306 
3971.432144  	-0.010227 
3973.360960  	-0.010335 
3975.289776  	-0.010201 
3977.218592  	-0.010107 
3979.147408  	-0.010218 
3981.076224  	-0.010308 
3983.005040  	-0.010414 
3984.933856  	-0.010441 
3986.862672  	-0.010437 
3988.791488  	-0.010332 
3990.720304  	-0.010051 
3992.649120  	-0.010124 
3994.577936  	-0.010298 
3996.506752  	-0.010297 
3998.435568  	-0.010363 
4000.364384  	-0.010310 