##TITLE=No Description
##DATA TYPE=INFRARED SPECTRUM
##XUNITS=1/CM
##YUNITS=Abs
399.264912  	0.639042 
401.193728  	0.624667 
403.122544  	0.609646 
405.051360  	0.601657 
406.980176  	0.613414 
408.908992  	0.609152 
410.837808  	0.600365 
412.766624  	0.591231 
414.695440  	0.600353 
416.624256  	0.599182 
418.553072  	0.595083 
420.481888  	0.576105 
422.410704  	0.585670 
424.339520  	0.584239 
426.268336  	0.577513 
428.197152  	0.561594 
430.125968  	0.562721 
432.054784  	0.563079 
433.983600  	0.565321 
435.912416  	0.559811 
437.841232  	0.552769 
439.770048  	0.543380 
441.698864  	0.548148 
443.627680  	0.545497 
445.556496  	0.542102 
447.485312  	0.538587 
449.414128  	0.542918 
451.342944  	0.543367 
453.271760  	0.541824 
455.200576  	0.535941 
457.129392  	0.538993 
459.058208  	0.538319 
460.987024  	0.540680 
462.915840  	0.537965 
464.844656  	0.529627 
466.773472  	0.527288 
468.702288  	0.531725 
470.631104  	0.533433 
472.559920  	0.539973 
474.488736  	0.535571 
476.417552  	0.536150 
478.346368  	0.533711 
480.275184  	0.526583 
482.204000  	0.520460 
484.132816  	0.525001 
486.061632  	0.527904 
487.990448  	0.528422 
489.919264  	0.520569 
491.848080  	0.518981 
493.776896  	0.517225 
495.705712  	0.514779 
497.634528  	0.512846 
499.563344  	0.517087 
501.492160  	0.516763 
503.420976  	0.514080 
505.349792  	0.510152 
507.278608  	0.511448 
509.207424  	0.513213 
511.136240  	0.514475 
513.065056  	0.514649 
514.993872  	0.517509 
516.922688  	0.516293 
518.851504  	0.519457 
520.780320  	0.516899 
522.709136  	0.514932 
524.637952  	0.515311 
526.566768  	0.515382 
528.495584  	0.511255 
530.424400  	0.510630 
532.353216  	0.505978 
534.282032  	0.500267 
536.210848  	0.493750 
538.139664  	0.490741 
540.068480  	0.486597 
541.997296  	0.483228 
543.926112  	0.479171 
545.854928  	0.475782 
547.783744  	0.471345 
549.712560  	0.469174 
551.641376  	0.465878 
553.570192  	0.461171 
555.499008  	0.456987 
557.427824  	0.454057 
559.356640  	0.450256 
561.285456  	0.447554 
563.214272  	0.443611 
565.143088  	0.441127 
567.071904  	0.437772 
569.000720  	0.434724 
570.929536  	0.431739 
572.858352  	0.429077 
574.787168  	0.425909 
576.715984  	0.424354 
578.644800  	0.421090 
580.573616  	0.418572 
582.502432  	0.414000 
584.431248  	0.410774 
586.360064  	0.406915 
588.288880  	0.403840 
590.217696  	0.401670 
592.146512  	0.399778 
594.075328  	0.396273 
596.004144  	0.394062 
597.932960  	0.392286 
599.861776  	0.391905 
601.790592  	0.389449 
603.719408  	0.387050 
605.648224  	0.385695 
607.577040  	0.384643 
609.505856  	0.382923 
611.434672  	0.381420 
613.363488  	0.378894 
615.292304  	0.377416 
617.221120  	0.376164 
619.149936  	0.375150 
621.078752  	0.372643 
623.007568  	0.371135 
624.936384  	0.369590 
626.865200  	0.367645 
628.794016  	0.366126 
630.722832  	0.365918 
632.651648  	0.365416 
634.580464  	0.365200 
636.509280  	0.364692 
638.438096  	0.364613 
640.366912  	0.363142 
642.295728  	0.360932 
644.224544  	0.358407 
646.153360  	0.355356 
648.082176  	0.350028 
650.010992  	0.345715 
651.939808  	0.342146 
653.868624  	0.338877 
655.797440  	0.335172 
657.726256  	0.331651 
659.655072  	0.328136 
661.583888  	0.324423 
663.512704  	0.320937 
665.441520  	0.317864 
667.370336  	0.309252 
669.299152  	0.302879 
671.227968  	0.303928 
673.156784  	0.301247 
675.085600  	0.298391 
677.014416  	0.296103 
678.943232  	0.294183 
680.872048  	0.292466 
682.800864  	0.290662 
684.729680  	0.289339 
686.658496  	0.288019 
688.587312  	0.287466 
690.516128  	0.285831 
692.444944  	0.283765 
694.373760  	0.282456 
696.302576  	0.280776 
698.231392  	0.278340 
700.160208  	0.275742 
702.089024  	0.273742 
704.017840  	0.271297 
705.946656  	0.268745 
707.875472  	0.266641 
709.804288  	0.264418 
711.733104  	0.262165 
713.661920  	0.260047 
715.590736  	0.258818 
717.519552  	0.257940 
719.448368  	0.257784 
721.377184  	0.257390 
723.306000  	0.257687 
725.234816  	0.257789 
727.163632  	0.257157 
729.092448  	0.254839 
731.021264  	0.251667 
732.950080  	0.248517 
734.878896  	0.245920 
736.807712  	0.243045 
738.736528  	0.240588 
740.665344  	0.238533 
742.594160  	0.236919 
744.522976  	0.235262 
746.451792  	0.233212 
748.380608  	0.231300 
750.309424  	0.230082 
752.238240  	0.229194 
754.167056  	0.228108 
756.095872  	0.226349 
758.024688  	0.225240 
759.953504  	0.224401 
761.882320  	0.224382 
763.811136  	0.224357 
765.739952  	0.223061 
767.668768  	0.220792 
769.597584  	0.218463 
771.526400  	0.217036 
773.455216  	0.217683 
775.384032  	0.220438 
777.312848  	0.224573 
779.241664  	0.227765 
781.170480  	0.227821 
783.099296  	0.224411 
785.028112  	0.219027 
786.956928  	0.213524 
788.885744  	0.208924 
790.814560  	0.205408 
792.743376  	0.202720 
794.672192  	0.201190 
796.601008  	0.200040 
798.529824  	0.197324 
800.458640  	0.193069 
802.387456  	0.189394 
804.316272  	0.187311 
806.245088  	0.185889 
808.173904  	0.184750 
810.102720  	0.184015 
812.031536  	0.183627 
813.960352  	0.183580 
815.889168  	0.183603 
817.817984  	0.183417 
819.746800  	0.183161 
821.675616  	0.182707 
823.604432  	0.182069 
825.533248  	0.181668 
827.462064  	0.181174 
829.390880  	0.180148 
831.319696  	0.178584 
833.248512  	0.176872 
835.177328  	0.174528 
837.106144  	0.171744 
839.034960  	0.168693 
840.963776  	0.165358 
842.892592  	0.161761 
844.821408  	0.158371 
846.750224  	0.155560 
848.679040  	0.152950 
850.607856  	0.150806 
852.536672  	0.148809 
854.465488  	0.146898 
856.394304  	0.145361 
858.323120  	0.143788 
860.251936  	0.141630 
862.180752  	0.139262 
864.109568  	0.136860 
866.038384  	0.134416 
867.967200  	0.132155 
869.896016  	0.130274 
871.824832  	0.129161 
873.753648  	0.128397 
875.682464  	0.128560 
877.611280  	0.128729 
879.540096  	0.129282 
881.468912  	0.130930 
883.397728  	0.132000 
885.326544  	0.132813 
887.255360  	0.132937 
889.184176  	0.132034 
891.112992  	0.130168 
893.041808  	0.128431 
894.970624  	0.126194 
896.899440  	0.123207 
898.828256  	0.119376 
900.757072  	0.115809 
902.685888  	0.112971 
904.614704  	0.111402 
906.543520  	0.111371 
908.472336  	0.112324 
910.401152  	0.114330 
912.329968  	0.116650 
914.258784  	0.119230 
916.187600  	0.121722 
918.116416  	0.123877 
920.045232  	0.125344 
921.974048  	0.126212 
923.902864  	0.126562 
925.831680  	0.126388 
927.760496  	0.126268 
929.689312  	0.126424 
931.618128  	0.127050 
933.546944  	0.127515 
935.475760  	0.127702 
937.404576  	0.127458 
939.333392  	0.126900 
941.262208  	0.126741 
943.191024  	0.127799 
945.119840  	0.130675 
947.048656  	0.135517 
948.977472  	0.141752 
950.906288  	0.149332 
952.835104  	0.158053 
954.763920  	0.167574 
956.692736  	0.176993 
958.621552  	0.185263 
960.550368  	0.191214 
962.479184  	0.194275 
964.408000  	0.193899 
966.336816  	0.190068 
968.265632  	0.183028 
970.194448  	0.173333 
972.123264  	0.161862 
974.052080  	0.149687 
975.980896  	0.137639 
977.909712  	0.126303 
979.838528  	0.116158 
981.767344  	0.107621 
983.696160  	0.100918 
985.624976  	0.096581 
987.553792  	0.094498 
989.482608  	0.094776 
991.411424  	0.097171 
993.340240  	0.101014 
995.269056  	0.105954 
997.197872  	0.111445 
999.126688  	0.117095 
1001.055504  	0.122716 
1002.984320  	0.128398 
1004.913136  	0.133875 
1006.841952  	0.139372 
1008.770768  	0.143969 
1010.699584  	0.147219 
1012.628400  	0.149177 
1014.557216  	0.149974 
1016.486032  	0.150281 
1018.414848  	0.150067 
1020.343664  	0.149396 
1022.272480  	0.148628 
1024.201296  	0.147408 
1026.130112  	0.144170 
1028.058928  	0.142928 
1029.987744  	0.145748 
1031.916560  	0.147277 
1033.845376  	0.147976 
1035.774192  	0.148498 
1037.703008  	0.150374 
1039.631824  	0.155452 
1041.560640  	0.162964 
1043.489456  	0.173065 
1045.418272  	0.185475 
1047.347088  	0.199878 
1049.275904  	0.214027 
1051.204720  	0.225690 
1053.133536  	0.233354 
1055.062352  	0.237535 
1056.991168  	0.238668 
1058.919984  	0.241003 
1060.848800  	0.242832 
1062.777616  	0.240804 
1064.706432  	0.235153 
1066.635248  	0.230420 
1068.564064  	0.229326 
1070.492880  	0.225627 
1072.421696  	0.218592 
1074.350512  	0.213326 
1076.279328  	0.211787 
1078.208144  	0.213925 
1080.136960  	0.218878 
1082.065776  	0.224724 
1083.994592  	0.229315 
1085.923408  	0.231430 
1087.852224  	0.230553 
1089.781040  	0.227332 
1091.709856  	0.222623 
1093.638672  	0.215778 
1095.567488  	0.206113 
1097.496304  	0.194991 
1099.425120  	0.183244 
1101.353936  	0.171042 
1103.282752  	0.159136 
1105.211568  	0.147913 
1107.140384  	0.137196 
1109.069200  	0.127015 
1110.998016  	0.117753 
1112.926832  	0.109286 
1114.855648  	0.101385 
1116.784464  	0.094120 
1118.713280  	0.087298 
1120.642096  	0.080768 
1122.570912  	0.074853 
1124.499728  	0.069234 
1126.428544  	0.064220 
1128.357360  	0.059681 
1130.286176  	0.055902 
1132.214992  	0.052655 
1134.143808  	0.050230 
1136.072624  	0.048077 
1138.001440  	0.046244 
1139.930256  	0.044007 
1141.859072  	0.041915 
1143.787888  	0.039817 
1145.716704  	0.037896 
1147.645520  	0.035892 
1149.574336  	0.034232 
1151.503152  	0.032755 
1153.431968  	0.032084 
1155.360784  	0.032127 
1157.289600  	0.032661 
1159.218416  	0.033837 
1161.147232  	0.035574 
1163.076048  	0.037312 
1165.004864  	0.039392 
1166.933680  	0.041235 
1168.862496  	0.043271 
1170.791312  	0.045265 
1172.720128  	0.047899 
1174.648944  	0.050359 
1176.577760  	0.052787 
1178.506576  	0.055060 
1180.435392  	0.057429 
1182.364208  	0.059718 
1184.293024  	0.062560 
1186.221840  	0.065549 
1188.150656  	0.068967 
1190.079472  	0.072903 
1192.008288  	0.077731 
1193.937104  	0.083440 
1195.865920  	0.090037 
1197.794736  	0.097269 
1199.723552  	0.105348 
1201.652368  	0.113580 
1203.581184  	0.122008 
1205.510000  	0.130176 
1207.438816  	0.138094 
1209.367632  	0.145494 
1211.296448  	0.152044 
1213.225264  	0.157665 
1215.154080  	0.162055 
1217.082896  	0.165280 
1219.011712  	0.167568 
1220.940528  	0.169132 
1222.869344  	0.170073 
1224.798160  	0.170316 
1226.726976  	0.169934 
1228.655792  	0.169317 
1230.584608  	0.168031 
1232.513424  	0.166159 
1234.442240  	0.163825 
1236.371056  	0.160917 
1238.299872  	0.156807 
1240.228688  	0.150225 
1242.157504  	0.143675 
1244.086320  	0.138363 
1246.015136  	0.131501 
1247.943952  	0.123773 
1249.872768  	0.116129 
1251.801584  	0.109604 
1253.730400  	0.103093 
1255.659216  	0.096643 
1257.588032  	0.090645 
1259.516848  	0.084833 
1261.445664  	0.079397 
1263.374480  	0.074378 
1265.303296  	0.070274 
1267.232112  	0.067046 
1269.160928  	0.064611 
1271.089744  	0.062717 
1273.018560  	0.061735 
1274.947376  	0.061487 
1276.876192  	0.061611 
1278.805008  	0.061522 
1280.733824  	0.060503 
1282.662640  	0.058681 
1284.591456  	0.056508 
1286.520272  	0.054634 
1288.449088  	0.053311 
1290.377904  	0.052497 
1292.306720  	0.052575 
1294.235536  	0.052590 
1296.164352  	0.051875 
1298.093168  	0.049676 
1300.021984  	0.046987 
1301.950800  	0.044113 
1303.879616  	0.041457 
1305.808432  	0.038606 
1307.737248  	0.035885 
1309.666064  	0.033197 
1311.594880  	0.031398 
1313.523696  	0.029912 
1315.452512  	0.028856 
1317.381328  	0.028274 
1319.310144  	0.028070 
1321.238960  	0.028044 
1323.167776  	0.028478 
1325.096592  	0.029092 
1327.025408  	0.029642 
1328.954224  	0.029659 
1330.883040  	0.029197 
1332.811856  	0.028301 
1334.740672  	0.028010 
1336.669488  	0.028326 
1338.598304  	0.028744 
1340.527120  	0.027147 
1342.455936  	0.025154 
1344.384752  	0.024648 
1346.313568  	0.024905 
1348.242384  	0.025426 
1350.171200  	0.026556 
1352.100016  	0.028005 
1354.028832  	0.029811 
1355.957648  	0.031449 
1357.886464  	0.033419 
1359.815280  	0.035715 
1361.744096  	0.038057 
1363.672912  	0.038854 
1365.601728  	0.039529 
1367.530544  	0.040700 
1369.459360  	0.040951 
1371.388176  	0.040822 
1373.316992  	0.039800 
1375.245808  	0.036414 
1377.174624  	0.034064 
1379.103440  	0.031390 
1381.032256  	0.028504 
1382.961072  	0.026453 
1384.889888  	0.026139 
1386.818704  	0.025702 
1388.747520  	0.023651 
1390.676336  	0.021459 
1392.605152  	0.018632 
1394.533968  	0.016640 
1396.462784  	0.019379 
1398.391600  	0.020570 
1400.320416  	0.019378 
1402.249232  	0.019788 
1404.178048  	0.020420 
1406.106864  	0.020747 
1408.035680  	0.022525 
1409.964496  	0.025009 
1411.893312  	0.027701 
1413.822128  	0.030567 
1415.750944  	0.034639 
1417.679760  	0.037374 
1419.608576  	0.035932 
1421.537392  	0.036283 
1423.466208  	0.036963 
1425.395024  	0.035508 
1427.323840  	0.034601 
1429.252656  	0.032150 
1431.181472  	0.030387 
1433.110288  	0.030691 
1435.039104  	0.031653 
1436.967920  	0.030102 
1438.896736  	0.030492 
1440.825552  	0.031831 
1442.754368  	0.032422 
1444.683184  	0.032721 
1446.612000  	0.032601 
1448.540816  	0.031156 
1450.469632  	0.031737 
1452.398448  	0.032849 
1454.327264  	0.034224 
1456.256080  	0.033002 
1458.184896  	0.028916 
1460.113712  	0.031104 
1462.042528  	0.033365 
1463.971344  	0.032855 
1465.900160  	0.032675 
1467.828976  	0.035794 
1469.757792  	0.039334 
1471.686608  	0.041619 
1473.615424  	0.045735 
1475.544240  	0.052086 
1477.473056  	0.057204 
1479.401872  	0.061048 
1481.330688  	0.064032 
1483.259504  	0.066077 
1485.188320  	0.067828 
1487.117136  	0.067671 
1489.045952  	0.066692 
1490.974768  	0.063220 
1492.903584  	0.061818 
1494.832400  	0.059287 
1496.761216  	0.052366 
1498.690032  	0.046815 
1500.618848  	0.044142 
1502.547664  	0.041594 
1504.476480  	0.037825 
1506.405296  	0.030282 
1508.334112  	0.028748 
1510.262928  	0.030205 
1512.191744  	0.028577 
1514.120560  	0.027982 
1516.049376  	0.027209 
1517.978192  	0.025497 
1519.907008  	0.026778 
1521.835824  	0.025357 
1523.764640  	0.029937 
1525.693456  	0.034602 
1527.622272  	0.036638 
1529.551088  	0.037822 
1531.479904  	0.038225 
1533.408720  	0.033615 
1535.337536  	0.031172 
1537.266352  	0.030442 
1539.195168  	0.021554 
1541.123984  	0.013650 
1543.052800  	0.018177 
1544.981616  	0.019709 
1546.910432  	0.019660 
1548.839248  	0.020493 
1550.768064  	0.020251 
1552.696880  	0.019972 
1554.625696  	0.019815 
1556.554512  	0.019793 
1558.483328  	0.014922 
1560.412144  	0.017698 
1562.340960  	0.026812 
1564.269776  	0.030704 
1566.198592  	0.035336 
1568.127408  	0.038955 
1570.056224  	0.042220 
1571.985040  	0.049479 
1573.913856  	0.054306 
1575.842672  	0.053558 
1577.771488  	0.056073 
1579.700304  	0.059383 
1581.629120  	0.059564 
1583.557936  	0.059089 
1585.486752  	0.059738 
1587.415568  	0.061732 
1589.344384  	0.065511 
1591.273200  	0.070665 
1593.202016  	0.076890 
1595.130832  	0.083459 
1597.059648  	0.090584 
1598.988464  	0.096850 
1600.917280  	0.102274 
1602.846096  	0.105739 
1604.774912  	0.108104 
1606.703728  	0.108517 
1608.632544  	0.107728 
1610.561360  	0.106044 
1612.490176  	0.104999 
1614.418992  	0.103062 
1616.347808  	0.098665 
1618.276624  	0.099548 
1620.205440  	0.105219 
1622.134256  	0.107551 
1624.063072  	0.111634 
1625.991888  	0.118569 
1627.920704  	0.125660 
1629.849520  	0.134968 
1631.778336  	0.144385 
1633.707152  	0.150119 
1635.635968  	0.154718 
1637.564784  	0.165345 
1639.493600  	0.175067 
1641.422416  	0.181020 
1643.351232  	0.185476 
1645.280048  	0.185595 
1647.208864  	0.183952 
1649.137680  	0.187299 
1651.066496  	0.189134 
1652.995312  	0.179796 
1654.924128  	0.180504 
1656.852944  	0.184009 
1658.781760  	0.183222 
1660.710576  	0.179944 
1662.639392  	0.174201 
1664.568208  	0.170986 
1666.497024  	0.169961 
1668.425840  	0.164127 
1670.354656  	0.156479 
1672.283472  	0.154597 
1674.212288  	0.152071 
1676.141104  	0.147153 
1678.069920  	0.147827 
1679.998736  	0.147662 
1681.927552  	0.146248 
1683.856368  	0.138992 
1685.785184  	0.138096 
1687.714000  	0.142250 
1689.642816  	0.141959 
1691.571632  	0.140500 
1693.500448  	0.139987 
1695.429264  	0.134880 
1697.358080  	0.131641 
1699.286896  	0.129710 
1701.215712  	0.123732 
1703.144528  	0.124871 
1705.073344  	0.120647 
1707.002160  	0.115015 
1708.930976  	0.112170 
1710.859792  	0.107201 
1712.788608  	0.101390 
1714.717424  	0.093412 
1716.646240  	0.082088 
1718.575056  	0.068334 
1720.503872  	0.062760 
1722.432688  	0.057515 
1724.361504  	0.048861 
1726.290320  	0.041758 
1728.219136  	0.035974 
1730.147952  	0.030643 
1732.076768  	0.026305 
1734.005584  	0.017938 
1735.934400  	0.013055 
1737.863216  	0.014134 
1739.792032  	0.009865 
1741.720848  	0.008938 
1743.649664  	0.008868 
1745.578480  	0.008103 
1747.507296  	0.006342 
1749.436112  	0.005415 
1751.364928  	0.003966 
1753.293744  	0.003481 
1755.222560  	0.003779 
1757.151376  	0.002942 
1759.080192  	0.002610 
1761.009008  	0.001717 
1762.937824  	-0.000213 
1764.866640  	0.000957 
1766.795456  	0.001879 
1768.724272  	0.001128 
1770.653088  	-0.001424 
1772.581904  	-0.005100 
1774.510720  	-0.003319 
1776.439536  	-0.000996 
1778.368352  	-0.000332 
1780.297168  	-0.000841 
1782.225984  	-0.001508 
1784.154800  	-0.000895 
1786.083616  	-0.001595 
1788.012432  	-0.001172 
1789.941248  	-0.000597 
1791.870064  	-0.002668 
1793.798880  	-0.004308 
1795.727696  	-0.002148 
1797.656512  	-0.002247 
1799.585328  	-0.002505 
1801.514144  	-0.002222 
1803.442960  	-0.002246 
1805.371776  	-0.002760 
1807.300592  	-0.002368 
1809.229408  	-0.003052 
1811.158224  	-0.003570 
1813.087040  	-0.003587 
1815.015856  	-0.003058 
1816.944672  	-0.003005 
1818.873488  	-0.003102 
1820.802304  	-0.003367 
1822.731120  	-0.002521 
1824.659936  	-0.003233 
1826.588752  	-0.003812 
1828.517568  	-0.004455 
1830.446384  	-0.005607 
1832.375200  	-0.004468 
1834.304016  	-0.003261 
1836.232832  	-0.003419 
1838.161648  	-0.003459 
1840.090464  	-0.003507 
1842.019280  	-0.002569 
1843.948096  	-0.004276 
1845.876912  	-0.004548 
1847.805728  	-0.003594 
1849.734544  	-0.003690 
1851.663360  	-0.003972 
1853.592176  	-0.003923 
1855.520992  	-0.003935 
1857.449808  	-0.003549 
1859.378624  	-0.003669 
1861.307440  	-0.003742 
1863.236256  	-0.003915 
1865.165072  	-0.003578 
1867.093888  	-0.003916 
1869.022704  	-0.004874 
1870.951520  	-0.004946 
1872.880336  	-0.004016 
1874.809152  	-0.004239 
1876.737968  	-0.004305 
1878.666784  	-0.004583 
1880.595600  	-0.003972 
1882.524416  	-0.004180 
1884.453232  	-0.004142 
1886.382048  	-0.004391 
1888.310864  	-0.004363 
1890.239680  	-0.005032 
1892.168496  	-0.004323 
1894.097312  	-0.004171 
1896.026128  	-0.003944 
1897.954944  	-0.004229 
1899.883760  	-0.004235 
1901.812576  	-0.004622 
1903.741392  	-0.004721 
1905.670208  	-0.004684 
1907.599024  	-0.004096 
1909.527840  	-0.004223 
1911.456656  	-0.004112 
1913.385472  	-0.004448 
1915.314288  	-0.003803 
1917.243104  	-0.004468 
1919.171920  	-0.004951 
1921.100736  	-0.004449 
1923.029552  	-0.003998 
1924.958368  	-0.004607 
1926.887184  	-0.004550 
1928.816000  	-0.004856 
1930.744816  	-0.004455 
1932.673632  	-0.004448 
1934.602448  	-0.004075 
1936.531264  	-0.004299 
1938.460080  	-0.004186 
1940.388896  	-0.004286 
1942.317712  	-0.004276 
1944.246528  	-0.004831 
1946.175344  	-0.003817 
1948.104160  	-0.004027 
1950.032976  	-0.003840 
1951.961792  	-0.004118 
1953.890608  	-0.003883 
1955.819424  	-0.004499 
1957.748240  	-0.004362 
1959.677056  	-0.004468 
1961.605872  	-0.003634 
1963.534688  	-0.003885 
1965.463504  	-0.002959 
1967.392320  	-0.004163 
1969.321136  	-0.004868 
1971.249952  	-0.004621 
1973.178768  	-0.002546 
1975.107584  	-0.002991 
1977.036400  	-0.002868 
1978.965216  	-0.002883 
1980.894032  	-0.002863 
1982.822848  	-0.003437 
1984.751664  	-0.002917 
1986.680480  	-0.003978 
1988.609296  	-0.003073 
1990.538112  	-0.003321 
1992.466928  	-0.003155 
1994.395744  	-0.003630 
1996.324560  	-0.003273 
1998.253376  	-0.003557 
2000.182192  	-0.004152 
2002.111008  	-0.004423 
2004.039824  	-0.003068 
2005.968640  	-0.003170 
2007.897456  	-0.002764 
2009.826272  	-0.003022 
2011.755088  	-0.002319 
2013.683904  	-0.003515 
2015.612720  	-0.003464 
2017.541536  	-0.004045 
2019.470352  	-0.003232 
2021.399168  	-0.003288 
2023.327984  	-0.003090 
2025.256800  	-0.003278 
2027.185616  	-0.002608 
2029.114432  	-0.002369 
2031.043248  	-0.001981 
2032.972064  	-0.003030 
2034.900880  	-0.002992 
2036.829696  	-0.003819 
2038.758512  	-0.002367 
2040.687328  	-0.002603 
2042.616144  	-0.001744 
2044.544960  	-0.002286 
2046.473776  	-0.002743 
2048.402592  	-0.003352 
2050.331408  	-0.003464 
2052.260224  	-0.004535 
2054.189040  	-0.004271 
2056.117856  	-0.004277 
2058.046672  	-0.003982 
2059.975488  	-0.004645 
2061.904304  	-0.004928 
2063.833120  	-0.004672 
2065.761936  	-0.004084 
2067.690752  	-0.004146 
2069.619568  	-0.003548 
2071.548384  	-0.003470 
2073.477200  	-0.003827 
2075.406016  	-0.004008 
2077.334832  	-0.003669 
2079.263648  	-0.003719 
2081.192464  	-0.003568 
2083.121280  	-0.003738 
2085.050096  	-0.003691 
2086.978912  	-0.003930 
2088.907728  	-0.003929 
2090.836544  	-0.003980 
2092.765360  	-0.003390 
2094.694176  	-0.003057 
2096.622992  	-0.003266 
2098.551808  	-0.003874 
2100.480624  	-0.003452 
2102.409440  	-0.003530 
2104.338256  	-0.003719 
2106.267072  	-0.003383 
2108.195888  	-0.003008 
2110.124704  	-0.003641 
2112.053520  	-0.003706 
2113.982336  	-0.003792 
2115.911152  	-0.003223 
2117.839968  	-0.003230 
2119.768784  	-0.003494 
2121.697600  	-0.004148 
2123.626416  	-0.004057 
2125.555232  	-0.003910 
2127.484048  	-0.003372 
2129.412864  	-0.003835 
2131.341680  	-0.004162 
2133.270496  	-0.004142 
2135.199312  	-0.003522 
2137.128128  	-0.003053 
2139.056944  	-0.003087 
2140.985760  	-0.003645 
2142.914576  	-0.003319 
2144.843392  	-0.003452 
2146.772208  	-0.003536 
2148.701024  	-0.004272 
2150.629840  	-0.003004 
2152.558656  	-0.002999 
2154.487472  	-0.002259 
2156.416288  	-0.003123 
2158.345104  	-0.003346 
2160.273920  	-0.002091 
2162.202736  	-0.000543 
2164.131552  	-0.000426 
2166.060368  	-0.000848 
2167.989184  	-0.001214 
2169.918000  	0.000202 
2171.846816  	-0.000924 
2173.775632  	-0.001309 
2175.704448  	-0.000661 
2177.633264  	-0.000854 
2179.562080  	-0.001685 
2181.490896  	-0.001253 
2183.419712  	-0.002358 
2185.348528  	-0.002643 
2187.277344  	-0.002353 
2189.206160  	-0.002296 
2191.134976  	-0.002399 
2193.063792  	-0.002252 
2194.992608  	-0.003264 
2196.921424  	-0.003270 
2198.850240  	-0.002786 
2200.779056  	-0.002438 
2202.707872  	-0.002671 
2204.636688  	-0.003246 
2206.565504  	-0.004006 
2208.494320  	-0.003871 
2210.423136  	-0.003783 
2212.351952  	-0.003774 
2214.280768  	-0.004027 
2216.209584  	-0.003788 
2218.138400  	-0.004407 
2220.067216  	-0.003986 
2221.996032  	-0.003582 
2223.924848  	-0.003184 
2225.853664  	-0.002937 
2227.782480  	-0.002788 
2229.711296  	-0.003723 
2231.640112  	-0.004026 
2233.568928  	-0.003663 
2235.497744  	-0.003508 
2237.426560  	-0.004180 
2239.355376  	-0.004303 
2241.284192  	-0.004158 
2243.213008  	-0.003724 
2245.141824  	-0.004009 
2247.070640  	-0.003970 
2248.999456  	-0.004266 
2250.928272  	-0.004785 
2252.857088  	-0.005112 
2254.785904  	-0.004943 
2256.714720  	-0.005140 
2258.643536  	-0.005056 
2260.572352  	-0.005380 
2262.501168  	-0.005458 
2264.429984  	-0.005071 
2266.358800  	-0.004875 
2268.287616  	-0.005316 
2270.216432  	-0.005308 
2272.145248  	-0.005362 
2274.074064  	-0.005394 
2276.002880  	-0.005436 
2277.931696  	-0.004961 
2279.860512  	-0.004629 
2281.789328  	-0.004432 
2283.718144  	-0.004440 
2285.646960  	-0.004323 
2287.575776  	-0.004616 
2289.504592  	-0.004884 
2291.433408  	-0.004896 
2293.362224  	-0.004759 
2295.291040  	-0.004741 
2297.219856  	-0.004566 
2299.148672  	-0.004586 
2301.077488  	-0.004352 
2303.006304  	-0.004295 
2304.935120  	-0.004195 
2306.863936  	-0.004271 
2308.792752  	-0.004682 
2310.721568  	-0.005537 
2312.650384  	-0.006411 
2314.579200  	-0.007516 
2316.508016  	-0.008772 
2318.436832  	-0.010195 
2320.365648  	-0.011860 
2322.294464  	-0.013839 
2324.223280  	-0.016027 
2326.152096  	-0.018596 
2328.080912  	-0.020724 
2330.009728  	-0.023135 
2331.938544  	-0.025329 
2333.867360  	-0.026910 
2335.796176  	-0.028343 
2337.724992  	-0.029751 
2339.653808  	-0.030257 
2341.582624  	-0.030515 
2343.511440  	-0.029259 
2345.440256  	-0.026114 
2347.369072  	-0.019477 
2349.297888  	-0.015244 
2351.226704  	-0.018707 
2353.155520  	-0.026122 
2355.084336  	-0.031481 
2357.013152  	-0.035777 
2358.941968  	-0.038727 
2360.870784  	-0.040518 
2362.799600  	-0.039279 
2364.728416  	-0.037024 
2366.657232  	-0.033801 
2368.586048  	-0.029523 
2370.514864  	-0.024817 
2372.443680  	-0.020049 
2374.372496  	-0.015431 
2376.301312  	-0.011615 
2378.230128  	-0.008561 
2380.158944  	-0.006512 
2382.087760  	-0.005330 
2384.016576  	-0.004978 
2385.945392  	-0.005050 
2387.874208  	-0.005206 
2389.803024  	-0.005330 
2391.731840  	-0.005586 
2393.660656  	-0.005646 
2395.589472  	-0.005606 
2397.518288  	-0.005341 
2399.447104  	-0.005551 
2401.375920  	-0.005754 
2403.304736  	-0.005916 
2405.233552  	-0.005833 
2407.162368  	-0.005741 
2409.091184  	-0.005722 
2411.020000  	-0.005803 
2412.948816  	-0.005970 
2414.877632  	-0.005897 
2416.806448  	-0.005800 
2418.735264  	-0.005966 
2420.664080  	-0.005924 
2422.592896  	-0.005738 
2424.521712  	-0.005733 
2426.450528  	-0.005903 
2428.379344  	-0.005721 
2430.308160  	-0.005504 
2432.236976  	-0.005282 
2434.165792  	-0.005292 
2436.094608  	-0.005451 
2438.023424  	-0.005361 
2439.952240  	-0.005189 
2441.881056  	-0.005287 
2443.809872  	-0.005359 
2445.738688  	-0.005195 
2447.667504  	-0.004980 
2449.596320  	-0.004904 
2451.525136  	-0.004769 
2453.453952  	-0.004785 
2455.382768  	-0.005010 
2457.311584  	-0.005145 
2459.240400  	-0.005220 
2461.169216  	-0.005368 
2463.098032  	-0.005408 
2465.026848  	-0.005264 
2466.955664  	-0.005117 
2468.884480  	-0.005227 
2470.813296  	-0.005299 
2472.742112  	-0.005510 
2474.670928  	-0.005519 
2476.599744  	-0.005543 
2478.528560  	-0.005417 
2480.457376  	-0.005439 
2482.386192  	-0.005366 
2484.315008  	-0.005042 
2486.243824  	-0.004986 
2488.172640  	-0.005074 
2490.101456  	-0.004855 
2492.030272  	-0.004745 
2493.959088  	-0.004717 
2495.887904  	-0.004769 
2497.816720  	-0.004761 
2499.745536  	-0.004611 
2501.674352  	-0.004395 
2503.603168  	-0.004175 
2505.531984  	-0.004180 
2507.460800  	-0.004463 
2509.389616  	-0.004464 
2511.318432  	-0.004516 
2513.247248  	-0.004368 
2515.176064  	-0.004255 
2517.104880  	-0.004279 
2519.033696  	-0.004491 
2520.962512  	-0.004415 
2522.891328  	-0.004147 
2524.820144  	-0.004214 
2526.748960  	-0.004105 
2528.677776  	-0.003781 
2530.606592  	-0.004028 
2532.535408  	-0.004092 
2534.464224  	-0.004014 
2536.393040  	-0.004056 
2538.321856  	-0.003919 
2540.250672  	-0.003668 
2542.179488  	-0.003597 
2544.108304  	-0.003675 
2546.037120  	-0.003641 
2547.965936  	-0.003448 
2549.894752  	-0.003411 
2551.823568  	-0.003472 
2553.752384  	-0.003352 
2555.681200  	-0.003008 
2557.610016  	-0.002963 
2559.538832  	-0.002885 
2561.467648  	-0.002737 
2563.396464  	-0.002636 
2565.325280  	-0.002656 
2567.254096  	-0.002744 
2569.182912  	-0.002771 
2571.111728  	-0.002671 
2573.040544  	-0.002732 
2574.969360  	-0.002692 
2576.898176  	-0.002384 
2578.826992  	-0.002391 
2580.755808  	-0.002539 
2582.684624  	-0.002370 
2584.613440  	-0.002264 
2586.542256  	-0.002197 
2588.471072  	-0.002139 
2590.399888  	-0.002017 
2592.328704  	-0.002001 
2594.257520  	-0.002116 
2596.186336  	-0.002074 
2598.115152  	-0.001911 
2600.043968  	-0.001930 
2601.972784  	-0.001707 
2603.901600  	-0.001591 
2605.830416  	-0.001442 
2607.759232  	-0.001303 
2609.688048  	-0.001249 
2611.616864  	-0.001135 
2613.545680  	-0.000973 
2615.474496  	-0.000952 
2617.403312  	-0.000739 
2619.332128  	-0.000608 
2621.260944  	-0.000719 
2623.189760  	-0.000782 
2625.118576  	-0.000640 
2627.047392  	-0.000449 
2628.976208  	-0.000296 
2630.905024  	-0.000220 
2632.833840  	-0.000218 
2634.762656  	-0.000129 
2636.691472  	-0.000055 
2638.620288  	0.000061 
2640.549104  	0.000196 
2642.477920  	0.000164 
2644.406736  	0.000283 
2646.335552  	0.000362 
2648.264368  	0.000401 
2650.193184  	0.000523 
2652.122000  	0.000793 
2654.050816  	0.000952 
2655.979632  	0.001029 
2657.908448  	0.001079 
2659.837264  	0.001237 
2661.766080  	0.001370 
2663.694896  	0.001438 
2665.623712  	0.001505 
2667.552528  	0.001687 
2669.481344  	0.001851 
2671.410160  	0.001910 
2673.338976  	0.002010 
2675.267792  	0.002229 
2677.196608  	0.002438 
2679.125424  	0.002582 
2681.054240  	0.002632 
2682.983056  	0.002732 
2684.911872  	0.002831 
2686.840688  	0.002855 
2688.769504  	0.002948 
2690.698320  	0.003042 
2692.627136  	0.003047 
2694.555952  	0.003111 
2696.484768  	0.003159 
2698.413584  	0.003198 
2700.342400  	0.003297 
2702.271216  	0.003422 
2704.200032  	0.003668 
2706.128848  	0.003849 
2708.057664  	0.003844 
2709.986480  	0.003837 
2711.915296  	0.003870 
2713.844112  	0.004065 
2715.772928  	0.004152 
2717.701744  	0.004226 
2719.630560  	0.004508 
2721.559376  	0.004631 
2723.488192  	0.004748 
2725.417008  	0.005006 
2727.345824  	0.005224 
2729.274640  	0.005282 
2731.203456  	0.005457 
2733.132272  	0.005621 
2735.061088  	0.005684 
2736.989904  	0.005816 
2738.918720  	0.005882 
2740.847536  	0.005871 
2742.776352  	0.005823 
2744.705168  	0.005968 
2746.633984  	0.006066 
2748.562800  	0.006093 
2750.491616  	0.006113 
2752.420432  	0.006200 
2754.349248  	0.006240 
2756.278064  	0.006213 
2758.206880  	0.006103 
2760.135696  	0.006033 
2762.064512  	0.006060 
2763.993328  	0.006162 
2765.922144  	0.006170 
2767.850960  	0.006144 
2769.779776  	0.006114 
2771.708592  	0.006160 
2773.637408  	0.006106 
2775.566224  	0.006139 
2777.495040  	0.006143 
2779.423856  	0.006161 
2781.352672  	0.006230 
2783.281488  	0.006268 
2785.210304  	0.006326 
2787.139120  	0.006361 
2789.067936  	0.006396 
2790.996752  	0.006455 
2792.925568  	0.006327 
2794.854384  	0.006322 
2796.783200  	0.006393 
2798.712016  	0.006359 
2800.640832  	0.006310 
2802.569648  	0.006234 
2804.498464  	0.006148 
2806.427280  	0.006096 
2808.356096  	0.006113 
2810.284912  	0.006236 
2812.213728  	0.006237 
2814.142544  	0.006194 
2816.071360  	0.006157 
2818.000176  	0.006002 
2819.928992  	0.005909 
2821.857808  	0.005833 
2823.786624  	0.005670 
2825.715440  	0.005589 
2827.644256  	0.005460 
2829.573072  	0.005352 
2831.501888  	0.005019 
2833.430704  	0.004625 
2835.359520  	0.004348 
2837.288336  	0.004122 
2839.217152  	0.003764 
2841.145968  	0.003433 
2843.074784  	0.003160 
2845.003600  	0.002832 
2846.932416  	0.002426 
2848.861232  	0.002040 
2850.790048  	0.001568 
2852.718864  	0.001178 
2854.647680  	0.000721 
2856.576496  	0.000093 
2858.505312  	-0.000604 
2860.434128  	-0.001131 
2862.362944  	-0.001854 
2864.291760  	-0.002721 
2866.220576  	-0.003371 
2868.149392  	-0.003710 
2870.078208  	-0.004021 
2872.007024  	-0.004175 
2873.935840  	-0.004092 
2875.864656  	-0.004096 
2877.793472  	-0.004326 
2879.722288  	-0.004578 
2881.651104  	-0.005002 
2883.579920  	-0.005242 
2885.508736  	-0.005078 
2887.437552  	-0.004840 
2889.366368  	-0.004796 
2891.295184  	-0.005067 
2893.224000  	-0.005183 
2895.152816  	-0.005082 
2897.081632  	-0.005378 
2899.010448  	-0.007109 
2900.939264  	-0.008666 
2902.868080  	-0.007479 
2904.796896  	-0.006089 
2906.725712  	-0.005488 
2908.654528  	-0.004926 
2910.583344  	-0.004477 
2912.512160  	-0.003815 
2914.440976  	-0.002689 
2916.369792  	-0.001873 
2918.298608  	-0.001371 
2920.227424  	-0.000947 
2922.156240  	-0.000291 
2924.085056  	0.000565 
2926.013872  	0.001432 
2927.942688  	0.002419 
2929.871504  	0.003408 
2931.800320  	0.004243 
2933.729136  	0.004902 
2935.657952  	0.005452 
2937.586768  	0.006127 
2939.515584  	0.006680 
2941.444400  	0.006904 
2943.373216  	0.007015 
2945.302032  	0.007206 
2947.230848  	0.007350 
2949.159664  	0.007074 
2951.088480  	0.006484 
2953.017296  	0.005986 
2954.946112  	0.005442 
2956.874928  	0.004719 
2958.803744  	0.003913 
2960.732560  	0.003327 
2962.661376  	0.002701 
2964.590192  	0.001791 
2966.519008  	0.000690 
2968.447824  	-0.000402 
2970.376640  	-0.001286 
2972.305456  	-0.001706 
2974.234272  	-0.001472 
2976.163088  	-0.001172 
2978.091904  	-0.001069 
2980.020720  	-0.001033 
2981.949536  	-0.000888 
2983.878352  	-0.001110 
2985.807168  	-0.002052 
2987.735984  	-0.003062 
2989.664800  	-0.002668 
2991.593616  	0.000422 
2993.522432  	0.002509 
2995.451248  	0.003011 
2997.380064  	0.003865 
2999.308880  	0.005101 
3001.237696  	0.006376 
3003.166512  	0.007919 
3005.095328  	0.009398 
3007.024144  	0.010773 
3008.952960  	0.012152 
3010.881776  	0.013654 
3012.810592  	0.015017 
3014.739408  	0.016239 
3016.668224  	0.017387 
3018.597040  	0.018744 
3020.525856  	0.020174 
3022.454672  	0.021262 
3024.383488  	0.022285 
3026.312304  	0.023213 
3028.241120  	0.024174 
3030.169936  	0.025123 
3032.098752  	0.025969 
3034.027568  	0.026845 
3035.956384  	0.027767 
3037.885200  	0.028610 
3039.814016  	0.029187 
3041.742832  	0.029811 
3043.671648  	0.030411 
3045.600464  	0.031058 
3047.529280  	0.031532 
3049.458096  	0.032029 
3051.386912  	0.032790 
3053.315728  	0.033297 
3055.244544  	0.033714 
3057.173360  	0.034304 
3059.102176  	0.034944 
3061.030992  	0.035662 
3062.959808  	0.036407 
3064.888624  	0.037019 
3066.817440  	0.037686 
3068.746256  	0.038597 
3070.675072  	0.039480 
3072.603888  	0.039938 
3074.532704  	0.040501 
3076.461520  	0.041336 
3078.390336  	0.042288 
3080.319152  	0.042977 
3082.247968  	0.043601 
3084.176784  	0.044433 
3086.105600  	0.045212 
3088.034416  	0.045960 
3089.963232  	0.046747 
3091.892048  	0.047448 
3093.820864  	0.048011 
3095.749680  	0.048657 
3097.678496  	0.049594 
3099.607312  	0.050410 
3101.536128  	0.051322 
3103.464944  	0.052241 
3105.393760  	0.052899 
3107.322576  	0.053538 
3109.251392  	0.054319 
3111.180208  	0.055055 
3113.109024  	0.055727 
3115.037840  	0.056324 
3116.966656  	0.057026 
3118.895472  	0.057669 
3120.824288  	0.058338 
3122.753104  	0.059064 
3124.681920  	0.059574 
3126.610736  	0.060020 
3128.539552  	0.060797 
3130.468368  	0.061632 
3132.397184  	0.062071 
3134.326000  	0.062596 
3136.254816  	0.063279 
3138.183632  	0.064028 
3140.112448  	0.064798 
3142.041264  	0.065402 
3143.970080  	0.065803 
3145.898896  	0.066296 
3147.827712  	0.067048 
3149.756528  	0.067782 
3151.685344  	0.068462 
3153.614160  	0.069166 
3155.542976  	0.069765 
3157.471792  	0.070424 
3159.400608  	0.071116 
3161.329424  	0.071766 
3163.258240  	0.072245 
3165.187056  	0.072683 
3167.115872  	0.073170 
3169.044688  	0.073729 
3170.973504  	0.074270 
3172.902320  	0.074741 
3174.831136  	0.075212 
3176.759952  	0.075615 
3178.688768  	0.075834 
3180.617584  	0.076184 
3182.546400  	0.076750 
3184.475216  	0.077082 
3186.404032  	0.077204 
3188.332848  	0.077461 
3190.261664  	0.077800 
3192.190480  	0.077957 
3194.119296  	0.077845 
3196.048112  	0.078040 
3197.976928  	0.078273 
3199.905744  	0.078335 
3201.834560  	0.078259 
3203.763376  	0.078222 
3205.692192  	0.078335 
3207.621008  	0.078255 
3209.549824  	0.077990 
3211.478640  	0.078070 
3213.407456  	0.078113 
3215.336272  	0.077952 
3217.265088  	0.077888 
3219.193904  	0.077790 
3221.122720  	0.077639 
3223.051536  	0.077551 
3224.980352  	0.077397 
3226.909168  	0.077134 
3228.837984  	0.076808 
3230.766800  	0.076731 
3232.695616  	0.076677 
3234.624432  	0.076544 
3236.553248  	0.076501 
3238.482064  	0.076634 
3240.410880  	0.076573 
3242.339696  	0.076414 
3244.268512  	0.076305 
3246.197328  	0.076553 
3248.126144  	0.077007 
3250.054960  	0.077147 
3251.983776  	0.077246 
3253.912592  	0.077458 
3255.841408  	0.077774 
3257.770224  	0.078095 
3259.699040  	0.078227 
3261.627856  	0.078497 
3263.556672  	0.078801 
3265.485488  	0.078911 
3267.414304  	0.079157 
3269.343120  	0.079601 
3271.271936  	0.079912 
3273.200752  	0.079788 
3275.129568  	0.079851 
3277.058384  	0.080365 
3278.987200  	0.080752 
3280.916016  	0.080971 
3282.844832  	0.081131 
3284.773648  	0.081286 
3286.702464  	0.081457 
3288.631280  	0.081663 
3290.560096  	0.081929 
3292.488912  	0.082328 
3294.417728  	0.082720 
3296.346544  	0.083130 
3298.275360  	0.083389 
3300.204176  	0.083709 
3302.132992  	0.084024 
3304.061808  	0.084298 
3305.990624  	0.084703 
3307.919440  	0.085035 
3309.848256  	0.085342 
3311.777072  	0.085676 
3313.705888  	0.086081 
3315.634704  	0.086606 
3317.563520  	0.087028 
3319.492336  	0.087230 
3321.421152  	0.087459 
3323.349968  	0.087862 
3325.278784  	0.088162 
3327.207600  	0.088310 
3329.136416  	0.088167 
3331.065232  	0.088214 
3332.994048  	0.088467 
3334.922864  	0.088775 
3336.851680  	0.088747 
3338.780496  	0.088632 
3340.709312  	0.088624 
3342.638128  	0.088550 
3344.566944  	0.088285 
3346.495760  	0.088102 
3348.424576  	0.087852 
3350.353392  	0.087350 
3352.282208  	0.086909 
3354.211024  	0.086748 
3356.139840  	0.086573 
3358.068656  	0.086321 
3359.997472  	0.086002 
3361.926288  	0.085670 
3363.855104  	0.085316 
3365.783920  	0.084906 
3367.712736  	0.084618 
3369.641552  	0.084225 
3371.570368  	0.083743 
3373.499184  	0.083428 
3375.428000  	0.083086 
3377.356816  	0.082909 
3379.285632  	0.082775 
3381.214448  	0.082363 
3383.143264  	0.081799 
3385.072080  	0.081271 
3387.000896  	0.080864 
3388.929712  	0.080599 
3390.858528  	0.080421 
3392.787344  	0.080098 
3394.716160  	0.079697 
3396.644976  	0.079406 
3398.573792  	0.079024 
3400.502608  	0.078526 
3402.431424  	0.077824 
3404.360240  	0.077176 
3406.289056  	0.076681 
3408.217872  	0.076324 
3410.146688  	0.075867 
3412.075504  	0.075444 
3414.004320  	0.074874 
3415.933136  	0.074448 
3417.861952  	0.074089 
3419.790768  	0.073666 
3421.719584  	0.073135 
3423.648400  	0.072628 
3425.577216  	0.071977 
3427.506032  	0.071472 
3429.434848  	0.070937 
3431.363664  	0.070365 
3433.292480  	0.069799 
3435.221296  	0.069232 
3437.150112  	0.068782 
3439.078928  	0.068369 
3441.007744  	0.067828 
3442.936560  	0.067256 
3444.865376  	0.066806 
3446.794192  	0.065927 
3448.723008  	0.065199 
3450.651824  	0.064665 
3452.580640  	0.064020 
3454.509456  	0.063460 
3456.438272  	0.062871 
3458.367088  	0.062324 
3460.295904  	0.061622 
3462.224720  	0.060640 
3464.153536  	0.059864 
3466.082352  	0.059211 
3468.011168  	0.058316 
3469.939984  	0.057491 
3471.868800  	0.056979 
3473.797616  	0.056180 
3475.726432  	0.055140 
3477.655248  	0.054431 
3479.584064  	0.054145 
3481.512880  	0.053450 
3483.441696  	0.052246 
3485.370512  	0.051618 
3487.299328  	0.050742 
3489.228144  	0.050048 
3491.156960  	0.049348 
3493.085776  	0.048651 
3495.014592  	0.047943 
3496.943408  	0.047195 
3498.872224  	0.046853 
3500.801040  	0.046845 
3502.729856  	0.045950 
3504.658672  	0.044514 
3506.587488  	0.044034 
3508.516304  	0.043752 
3510.445120  	0.042759 
3512.373936  	0.041658 
3514.302752  	0.041153 
3516.231568  	0.041036 
3518.160384  	0.040593 
3520.089200  	0.039903 
3522.018016  	0.039527 
3523.946832  	0.039457 
3525.875648  	0.038629 
3527.804464  	0.037058 
3529.733280  	0.036094 
3531.662096  	0.035547 
3533.590912  	0.035068 
3535.519728  	0.034853 
3537.448544  	0.034308 
3539.377360  	0.033287 
3541.306176  	0.032947 
3543.234992  	0.032932 
3545.163808  	0.033039 
3547.092624  	0.032136 
3549.021440  	0.030769 
3550.950256  	0.029797 
3552.879072  	0.028882 
3554.807888  	0.028586 
3556.736704  	0.028254 
3558.665520  	0.028044 
3560.594336  	0.027578 
3562.523152  	0.026794 
3564.451968  	0.026842 
3566.380784  	0.026699 
3568.309600  	0.024569 
3570.238416  	0.023590 
3572.167232  	0.023175 
3574.096048  	0.022131 
3576.024864  	0.021212 
3577.953680  	0.020979 
3579.882496  	0.020501 
3581.811312  	0.019926 
3583.740128  	0.019512 
3585.668944  	0.019476 
3587.597760  	0.017647 
3589.526576  	0.015859 
3591.455392  	0.015636 
3593.384208  	0.015196 
3595.313024  	0.014066 
3597.241840  	0.012663 
3599.170656  	0.011207 
3601.099472  	0.010286 
3603.028288  	0.010477 
3604.957104  	0.010827 
3606.885920  	0.010173 
3608.814736  	0.008358 
3610.743552  	0.008058 
3612.672368  	0.007214 
3614.601184  	0.006050 
3616.530000  	0.005919 
3618.458816  	0.003445 
3620.387632  	0.001352 
3622.316448  	0.002059 
3624.245264  	0.002373 
3626.174080  	0.002122 
3628.102896  	-0.001322 
3630.031712  	-0.005125 
3631.960528  	-0.002499 
3633.889344  	-0.002656 
3635.818160  	-0.003437 
3637.746976  	-0.004248 
3639.675792  	-0.004482 
3641.604608  	-0.004541 
3643.533424  	-0.004651 
3645.462240  	-0.005045 
3647.391056  	-0.008917 
3649.319872  	-0.014795 
3651.248688  	-0.016003 
3653.177504  	-0.011930 
3655.106320  	-0.012008 
3657.035136  	-0.015012 
3658.963952  	-0.014495 
3660.892768  	-0.014327 
3662.821584  	-0.014504 
3664.750400  	-0.014388 
3666.679216  	-0.014186 
3668.608032  	-0.016646 
3670.536848  	-0.020757 
3672.465664  	-0.017865 
3674.394480  	-0.019499 
3676.323296  	-0.025319 
3678.252112  	-0.020275 
3680.180928  	-0.017996 
3682.109744  	-0.016991 
3684.038560  	-0.016713 
3685.967376  	-0.016470 
3687.896192  	-0.019910 
3689.825008  	-0.023930 
3691.753824  	-0.022268 
3693.682640  	-0.019108 
3695.611456  	-0.017814 
3697.540272  	-0.016977 
3699.469088  	-0.016371 
3701.397904  	-0.017855 
3703.326720  	-0.017587 
3705.255536  	-0.015540 
3707.184352  	-0.014969 
3709.113168  	-0.016707 
3711.041984  	-0.019644 
3712.970800  	-0.018626 
3714.899616  	-0.014733 
3716.828432  	-0.013721 
3718.757248  	-0.014438 
3720.686064  	-0.015169 
3722.614880  	-0.015802 
3724.543696  	-0.015015 
3726.472512  	-0.015654 
3728.401328  	-0.015402 
3730.330144  	-0.015571 
3732.258960  	-0.017868 
3734.187776  	-0.017340 
3736.116592  	-0.018261 
3738.045408  	-0.017467 
3739.974224  	-0.015031 
3741.903040  	-0.013271 
3743.831856  	-0.016663 
3745.760672  	-0.019460 
3747.689488  	-0.016206 
3749.618304  	-0.019244 
3751.547120  	-0.022023 
3753.475936  	-0.018824 
3755.404752  	-0.015257 
3757.333568  	-0.014914 
3759.262384  	-0.016110 
3761.191200  	-0.015848 
3763.120016  	-0.013408 
3765.048832  	-0.014253 
3766.977648  	-0.014388 
3768.906464  	-0.015254 
3770.835280  	-0.016268 
3772.764096  	-0.014271 
3774.692912  	-0.013424 
3776.621728  	-0.013175 
3778.550544  	-0.014768 
3780.479360  	-0.016114 
3782.408176  	-0.014171 
3784.336992  	-0.014555 
3786.265808  	-0.014562 
3788.194624  	-0.013813 
3790.123440  	-0.013550 
3792.052256  	-0.013509 
3793.981072  	-0.013358 
3795.909888  	-0.015057 
3797.838704  	-0.015029 
3799.767520  	-0.015348 
3801.696336  	-0.020545 
3803.625152  	-0.017732 
3805.553968  	-0.015981 
3807.482784  	-0.018393 
3809.411600  	-0.015387 
3811.340416  	-0.013332 
3813.269232  	-0.012717 
3815.198048  	-0.016051 
3817.126864  	-0.018107 
3819.055680  	-0.016069 
3820.984496  	-0.020637 
3822.913312  	-0.018811 
3824.842128  	-0.014848 
3826.770944  	-0.015370 
3828.699760  	-0.014429 
3830.628576  	-0.014685 
3832.557392  	-0.015838 
3834.486208  	-0.015750 
3836.415024  	-0.017120 
3838.343840  	-0.019048 
3840.272656  	-0.018044 
3842.201472  	-0.016153 
3844.130288  	-0.015972 
3846.059104  	-0.014530 
3847.987920  	-0.013179 
3849.916736  	-0.012977 
3851.845552  	-0.015938 
3853.774368  	-0.023128 
3855.703184  	-0.019241 
3857.632000  	-0.015205 
3859.560816  	-0.013451 
3861.489632  	-0.013586 
3863.418448  	-0.014851 
3865.347264  	-0.015714 
3867.276080  	-0.013675 
3869.204896  	-0.015375 
3871.133712  	-0.016076 
3873.062528  	-0.014678 
3874.991344  	-0.015583 
3876.920160  	-0.013273 
3878.848976  	-0.012636 
3880.777792  	-0.014130 
3882.706608  	-0.012951 
3884.635424  	-0.013231 
3886.564240  	-0.015152 
3888.493056  	-0.013363 
3890.421872  	-0.013960 
3892.350688  	-0.015287 
3894.279504  	-0.013669 
3896.208320  	-0.012344 
3898.137136  	-0.012456 
3900.065952  	-0.013181 
3901.994768  	-0.013065 
3903.923584  	-0.014402 
3905.852400  	-0.014830 
3907.781216  	-0.013811 
3909.710032  	-0.013267 
3911.638848  	-0.013218 
3913.567664  	-0.012781 
3915.496480  	-0.012198 
3917.425296  	-0.012621 
3919.354112  	-0.013124 
3921.282928  	-0.012828 
3923.211744  	-0.012088 
3925.140560  	-0.012512 
3927.069376  	-0.012703 
3928.998192  	-0.012517 
3930.927008  	-0.012098 
3932.855824  	-0.012319 
3934.784640  	-0.012604 
3936.713456  	-0.012638 
3938.642272  	-0.012553 
3940.571088  	-0.011983 
3942.499904  	-0.012084 
3944.428720  	-0.012483 
3946.357536  	-0.011990 
3948.286352  	-0.011864 
3950.215168  	-0.012608 
3952.143984  	-0.013257 
3954.072800  	-0.013178 
3956.001616  	-0.012849 
3957.930432  	-0.012766 
3959.859248  	-0.012640 
3961.788064  	-0.012577 
3963.716880  	-0.012895 
3965.645696  	-0.013223 
3967.574512  	-0.013121 
3969.503328  	-0.012900 
3971.432144  	-0.012900 
3973.360960  	-0.012835 
3975.289776  	-0.012817 
3977.218592  	-0.012903 
3979.147408  	-0.012964 
3981.076224  	-0.013035 
3983.005040  	-0.013063 
3984.933856  	-0.013068 
3986.862672  	-0.013025 
3988.791488  	-0.012827 
3990.720304  	-0.012639 
3992.649120  	-0.012703 
3994.577936  	-0.012924 
3996.506752  	-0.012976 
3998.435568  	-0.013083 
4000.364384  	-0.013071 