##TITLE=No Description
##DATA TYPE=INFRARED SPECTRUM
##XUNITS=1/CM
##YUNITS=Abs
399.264912  	0.604742 
401.193728  	0.608056 
403.122544  	0.625405 
405.051360  	0.619671 
406.980176  	0.610667 
408.908992  	0.583316 
410.837808  	0.577030 
412.766624  	0.589058 
414.695440  	0.591908 
416.624256  	0.578331 
418.553072  	0.592818 
420.481888  	0.585288 
422.410704  	0.587315 
424.339520  	0.582985 
426.268336  	0.580094 
428.197152  	0.572653 
430.125968  	0.577766 
432.054784  	0.576087 
433.983600  	0.571117 
435.912416  	0.564839 
437.841232  	0.564674 
439.770048  	0.552099 
441.698864  	0.547011 
443.627680  	0.545684 
445.556496  	0.544540 
447.485312  	0.537521 
449.414128  	0.537592 
451.342944  	0.536653 
453.271760  	0.543057 
455.200576  	0.542642 
457.129392  	0.548124 
459.058208  	0.542493 
460.987024  	0.540945 
462.915840  	0.537829 
464.844656  	0.535751 
466.773472  	0.533393 
468.702288  	0.539845 
470.631104  	0.535848 
472.559920  	0.532215 
474.488736  	0.531317 
476.417552  	0.537696 
478.346368  	0.532765 
480.275184  	0.529470 
482.204000  	0.529993 
484.132816  	0.528188 
486.061632  	0.520758 
487.990448  	0.523867 
489.919264  	0.523431 
491.848080  	0.526435 
493.776896  	0.523748 
495.705712  	0.519682 
497.634528  	0.516926 
499.563344  	0.520989 
501.492160  	0.521098 
503.420976  	0.518013 
505.349792  	0.514464 
507.278608  	0.515803 
509.207424  	0.515686 
511.136240  	0.512698 
513.065056  	0.510959 
514.993872  	0.516760 
516.922688  	0.521641 
518.851504  	0.525799 
520.780320  	0.522821 
522.709136  	0.518675 
524.637952  	0.516219 
526.566768  	0.516625 
528.495584  	0.514004 
530.424400  	0.512069 
532.353216  	0.506764 
534.282032  	0.504770 
536.210848  	0.499551 
538.139664  	0.493505 
540.068480  	0.487991 
541.997296  	0.485534 
543.926112  	0.481538 
545.854928  	0.477511 
547.783744  	0.473557 
549.712560  	0.470458 
551.641376  	0.464334 
553.570192  	0.460423 
555.499008  	0.457337 
557.427824  	0.455530 
559.356640  	0.450583 
561.285456  	0.445956 
563.214272  	0.442193 
565.143088  	0.439494 
567.071904  	0.436611 
569.000720  	0.434085 
570.929536  	0.431559 
572.858352  	0.429419 
574.787168  	0.426138 
576.715984  	0.423735 
578.644800  	0.419790 
580.573616  	0.415727 
582.502432  	0.410914 
584.431248  	0.407969 
586.360064  	0.404178 
588.288880  	0.401268 
590.217696  	0.398308 
592.146512  	0.395873 
594.075328  	0.393060 
596.004144  	0.391246 
597.932960  	0.389460 
599.861776  	0.388020 
601.790592  	0.385813 
603.719408  	0.384652 
605.648224  	0.383279 
607.577040  	0.382010 
609.505856  	0.380231 
611.434672  	0.378790 
613.363488  	0.377019 
615.292304  	0.375740 
617.221120  	0.373851 
619.149936  	0.372359 
621.078752  	0.370301 
623.007568  	0.369074 
624.936384  	0.367988 
626.865200  	0.366480 
628.794016  	0.364674 
630.722832  	0.364289 
632.651648  	0.363984 
634.580464  	0.363590 
636.509280  	0.363079 
638.438096  	0.362722 
640.366912  	0.361701 
642.295728  	0.360518 
644.224544  	0.357918 
646.153360  	0.354511 
648.082176  	0.349548 
650.010992  	0.345262 
651.939808  	0.341579 
653.868624  	0.337773 
655.797440  	0.334062 
657.726256  	0.330295 
659.655072  	0.326614 
661.583888  	0.323152 
663.512704  	0.319204 
665.441520  	0.315705 
667.370336  	0.307096 
669.299152  	0.301131 
671.227968  	0.302220 
673.156784  	0.299867 
675.085600  	0.296369 
677.014416  	0.293444 
678.943232  	0.291011 
680.872048  	0.289632 
682.800864  	0.288441 
684.729680  	0.286722 
686.658496  	0.285241 
688.587312  	0.284292 
690.516128  	0.282718 
692.444944  	0.281534 
694.373760  	0.280585 
696.302576  	0.278933 
698.231392  	0.276765 
700.160208  	0.274437 
702.089024  	0.272076 
704.017840  	0.269894 
705.946656  	0.267095 
707.875472  	0.264630 
709.804288  	0.262838 
711.733104  	0.261478 
713.661920  	0.259149 
715.590736  	0.257557 
717.519552  	0.256975 
719.448368  	0.256859 
721.377184  	0.256828 
723.306000  	0.257418 
725.234816  	0.257609 
727.163632  	0.257073 
729.092448  	0.254898 
731.021264  	0.251773 
732.950080  	0.248414 
734.878896  	0.245275 
736.807712  	0.242078 
738.736528  	0.239508 
740.665344  	0.237689 
742.594160  	0.236017 
744.522976  	0.234328 
746.451792  	0.232795 
748.380608  	0.231158 
750.309424  	0.229671 
752.238240  	0.228800 
754.167056  	0.227984 
756.095872  	0.226411 
758.024688  	0.225269 
759.953504  	0.224833 
761.882320  	0.225284 
763.811136  	0.225449 
765.739952  	0.224480 
767.668768  	0.222338 
769.597584  	0.220128 
771.526400  	0.218911 
773.455216  	0.219682 
775.384032  	0.222645 
777.312848  	0.227357 
779.241664  	0.230982 
781.170480  	0.231086 
783.099296  	0.227835 
785.028112  	0.222158 
786.956928  	0.216275 
788.885744  	0.211629 
790.814560  	0.208043 
792.743376  	0.205474 
794.672192  	0.203721 
796.601008  	0.202684 
798.529824  	0.200197 
800.458640  	0.195808 
802.387456  	0.191840 
804.316272  	0.189659 
806.245088  	0.188439 
808.173904  	0.187487 
810.102720  	0.186931 
812.031536  	0.186859 
813.960352  	0.187091 
815.889168  	0.187114 
817.817984  	0.187001 
819.746800  	0.187065 
821.675616  	0.187184 
823.604432  	0.186807 
825.533248  	0.186382 
827.462064  	0.185823 
829.390880  	0.184899 
831.319696  	0.183661 
833.248512  	0.181692 
835.177328  	0.179280 
837.106144  	0.176484 
839.034960  	0.173546 
840.963776  	0.170131 
842.892592  	0.166233 
844.821408  	0.162688 
846.750224  	0.159940 
848.679040  	0.157242 
850.607856  	0.154934 
852.536672  	0.153078 
854.465488  	0.151342 
856.394304  	0.149786 
858.323120  	0.148081 
860.251936  	0.146040 
862.180752  	0.143681 
864.109568  	0.140797 
866.038384  	0.138056 
867.967200  	0.136044 
869.896016  	0.134497 
871.824832  	0.133379 
873.753648  	0.132762 
875.682464  	0.133117 
877.611280  	0.133493 
879.540096  	0.134272 
881.468912  	0.136277 
883.397728  	0.137403 
885.326544  	0.138354 
887.255360  	0.138878 
889.184176  	0.137689 
891.112992  	0.135531 
893.041808  	0.133873 
894.970624  	0.131536 
896.899440  	0.128080 
898.828256  	0.124379 
900.757072  	0.120809 
902.685888  	0.117825 
904.614704  	0.115856 
906.543520  	0.115856 
908.472336  	0.117373 
910.401152  	0.119596 
912.329968  	0.122191 
914.258784  	0.125231 
916.187600  	0.128114 
918.116416  	0.130479 
920.045232  	0.132011 
921.974048  	0.132860 
923.902864  	0.133285 
925.831680  	0.133270 
927.760496  	0.133270 
929.689312  	0.133555 
931.618128  	0.134291 
933.546944  	0.134774 
935.475760  	0.134976 
937.404576  	0.134761 
939.333392  	0.134357 
941.262208  	0.134338 
943.191024  	0.135661 
945.119840  	0.138974 
947.048656  	0.144362 
948.977472  	0.151457 
950.906288  	0.160073 
952.835104  	0.170025 
954.763920  	0.180569 
956.692736  	0.190658 
958.621552  	0.199628 
960.550368  	0.206029 
962.479184  	0.209257 
964.408000  	0.208712 
966.336816  	0.204513 
968.265632  	0.196629 
970.194448  	0.185909 
972.123264  	0.173419 
974.052080  	0.160120 
975.980896  	0.147302 
977.909712  	0.135363 
979.838528  	0.124449 
981.767344  	0.115310 
983.696160  	0.108336 
985.624976  	0.103935 
987.553792  	0.101904 
989.482608  	0.102546 
991.411424  	0.105572 
993.340240  	0.110063 
995.269056  	0.115827 
997.197872  	0.122179 
999.126688  	0.128690 
1001.055504  	0.135110 
1002.984320  	0.141568 
1004.913136  	0.148022 
1006.841952  	0.154106 
1008.770768  	0.159277 
1010.699584  	0.163030 
1012.628400  	0.165145 
1014.557216  	0.165930 
1016.486032  	0.166045 
1018.414848  	0.165898 
1020.343664  	0.165583 
1022.272480  	0.164938 
1024.201296  	0.163569 
1026.130112  	0.160303 
1028.058928  	0.159056 
1029.987744  	0.161970 
1031.916560  	0.163938 
1033.845376  	0.164843 
1035.774192  	0.165758 
1037.703008  	0.168185 
1039.631824  	0.174115 
1041.560640  	0.182535 
1043.489456  	0.193583 
1045.418272  	0.207390 
1047.347088  	0.223066 
1049.275904  	0.238026 
1051.204720  	0.250618 
1053.133536  	0.259356 
1055.062352  	0.263725 
1056.991168  	0.264125 
1058.919984  	0.265485 
1060.848800  	0.266679 
1062.777616  	0.264379 
1064.706432  	0.258184 
1066.635248  	0.253088 
1068.564064  	0.251384 
1070.492880  	0.246648 
1072.421696  	0.238640 
1074.350512  	0.232708 
1076.279328  	0.230643 
1078.208144  	0.232603 
1080.136960  	0.237268 
1082.065776  	0.242947 
1083.994592  	0.247189 
1085.923408  	0.248449 
1087.852224  	0.246680 
1089.781040  	0.243056 
1091.709856  	0.238011 
1093.638672  	0.230082 
1095.567488  	0.219391 
1097.496304  	0.207557 
1099.425120  	0.194895 
1101.353936  	0.182113 
1103.282752  	0.169615 
1105.211568  	0.157660 
1107.140384  	0.146219 
1109.069200  	0.135374 
1110.998016  	0.125473 
1112.926832  	0.116345 
1114.855648  	0.108213 
1116.784464  	0.100747 
1118.713280  	0.093566 
1120.642096  	0.086612 
1122.570912  	0.080109 
1124.499728  	0.074157 
1126.428544  	0.068927 
1128.357360  	0.064010 
1130.286176  	0.059955 
1132.214992  	0.056549 
1134.143808  	0.053845 
1136.072624  	0.051415 
1138.001440  	0.049394 
1139.930256  	0.047176 
1141.859072  	0.044978 
1143.787888  	0.042606 
1145.716704  	0.040418 
1147.645520  	0.038309 
1149.574336  	0.036641 
1151.503152  	0.035263 
1153.431968  	0.034622 
1155.360784  	0.034617 
1157.289600  	0.035249 
1159.218416  	0.036671 
1161.147232  	0.038663 
1163.076048  	0.040681 
1165.004864  	0.042863 
1166.933680  	0.044854 
1168.862496  	0.047286 
1170.791312  	0.049614 
1172.720128  	0.052355 
1174.648944  	0.054991 
1176.577760  	0.057730 
1178.506576  	0.060203 
1180.435392  	0.062796 
1182.364208  	0.065417 
1184.293024  	0.068437 
1186.221840  	0.071683 
1188.150656  	0.075426 
1190.079472  	0.079729 
1192.008288  	0.084991 
1193.937104  	0.091391 
1195.865920  	0.098770 
1197.794736  	0.106747 
1199.723552  	0.115631 
1201.652368  	0.124595 
1203.581184  	0.133703 
1205.510000  	0.142719 
1207.438816  	0.151347 
1209.367632  	0.159380 
1211.296448  	0.166541 
1213.225264  	0.172529 
1215.154080  	0.177193 
1217.082896  	0.180561 
1219.011712  	0.182792 
1220.940528  	0.184391 
1222.869344  	0.185507 
1224.798160  	0.185793 
1226.726976  	0.185190 
1228.655792  	0.184349 
1230.584608  	0.182832 
1232.513424  	0.180749 
1234.442240  	0.178000 
1236.371056  	0.174610 
1238.299872  	0.169951 
1240.228688  	0.162839 
1242.157504  	0.155777 
1244.086320  	0.149841 
1246.015136  	0.142428 
1247.943952  	0.134216 
1249.872768  	0.125984 
1251.801584  	0.118899 
1253.730400  	0.111904 
1255.659216  	0.104965 
1257.588032  	0.098562 
1259.516848  	0.092448 
1261.445664  	0.086705 
1263.374480  	0.081411 
1265.303296  	0.077036 
1267.232112  	0.073510 
1269.160928  	0.070830 
1271.089744  	0.068780 
1273.018560  	0.067642 
1274.947376  	0.067291 
1276.876192  	0.067464 
1278.805008  	0.067401 
1280.733824  	0.066440 
1282.662640  	0.064383 
1284.591456  	0.061901 
1286.520272  	0.059850 
1288.449088  	0.058542 
1290.377904  	0.057680 
1292.306720  	0.057738 
1294.235536  	0.057704 
1296.164352  	0.056847 
1298.093168  	0.054564 
1300.021984  	0.051626 
1301.950800  	0.048565 
1303.879616  	0.045736 
1305.808432  	0.042561 
1307.737248  	0.039560 
1309.666064  	0.036695 
1311.594880  	0.034782 
1313.523696  	0.033219 
1315.452512  	0.032095 
1317.381328  	0.031602 
1319.310144  	0.031422 
1321.238960  	0.031356 
1323.167776  	0.031904 
1325.096592  	0.032669 
1327.025408  	0.033226 
1328.954224  	0.033207 
1330.883040  	0.032730 
1332.811856  	0.031844 
1334.740672  	0.031478 
1336.669488  	0.031718 
1338.598304  	0.032203 
1340.527120  	0.030701 
1342.455936  	0.028595 
1344.384752  	0.028016 
1346.313568  	0.028288 
1348.242384  	0.028840 
1350.171200  	0.030046 
1352.100016  	0.031630 
1354.028832  	0.033652 
1355.957648  	0.035469 
1357.886464  	0.037442 
1359.815280  	0.039942 
1361.744096  	0.042605 
1363.672912  	0.043677 
1365.601728  	0.044359 
1367.530544  	0.045615 
1369.459360  	0.046013 
1371.388176  	0.045818 
1373.316992  	0.044676 
1375.245808  	0.041330 
1377.174624  	0.038757 
1379.103440  	0.035927 
1381.032256  	0.032844 
1382.961072  	0.030558 
1384.889888  	0.030015 
1386.818704  	0.029523 
1388.747520  	0.027485 
1390.676336  	0.025098 
1392.605152  	0.021980 
1394.533968  	0.020164 
1396.462784  	0.023135 
1398.391600  	0.024324 
1400.320416  	0.023284 
1402.249232  	0.023562 
1404.178048  	0.024196 
1406.106864  	0.024662 
1408.035680  	0.026456 
1409.964496  	0.029118 
1411.893312  	0.032090 
1413.822128  	0.035091 
1415.750944  	0.039216 
1417.679760  	0.042003 
1419.608576  	0.041118 
1421.537392  	0.041367 
1423.466208  	0.041709 
1425.395024  	0.039967 
1427.323840  	0.038708 
1429.252656  	0.036270 
1431.181472  	0.034574 
1433.110288  	0.034700 
1435.039104  	0.035454 
1436.967920  	0.034367 
1438.896736  	0.034828 
1440.825552  	0.036097 
1442.754368  	0.036699 
1444.683184  	0.036836 
1446.612000  	0.036741 
1448.540816  	0.035511 
1450.469632  	0.036047 
1452.398448  	0.037004 
1454.327264  	0.038177 
1456.256080  	0.037199 
1458.184896  	0.034029 
1460.113712  	0.035966 
1462.042528  	0.037768 
1463.971344  	0.037175 
1465.900160  	0.037466 
1467.828976  	0.040551 
1469.757792  	0.043954 
1471.686608  	0.046631 
1473.615424  	0.051858 
1475.544240  	0.058706 
1477.473056  	0.064220 
1479.401872  	0.068051 
1481.330688  	0.071135 
1483.259504  	0.073172 
1485.188320  	0.074685 
1487.117136  	0.074446 
1489.045952  	0.073672 
1490.974768  	0.070209 
1492.903584  	0.068249 
1494.832400  	0.065198 
1496.761216  	0.058120 
1498.690032  	0.052325 
1500.618848  	0.049246 
1502.547664  	0.046084 
1504.476480  	0.041691 
1506.405296  	0.034496 
1508.334112  	0.033452 
1510.262928  	0.034298 
1512.191744  	0.032387 
1514.120560  	0.031439 
1516.049376  	0.030569 
1517.978192  	0.029163 
1519.907008  	0.030342 
1521.835824  	0.029556 
1523.764640  	0.034291 
1525.693456  	0.039127 
1527.622272  	0.041372 
1529.551088  	0.042389 
1531.479904  	0.042565 
1533.408720  	0.038250 
1535.337536  	0.035487 
1537.266352  	0.033782 
1539.195168  	0.024731 
1541.123984  	0.017444 
1543.052800  	0.021799 
1544.981616  	0.023157 
1546.910432  	0.022824 
1548.839248  	0.023500 
1550.768064  	0.023424 
1552.696880  	0.022961 
1554.625696  	0.022856 
1556.554512  	0.022387 
1558.483328  	0.018021 
1560.412144  	0.022500 
1562.340960  	0.031231 
1564.269776  	0.035276 
1566.198592  	0.040442 
1568.127408  	0.044257 
1570.056224  	0.048423 
1571.985040  	0.056073 
1573.913856  	0.060779 
1575.842672  	0.060509 
1577.771488  	0.063678 
1579.700304  	0.066759 
1581.629120  	0.066863 
1583.557936  	0.066279 
1585.486752  	0.066963 
1587.415568  	0.069097 
1589.344384  	0.073313 
1591.273200  	0.079008 
1593.202016  	0.085843 
1595.130832  	0.093093 
1597.059648  	0.100860 
1598.988464  	0.107454 
1600.917280  	0.113284 
1602.846096  	0.117114 
1604.774912  	0.119587 
1606.703728  	0.119853 
1608.632544  	0.118857 
1610.561360  	0.116936 
1612.490176  	0.115774 
1614.418992  	0.113552 
1616.347808  	0.109557 
1618.276624  	0.110891 
1620.205440  	0.116391 
1622.134256  	0.118909 
1624.063072  	0.123799 
1625.991888  	0.131136 
1627.920704  	0.138893 
1629.849520  	0.149006 
1631.778336  	0.158972 
1633.707152  	0.165016 
1635.635968  	0.170594 
1637.564784  	0.181772 
1639.493600  	0.191422 
1641.422416  	0.197420 
1643.351232  	0.201714 
1645.280048  	0.201605 
1647.208864  	0.199811 
1649.137680  	0.202764 
1651.066496  	0.203972 
1652.995312  	0.194043 
1654.924128  	0.194650 
1656.852944  	0.197666 
1658.781760  	0.196370 
1660.710576  	0.192601 
1662.639392  	0.186517 
1664.568208  	0.182984 
1666.497024  	0.181506 
1668.425840  	0.175333 
1670.354656  	0.167352 
1672.283472  	0.165210 
1674.212288  	0.162413 
1676.141104  	0.157616 
1678.069920  	0.158107 
1679.998736  	0.157651 
1681.927552  	0.155813 
1683.856368  	0.148736 
1685.785184  	0.148112 
1687.714000  	0.152028 
1689.642816  	0.151567 
1691.571632  	0.149864 
1693.500448  	0.149032 
1695.429264  	0.143839 
1697.358080  	0.140177 
1699.286896  	0.137818 
1701.215712  	0.131894 
1703.144528  	0.132515 
1705.073344  	0.128082 
1707.002160  	0.122163 
1708.930976  	0.118670 
1710.859792  	0.113061 
1712.788608  	0.106537 
1714.717424  	0.097971 
1716.646240  	0.086315 
1718.575056  	0.072604 
1720.503872  	0.066563 
1722.432688  	0.061002 
1724.361504  	0.052026 
1726.290320  	0.044487 
1728.219136  	0.038320 
1730.147952  	0.032779 
1732.076768  	0.027835 
1734.005584  	0.019786 
1735.934400  	0.015099 
1737.863216  	0.015486 
1739.792032  	0.011321 
1741.720848  	0.010496 
1743.649664  	0.010372 
1745.578480  	0.009420 
1747.507296  	0.007443 
1749.436112  	0.006329 
1751.364928  	0.005147 
1753.293744  	0.004825 
1755.222560  	0.004728 
1757.151376  	0.003884 
1759.080192  	0.003500 
1761.009008  	0.002803 
1762.937824  	0.001043 
1764.866640  	0.001834 
1766.795456  	0.002496 
1768.724272  	0.001777 
1770.653088  	-0.000878 
1772.581904  	-0.004035 
1774.510720  	-0.002232 
1776.439536  	0.000026 
1778.368352  	0.000447 
1780.297168  	-0.000121 
1782.225984  	-0.000735 
1784.154800  	-0.000080 
1786.083616  	-0.000687 
1788.012432  	-0.000508 
1789.941248  	-0.000203 
1791.870064  	-0.001844 
1793.798880  	-0.003137 
1795.727696  	-0.001275 
1797.656512  	-0.001614 
1799.585328  	-0.001931 
1801.514144  	-0.001440 
1803.442960  	-0.001453 
1805.371776  	-0.002188 
1807.300592  	-0.001924 
1809.229408  	-0.002451 
1811.158224  	-0.002879 
1813.087040  	-0.002934 
1815.015856  	-0.002406 
1816.944672  	-0.002296 
1818.873488  	-0.002403 
1820.802304  	-0.002646 
1822.731120  	-0.001950 
1824.659936  	-0.002627 
1826.588752  	-0.003118 
1828.517568  	-0.003946 
1830.446384  	-0.004779 
1832.375200  	-0.003687 
1834.304016  	-0.002609 
1836.232832  	-0.002683 
1838.161648  	-0.002590 
1840.090464  	-0.002794 
1842.019280  	-0.002231 
1843.948096  	-0.003795 
1845.876912  	-0.003571 
1847.805728  	-0.002664 
1849.734544  	-0.002898 
1851.663360  	-0.003382 
1853.592176  	-0.003418 
1855.520992  	-0.003484 
1857.449808  	-0.003122 
1859.378624  	-0.003343 
1861.307440  	-0.003391 
1863.236256  	-0.003836 
1865.165072  	-0.003485 
1867.093888  	-0.003770 
1869.022704  	-0.004126 
1870.951520  	-0.004113 
1872.880336  	-0.003614 
1874.809152  	-0.003862 
1876.737968  	-0.003838 
1878.666784  	-0.003915 
1880.595600  	-0.003412 
1882.524416  	-0.003897 
1884.453232  	-0.003887 
1886.382048  	-0.003987 
1888.310864  	-0.003913 
1890.239680  	-0.004595 
1892.168496  	-0.004094 
1894.097312  	-0.003803 
1896.026128  	-0.003444 
1897.954944  	-0.003645 
1899.883760  	-0.003627 
1901.812576  	-0.003987 
1903.741392  	-0.003974 
1905.670208  	-0.003939 
1907.599024  	-0.003507 
1909.527840  	-0.003868 
1911.456656  	-0.003524 
1913.385472  	-0.003595 
1915.314288  	-0.003404 
1917.243104  	-0.003799 
1919.171920  	-0.003786 
1921.100736  	-0.003667 
1923.029552  	-0.003431 
1924.958368  	-0.003996 
1926.887184  	-0.003698 
1928.816000  	-0.004233 
1930.744816  	-0.004374 
1932.673632  	-0.004603 
1934.602448  	-0.003940 
1936.531264  	-0.003838 
1938.460080  	-0.003426 
1940.388896  	-0.003787 
1942.317712  	-0.003895 
1944.246528  	-0.004553 
1946.175344  	-0.003678 
1948.104160  	-0.003807 
1950.032976  	-0.003378 
1951.961792  	-0.003754 
1953.890608  	-0.003581 
1955.819424  	-0.004093 
1957.748240  	-0.003687 
1959.677056  	-0.004119 
1961.605872  	-0.003329 
1963.534688  	-0.003534 
1965.463504  	-0.003489 
1967.392320  	-0.004711 
1969.321136  	-0.004154 
1971.249952  	-0.003902 
1973.178768  	-0.002608 
1975.107584  	-0.003108 
1977.036400  	-0.002140 
1978.965216  	-0.001547 
1980.894032  	-0.001792 
1982.822848  	-0.003181 
1984.751664  	-0.003220 
1986.680480  	-0.003701 
1988.609296  	-0.002782 
1990.538112  	-0.003191 
1992.466928  	-0.003145 
1994.395744  	-0.004217 
1996.324560  	-0.004058 
1998.253376  	-0.004080 
2000.182192  	-0.004085 
2002.111008  	-0.004623 
2004.039824  	-0.003892 
2005.968640  	-0.003941 
2007.897456  	-0.003228 
2009.826272  	-0.003694 
2011.755088  	-0.003541 
2013.683904  	-0.004497 
2015.612720  	-0.003864 
2017.541536  	-0.003898 
2019.470352  	-0.003320 
2021.399168  	-0.004241 
2023.327984  	-0.004111 
2025.256800  	-0.003352 
2027.185616  	-0.002760 
2029.114432  	-0.002870 
2031.043248  	-0.002824 
2032.972064  	-0.003748 
2034.900880  	-0.003118 
2036.829696  	-0.004085 
2038.758512  	-0.003417 
2040.687328  	-0.003449 
2042.616144  	-0.002839 
2044.544960  	-0.003326 
2046.473776  	-0.002813 
2048.402592  	-0.002229 
2050.331408  	-0.002184 
2052.260224  	-0.003848 
2054.189040  	-0.004266 
2056.117856  	-0.004758 
2058.046672  	-0.003939 
2059.975488  	-0.003566 
2061.904304  	-0.003733 
2063.833120  	-0.003739 
2065.761936  	-0.003236 
2067.690752  	-0.003860 
2069.619568  	-0.003367 
2071.548384  	-0.003127 
2073.477200  	-0.003438 
2075.406016  	-0.003706 
2077.334832  	-0.003204 
2079.263648  	-0.002932 
2081.192464  	-0.002776 
2083.121280  	-0.003247 
2085.050096  	-0.003362 
2086.978912  	-0.003353 
2088.907728  	-0.002961 
2090.836544  	-0.003468 
2092.765360  	-0.003642 
2094.694176  	-0.003416 
2096.622992  	-0.003225 
2098.551808  	-0.003349 
2100.480624  	-0.002736 
2102.409440  	-0.002903 
2104.338256  	-0.003082 
2106.267072  	-0.002902 
2108.195888  	-0.002536 
2110.124704  	-0.002646 
2112.053520  	-0.002700 
2113.982336  	-0.003017 
2115.911152  	-0.003165 
2117.839968  	-0.003267 
2119.768784  	-0.003275 
2121.697600  	-0.003654 
2123.626416  	-0.003506 
2125.555232  	-0.003711 
2127.484048  	-0.003588 
2129.412864  	-0.003983 
2131.341680  	-0.004224 
2133.270496  	-0.004396 
2135.199312  	-0.003525 
2137.128128  	-0.002883 
2139.056944  	-0.002368 
2140.985760  	-0.002762 
2142.914576  	-0.002621 
2144.843392  	-0.002448 
2146.772208  	-0.002697 
2148.701024  	-0.004035 
2150.629840  	-0.002907 
2152.558656  	-0.002617 
2154.487472  	-0.003506 
2156.416288  	-0.004911 
2158.345104  	-0.003344 
2160.273920  	-0.001191 
2162.202736  	-0.000047 
2164.131552  	-0.000507 
2166.060368  	-0.000884 
2167.989184  	-0.000953 
2169.918000  	-0.000133 
2171.846816  	-0.001495 
2173.775632  	-0.001779 
2175.704448  	-0.001372 
2177.633264  	-0.001423 
2179.562080  	-0.002188 
2181.490896  	-0.001413 
2183.419712  	-0.001606 
2185.348528  	-0.001745 
2187.277344  	-0.002260 
2189.206160  	-0.002411 
2191.134976  	-0.003093 
2193.063792  	-0.003227 
2194.992608  	-0.003211 
2196.921424  	-0.003134 
2198.850240  	-0.003175 
2200.779056  	-0.002619 
2202.707872  	-0.002471 
2204.636688  	-0.002667 
2206.565504  	-0.002892 
2208.494320  	-0.002527 
2210.423136  	-0.003472 
2212.351952  	-0.003175 
2214.280768  	-0.002932 
2216.209584  	-0.003646 
2218.138400  	-0.004137 
2220.067216  	-0.003363 
2221.996032  	-0.003420 
2223.924848  	-0.003396 
2225.853664  	-0.003010 
2227.782480  	-0.002526 
2229.711296  	-0.002991 
2231.640112  	-0.003275 
2233.568928  	-0.003804 
2235.497744  	-0.003430 
2237.426560  	-0.003410 
2239.355376  	-0.003486 
2241.284192  	-0.003649 
2243.213008  	-0.003586 
2245.141824  	-0.003980 
2247.070640  	-0.003612 
2248.999456  	-0.003634 
2250.928272  	-0.003846 
2252.857088  	-0.004160 
2254.785904  	-0.004372 
2256.714720  	-0.005150 
2258.643536  	-0.005010 
2260.572352  	-0.004761 
2262.501168  	-0.004711 
2264.429984  	-0.004820 
2266.358800  	-0.004612 
2268.287616  	-0.004769 
2270.216432  	-0.004803 
2272.145248  	-0.004917 
2274.074064  	-0.004801 
2276.002880  	-0.004623 
2277.931696  	-0.003993 
2279.860512  	-0.003767 
2281.789328  	-0.003782 
2283.718144  	-0.004103 
2285.646960  	-0.004011 
2287.575776  	-0.003796 
2289.504592  	-0.003970 
2291.433408  	-0.004206 
2293.362224  	-0.003860 
2295.291040  	-0.003608 
2297.219856  	-0.003524 
2299.148672  	-0.003798 
2301.077488  	-0.003766 
2303.006304  	-0.003834 
2304.935120  	-0.003764 
2306.863936  	-0.003724 
2308.792752  	-0.003998 
2310.721568  	-0.004872 
2312.650384  	-0.005746 
2314.579200  	-0.006967 
2316.508016  	-0.008360 
2318.436832  	-0.009945 
2320.365648  	-0.012006 
2322.294464  	-0.014018 
2324.223280  	-0.015770 
2326.152096  	-0.018158 
2328.080912  	-0.020524 
2330.009728  	-0.022792 
2331.938544  	-0.024927 
2333.867360  	-0.026833 
2335.796176  	-0.028415 
2337.724992  	-0.030094 
2339.653808  	-0.030368 
2341.582624  	-0.030357 
2343.511440  	-0.028697 
2345.440256  	-0.025335 
2347.369072  	-0.018757 
2349.297888  	-0.015051 
2351.226704  	-0.018993 
2353.155520  	-0.026493 
2355.084336  	-0.032301 
2357.013152  	-0.036716 
2358.941968  	-0.039283 
2360.870784  	-0.040727 
2362.799600  	-0.039604 
2364.728416  	-0.037246 
2366.657232  	-0.033532 
2368.586048  	-0.029146 
2370.514864  	-0.024389 
2372.443680  	-0.019419 
2374.372496  	-0.014737 
2376.301312  	-0.010712 
2378.230128  	-0.007579 
2380.158944  	-0.005478 
2382.087760  	-0.004462 
2384.016576  	-0.004326 
2385.945392  	-0.004298 
2387.874208  	-0.004461 
2389.803024  	-0.004742 
2391.731840  	-0.004958 
2393.660656  	-0.004915 
2395.589472  	-0.004935 
2397.518288  	-0.004728 
2399.447104  	-0.004772 
2401.375920  	-0.004948 
2403.304736  	-0.005199 
2405.233552  	-0.005021 
2407.162368  	-0.005077 
2409.091184  	-0.005084 
2411.020000  	-0.005062 
2412.948816  	-0.005016 
2414.877632  	-0.004886 
2416.806448  	-0.004757 
2418.735264  	-0.004940 
2420.664080  	-0.005148 
2422.592896  	-0.005245 
2424.521712  	-0.005036 
2426.450528  	-0.005065 
2428.379344  	-0.005039 
2430.308160  	-0.004847 
2432.236976  	-0.004562 
2434.165792  	-0.004478 
2436.094608  	-0.004567 
2438.023424  	-0.004539 
2439.952240  	-0.004287 
2441.881056  	-0.004376 
2443.809872  	-0.004465 
2445.738688  	-0.004332 
2447.667504  	-0.004021 
2449.596320  	-0.003896 
2451.525136  	-0.003698 
2453.453952  	-0.003810 
2455.382768  	-0.004203 
2457.311584  	-0.004458 
2459.240400  	-0.004566 
2461.169216  	-0.004555 
2463.098032  	-0.004506 
2465.026848  	-0.004362 
2466.955664  	-0.004237 
2468.884480  	-0.004559 
2470.813296  	-0.004660 
2472.742112  	-0.004695 
2474.670928  	-0.004693 
2476.599744  	-0.004682 
2478.528560  	-0.004405 
2480.457376  	-0.004333 
2482.386192  	-0.004506 
2484.315008  	-0.004357 
2486.243824  	-0.004242 
2488.172640  	-0.004254 
2490.101456  	-0.003972 
2492.030272  	-0.003777 
2493.959088  	-0.003927 
2495.887904  	-0.004050 
2497.816720  	-0.003969 
2499.745536  	-0.003851 
2501.674352  	-0.003675 
2503.603168  	-0.003401 
2505.531984  	-0.003282 
2507.460800  	-0.003512 
2509.389616  	-0.003439 
2511.318432  	-0.003436 
2513.247248  	-0.003538 
2515.176064  	-0.003450 
2517.104880  	-0.003309 
2519.033696  	-0.003498 
2520.962512  	-0.003458 
2522.891328  	-0.003268 
2524.820144  	-0.003272 
2526.748960  	-0.003289 
2528.677776  	-0.003165 
2530.606592  	-0.003133 
2532.535408  	-0.003099 
2534.464224  	-0.003291 
2536.393040  	-0.003411 
2538.321856  	-0.003165 
2540.250672  	-0.002723 
2542.179488  	-0.002710 
2544.108304  	-0.002808 
2546.037120  	-0.002776 
2547.965936  	-0.002732 
2549.894752  	-0.002725 
2551.823568  	-0.002701 
2553.752384  	-0.002563 
2555.681200  	-0.002205 
2557.610016  	-0.002125 
2559.538832  	-0.002126 
2561.467648  	-0.001916 
2563.396464  	-0.001798 
2565.325280  	-0.001925 
2567.254096  	-0.001921 
2569.182912  	-0.001788 
2571.111728  	-0.001675 
2573.040544  	-0.001796 
2574.969360  	-0.001801 
2576.898176  	-0.001602 
2578.826992  	-0.001431 
2580.755808  	-0.001383 
2582.684624  	-0.001305 
2584.613440  	-0.001330 
2586.542256  	-0.001379 
2588.471072  	-0.001328 
2590.399888  	-0.001167 
2592.328704  	-0.001148 
2594.257520  	-0.001256 
2596.186336  	-0.001162 
2598.115152  	-0.001090 
2600.043968  	-0.000937 
2601.972784  	-0.000483 
2603.901600  	-0.000398 
2605.830416  	-0.000377 
2607.759232  	-0.000276 
2609.688048  	-0.000252 
2611.616864  	-0.000114 
2613.545680  	0.000035 
2615.474496  	0.000088 
2617.403312  	0.000256 
2619.332128  	0.000406 
2621.260944  	0.000421 
2623.189760  	0.000368 
2625.118576  	0.000456 
2627.047392  	0.000552 
2628.976208  	0.000720 
2630.905024  	0.000855 
2632.833840  	0.000932 
2634.762656  	0.001048 
2636.691472  	0.001174 
2638.620288  	0.001343 
2640.549104  	0.001438 
2642.477920  	0.001427 
2644.406736  	0.001545 
2646.335552  	0.001678 
2648.264368  	0.001887 
2650.193184  	0.001951 
2652.122000  	0.002047 
2654.050816  	0.002182 
2655.979632  	0.002313 
2657.908448  	0.002454 
2659.837264  	0.002594 
2661.766080  	0.002713 
2663.694896  	0.002794 
2665.623712  	0.002826 
2667.552528  	0.003078 
2669.481344  	0.003220 
2671.410160  	0.003227 
2673.338976  	0.003336 
2675.267792  	0.003546 
2677.196608  	0.003705 
2679.125424  	0.003858 
2681.054240  	0.004026 
2682.983056  	0.004219 
2684.911872  	0.004293 
2686.840688  	0.004279 
2688.769504  	0.004366 
2690.698320  	0.004475 
2692.627136  	0.004547 
2694.555952  	0.004643 
2696.484768  	0.004625 
2698.413584  	0.004622 
2700.342400  	0.004691 
2702.271216  	0.004860 
2704.200032  	0.005078 
2706.128848  	0.005154 
2708.057664  	0.005124 
2709.986480  	0.005259 
2711.915296  	0.005390 
2713.844112  	0.005631 
2715.772928  	0.005734 
2717.701744  	0.005823 
2719.630560  	0.006016 
2721.559376  	0.006123 
2723.488192  	0.006289 
2725.417008  	0.006502 
2727.345824  	0.006680 
2729.274640  	0.006842 
2731.203456  	0.006967 
2733.132272  	0.007182 
2735.061088  	0.007314 
2736.989904  	0.007384 
2738.918720  	0.007439 
2740.847536  	0.007528 
2742.776352  	0.007514 
2744.705168  	0.007636 
2746.633984  	0.007741 
2748.562800  	0.007791 
2750.491616  	0.007949 
2752.420432  	0.008103 
2754.349248  	0.008027 
2756.278064  	0.007942 
2758.206880  	0.007907 
2760.135696  	0.007888 
2762.064512  	0.007883 
2763.993328  	0.007868 
2765.922144  	0.007832 
2767.850960  	0.007914 
2769.779776  	0.007973 
2771.708592  	0.007951 
2773.637408  	0.007860 
2775.566224  	0.007816 
2777.495040  	0.007812 
2779.423856  	0.007918 
2781.352672  	0.007979 
2783.281488  	0.008017 
2785.210304  	0.008038 
2787.139120  	0.008075 
2789.067936  	0.008129 
2790.996752  	0.008176 
2792.925568  	0.008105 
2794.854384  	0.008066 
2796.783200  	0.008028 
2798.712016  	0.007994 
2800.640832  	0.008011 
2802.569648  	0.008148 
2804.498464  	0.008172 
2806.427280  	0.008067 
2808.356096  	0.008056 
2810.284912  	0.008091 
2812.213728  	0.008131 
2814.142544  	0.008104 
2816.071360  	0.007955 
2818.000176  	0.007788 
2819.928992  	0.007801 
2821.857808  	0.007743 
2823.786624  	0.007530 
2825.715440  	0.007396 
2827.644256  	0.007240 
2829.573072  	0.007125 
2831.501888  	0.006864 
2833.430704  	0.006507 
2835.359520  	0.006197 
2837.288336  	0.005953 
2839.217152  	0.005625 
2841.145968  	0.005358 
2843.074784  	0.004961 
2845.003600  	0.004497 
2846.932416  	0.004224 
2848.861232  	0.003979 
2850.790048  	0.003542 
2852.718864  	0.003019 
2854.647680  	0.002540 
2856.576496  	0.001932 
2858.505312  	0.001242 
2860.434128  	0.000606 
2862.362944  	-0.000015 
2864.291760  	-0.000717 
2866.220576  	-0.001416 
2868.149392  	-0.001834 
2870.078208  	-0.002097 
2872.007024  	-0.002222 
2873.935840  	-0.002114 
2875.864656  	-0.002054 
2877.793472  	-0.002208 
2879.722288  	-0.002477 
2881.651104  	-0.002897 
2883.579920  	-0.003024 
2885.508736  	-0.002799 
2887.437552  	-0.002583 
2889.366368  	-0.002446 
2891.295184  	-0.002676 
2893.224000  	-0.002997 
2895.152816  	-0.003029 
2897.081632  	-0.003302 
2899.010448  	-0.005001 
2900.939264  	-0.006551 
2902.868080  	-0.005194 
2904.796896  	-0.003719 
2906.725712  	-0.003157 
2908.654528  	-0.002554 
2910.583344  	-0.002070 
2912.512160  	-0.001527 
2914.440976  	-0.000423 
2916.369792  	0.000445 
2918.298608  	0.000989 
2920.227424  	0.001538 
2922.156240  	0.002284 
2924.085056  	0.003166 
2926.013872  	0.004193 
2927.942688  	0.005217 
2929.871504  	0.006138 
2931.800320  	0.007045 
2933.729136  	0.007862 
2935.657952  	0.008430 
2937.586768  	0.008978 
2939.515584  	0.009585 
2941.444400  	0.009862 
2943.373216  	0.009952 
2945.302032  	0.010276 
2947.230848  	0.010463 
2949.159664  	0.010175 
2951.088480  	0.009591 
2953.017296  	0.008957 
2954.946112  	0.008363 
2956.874928  	0.007747 
2958.803744  	0.007034 
2960.732560  	0.006436 
2962.661376  	0.005709 
2964.590192  	0.004788 
2966.519008  	0.003690 
2968.447824  	0.002737 
2970.376640  	0.001892 
2972.305456  	0.001286 
2974.234272  	0.001501 
2976.163088  	0.001839 
2978.091904  	0.001806 
2980.020720  	0.001867 
2981.949536  	0.002054 
2983.878352  	0.001831 
2985.807168  	0.000949 
2987.735984  	0.000021 
2989.664800  	0.000404 
2991.593616  	0.003528 
2993.522432  	0.005589 
2995.451248  	0.006076 
2997.380064  	0.006874 
2999.308880  	0.008096 
3001.237696  	0.009438 
3003.166512  	0.010980 
3005.095328  	0.012433 
3007.024144  	0.013872 
3008.952960  	0.015405 
3010.881776  	0.016943 
3012.810592  	0.018354 
3014.739408  	0.019608 
3016.668224  	0.020843 
3018.597040  	0.022111 
3020.525856  	0.023342 
3022.454672  	0.024552 
3024.383488  	0.025639 
3026.312304  	0.026581 
3028.241120  	0.027687 
3030.169936  	0.028761 
3032.098752  	0.029559 
3034.027568  	0.030277 
3035.956384  	0.031057 
3037.885200  	0.031973 
3039.814016  	0.032743 
3041.742832  	0.033425 
3043.671648  	0.034057 
3045.600464  	0.034685 
3047.529280  	0.035152 
3049.458096  	0.035682 
3051.386912  	0.036399 
3053.315728  	0.037061 
3055.244544  	0.037532 
3057.173360  	0.038137 
3059.102176  	0.038896 
3061.030992  	0.039675 
3062.959808  	0.040378 
3064.888624  	0.041027 
3066.817440  	0.041808 
3068.746256  	0.042689 
3070.675072  	0.043547 
3072.603888  	0.044405 
3074.532704  	0.045227 
3076.461520  	0.046008 
3078.390336  	0.046721 
3080.319152  	0.047370 
3082.247968  	0.048206 
3084.176784  	0.049090 
3086.105600  	0.049936 
3088.034416  	0.050762 
3089.963232  	0.051477 
3091.892048  	0.052214 
3093.820864  	0.052996 
3095.749680  	0.053857 
3097.678496  	0.054769 
3099.607312  	0.055581 
3101.536128  	0.056488 
3103.464944  	0.057501 
3105.393760  	0.058316 
3107.322576  	0.058981 
3109.251392  	0.059733 
3111.180208  	0.060510 
3113.109024  	0.061157 
3115.037840  	0.061802 
3116.966656  	0.062654 
3118.895472  	0.063341 
3120.824288  	0.063902 
3122.753104  	0.064657 
3124.681920  	0.065258 
3126.610736  	0.065645 
3128.539552  	0.066359 
3130.468368  	0.067091 
3132.397184  	0.067702 
3134.326000  	0.068427 
3136.254816  	0.069002 
3138.183632  	0.069750 
3140.112448  	0.070674 
3142.041264  	0.071365 
3143.970080  	0.071855 
3145.898896  	0.072409 
3147.827712  	0.073093 
3149.756528  	0.073621 
3151.685344  	0.074128 
3153.614160  	0.074826 
3155.542976  	0.075657 
3157.471792  	0.076495 
3159.400608  	0.077269 
3161.329424  	0.077862 
3163.258240  	0.078395 
3165.187056  	0.078884 
3167.115872  	0.079390 
3169.044688  	0.079841 
3170.973504  	0.080496 
3172.902320  	0.080887 
3174.831136  	0.081290 
3176.759952  	0.081977 
3178.688768  	0.082285 
3180.617584  	0.082591 
3182.546400  	0.082919 
3184.475216  	0.083059 
3186.404032  	0.083106 
3188.332848  	0.083286 
3190.261664  	0.083553 
3192.190480  	0.084007 
3194.119296  	0.084229 
3196.048112  	0.084389 
3197.976928  	0.084359 
3199.905744  	0.084299 
3201.834560  	0.084200 
3203.763376  	0.084280 
3205.692192  	0.084390 
3207.621008  	0.084136 
3209.549824  	0.084032 
3211.478640  	0.084161 
3213.407456  	0.084042 
3215.336272  	0.083755 
3217.265088  	0.083754 
3219.193904  	0.083675 
3221.122720  	0.083400 
3223.051536  	0.083391 
3224.980352  	0.083273 
3226.909168  	0.083017 
3228.837984  	0.082672 
3230.766800  	0.082346 
3232.695616  	0.082417 
3234.624432  	0.082438 
3236.553248  	0.082397 
3238.482064  	0.082435 
3240.410880  	0.082473 
3242.339696  	0.082551 
3244.268512  	0.082331 
3246.197328  	0.082359 
3248.126144  	0.082840 
3250.054960  	0.083078 
3251.983776  	0.083150 
3253.912592  	0.083329 
3255.841408  	0.083412 
3257.770224  	0.083713 
3259.699040  	0.084118 
3261.627856  	0.084423 
3263.556672  	0.084614 
3265.485488  	0.084759 
3267.414304  	0.085045 
3269.343120  	0.085422 
3271.271936  	0.085729 
3273.200752  	0.085823 
3275.129568  	0.085770 
3277.058384  	0.086068 
3278.987200  	0.086358 
3280.916016  	0.086631 
3282.844832  	0.086944 
3284.773648  	0.087166 
3286.702464  	0.087317 
3288.631280  	0.087378 
3290.560096  	0.087726 
3292.488912  	0.088261 
3294.417728  	0.088597 
3296.346544  	0.088862 
3298.275360  	0.089063 
3300.204176  	0.089439 
3302.132992  	0.089905 
3304.061808  	0.090288 
3305.990624  	0.090670 
3307.919440  	0.091000 
3309.848256  	0.091376 
3311.777072  	0.091652 
3313.705888  	0.091865 
3315.634704  	0.092444 
3317.563520  	0.093018 
3319.492336  	0.093326 
3321.421152  	0.093416 
3323.349968  	0.093629 
3325.278784  	0.093810 
3327.207600  	0.093943 
3329.136416  	0.094064 
3331.065232  	0.094176 
3332.994048  	0.094374 
3334.922864  	0.094713 
3336.851680  	0.094701 
3338.780496  	0.094428 
3340.709312  	0.094300 
3342.638128  	0.094362 
3344.566944  	0.094135 
3346.495760  	0.093761 
3348.424576  	0.093355 
3350.353392  	0.092950 
3352.282208  	0.092572 
3354.211024  	0.092265 
3356.139840  	0.092255 
3358.068656  	0.092197 
3359.997472  	0.091690 
3361.926288  	0.091150 
3363.855104  	0.090793 
3365.783920  	0.090253 
3367.712736  	0.089893 
3369.641552  	0.089685 
3371.570368  	0.089306 
3373.499184  	0.088861 
3375.428000  	0.088410 
3377.356816  	0.087993 
3379.285632  	0.087720 
3381.214448  	0.087369 
3383.143264  	0.086941 
3385.072080  	0.086505 
3387.000896  	0.086206 
3388.929712  	0.085874 
3390.858528  	0.085445 
3392.787344  	0.085008 
3394.716160  	0.084677 
3396.644976  	0.084333 
3398.573792  	0.083895 
3400.502608  	0.083509 
3402.431424  	0.082841 
3404.360240  	0.082011 
3406.289056  	0.081326 
3408.217872  	0.080812 
3410.146688  	0.080382 
3412.075504  	0.079931 
3414.004320  	0.079371 
3415.933136  	0.079009 
3417.861952  	0.078624 
3419.790768  	0.078146 
3421.719584  	0.077538 
3423.648400  	0.077007 
3425.577216  	0.076276 
3427.506032  	0.075631 
3429.434848  	0.075220 
3431.363664  	0.074744 
3433.292480  	0.074206 
3435.221296  	0.073482 
3437.150112  	0.072747 
3439.078928  	0.072161 
3441.007744  	0.071683 
3442.936560  	0.071300 
3444.865376  	0.070943 
3446.794192  	0.070133 
3448.723008  	0.069165 
3450.651824  	0.068530 
3452.580640  	0.068033 
3454.509456  	0.067526 
3456.438272  	0.066875 
3458.367088  	0.066214 
3460.295904  	0.065541 
3462.224720  	0.064575 
3464.153536  	0.063689 
3466.082352  	0.062846 
3468.011168  	0.061896 
3469.939984  	0.061168 
3471.868800  	0.060475 
3473.797616  	0.059651 
3475.726432  	0.058890 
3477.655248  	0.058146 
3479.584064  	0.057609 
3481.512880  	0.056750 
3483.441696  	0.055540 
3485.370512  	0.054982 
3487.299328  	0.054135 
3489.228144  	0.053298 
3491.156960  	0.052534 
3493.085776  	0.051691 
3495.014592  	0.050871 
3496.943408  	0.050291 
3498.872224  	0.049971 
3500.801040  	0.049945 
3502.729856  	0.049047 
3504.658672  	0.047643 
3506.587488  	0.047016 
3508.516304  	0.046557 
3510.445120  	0.045624 
3512.373936  	0.044446 
3514.302752  	0.043746 
3516.231568  	0.043608 
3518.160384  	0.043254 
3520.089200  	0.042590 
3522.018016  	0.042266 
3523.946832  	0.042293 
3525.875648  	0.041269 
3527.804464  	0.039764 
3529.733280  	0.038934 
3531.662096  	0.038201 
3533.590912  	0.037487 
3535.519728  	0.037405 
3537.448544  	0.037003 
3539.377360  	0.036057 
3541.306176  	0.035467 
3543.234992  	0.035261 
3545.163808  	0.035589 
3547.092624  	0.034658 
3549.021440  	0.033067 
3550.950256  	0.032242 
3552.879072  	0.031494 
3554.807888  	0.030800 
3556.736704  	0.030084 
3558.665520  	0.029871 
3560.594336  	0.029677 
3562.523152  	0.028656 
3564.451968  	0.028565 
3566.380784  	0.028972 
3568.309600  	0.027389 
3570.238416  	0.026154 
3572.167232  	0.025409 
3574.096048  	0.024180 
3576.024864  	0.023109 
3577.953680  	0.022767 
3579.882496  	0.022219 
3581.811312  	0.021440 
3583.740128  	0.021017 
3585.668944  	0.021022 
3587.597760  	0.019743 
3589.526576  	0.018144 
3591.455392  	0.017480 
3593.384208  	0.016843 
3595.313024  	0.015757 
3597.241840  	0.014425 
3599.170656  	0.013192 
3601.099472  	0.012288 
3603.028288  	0.011959 
3604.957104  	0.011627 
3606.885920  	0.010882 
3608.814736  	0.009868 
3610.743552  	0.009586 
3612.672368  	0.008349 
3614.601184  	0.007198 
3616.530000  	0.006780 
3618.458816  	0.004512 
3620.387632  	0.002941 
3622.316448  	0.003331 
3624.245264  	0.003129 
3626.174080  	0.002346 
3628.102896  	-0.001019 
3630.031712  	-0.003508 
3631.960528  	-0.001227 
3633.889344  	-0.001570 
3635.818160  	-0.002577 
3637.746976  	-0.003635 
3639.675792  	-0.003832 
3641.604608  	-0.003651 
3643.533424  	-0.004118 
3645.462240  	-0.005612 
3647.391056  	-0.009313 
3649.319872  	-0.013914 
3651.248688  	-0.014388 
3653.177504  	-0.011278 
3655.106320  	-0.011885 
3657.035136  	-0.014172 
3658.963952  	-0.013586 
3660.892768  	-0.013545 
3662.821584  	-0.014088 
3664.750400  	-0.014321 
3666.679216  	-0.014515 
3668.608032  	-0.017085 
3670.536848  	-0.020201 
3672.465664  	-0.017991 
3674.394480  	-0.019830 
3676.323296  	-0.023469 
3678.252112  	-0.019155 
3680.180928  	-0.017437 
3682.109744  	-0.016778 
3684.038560  	-0.016912 
3685.967376  	-0.017309 
3687.896192  	-0.020498 
3689.825008  	-0.023239 
3691.753824  	-0.021457 
3693.682640  	-0.018771 
3695.611456  	-0.017777 
3697.540272  	-0.016980 
3699.469088  	-0.016308 
3701.397904  	-0.017291 
3703.326720  	-0.016912 
3705.255536  	-0.015310 
3707.184352  	-0.015322 
3709.113168  	-0.017178 
3711.041984  	-0.019354 
3712.970800  	-0.017643 
3714.899616  	-0.014286 
3716.828432  	-0.013793 
3718.757248  	-0.014479 
3720.686064  	-0.015105 
3722.614880  	-0.015488 
3724.543696  	-0.014851 
3726.472512  	-0.015232 
3728.401328  	-0.015335 
3730.330144  	-0.016483 
3732.258960  	-0.018597 
3734.187776  	-0.017563 
3736.116592  	-0.017746 
3738.045408  	-0.017007 
3739.974224  	-0.015096 
3741.903040  	-0.014129 
3743.831856  	-0.016803 
3745.760672  	-0.018161 
3747.689488  	-0.016604 
3749.618304  	-0.019872 
3751.547120  	-0.021364 
3753.475936  	-0.017913 
3755.404752  	-0.015021 
3757.333568  	-0.014840 
3759.262384  	-0.015751 
3761.191200  	-0.015368 
3763.120016  	-0.013518 
3765.048832  	-0.014225 
3766.977648  	-0.014237 
3768.906464  	-0.015174 
3770.835280  	-0.015688 
3772.764096  	-0.013883 
3774.692912  	-0.013268 
3776.621728  	-0.013330 
3778.550544  	-0.014848 
3780.479360  	-0.015583 
3782.408176  	-0.013981 
3784.336992  	-0.014117 
3786.265808  	-0.013745 
3788.194624  	-0.013274 
3790.123440  	-0.013343 
3792.052256  	-0.013331 
3793.981072  	-0.013437 
3795.909888  	-0.015203 
3797.838704  	-0.015156 
3799.767520  	-0.015802 
3801.696336  	-0.019874 
3803.625152  	-0.017113 
3805.553968  	-0.015992 
3807.482784  	-0.017401 
3809.411600  	-0.014627 
3811.340416  	-0.013275 
3813.269232  	-0.013366 
3815.198048  	-0.016395 
3817.126864  	-0.017540 
3819.055680  	-0.016219 
3820.984496  	-0.019686 
3822.913312  	-0.017401 
3824.842128  	-0.014598 
3826.770944  	-0.015010 
3828.699760  	-0.014226 
3830.628576  	-0.014829 
3832.557392  	-0.015897 
3834.486208  	-0.015769 
3836.415024  	-0.017132 
3838.343840  	-0.018712 
3840.272656  	-0.017387 
3842.201472  	-0.015571 
3844.130288  	-0.015039 
3846.059104  	-0.013889 
3847.987920  	-0.013196 
3849.916736  	-0.013749 
3851.845552  	-0.017112 
3853.774368  	-0.022211 
3855.703184  	-0.017947 
3857.632000  	-0.014566 
3859.560816  	-0.013310 
3861.489632  	-0.013744 
3863.418448  	-0.015015 
3865.347264  	-0.015189 
3867.276080  	-0.013586 
3869.204896  	-0.015236 
3871.133712  	-0.015461 
3873.062528  	-0.014440 
3874.991344  	-0.014796 
3876.920160  	-0.013178 
3878.848976  	-0.013068 
3880.777792  	-0.013932 
3882.706608  	-0.013007 
3884.635424  	-0.013498 
3886.564240  	-0.014540 
3888.493056  	-0.013416 
3890.421872  	-0.014297 
3892.350688  	-0.014846 
3894.279504  	-0.013350 
3896.208320  	-0.012626 
3898.137136  	-0.012670 
3900.065952  	-0.012916 
3901.994768  	-0.012739 
3903.923584  	-0.013703 
3905.852400  	-0.013888 
3907.781216  	-0.013322 
3909.710032  	-0.013127 
3911.638848  	-0.013080 
3913.567664  	-0.012703 
3915.496480  	-0.012299 
3917.425296  	-0.012418 
3919.354112  	-0.012810 
3921.282928  	-0.012664 
3923.211744  	-0.012159 
3925.140560  	-0.012203 
3927.069376  	-0.012405 
3928.998192  	-0.012482 
3930.927008  	-0.012151 
3932.855824  	-0.012028 
3934.784640  	-0.012417 
3936.713456  	-0.012609 
3938.642272  	-0.012447 
3940.571088  	-0.012135 
3942.499904  	-0.011924 
3944.428720  	-0.012054 
3946.357536  	-0.011792 
3948.286352  	-0.011432 
3950.215168  	-0.012069 
3952.143984  	-0.012985 
3954.072800  	-0.013199 
3956.001616  	-0.012887 
3957.930432  	-0.012650 
3959.859248  	-0.012572 
3961.788064  	-0.012701 
3963.716880  	-0.013058 
3965.645696  	-0.013205 
3967.574512  	-0.012968 
3969.503328  	-0.012671 
3971.432144  	-0.012705 
3973.360960  	-0.012668 
3975.289776  	-0.012447 
3977.218592  	-0.012515 
3979.147408  	-0.012694 
3981.076224  	-0.012704 
3983.005040  	-0.012688 
3984.933856  	-0.012717 
3986.862672  	-0.012836 
3988.791488  	-0.012596 
3990.720304  	-0.012335 
3992.649120  	-0.012630 
3994.577936  	-0.012890 
3996.506752  	-0.012994 
3998.435568  	-0.013038 
4000.364384  	-0.012922 