##TITLE=No Description
##DATA TYPE=INFRARED SPECTRUM
##XUNITS=1/CM
##YUNITS=Abs
399.264912  	0.620119 
401.193728  	0.607159 
403.122544  	0.632794 
405.051360  	0.632445 
406.980176  	0.621637 
408.908992  	0.609488 
410.837808  	0.602431 
412.766624  	0.608760 
414.695440  	0.614519 
416.624256  	0.603718 
418.553072  	0.606737 
420.481888  	0.600361 
422.410704  	0.600793 
424.339520  	0.594798 
426.268336  	0.590315 
428.197152  	0.578001 
430.125968  	0.578158 
432.054784  	0.577056 
433.983600  	0.575788 
435.912416  	0.568741 
437.841232  	0.564434 
439.770048  	0.559929 
441.698864  	0.557089 
443.627680  	0.558649 
445.556496  	0.560614 
447.485312  	0.554590 
449.414128  	0.549949 
451.342944  	0.550475 
453.271760  	0.557108 
455.200576  	0.553905 
457.129392  	0.556477 
459.058208  	0.549576 
460.987024  	0.552503 
462.915840  	0.552181 
464.844656  	0.550056 
466.773472  	0.552590 
468.702288  	0.556778 
470.631104  	0.548751 
472.559920  	0.545173 
474.488736  	0.542520 
476.417552  	0.544888 
478.346368  	0.540349 
480.275184  	0.539663 
482.204000  	0.539944 
484.132816  	0.540650 
486.061632  	0.539212 
487.990448  	0.542177 
489.919264  	0.538984 
491.848080  	0.537768 
493.776896  	0.532047 
495.705712  	0.529603 
497.634528  	0.529787 
499.563344  	0.533619 
501.492160  	0.533499 
503.420976  	0.530276 
505.349792  	0.524005 
507.278608  	0.524803 
509.207424  	0.525455 
511.136240  	0.527882 
513.065056  	0.528880 
514.993872  	0.530927 
516.922688  	0.531044 
518.851504  	0.531687 
520.780320  	0.530340 
522.709136  	0.529609 
524.637952  	0.525572 
526.566768  	0.525881 
528.495584  	0.524242 
530.424400  	0.523977 
532.353216  	0.518586 
534.282032  	0.513649 
536.210848  	0.507846 
538.139664  	0.502316 
540.068480  	0.497024 
541.997296  	0.494990 
543.926112  	0.490211 
545.854928  	0.486092 
547.783744  	0.481908 
549.712560  	0.479021 
551.641376  	0.476025 
553.570192  	0.472418 
555.499008  	0.467732 
557.427824  	0.464043 
559.356640  	0.459100 
561.285456  	0.456112 
563.214272  	0.453149 
565.143088  	0.450173 
567.071904  	0.446292 
569.000720  	0.443155 
570.929536  	0.439835 
572.858352  	0.437816 
574.787168  	0.435981 
576.715984  	0.433134 
578.644800  	0.428257 
580.573616  	0.425321 
582.502432  	0.419862 
584.431248  	0.416642 
586.360064  	0.414206 
588.288880  	0.412077 
590.217696  	0.409271 
592.146512  	0.406796 
594.075328  	0.404152 
596.004144  	0.402021 
597.932960  	0.400128 
599.861776  	0.398819 
601.790592  	0.396618 
603.719408  	0.394643 
605.648224  	0.392749 
607.577040  	0.391049 
609.505856  	0.389190 
611.434672  	0.388343 
613.363488  	0.386581 
615.292304  	0.385142 
617.221120  	0.383124 
619.149936  	0.382182 
621.078752  	0.379973 
623.007568  	0.378283 
624.936384  	0.376747 
626.865200  	0.374459 
628.794016  	0.372526 
630.722832  	0.372948 
632.651648  	0.372412 
634.580464  	0.371874 
636.509280  	0.371999 
638.438096  	0.371762 
640.366912  	0.369755 
642.295728  	0.367816 
644.224544  	0.365410 
646.153360  	0.362268 
648.082176  	0.357649 
650.010992  	0.353376 
651.939808  	0.349584 
653.868624  	0.346029 
655.797440  	0.342286 
657.726256  	0.338750 
659.655072  	0.334461 
661.583888  	0.330607 
663.512704  	0.327208 
665.441520  	0.324981 
667.370336  	0.316510 
669.299152  	0.308924 
671.227968  	0.309976 
673.156784  	0.307968 
675.085600  	0.304875 
677.014416  	0.302400 
678.943232  	0.300059 
680.872048  	0.298320 
682.800864  	0.296753 
684.729680  	0.294964 
686.658496  	0.293759 
688.587312  	0.292535 
690.516128  	0.290682 
692.444944  	0.289195 
694.373760  	0.287740 
696.302576  	0.286004 
698.231392  	0.283851 
700.160208  	0.281087 
702.089024  	0.278623 
704.017840  	0.276339 
705.946656  	0.273891 
707.875472  	0.271953 
709.804288  	0.269940 
711.733104  	0.267869 
713.661920  	0.266204 
715.590736  	0.265243 
717.519552  	0.264265 
719.448368  	0.263249 
721.377184  	0.262977 
723.306000  	0.263626 
725.234816  	0.263770 
727.163632  	0.262909 
729.092448  	0.260417 
731.021264  	0.257420 
732.950080  	0.254656 
734.878896  	0.251723 
736.807712  	0.248399 
738.736528  	0.246066 
740.665344  	0.244093 
742.594160  	0.242082 
744.522976  	0.240588 
746.451792  	0.238850 
748.380608  	0.236788 
750.309424  	0.235315 
752.238240  	0.234243 
754.167056  	0.233074 
756.095872  	0.231459 
758.024688  	0.230500 
759.953504  	0.230024 
761.882320  	0.230087 
763.811136  	0.230097 
765.739952  	0.229289 
767.668768  	0.227105 
769.597584  	0.224726 
771.526400  	0.223525 
773.455216  	0.224440 
775.384032  	0.226833 
777.312848  	0.230862 
779.241664  	0.234431 
781.170480  	0.234630 
783.099296  	0.231466 
785.028112  	0.226285 
786.956928  	0.220554 
788.885744  	0.215702 
790.814560  	0.211794 
792.743376  	0.208972 
794.672192  	0.207744 
796.601008  	0.206879 
798.529824  	0.204076 
800.458640  	0.199610 
802.387456  	0.195642 
804.316272  	0.193194 
806.245088  	0.191858 
808.173904  	0.191149 
810.102720  	0.190516 
812.031536  	0.189950 
813.960352  	0.189864 
815.889168  	0.189864 
817.817984  	0.189636 
819.746800  	0.189391 
821.675616  	0.189303 
823.604432  	0.188927 
825.533248  	0.188098 
827.462064  	0.187048 
829.390880  	0.186035 
831.319696  	0.184561 
833.248512  	0.182538 
835.177328  	0.180156 
837.106144  	0.177804 
839.034960  	0.174902 
840.963776  	0.171079 
842.892592  	0.167201 
844.821408  	0.163904 
846.750224  	0.160999 
848.679040  	0.158323 
850.607856  	0.156197 
852.536672  	0.154341 
854.465488  	0.152551 
856.394304  	0.150981 
858.323120  	0.149373 
860.251936  	0.147238 
862.180752  	0.144769 
864.109568  	0.141998 
866.038384  	0.139290 
867.967200  	0.137153 
869.896016  	0.135122 
871.824832  	0.133917 
873.753648  	0.133381 
875.682464  	0.133581 
877.611280  	0.133822 
879.540096  	0.134278 
881.468912  	0.135819 
883.397728  	0.136872 
885.326544  	0.137698 
887.255360  	0.137851 
889.184176  	0.136691 
891.112992  	0.134629 
893.041808  	0.132840 
894.970624  	0.130666 
896.899440  	0.127497 
898.828256  	0.123704 
900.757072  	0.120065 
902.685888  	0.117177 
904.614704  	0.115592 
906.543520  	0.115617 
908.472336  	0.116787 
910.401152  	0.118878 
912.329968  	0.121363 
914.258784  	0.124210 
916.187600  	0.126855 
918.116416  	0.129062 
920.045232  	0.130586 
921.974048  	0.131547 
923.902864  	0.131790 
925.831680  	0.131546 
927.760496  	0.131465 
929.689312  	0.131689 
931.618128  	0.132162 
933.546944  	0.132545 
935.475760  	0.132772 
937.404576  	0.132728 
939.333392  	0.132388 
941.262208  	0.132496 
943.191024  	0.133674 
945.119840  	0.136694 
947.048656  	0.141800 
948.977472  	0.148473 
950.906288  	0.156597 
952.835104  	0.165831 
954.763920  	0.175694 
956.692736  	0.185108 
958.621552  	0.193224 
960.550368  	0.199055 
962.479184  	0.202133 
964.408000  	0.201591 
966.336816  	0.197423 
968.265632  	0.190001 
970.194448  	0.179855 
972.123264  	0.167988 
974.052080  	0.155405 
975.980896  	0.142974 
977.909712  	0.131480 
979.838528  	0.121187 
981.767344  	0.112442 
983.696160  	0.105543 
985.624976  	0.101008 
987.553792  	0.099099 
989.482608  	0.099680 
991.411424  	0.102436 
993.340240  	0.106718 
995.269056  	0.112256 
997.197872  	0.118142 
999.126688  	0.124217 
1001.055504  	0.130354 
1002.984320  	0.136472 
1004.913136  	0.142467 
1006.841952  	0.148329 
1008.770768  	0.153148 
1010.699584  	0.156624 
1012.628400  	0.158666 
1014.557216  	0.159444 
1016.486032  	0.159637 
1018.414848  	0.159333 
1020.343664  	0.158860 
1022.272480  	0.158078 
1024.201296  	0.156883 
1026.130112  	0.153578 
1028.058928  	0.152160 
1029.987744  	0.155108 
1031.916560  	0.156926 
1033.845376  	0.157626 
1035.774192  	0.158155 
1037.703008  	0.160217 
1039.631824  	0.165612 
1041.560640  	0.173307 
1043.489456  	0.183650 
1045.418272  	0.196525 
1047.347088  	0.211520 
1049.275904  	0.226153 
1051.204720  	0.238682 
1053.133536  	0.247450 
1055.062352  	0.252440 
1056.991168  	0.253890 
1058.919984  	0.256120 
1060.848800  	0.257984 
1062.777616  	0.256313 
1064.706432  	0.250434 
1066.635248  	0.245166 
1068.564064  	0.243536 
1070.492880  	0.239267 
1072.421696  	0.231891 
1074.350512  	0.226377 
1076.279328  	0.224115 
1078.208144  	0.225746 
1080.136960  	0.230247 
1082.065776  	0.235760 
1083.994592  	0.239964 
1085.923408  	0.241769 
1087.852224  	0.240482 
1089.781040  	0.237613 
1091.709856  	0.233287 
1093.638672  	0.225891 
1095.567488  	0.215580 
1097.496304  	0.204014 
1099.425120  	0.191874 
1101.353936  	0.179520 
1103.282752  	0.167491 
1105.211568  	0.155726 
1107.140384  	0.144331 
1109.069200  	0.133787 
1110.998016  	0.124068 
1112.926832  	0.115071 
1114.855648  	0.106915 
1116.784464  	0.099283 
1118.713280  	0.091972 
1120.642096  	0.085308 
1122.570912  	0.079189 
1124.499728  	0.073230 
1126.428544  	0.067847 
1128.357360  	0.062869 
1130.286176  	0.058842 
1132.214992  	0.055599 
1134.143808  	0.052906 
1136.072624  	0.050480 
1138.001440  	0.048496 
1139.930256  	0.046161 
1141.859072  	0.043939 
1143.787888  	0.041591 
1145.716704  	0.039443 
1147.645520  	0.037448 
1149.574336  	0.035719 
1151.503152  	0.034182 
1153.431968  	0.033490 
1155.360784  	0.033435 
1157.289600  	0.034104 
1159.218416  	0.035401 
1161.147232  	0.037184 
1163.076048  	0.039089 
1165.004864  	0.041324 
1166.933680  	0.043259 
1168.862496  	0.045407 
1170.791312  	0.047620 
1172.720128  	0.050439 
1174.648944  	0.052861 
1176.577760  	0.055338 
1178.506576  	0.057748 
1180.435392  	0.060342 
1182.364208  	0.062711 
1184.293024  	0.065618 
1186.221840  	0.068749 
1188.150656  	0.072275 
1190.079472  	0.076282 
1192.008288  	0.081207 
1193.937104  	0.087133 
1195.865920  	0.094111 
1197.794736  	0.101713 
1199.723552  	0.110189 
1201.652368  	0.118847 
1203.581184  	0.127649 
1205.510000  	0.136471 
1207.438816  	0.144916 
1209.367632  	0.152660 
1211.296448  	0.159612 
1213.225264  	0.165653 
1215.154080  	0.170453 
1217.082896  	0.173947 
1219.011712  	0.176326 
1220.940528  	0.178188 
1222.869344  	0.179514 
1224.798160  	0.180022 
1226.726976  	0.179737 
1228.655792  	0.179052 
1230.584608  	0.177690 
1232.513424  	0.175970 
1234.442240  	0.173711 
1236.371056  	0.170585 
1238.299872  	0.166356 
1240.228688  	0.159498 
1242.157504  	0.152575 
1244.086320  	0.146982 
1246.015136  	0.139835 
1247.943952  	0.131749 
1249.872768  	0.123655 
1251.801584  	0.116614 
1253.730400  	0.109762 
1255.659216  	0.102989 
1257.588032  	0.096590 
1259.516848  	0.090333 
1261.445664  	0.084595 
1263.374480  	0.079376 
1265.303296  	0.074945 
1267.232112  	0.071477 
1269.160928  	0.068876 
1271.089744  	0.066858 
1273.018560  	0.065717 
1274.947376  	0.065306 
1276.876192  	0.065381 
1278.805008  	0.065165 
1280.733824  	0.064115 
1282.662640  	0.062076 
1284.591456  	0.059707 
1286.520272  	0.057733 
1288.449088  	0.056368 
1290.377904  	0.055408 
1292.306720  	0.055407 
1294.235536  	0.055306 
1296.164352  	0.054435 
1298.093168  	0.052208 
1300.021984  	0.049421 
1301.950800  	0.046439 
1303.879616  	0.043637 
1305.808432  	0.040594 
1307.737248  	0.037699 
1309.666064  	0.034912 
1311.594880  	0.033060 
1313.523696  	0.031450 
1315.452512  	0.030339 
1317.381328  	0.029912 
1319.310144  	0.029793 
1321.238960  	0.029662 
1323.167776  	0.030175 
1325.096592  	0.031024 
1327.025408  	0.031622 
1328.954224  	0.031574 
1330.883040  	0.031077 
1332.811856  	0.030097 
1334.740672  	0.029777 
1336.669488  	0.030188 
1338.598304  	0.030791 
1340.527120  	0.029077 
1342.455936  	0.026886 
1344.384752  	0.026327 
1346.313568  	0.026538 
1348.242384  	0.027120 
1350.171200  	0.028326 
1352.100016  	0.029857 
1354.028832  	0.031931 
1355.957648  	0.033751 
1357.886464  	0.035729 
1359.815280  	0.038258 
1361.744096  	0.040940 
1363.672912  	0.041790 
1365.601728  	0.042333 
1367.530544  	0.043596 
1369.459360  	0.043880 
1371.388176  	0.043635 
1373.316992  	0.042487 
1375.245808  	0.038989 
1377.174624  	0.036534 
1379.103440  	0.033764 
1381.032256  	0.030703 
1382.961072  	0.028369 
1384.889888  	0.027876 
1386.818704  	0.027556 
1388.747520  	0.025520 
1390.676336  	0.023184 
1392.605152  	0.020240 
1394.533968  	0.018444 
1396.462784  	0.021387 
1398.391600  	0.022526 
1400.320416  	0.021131 
1402.249232  	0.021560 
1404.178048  	0.022354 
1406.106864  	0.022739 
1408.035680  	0.024590 
1409.964496  	0.027246 
1411.893312  	0.030048 
1413.822128  	0.033095 
1415.750944  	0.037438 
1417.679760  	0.040308 
1419.608576  	0.038948 
1421.537392  	0.039161 
1423.466208  	0.039709 
1425.395024  	0.037830 
1427.323840  	0.036696 
1429.252656  	0.034249 
1431.181472  	0.032578 
1433.110288  	0.032922 
1435.039104  	0.033924 
1436.967920  	0.032461 
1438.896736  	0.032632 
1440.825552  	0.033850 
1442.754368  	0.034381 
1444.683184  	0.034616 
1446.612000  	0.034585 
1448.540816  	0.033147 
1450.469632  	0.033620 
1452.398448  	0.034738 
1454.327264  	0.036272 
1456.256080  	0.035519 
1458.184896  	0.031607 
1460.113712  	0.033484 
1462.042528  	0.035590 
1463.971344  	0.035133 
1465.900160  	0.035230 
1467.828976  	0.038545 
1469.757792  	0.042373 
1471.686608  	0.045138 
1473.615424  	0.049902 
1475.544240  	0.056673 
1477.473056  	0.061941 
1479.401872  	0.065756 
1481.330688  	0.068830 
1483.259504  	0.070741 
1485.188320  	0.072434 
1487.117136  	0.072356 
1489.045952  	0.071449 
1490.974768  	0.067564 
1492.903584  	0.065670 
1494.832400  	0.062985 
1496.761216  	0.055920 
1498.690032  	0.050031 
1500.618848  	0.047155 
1502.547664  	0.044333 
1504.476480  	0.040589 
1506.405296  	0.033607 
1508.334112  	0.031620 
1510.262928  	0.032545 
1512.191744  	0.030579 
1514.120560  	0.029839 
1516.049376  	0.029214 
1517.978192  	0.027576 
1519.907008  	0.029047 
1521.835824  	0.027994 
1523.764640  	0.032512 
1525.693456  	0.037241 
1527.622272  	0.039184 
1529.551088  	0.040275 
1531.479904  	0.040824 
1533.408720  	0.036408 
1535.337536  	0.033701 
1537.266352  	0.032766 
1539.195168  	0.023745 
1541.123984  	0.015673 
1543.052800  	0.020131 
1544.981616  	0.021332 
1546.910432  	0.021015 
1548.839248  	0.021871 
1550.768064  	0.021740 
1552.696880  	0.021418 
1554.625696  	0.021407 
1556.554512  	0.021509 
1558.483328  	0.017071 
1560.412144  	0.020096 
1562.340960  	0.029146 
1564.269776  	0.033240 
1566.198592  	0.038257 
1568.127408  	0.042234 
1570.056224  	0.045967 
1571.985040  	0.053484 
1573.913856  	0.058545 
1575.842672  	0.058099 
1577.771488  	0.060826 
1579.700304  	0.063975 
1581.629120  	0.064094 
1583.557936  	0.063574 
1585.486752  	0.064243 
1587.415568  	0.066484 
1589.344384  	0.070662 
1591.273200  	0.076222 
1593.202016  	0.082983 
1595.130832  	0.090099 
1597.059648  	0.097656 
1598.988464  	0.104184 
1600.917280  	0.109806 
1602.846096  	0.113463 
1604.774912  	0.115898 
1606.703728  	0.116223 
1608.632544  	0.115194 
1610.561360  	0.113320 
1612.490176  	0.112212 
1614.418992  	0.110246 
1616.347808  	0.106061 
1618.276624  	0.106998 
1620.205440  	0.112861 
1622.134256  	0.115554 
1624.063072  	0.120191 
1625.991888  	0.127664 
1627.920704  	0.135445 
1629.849520  	0.145276 
1631.778336  	0.155392 
1633.707152  	0.161795 
1635.635968  	0.167104 
1637.564784  	0.178056 
1639.493600  	0.188051 
1641.422416  	0.194384 
1643.351232  	0.199153 
1645.280048  	0.199482 
1647.208864  	0.197587 
1649.137680  	0.200680 
1651.066496  	0.202836 
1652.995312  	0.192925 
1654.924128  	0.192620 
1656.852944  	0.195929 
1658.781760  	0.194819 
1660.710576  	0.191196 
1662.639392  	0.185024 
1664.568208  	0.181375 
1666.497024  	0.180240 
1668.425840  	0.174383 
1670.354656  	0.166386 
1672.283472  	0.164397 
1674.212288  	0.161992 
1676.141104  	0.156682 
1678.069920  	0.157155 
1679.998736  	0.157157 
1681.927552  	0.155833 
1683.856368  	0.148606 
1685.785184  	0.147218 
1687.714000  	0.151433 
1689.642816  	0.151132 
1691.571632  	0.149497 
1693.500448  	0.148969 
1695.429264  	0.143670 
1697.358080  	0.139928 
1699.286896  	0.137841 
1701.215712  	0.130872 
1703.144528  	0.131770 
1705.073344  	0.127391 
1707.002160  	0.120987 
1708.930976  	0.117469 
1710.859792  	0.111915 
1712.788608  	0.105606 
1714.717424  	0.097298 
1716.646240  	0.085645 
1718.575056  	0.071299 
1720.503872  	0.065227 
1722.432688  	0.059841 
1724.361504  	0.050857 
1726.290320  	0.043427 
1728.219136  	0.037515 
1730.147952  	0.032178 
1732.076768  	0.027559 
1734.005584  	0.019028 
1735.934400  	0.013828 
1737.863216  	0.014764 
1739.792032  	0.010499 
1741.720848  	0.009621 
1743.649664  	0.009597 
1745.578480  	0.008813 
1747.507296  	0.006936 
1749.436112  	0.005741 
1751.364928  	0.004394 
1753.293744  	0.003853 
1755.222560  	0.003973 
1757.151376  	0.003147 
1759.080192  	0.002727 
1761.009008  	0.001943 
1762.937824  	0.000036 
1764.866640  	0.000994 
1766.795456  	0.001831 
1768.724272  	0.001100 
1770.653088  	-0.001442 
1772.581904  	-0.004950 
1774.510720  	-0.003208 
1776.439536  	-0.000944 
1778.368352  	-0.000447 
1780.297168  	-0.000965 
1782.225984  	-0.001487 
1784.154800  	-0.000726 
1786.083616  	-0.001417 
1788.012432  	-0.001120 
1789.941248  	-0.000612 
1791.870064  	-0.002399 
1793.798880  	-0.004085 
1795.727696  	-0.002132 
1797.656512  	-0.002369 
1799.585328  	-0.002636 
1801.514144  	-0.002238 
1803.442960  	-0.002291 
1805.371776  	-0.002969 
1807.300592  	-0.002560 
1809.229408  	-0.003240 
1811.158224  	-0.003777 
1813.087040  	-0.003878 
1815.015856  	-0.003367 
1816.944672  	-0.003200 
1818.873488  	-0.003234 
1820.802304  	-0.003493 
1822.731120  	-0.002589 
1824.659936  	-0.003141 
1826.588752  	-0.003817 
1828.517568  	-0.004534 
1830.446384  	-0.005373 
1832.375200  	-0.004397 
1834.304016  	-0.003380 
1836.232832  	-0.003681 
1838.161648  	-0.003689 
1840.090464  	-0.003658 
1842.019280  	-0.002690 
1843.948096  	-0.004445 
1845.876912  	-0.004660 
1847.805728  	-0.003654 
1849.734544  	-0.003778 
1851.663360  	-0.004150 
1853.592176  	-0.004149 
1855.520992  	-0.004274 
1857.449808  	-0.003994 
1859.378624  	-0.004155 
1861.307440  	-0.004225 
1863.236256  	-0.004355 
1865.165072  	-0.004003 
1867.093888  	-0.004411 
1869.022704  	-0.005047 
1870.951520  	-0.005080 
1872.880336  	-0.004368 
1874.809152  	-0.004666 
1876.737968  	-0.004686 
1878.666784  	-0.004995 
1880.595600  	-0.004448 
1882.524416  	-0.004650 
1884.453232  	-0.004556 
1886.382048  	-0.004642 
1888.310864  	-0.004343 
1890.239680  	-0.005345 
1892.168496  	-0.004913 
1894.097312  	-0.004778 
1896.026128  	-0.004552 
1897.954944  	-0.004814 
1899.883760  	-0.004681 
1901.812576  	-0.005001 
1903.741392  	-0.005052 
1905.670208  	-0.004728 
1907.599024  	-0.004061 
1909.527840  	-0.004576 
1911.456656  	-0.004392 
1913.385472  	-0.004445 
1915.314288  	-0.003982 
1917.243104  	-0.004662 
1919.171920  	-0.004973 
1921.100736  	-0.004383 
1923.029552  	-0.004115 
1924.958368  	-0.004689 
1926.887184  	-0.004121 
1928.816000  	-0.004407 
1930.744816  	-0.004377 
1932.673632  	-0.004706 
1934.602448  	-0.004530 
1936.531264  	-0.004797 
1938.460080  	-0.004283 
1940.388896  	-0.004297 
1942.317712  	-0.004486 
1944.246528  	-0.004949 
1946.175344  	-0.004005 
1948.104160  	-0.004076 
1950.032976  	-0.003686 
1951.961792  	-0.004195 
1953.890608  	-0.004364 
1955.819424  	-0.004963 
1957.748240  	-0.003678 
1959.677056  	-0.004103 
1961.605872  	-0.004407 
1963.534688  	-0.004992 
1965.463504  	-0.003679 
1967.392320  	-0.004003 
1969.321136  	-0.003106 
1971.249952  	-0.003718 
1973.178768  	-0.003685 
1975.107584  	-0.004018 
1977.036400  	-0.003238 
1978.965216  	-0.002606 
1980.894032  	-0.002846 
1982.822848  	-0.003636 
1984.751664  	-0.003460 
1986.680480  	-0.004362 
1988.609296  	-0.004026 
1990.538112  	-0.004097 
1992.466928  	-0.003270 
1994.395744  	-0.004703 
1996.324560  	-0.004859 
1998.253376  	-0.005352 
2000.182192  	-0.005354 
2002.111008  	-0.004754 
2004.039824  	-0.003476 
2005.968640  	-0.004326 
2007.897456  	-0.003827 
2009.826272  	-0.004412 
2011.755088  	-0.003751 
2013.683904  	-0.004041 
2015.612720  	-0.003935 
2017.541536  	-0.004546 
2019.470352  	-0.003290 
2021.399168  	-0.004272 
2023.327984  	-0.004624 
2025.256800  	-0.004345 
2027.185616  	-0.002876 
2029.114432  	-0.003625 
2031.043248  	-0.003653 
2032.972064  	-0.003312 
2034.900880  	-0.002933 
2036.829696  	-0.004060 
2038.758512  	-0.003166 
2040.687328  	-0.003391 
2042.616144  	-0.003641 
2044.544960  	-0.004588 
2046.473776  	-0.004104 
2048.402592  	-0.003795 
2050.331408  	-0.003975 
2052.260224  	-0.005143 
2054.189040  	-0.005300 
2056.117856  	-0.005272 
2058.046672  	-0.004865 
2059.975488  	-0.005671 
2061.904304  	-0.005775 
2063.833120  	-0.005447 
2065.761936  	-0.004936 
2067.690752  	-0.005486 
2069.619568  	-0.005236 
2071.548384  	-0.005051 
2073.477200  	-0.004941 
2075.406016  	-0.004550 
2077.334832  	-0.004247 
2079.263648  	-0.004588 
2081.192464  	-0.004644 
2083.121280  	-0.004784 
2085.050096  	-0.004615 
2086.978912  	-0.005072 
2088.907728  	-0.004907 
2090.836544  	-0.004944 
2092.765360  	-0.004792 
2094.694176  	-0.004625 
2096.622992  	-0.004163 
2098.551808  	-0.004384 
2100.480624  	-0.004072 
2102.409440  	-0.004458 
2104.338256  	-0.004724 
2106.267072  	-0.004216 
2108.195888  	-0.003609 
2110.124704  	-0.004176 
2112.053520  	-0.004313 
2113.982336  	-0.004191 
2115.911152  	-0.004009 
2117.839968  	-0.004074 
2119.768784  	-0.004219 
2121.697600  	-0.004616 
2123.626416  	-0.004717 
2125.555232  	-0.005038 
2127.484048  	-0.004594 
2129.412864  	-0.005011 
2131.341680  	-0.005261 
2133.270496  	-0.005280 
2135.199312  	-0.004965 
2137.128128  	-0.004520 
2139.056944  	-0.003689 
2140.985760  	-0.004157 
2142.914576  	-0.004432 
2144.843392  	-0.004752 
2146.772208  	-0.004866 
2148.701024  	-0.005701 
2150.629840  	-0.004127 
2152.558656  	-0.003511 
2154.487472  	-0.003858 
2156.416288  	-0.004963 
2158.345104  	-0.004331 
2160.273920  	-0.003554 
2162.202736  	-0.002855 
2164.131552  	-0.003501 
2166.060368  	-0.003054 
2167.989184  	-0.002028 
2169.918000  	-0.001325 
2171.846816  	-0.003587 
2173.775632  	-0.003892 
2175.704448  	-0.002989 
2177.633264  	-0.002930 
2179.562080  	-0.003763 
2181.490896  	-0.003819 
2183.419712  	-0.004699 
2185.348528  	-0.004488 
2187.277344  	-0.004265 
2189.206160  	-0.004031 
2191.134976  	-0.004282 
2193.063792  	-0.003950 
2194.992608  	-0.004210 
2196.921424  	-0.004271 
2198.850240  	-0.004113 
2200.779056  	-0.004039 
2202.707872  	-0.004465 
2204.636688  	-0.004437 
2206.565504  	-0.004130 
2208.494320  	-0.003746 
2210.423136  	-0.004898 
2212.351952  	-0.004972 
2214.280768  	-0.004759 
2216.209584  	-0.004798 
2218.138400  	-0.005460 
2220.067216  	-0.004803 
2221.996032  	-0.004446 
2223.924848  	-0.004187 
2225.853664  	-0.004390 
2227.782480  	-0.004445 
2229.711296  	-0.005331 
2231.640112  	-0.005718 
2233.568928  	-0.005328 
2235.497744  	-0.004968 
2237.426560  	-0.005488 
2239.355376  	-0.005402 
2241.284192  	-0.005292 
2243.213008  	-0.005303 
2245.141824  	-0.005831 
2247.070640  	-0.005422 
2248.999456  	-0.005304 
2250.928272  	-0.005808 
2252.857088  	-0.005928 
2254.785904  	-0.005572 
2256.714720  	-0.006126 
2258.643536  	-0.006394 
2260.572352  	-0.006622 
2262.501168  	-0.006740 
2264.429984  	-0.006852 
2266.358800  	-0.006776 
2268.287616  	-0.006758 
2270.216432  	-0.006449 
2272.145248  	-0.006485 
2274.074064  	-0.006416 
2276.002880  	-0.006095 
2277.931696  	-0.005924 
2279.860512  	-0.005877 
2281.789328  	-0.005251 
2283.718144  	-0.005116 
2285.646960  	-0.005087 
2287.575776  	-0.005189 
2289.504592  	-0.005512 
2291.433408  	-0.005857 
2293.362224  	-0.005791 
2295.291040  	-0.005648 
2297.219856  	-0.005419 
2299.148672  	-0.005375 
2301.077488  	-0.005236 
2303.006304  	-0.005291 
2304.935120  	-0.005078 
2306.863936  	-0.005239 
2308.792752  	-0.005688 
2310.721568  	-0.006505 
2312.650384  	-0.007586 
2314.579200  	-0.008838 
2316.508016  	-0.010042 
2318.436832  	-0.011563 
2320.365648  	-0.013610 
2322.294464  	-0.015759 
2324.223280  	-0.017917 
2326.152096  	-0.020499 
2328.080912  	-0.022836 
2330.009728  	-0.025306 
2331.938544  	-0.027447 
2333.867360  	-0.029416 
2335.796176  	-0.031126 
2337.724992  	-0.032263 
2339.653808  	-0.032826 
2341.582624  	-0.033144 
2343.511440  	-0.031559 
2345.440256  	-0.028133 
2347.369072  	-0.021104 
2349.297888  	-0.016749 
2351.226704  	-0.020773 
2353.155520  	-0.028861 
2355.084336  	-0.034893 
2357.013152  	-0.039390 
2358.941968  	-0.041949 
2360.870784  	-0.043536 
2362.799600  	-0.042745 
2364.728416  	-0.040419 
2366.657232  	-0.036748 
2368.586048  	-0.031908 
2370.514864  	-0.026620 
2372.443680  	-0.021824 
2374.372496  	-0.017175 
2376.301312  	-0.012964 
2378.230128  	-0.009552 
2380.158944  	-0.007473 
2382.087760  	-0.006438 
2384.016576  	-0.006109 
2385.945392  	-0.005968 
2387.874208  	-0.006121 
2389.803024  	-0.006348 
2391.731840  	-0.006545 
2393.660656  	-0.006571 
2395.589472  	-0.006592 
2397.518288  	-0.006535 
2399.447104  	-0.006790 
2401.375920  	-0.006814 
2403.304736  	-0.006889 
2405.233552  	-0.006740 
2407.162368  	-0.006818 
2409.091184  	-0.006861 
2411.020000  	-0.006905 
2412.948816  	-0.006742 
2414.877632  	-0.006446 
2416.806448  	-0.006317 
2418.735264  	-0.006563 
2420.664080  	-0.006707 
2422.592896  	-0.006719 
2424.521712  	-0.006791 
2426.450528  	-0.006881 
2428.379344  	-0.006612 
2430.308160  	-0.006355 
2432.236976  	-0.006286 
2434.165792  	-0.006419 
2436.094608  	-0.006532 
2438.023424  	-0.006480 
2439.952240  	-0.006308 
2441.881056  	-0.006295 
2443.809872  	-0.006319 
2445.738688  	-0.006226 
2447.667504  	-0.005834 
2449.596320  	-0.005795 
2451.525136  	-0.005839 
2453.453952  	-0.005933 
2455.382768  	-0.005992 
2457.311584  	-0.006157 
2459.240400  	-0.006259 
2461.169216  	-0.006409 
2463.098032  	-0.006591 
2465.026848  	-0.006633 
2466.955664  	-0.006506 
2468.884480  	-0.006590 
2470.813296  	-0.006545 
2472.742112  	-0.006569 
2474.670928  	-0.006466 
2476.599744  	-0.006425 
2478.528560  	-0.006496 
2480.457376  	-0.006559 
2482.386192  	-0.006433 
2484.315008  	-0.006185 
2486.243824  	-0.006216 
2488.172640  	-0.006327 
2490.101456  	-0.005928 
2492.030272  	-0.005777 
2493.959088  	-0.005662 
2495.887904  	-0.005599 
2497.816720  	-0.005465 
2499.745536  	-0.005501 
2501.674352  	-0.005431 
2503.603168  	-0.005299 
2505.531984  	-0.005117 
2507.460800  	-0.005308 
2509.389616  	-0.005540 
2511.318432  	-0.005444 
2513.247248  	-0.005176 
2515.176064  	-0.005329 
2517.104880  	-0.005266 
2519.033696  	-0.005335 
2520.962512  	-0.005474 
2522.891328  	-0.005311 
2524.820144  	-0.005227 
2526.748960  	-0.005166 
2528.677776  	-0.005007 
2530.606592  	-0.005078 
2532.535408  	-0.005061 
2534.464224  	-0.005142 
2536.393040  	-0.005064 
2538.321856  	-0.004813 
2540.250672  	-0.004684 
2542.179488  	-0.004621 
2544.108304  	-0.004569 
2546.037120  	-0.004733 
2547.965936  	-0.004765 
2549.894752  	-0.004777 
2551.823568  	-0.004730 
2553.752384  	-0.004296 
2555.681200  	-0.003884 
2557.610016  	-0.003858 
2559.538832  	-0.003762 
2561.467648  	-0.003735 
2563.396464  	-0.003759 
2565.325280  	-0.003721 
2567.254096  	-0.003750 
2569.182912  	-0.003693 
2571.111728  	-0.003426 
2573.040544  	-0.003463 
2574.969360  	-0.003510 
2576.898176  	-0.003275 
2578.826992  	-0.003222 
2580.755808  	-0.003296 
2582.684624  	-0.003247 
2584.613440  	-0.003167 
2586.542256  	-0.003090 
2588.471072  	-0.003048 
2590.399888  	-0.002857 
2592.328704  	-0.002860 
2594.257520  	-0.003110 
2596.186336  	-0.003083 
2598.115152  	-0.002853 
2600.043968  	-0.002667 
2601.972784  	-0.002478 
2603.901600  	-0.002483 
2605.830416  	-0.002269 
2607.759232  	-0.001999 
2609.688048  	-0.001987 
2611.616864  	-0.001955 
2613.545680  	-0.001852 
2615.474496  	-0.001736 
2617.403312  	-0.001520 
2619.332128  	-0.001422 
2621.260944  	-0.001458 
2623.189760  	-0.001421 
2625.118576  	-0.001298 
2627.047392  	-0.001245 
2628.976208  	-0.001060 
2630.905024  	-0.000964 
2632.833840  	-0.000988 
2634.762656  	-0.001052 
2636.691472  	-0.001009 
2638.620288  	-0.000928 
2640.549104  	-0.000789 
2642.477920  	-0.000646 
2644.406736  	-0.000468 
2646.335552  	-0.000316 
2648.264368  	-0.000156 
2650.193184  	-0.000020 
2652.122000  	0.000115 
2654.050816  	0.000225 
2655.979632  	0.000335 
2657.908448  	0.000424 
2659.837264  	0.000571 
2661.766080  	0.000723 
2663.694896  	0.000873 
2665.623712  	0.000908 
2667.552528  	0.001001 
2669.481344  	0.001206 
2671.410160  	0.001330 
2673.338976  	0.001413 
2675.267792  	0.001581 
2677.196608  	0.001805 
2679.125424  	0.001966 
2681.054240  	0.002060 
2682.983056  	0.002193 
2684.911872  	0.002225 
2686.840688  	0.002336 
2688.769504  	0.002414 
2690.698320  	0.002472 
2692.627136  	0.002524 
2694.555952  	0.002669 
2696.484768  	0.002743 
2698.413584  	0.002791 
2700.342400  	0.002836 
2702.271216  	0.002971 
2704.200032  	0.003097 
2706.128848  	0.003138 
2708.057664  	0.003219 
2709.986480  	0.003360 
2711.915296  	0.003468 
2713.844112  	0.003621 
2715.772928  	0.003740 
2717.701744  	0.003916 
2719.630560  	0.004123 
2721.559376  	0.004202 
2723.488192  	0.004363 
2725.417008  	0.004651 
2727.345824  	0.004795 
2729.274640  	0.004796 
2731.203456  	0.004953 
2733.132272  	0.005206 
2735.061088  	0.005333 
2736.989904  	0.005432 
2738.918720  	0.005545 
2740.847536  	0.005607 
2742.776352  	0.005610 
2744.705168  	0.005694 
2746.633984  	0.005729 
2748.562800  	0.005751 
2750.491616  	0.005871 
2752.420432  	0.006042 
2754.349248  	0.006027 
2756.278064  	0.005906 
2758.206880  	0.005744 
2760.135696  	0.005797 
2762.064512  	0.005888 
2763.993328  	0.005925 
2765.922144  	0.005921 
2767.850960  	0.005927 
2769.779776  	0.005945 
2771.708592  	0.006044 
2773.637408  	0.005962 
2775.566224  	0.005863 
2777.495040  	0.005880 
2779.423856  	0.006032 
2781.352672  	0.006034 
2783.281488  	0.005987 
2785.210304  	0.006001 
2787.139120  	0.006188 
2789.067936  	0.006282 
2790.996752  	0.006319 
2792.925568  	0.006225 
2794.854384  	0.006229 
2796.783200  	0.006301 
2798.712016  	0.006163 
2800.640832  	0.006056 
2802.569648  	0.006133 
2804.498464  	0.006223 
2806.427280  	0.006090 
2808.356096  	0.005999 
2810.284912  	0.006172 
2812.213728  	0.006205 
2814.142544  	0.006147 
2816.071360  	0.006171 
2818.000176  	0.006035 
2819.928992  	0.005868 
2821.857808  	0.005794 
2823.786624  	0.005670 
2825.715440  	0.005626 
2827.644256  	0.005490 
2829.573072  	0.005339 
2831.501888  	0.005050 
2833.430704  	0.004622 
2835.359520  	0.004355 
2837.288336  	0.004204 
2839.217152  	0.003861 
2841.145968  	0.003475 
2843.074784  	0.003107 
2845.003600  	0.002638 
2846.932416  	0.002199 
2848.861232  	0.001879 
2850.790048  	0.001501 
2852.718864  	0.000998 
2854.647680  	0.000475 
2856.576496  	-0.000022 
2858.505312  	-0.000548 
2860.434128  	-0.001222 
2862.362944  	-0.001944 
2864.291760  	-0.002768 
2866.220576  	-0.003392 
2868.149392  	-0.003703 
2870.078208  	-0.004004 
2872.007024  	-0.004073 
2873.935840  	-0.003979 
2875.864656  	-0.004132 
2877.793472  	-0.004328 
2879.722288  	-0.004399 
2881.651104  	-0.004815 
2883.579920  	-0.005015 
2885.508736  	-0.004781 
2887.437552  	-0.004450 
2889.366368  	-0.004352 
2891.295184  	-0.004659 
2893.224000  	-0.004894 
2895.152816  	-0.004798 
2897.081632  	-0.005130 
2899.010448  	-0.006949 
2900.939264  	-0.008489 
2902.868080  	-0.007203 
2904.796896  	-0.005755 
2906.725712  	-0.005116 
2908.654528  	-0.004524 
2910.583344  	-0.004107 
2912.512160  	-0.003471 
2914.440976  	-0.002350 
2916.369792  	-0.001509 
2918.298608  	-0.001038 
2920.227424  	-0.000582 
2922.156240  	0.000252 
2924.085056  	0.001177 
2926.013872  	0.002037 
2927.942688  	0.003023 
2929.871504  	0.004058 
2931.800320  	0.005011 
2933.729136  	0.005804 
2935.657952  	0.006274 
2937.586768  	0.006865 
2939.515584  	0.007572 
2941.444400  	0.007850 
2943.373216  	0.007867 
2945.302032  	0.008051 
2947.230848  	0.008210 
2949.159664  	0.008014 
2951.088480  	0.007514 
2953.017296  	0.007056 
2954.946112  	0.006378 
2956.874928  	0.005562 
2958.803744  	0.004736 
2960.732560  	0.004158 
2962.661376  	0.003723 
2964.590192  	0.002858 
2966.519008  	0.001600 
2968.447824  	0.000591 
2970.376640  	-0.000279 
2972.305456  	-0.000746 
2974.234272  	-0.000502 
2976.163088  	-0.000263 
2978.091904  	-0.000328 
2980.020720  	-0.000353 
2981.949536  	-0.000180 
2983.878352  	-0.000386 
2985.807168  	-0.001275 
2987.735984  	-0.002235 
2989.664800  	-0.001888 
2991.593616  	0.001213 
2993.522432  	0.003340 
2995.451248  	0.003955 
2997.380064  	0.004797 
2999.308880  	0.005971 
3001.237696  	0.007298 
3003.166512  	0.008859 
3005.095328  	0.010399 
3007.024144  	0.011762 
3008.952960  	0.013113 
3010.881776  	0.014663 
3012.810592  	0.016067 
3014.739408  	0.017383 
3016.668224  	0.018566 
3018.597040  	0.019754 
3020.525856  	0.021029 
3022.454672  	0.022099 
3024.383488  	0.023135 
3026.312304  	0.024191 
3028.241120  	0.025380 
3030.169936  	0.026327 
3032.098752  	0.027095 
3034.027568  	0.028027 
3035.956384  	0.028932 
3037.885200  	0.029772 
3039.814016  	0.030336 
3041.742832  	0.030904 
3043.671648  	0.031501 
3045.600464  	0.032134 
3047.529280  	0.032683 
3049.458096  	0.033175 
3051.386912  	0.033907 
3053.315728  	0.034556 
3055.244544  	0.035257 
3057.173360  	0.035934 
3059.102176  	0.036316 
3061.030992  	0.036852 
3062.959808  	0.037680 
3064.888624  	0.038410 
3066.817440  	0.039118 
3068.746256  	0.040041 
3070.675072  	0.040863 
3072.603888  	0.041577 
3074.532704  	0.042284 
3076.461520  	0.043071 
3078.390336  	0.043877 
3080.319152  	0.044642 
3082.247968  	0.045434 
3084.176784  	0.046215 
3086.105600  	0.047022 
3088.034416  	0.047780 
3089.963232  	0.048598 
3091.892048  	0.049249 
3093.820864  	0.050048 
3095.749680  	0.050784 
3097.678496  	0.051576 
3099.607312  	0.052497 
3101.536128  	0.053530 
3103.464944  	0.054494 
3105.393760  	0.055122 
3107.322576  	0.055731 
3109.251392  	0.056518 
3111.180208  	0.057226 
3113.109024  	0.057885 
3115.037840  	0.058607 
3116.966656  	0.059537 
3118.895472  	0.060198 
3120.824288  	0.060744 
3122.753104  	0.061316 
3124.681920  	0.061908 
3126.610736  	0.062401 
3128.539552  	0.063283 
3130.468368  	0.064297 
3132.397184  	0.064775 
3134.326000  	0.065350 
3136.254816  	0.066030 
3138.183632  	0.066628 
3140.112448  	0.067190 
3142.041264  	0.067763 
3143.970080  	0.068429 
3145.898896  	0.069086 
3147.827712  	0.069798 
3149.756528  	0.070492 
3151.685344  	0.071098 
3153.614160  	0.072006 
3155.542976  	0.072846 
3157.471792  	0.073319 
3159.400608  	0.073941 
3161.329424  	0.074743 
3163.258240  	0.075206 
3165.187056  	0.075598 
3167.115872  	0.076202 
3169.044688  	0.076909 
3170.973504  	0.077308 
3172.902320  	0.077604 
3174.831136  	0.078178 
3176.759952  	0.078706 
3178.688768  	0.079131 
3180.617584  	0.079590 
3182.546400  	0.079999 
3184.475216  	0.080261 
3186.404032  	0.080395 
3188.332848  	0.080660 
3190.261664  	0.080947 
3192.190480  	0.081270 
3194.119296  	0.081367 
3196.048112  	0.081512 
3197.976928  	0.081478 
3199.905744  	0.081419 
3201.834560  	0.081487 
3203.763376  	0.081382 
3205.692192  	0.081260 
3207.621008  	0.081218 
3209.549824  	0.081281 
3211.478640  	0.081402 
3213.407456  	0.081204 
3215.336272  	0.081098 
3217.265088  	0.080996 
3219.193904  	0.080833 
3221.122720  	0.080609 
3223.051536  	0.080402 
3224.980352  	0.080166 
3226.909168  	0.079990 
3228.837984  	0.079731 
3230.766800  	0.079637 
3232.695616  	0.079626 
3234.624432  	0.079382 
3236.553248  	0.079348 
3238.482064  	0.079441 
3240.410880  	0.079478 
3242.339696  	0.079706 
3244.268512  	0.079481 
3246.197328  	0.079346 
3248.126144  	0.079747 
3250.054960  	0.080012 
3251.983776  	0.080286 
3253.912592  	0.080502 
3255.841408  	0.080660 
3257.770224  	0.080932 
3259.699040  	0.081123 
3261.627856  	0.081313 
3263.556672  	0.081552 
3265.485488  	0.081761 
3267.414304  	0.082129 
3269.343120  	0.082553 
3271.271936  	0.082759 
3273.200752  	0.082777 
3275.129568  	0.082914 
3277.058384  	0.083372 
3278.987200  	0.083700 
3280.916016  	0.083800 
3282.844832  	0.084123 
3284.773648  	0.084457 
3286.702464  	0.084490 
3288.631280  	0.084605 
3290.560096  	0.084937 
3292.488912  	0.085332 
3294.417728  	0.085749 
3296.346544  	0.086098 
3298.275360  	0.086286 
3300.204176  	0.086587 
3302.132992  	0.087012 
3304.061808  	0.087418 
3305.990624  	0.087840 
3307.919440  	0.088161 
3309.848256  	0.088357 
3311.777072  	0.088780 
3313.705888  	0.089196 
3315.634704  	0.089771 
3317.563520  	0.090426 
3319.492336  	0.090770 
3321.421152  	0.090904 
3323.349968  	0.091260 
3325.278784  	0.091538 
3327.207600  	0.091709 
3329.136416  	0.091625 
3331.065232  	0.091739 
3332.994048  	0.092012 
3334.922864  	0.092262 
3336.851680  	0.092330 
3338.780496  	0.092292 
3340.709312  	0.092150 
3342.638128  	0.091832 
3344.566944  	0.091346 
3346.495760  	0.091187 
3348.424576  	0.090999 
3350.353392  	0.090587 
3352.282208  	0.090465 
3354.211024  	0.090409 
3356.139840  	0.090025 
3358.068656  	0.089613 
3359.997472  	0.089262 
3361.926288  	0.088892 
3363.855104  	0.088449 
3365.783920  	0.087883 
3367.712736  	0.087526 
3369.641552  	0.087198 
3371.570368  	0.086785 
3373.499184  	0.086506 
3375.428000  	0.086017 
3377.356816  	0.085579 
3379.285632  	0.085443 
3381.214448  	0.085175 
3383.143264  	0.084830 
3385.072080  	0.084434 
3387.000896  	0.083851 
3388.929712  	0.083439 
3390.858528  	0.083184 
3392.787344  	0.082856 
3394.716160  	0.082532 
3396.644976  	0.082030 
3398.573792  	0.081463 
3400.502608  	0.081058 
3402.431424  	0.080297 
3404.360240  	0.079618 
3406.289056  	0.079202 
3408.217872  	0.078890 
3410.146688  	0.078447 
3412.075504  	0.078090 
3414.004320  	0.077665 
3415.933136  	0.077242 
3417.861952  	0.076456 
3419.790768  	0.075739 
3421.719584  	0.075240 
3423.648400  	0.074787 
3425.577216  	0.074096 
3427.506032  	0.073464 
3429.434848  	0.073131 
3431.363664  	0.072768 
3433.292480  	0.072110 
3435.221296  	0.071571 
3437.150112  	0.071023 
3439.078928  	0.070433 
3441.007744  	0.069748 
3442.936560  	0.069263 
3444.865376  	0.068988 
3446.794192  	0.068088 
3448.723008  	0.067025 
3450.651824  	0.066388 
3452.580640  	0.065825 
3454.509456  	0.065236 
3456.438272  	0.064706 
3458.367088  	0.064105 
3460.295904  	0.063408 
3462.224720  	0.062298 
3464.153536  	0.061351 
3466.082352  	0.060708 
3468.011168  	0.059893 
3469.939984  	0.059117 
3471.868800  	0.058434 
3473.797616  	0.057642 
3475.726432  	0.056824 
3477.655248  	0.056108 
3479.584064  	0.055617 
3481.512880  	0.054779 
3483.441696  	0.053627 
3485.370512  	0.053079 
3487.299328  	0.052071 
3489.228144  	0.051120 
3491.156960  	0.050460 
3493.085776  	0.049607 
3495.014592  	0.048749 
3496.943408  	0.048147 
3498.872224  	0.047671 
3500.801040  	0.047654 
3502.729856  	0.046915 
3504.658672  	0.045527 
3506.587488  	0.044942 
3508.516304  	0.044619 
3510.445120  	0.043693 
3512.373936  	0.042622 
3514.302752  	0.041827 
3516.231568  	0.041599 
3518.160384  	0.041258 
3520.089200  	0.040551 
3522.018016  	0.040359 
3523.946832  	0.040330 
3525.875648  	0.039418 
3527.804464  	0.037821 
3529.733280  	0.036849 
3531.662096  	0.036271 
3533.590912  	0.035793 
3535.519728  	0.035658 
3537.448544  	0.035069 
3539.377360  	0.033927 
3541.306176  	0.033314 
3543.234992  	0.033311 
3545.163808  	0.033538 
3547.092624  	0.032528 
3549.021440  	0.031022 
3550.950256  	0.030302 
3552.879072  	0.029591 
3554.807888  	0.029018 
3556.736704  	0.028415 
3558.665520  	0.028099 
3560.594336  	0.027815 
3562.523152  	0.026854 
3564.451968  	0.026984 
3566.380784  	0.027226 
3568.309600  	0.024897 
3570.238416  	0.023673 
3572.167232  	0.023197 
3574.096048  	0.022208 
3576.024864  	0.021345 
3577.953680  	0.020946 
3579.882496  	0.020177 
3581.811312  	0.019569 
3583.740128  	0.019400 
3585.668944  	0.019654 
3587.597760  	0.017999 
3589.526576  	0.015940 
3591.455392  	0.015458 
3593.384208  	0.015004 
3595.313024  	0.013915 
3597.241840  	0.012699 
3599.170656  	0.011162 
3601.099472  	0.009949 
3603.028288  	0.010061 
3604.957104  	0.010304 
3606.885920  	0.009634 
3608.814736  	0.008043 
3610.743552  	0.007848 
3612.672368  	0.006722 
3614.601184  	0.005270 
3616.530000  	0.005080 
3618.458816  	0.002828 
3620.387632  	0.000696 
3622.316448  	0.000975 
3624.245264  	0.001125 
3626.174080  	0.001067 
3628.102896  	-0.002135 
3630.031712  	-0.006251 
3631.960528  	-0.003929 
3633.889344  	-0.003994 
3635.818160  	-0.004585 
3637.746976  	-0.005360 
3639.675792  	-0.005667 
3641.604608  	-0.005728 
3643.533424  	-0.006057 
3645.462240  	-0.006721 
3647.391056  	-0.010287 
3649.319872  	-0.015787 
3651.248688  	-0.016987 
3653.177504  	-0.013101 
3655.106320  	-0.013308 
3657.035136  	-0.016451 
3658.963952  	-0.015920 
3660.892768  	-0.015648 
3662.821584  	-0.016097 
3664.750400  	-0.016090 
3666.679216  	-0.015890 
3668.608032  	-0.018220 
3670.536848  	-0.022099 
3672.465664  	-0.019693 
3674.394480  	-0.021357 
3676.323296  	-0.026587 
3678.252112  	-0.021629 
3680.180928  	-0.019631 
3682.109744  	-0.018764 
3684.038560  	-0.018698 
3685.967376  	-0.018672 
3687.896192  	-0.022016 
3689.825008  	-0.025645 
3691.753824  	-0.024083 
3693.682640  	-0.021044 
3695.611456  	-0.019642 
3697.540272  	-0.018735 
3699.469088  	-0.018006 
3701.397904  	-0.019443 
3703.326720  	-0.019498 
3705.255536  	-0.017506 
3707.184352  	-0.017118 
3709.113168  	-0.018810 
3711.041984  	-0.021391 
3712.970800  	-0.020316 
3714.899616  	-0.016634 
3716.828432  	-0.015738 
3718.757248  	-0.016296 
3720.686064  	-0.016848 
3722.614880  	-0.017414 
3724.543696  	-0.016748 
3726.472512  	-0.017177 
3728.401328  	-0.017188 
3730.330144  	-0.017812 
3732.258960  	-0.020089 
3734.187776  	-0.019254 
3736.116592  	-0.019974 
3738.045408  	-0.019170 
3739.974224  	-0.016815 
3741.903040  	-0.015193 
3743.831856  	-0.018063 
3745.760672  	-0.020476 
3747.689488  	-0.017988 
3749.618304  	-0.021493 
3751.547120  	-0.024023 
3753.475936  	-0.020725 
3755.404752  	-0.017231 
3757.333568  	-0.016770 
3759.262384  	-0.017899 
3761.191200  	-0.017726 
3763.120016  	-0.015396 
3765.048832  	-0.016194 
3766.977648  	-0.016391 
3768.906464  	-0.017287 
3770.835280  	-0.018154 
3772.764096  	-0.016174 
3774.692912  	-0.015199 
3776.621728  	-0.014943 
3778.550544  	-0.016598 
3780.479360  	-0.017873 
3782.408176  	-0.016040 
3784.336992  	-0.016241 
3786.265808  	-0.016163 
3788.194624  	-0.015610 
3790.123440  	-0.015562 
3792.052256  	-0.015508 
3793.981072  	-0.015401 
3795.909888  	-0.017180 
3797.838704  	-0.017227 
3799.767520  	-0.017379 
3801.696336  	-0.022371 
3803.625152  	-0.019775 
3805.553968  	-0.018092 
3807.482784  	-0.020208 
3809.411600  	-0.017146 
3811.340416  	-0.015260 
3813.269232  	-0.014993 
3815.198048  	-0.018207 
3817.126864  	-0.019928 
3819.055680  	-0.017958 
3820.984496  	-0.021982 
3822.913312  	-0.020117 
3824.842128  	-0.016536 
3826.770944  	-0.017230 
3828.699760  	-0.016566 
3830.628576  	-0.016894 
3832.557392  	-0.017841 
3834.486208  	-0.017623 
3836.415024  	-0.018974 
3838.343840  	-0.021038 
3840.272656  	-0.020062 
3842.201472  	-0.018080 
3844.130288  	-0.017551 
3846.059104  	-0.016128 
3847.987920  	-0.014909 
3849.916736  	-0.014906 
3851.845552  	-0.017801 
3853.774368  	-0.024557 
3855.703184  	-0.020949 
3857.632000  	-0.017050 
3859.560816  	-0.015419 
3861.489632  	-0.015531 
3863.418448  	-0.016686 
3865.347264  	-0.017488 
3867.276080  	-0.015533 
3869.204896  	-0.016900 
3871.133712  	-0.017644 
3873.062528  	-0.016468 
3874.991344  	-0.017242 
3876.920160  	-0.015125 
3878.848976  	-0.014616 
3880.777792  	-0.015949 
3882.706608  	-0.014780 
3884.635424  	-0.015085 
3886.564240  	-0.017020 
3888.493056  	-0.015433 
3890.421872  	-0.016033 
3892.350688  	-0.017262 
3894.279504  	-0.015678 
3896.208320  	-0.014534 
3898.137136  	-0.014599 
3900.065952  	-0.015119 
3901.994768  	-0.014874 
3903.923584  	-0.015997 
3905.852400  	-0.016528 
3907.781216  	-0.015769 
3909.710032  	-0.015290 
3911.638848  	-0.015114 
3913.567664  	-0.014752 
3915.496480  	-0.014284 
3917.425296  	-0.014559 
3919.354112  	-0.014849 
3921.282928  	-0.014628 
3923.211744  	-0.014157 
3925.140560  	-0.014468 
3927.069376  	-0.014598 
3928.998192  	-0.014365 
3930.927008  	-0.013940 
3932.855824  	-0.014045 
3934.784640  	-0.014672 
3936.713456  	-0.014855 
3938.642272  	-0.014517 
3940.571088  	-0.013999 
3942.499904  	-0.013905 
3944.428720  	-0.014064 
3946.357536  	-0.013729 
3948.286352  	-0.013721 
3950.215168  	-0.014531 
3952.143984  	-0.015149 
3954.072800  	-0.015119 
3956.001616  	-0.014863 
3957.930432  	-0.014919 
3959.859248  	-0.014850 
3961.788064  	-0.014784 
3963.716880  	-0.015202 
3965.645696  	-0.015483 
3967.574512  	-0.015236 
3969.503328  	-0.014817 
3971.432144  	-0.014870 
3973.360960  	-0.014974 
3975.289776  	-0.014824 
3977.218592  	-0.014794 
3979.147408  	-0.014925 
3981.076224  	-0.015002 
3983.005040  	-0.015116 
3984.933856  	-0.015054 
3986.862672  	-0.015186 
3988.791488  	-0.014954 
3990.720304  	-0.014587 
3992.649120  	-0.014765 
3994.577936  	-0.015065 
3996.506752  	-0.015027 
3998.435568  	-0.015044 
4000.364384  	-0.015069 