##TITLE=No Description
##DATA TYPE=INFRARED SPECTRUM
##XUNITS=1/CM
##YUNITS=Abs
399.264912  	0.626200 
401.193728  	0.621293 
403.122544  	0.629771 
405.051360  	0.624097 
406.980176  	0.615244 
408.908992  	0.597090 
410.837808  	0.599565 
412.766624  	0.608165 
414.695440  	0.607237 
416.624256  	0.589104 
418.553072  	0.590695 
420.481888  	0.583895 
422.410704  	0.586283 
424.339520  	0.575470 
426.268336  	0.568299 
428.197152  	0.561058 
430.125968  	0.564161 
432.054784  	0.566840 
433.983600  	0.567197 
435.912416  	0.558458 
437.841232  	0.559319 
439.770048  	0.556298 
441.698864  	0.554302 
443.627680  	0.549341 
445.556496  	0.550825 
447.485312  	0.553097 
449.414128  	0.553489 
451.342944  	0.548861 
453.271760  	0.548710 
455.200576  	0.541568 
457.129392  	0.544379 
459.058208  	0.539159 
460.987024  	0.543327 
462.915840  	0.545089 
464.844656  	0.542193 
466.773472  	0.535791 
468.702288  	0.536150 
470.631104  	0.535034 
472.559920  	0.537303 
474.488736  	0.534795 
476.417552  	0.536484 
478.346368  	0.529385 
480.275184  	0.526500 
482.204000  	0.522904 
484.132816  	0.527324 
486.061632  	0.527965 
487.990448  	0.527788 
489.919264  	0.525161 
491.848080  	0.524721 
493.776896  	0.518145 
495.705712  	0.515698 
497.634528  	0.514437 
499.563344  	0.517994 
501.492160  	0.517552 
503.420976  	0.517976 
505.349792  	0.515610 
507.278608  	0.514548 
509.207424  	0.513266 
511.136240  	0.513627 
513.065056  	0.511939 
514.993872  	0.516280 
516.922688  	0.516047 
518.851504  	0.515127 
520.780320  	0.514038 
522.709136  	0.514625 
524.637952  	0.513472 
526.566768  	0.512731 
528.495584  	0.510808 
530.424400  	0.509821 
532.353216  	0.506479 
534.282032  	0.503814 
536.210848  	0.496082 
538.139664  	0.491688 
540.068480  	0.487660 
541.997296  	0.484122 
543.926112  	0.479383 
545.854928  	0.476103 
547.783744  	0.473544 
549.712560  	0.471772 
551.641376  	0.467411 
553.570192  	0.463022 
555.499008  	0.459496 
557.427824  	0.457455 
559.356640  	0.453401 
561.285456  	0.450697 
563.214272  	0.447647 
565.143088  	0.445055 
567.071904  	0.441236 
569.000720  	0.438670 
570.929536  	0.435805 
572.858352  	0.433842 
574.787168  	0.431341 
576.715984  	0.429814 
578.644800  	0.425369 
580.573616  	0.421591 
582.502432  	0.416720 
584.431248  	0.414498 
586.360064  	0.411563 
588.288880  	0.408472 
590.217696  	0.406032 
592.146512  	0.404783 
594.075328  	0.402434 
596.004144  	0.400430 
597.932960  	0.397916 
599.861776  	0.396305 
601.790592  	0.393234 
603.719408  	0.391011 
605.648224  	0.389782 
607.577040  	0.388656 
609.505856  	0.386963 
611.434672  	0.385859 
613.363488  	0.383238 
615.292304  	0.381252 
617.221120  	0.379811 
619.149936  	0.379152 
621.078752  	0.377260 
623.007568  	0.375883 
624.936384  	0.373278 
626.865200  	0.371647 
628.794016  	0.370490 
630.722832  	0.369944 
632.651648  	0.369090 
634.580464  	0.368493 
636.509280  	0.367544 
638.438096  	0.366762 
640.366912  	0.364933 
642.295728  	0.362736 
644.224544  	0.359814 
646.153360  	0.356512 
648.082176  	0.352200 
650.010992  	0.348724 
651.939808  	0.344909 
653.868624  	0.341679 
655.797440  	0.337615 
657.726256  	0.334266 
659.655072  	0.331403 
661.583888  	0.328059 
663.512704  	0.324400 
665.441520  	0.321810 
667.370336  	0.313956 
669.299152  	0.307479 
671.227968  	0.308080 
673.156784  	0.305573 
675.085600  	0.302651 
677.014416  	0.300106 
678.943232  	0.297468 
680.872048  	0.295962 
682.800864  	0.294647 
684.729680  	0.293223 
686.658496  	0.291434 
688.587312  	0.289810 
690.516128  	0.288141 
692.444944  	0.286676 
694.373760  	0.285588 
696.302576  	0.283823 
698.231392  	0.281327 
700.160208  	0.278774 
702.089024  	0.276324 
704.017840  	0.274407 
705.946656  	0.272044 
707.875472  	0.269396 
709.804288  	0.267003 
711.733104  	0.265234 
713.661920  	0.263228 
715.590736  	0.261829 
717.519552  	0.260882 
719.448368  	0.260018 
721.377184  	0.259248 
723.306000  	0.259340 
725.234816  	0.258953 
727.163632  	0.258074 
729.092448  	0.256155 
731.021264  	0.252832 
732.950080  	0.249791 
734.878896  	0.247323 
736.807712  	0.244325 
738.736528  	0.242187 
740.665344  	0.240080 
742.594160  	0.238080 
744.522976  	0.236459 
746.451792  	0.234697 
748.380608  	0.232776 
750.309424  	0.231178 
752.238240  	0.229772 
754.167056  	0.228516 
756.095872  	0.226716 
758.024688  	0.225532 
759.953504  	0.224744 
761.882320  	0.224614 
763.811136  	0.224222 
765.739952  	0.223067 
767.668768  	0.220827 
769.597584  	0.218214 
771.526400  	0.216471 
773.455216  	0.216718 
775.384032  	0.218697 
777.312848  	0.221625 
779.241664  	0.224073 
781.170480  	0.223812 
783.099296  	0.220853 
785.028112  	0.216205 
786.956928  	0.210925 
788.885744  	0.206333 
790.814560  	0.202944 
792.743376  	0.200470 
794.672192  	0.198757 
796.601008  	0.197499 
798.529824  	0.194835 
800.458640  	0.190757 
802.387456  	0.187048 
804.316272  	0.184757 
806.245088  	0.183363 
808.173904  	0.182255 
810.102720  	0.181112 
812.031536  	0.180350 
813.960352  	0.179911 
815.889168  	0.179654 
817.817984  	0.179180 
819.746800  	0.178547 
821.675616  	0.177769 
823.604432  	0.177103 
825.533248  	0.176722 
827.462064  	0.175846 
829.390880  	0.174529 
831.319696  	0.172891 
833.248512  	0.171131 
835.177328  	0.168986 
837.106144  	0.166293 
839.034960  	0.163406 
840.963776  	0.160238 
842.892592  	0.157156 
844.821408  	0.154080 
846.750224  	0.151101 
848.679040  	0.148205 
850.607856  	0.145901 
852.536672  	0.143976 
854.465488  	0.142116 
856.394304  	0.140702 
858.323120  	0.139199 
860.251936  	0.137051 
862.180752  	0.134711 
864.109568  	0.132349 
866.038384  	0.129855 
867.967200  	0.127724 
869.896016  	0.125936 
871.824832  	0.124522 
873.753648  	0.123801 
875.682464  	0.124100 
877.611280  	0.124181 
879.540096  	0.124364 
881.468912  	0.125694 
883.397728  	0.126583 
885.326544  	0.127317 
887.255360  	0.127460 
889.184176  	0.126254 
891.112992  	0.124252 
893.041808  	0.122726 
894.970624  	0.120715 
896.899440  	0.117843 
898.828256  	0.114494 
900.757072  	0.111271 
902.685888  	0.108619 
904.614704  	0.106940 
906.543520  	0.106713 
908.472336  	0.107556 
910.401152  	0.109180 
912.329968  	0.111108 
914.258784  	0.113390 
916.187600  	0.115402 
918.116416  	0.117052 
920.045232  	0.118180 
921.974048  	0.118725 
923.902864  	0.118968 
925.831680  	0.118724 
927.760496  	0.118437 
929.689312  	0.118438 
931.618128  	0.118966 
933.546944  	0.119191 
935.475760  	0.119162 
937.404576  	0.118830 
939.333392  	0.118234 
941.262208  	0.117867 
943.191024  	0.118506 
945.119840  	0.120772 
947.048656  	0.124389 
948.977472  	0.129352 
950.906288  	0.135895 
952.835104  	0.143410 
954.763920  	0.151451 
956.692736  	0.159197 
958.621552  	0.166094 
960.550368  	0.171248 
962.479184  	0.173959 
964.408000  	0.173624 
966.336816  	0.170408 
968.265632  	0.164397 
970.194448  	0.156077 
972.123264  	0.145928 
974.052080  	0.134994 
975.980896  	0.124317 
977.909712  	0.114294 
979.838528  	0.105218 
981.767344  	0.097325 
983.696160  	0.091119 
985.624976  	0.086992 
987.553792  	0.084885 
989.482608  	0.084797 
991.411424  	0.086588 
993.340240  	0.089635 
995.269056  	0.093634 
997.197872  	0.098028 
999.126688  	0.102622 
1001.055504  	0.107259 
1002.984320  	0.111895 
1004.913136  	0.116380 
1006.841952  	0.120946 
1008.770768  	0.124740 
1010.699584  	0.127457 
1012.628400  	0.129025 
1014.557216  	0.129574 
1016.486032  	0.129665 
1018.414848  	0.129352 
1020.343664  	0.129006 
1022.272480  	0.128366 
1024.201296  	0.127066 
1026.130112  	0.123903 
1028.058928  	0.122520 
1029.987744  	0.125111 
1031.916560  	0.126358 
1033.845376  	0.126426 
1035.774192  	0.126262 
1037.703008  	0.127524 
1039.631824  	0.131888 
1041.560640  	0.138136 
1043.489456  	0.146457 
1045.418272  	0.156967 
1047.347088  	0.169226 
1049.275904  	0.181454 
1051.204720  	0.191840 
1053.133536  	0.199196 
1055.062352  	0.203192 
1056.991168  	0.204165 
1058.919984  	0.206597 
1060.848800  	0.209070 
1062.777616  	0.208031 
1064.706432  	0.203142 
1066.635248  	0.199263 
1068.564064  	0.199204 
1070.492880  	0.196377 
1072.421696  	0.190247 
1074.350512  	0.185582 
1076.279328  	0.184325 
1078.208144  	0.186268 
1080.136960  	0.191047 
1082.065776  	0.197062 
1083.994592  	0.201734 
1085.923408  	0.204396 
1087.852224  	0.204504 
1089.781040  	0.202638 
1091.709856  	0.199559 
1093.638672  	0.194013 
1095.567488  	0.185500 
1097.496304  	0.175822 
1099.425120  	0.165413 
1101.353936  	0.154569 
1103.282752  	0.143977 
1105.211568  	0.133991 
1107.140384  	0.124228 
1109.069200  	0.114960 
1110.998016  	0.106581 
1112.926832  	0.099127 
1114.855648  	0.092096 
1116.784464  	0.085523 
1118.713280  	0.079432 
1120.642096  	0.073551 
1122.570912  	0.068072 
1124.499728  	0.062810 
1126.428544  	0.058124 
1128.357360  	0.053944 
1130.286176  	0.050675 
1132.214992  	0.047677 
1134.143808  	0.045383 
1136.072624  	0.043650 
1138.001440  	0.042048 
1139.930256  	0.040064 
1141.859072  	0.038083 
1143.787888  	0.036048 
1145.716704  	0.034195 
1147.645520  	0.032361 
1149.574336  	0.030893 
1151.503152  	0.029556 
1153.431968  	0.028981 
1155.360784  	0.029085 
1157.289600  	0.029648 
1159.218416  	0.030587 
1161.147232  	0.032001 
1163.076048  	0.033471 
1165.004864  	0.035134 
1166.933680  	0.036755 
1168.862496  	0.038559 
1170.791312  	0.040142 
1172.720128  	0.042417 
1174.648944  	0.044499 
1176.577760  	0.046450 
1178.506576  	0.048431 
1180.435392  	0.050510 
1182.364208  	0.052476 
1184.293024  	0.054809 
1186.221840  	0.057352 
1188.150656  	0.060279 
1190.079472  	0.063559 
1192.008288  	0.067567 
1193.937104  	0.072439 
1195.865920  	0.078208 
1197.794736  	0.084440 
1199.723552  	0.091384 
1201.652368  	0.098378 
1203.581184  	0.105621 
1205.510000  	0.112751 
1207.438816  	0.119637 
1209.367632  	0.126107 
1211.296448  	0.131909 
1213.225264  	0.136864 
1215.154080  	0.140827 
1217.082896  	0.143779 
1219.011712  	0.145846 
1220.940528  	0.147344 
1222.869344  	0.148373 
1224.798160  	0.148870 
1226.726976  	0.148830 
1228.655792  	0.148435 
1230.584608  	0.147359 
1232.513424  	0.145945 
1234.442240  	0.144214 
1236.371056  	0.141838 
1238.299872  	0.138486 
1240.228688  	0.132634 
1242.157504  	0.126758 
1244.086320  	0.122195 
1246.015136  	0.116194 
1247.943952  	0.109194 
1249.872768  	0.102324 
1251.801584  	0.096656 
1253.730400  	0.090897 
1255.659216  	0.084984 
1257.588032  	0.079516 
1259.516848  	0.074395 
1261.445664  	0.069544 
1263.374480  	0.065008 
1265.303296  	0.061310 
1267.232112  	0.058446 
1269.160928  	0.056251 
1271.089744  	0.054564 
1273.018560  	0.053640 
1274.947376  	0.053375 
1276.876192  	0.053551 
1278.805008  	0.053464 
1280.733824  	0.052673 
1282.662640  	0.051076 
1284.591456  	0.049096 
1286.520272  	0.047374 
1288.449088  	0.046224 
1290.377904  	0.045419 
1292.306720  	0.045458 
1294.235536  	0.045531 
1296.164352  	0.044938 
1298.093168  	0.043148 
1300.021984  	0.040793 
1301.950800  	0.038181 
1303.879616  	0.035738 
1305.808432  	0.033227 
1307.737248  	0.030821 
1309.666064  	0.028320 
1311.594880  	0.026611 
1313.523696  	0.025372 
1315.452512  	0.024517 
1317.381328  	0.023954 
1319.310144  	0.023633 
1321.238960  	0.023462 
1323.167776  	0.023880 
1325.096592  	0.024481 
1327.025408  	0.024946 
1328.954224  	0.024917 
1330.883040  	0.024504 
1332.811856  	0.023684 
1334.740672  	0.023360 
1336.669488  	0.023752 
1338.598304  	0.024421 
1340.527120  	0.023043 
1342.455936  	0.020985 
1344.384752  	0.020358 
1346.313568  	0.020492 
1348.242384  	0.020900 
1350.171200  	0.021826 
1352.100016  	0.023077 
1354.028832  	0.024746 
1355.957648  	0.026191 
1357.886464  	0.027709 
1359.815280  	0.029659 
1361.744096  	0.031920 
1363.672912  	0.032587 
1365.601728  	0.032951 
1367.530544  	0.034050 
1369.459360  	0.034326 
1371.388176  	0.034052 
1373.316992  	0.032999 
1375.245808  	0.029972 
1377.174624  	0.027923 
1379.103440  	0.025555 
1381.032256  	0.022849 
1382.961072  	0.020919 
1384.889888  	0.020720 
1386.818704  	0.020636 
1388.747520  	0.018918 
1390.676336  	0.016780 
1392.605152  	0.013897 
1394.533968  	0.012209 
1396.462784  	0.015053 
1398.391600  	0.016110 
1400.320416  	0.014863 
1402.249232  	0.015055 
1404.178048  	0.015534 
1406.106864  	0.015713 
1408.035680  	0.017248 
1409.964496  	0.019527 
1411.893312  	0.022088 
1413.822128  	0.024765 
1415.750944  	0.028451 
1417.679760  	0.030887 
1419.608576  	0.029849 
1421.537392  	0.030301 
1423.466208  	0.031070 
1425.395024  	0.029709 
1427.323840  	0.028749 
1429.252656  	0.026696 
1431.181472  	0.025313 
1433.110288  	0.025582 
1435.039104  	0.026246 
1436.967920  	0.024995 
1438.896736  	0.025347 
1440.825552  	0.026421 
1442.754368  	0.026898 
1444.683184  	0.027159 
1446.612000  	0.027112 
1448.540816  	0.025801 
1450.469632  	0.026172 
1452.398448  	0.027069 
1454.327264  	0.028201 
1456.256080  	0.027214 
1458.184896  	0.023941 
1460.113712  	0.025827 
1462.042528  	0.027557 
1463.971344  	0.026919 
1465.900160  	0.026881 
1467.828976  	0.029599 
1469.757792  	0.032529 
1471.686608  	0.034365 
1473.615424  	0.038106 
1475.544240  	0.043872 
1477.473056  	0.048427 
1479.401872  	0.051792 
1481.330688  	0.054531 
1483.259504  	0.056336 
1485.188320  	0.057796 
1487.117136  	0.057666 
1489.045952  	0.057236 
1490.974768  	0.054582 
1492.903584  	0.053193 
1494.832400  	0.050855 
1496.761216  	0.044899 
1498.690032  	0.040056 
1500.618848  	0.037768 
1502.547664  	0.035359 
1504.476480  	0.031615 
1506.405296  	0.025079 
1508.334112  	0.024605 
1510.262928  	0.025879 
1512.191744  	0.024282 
1514.120560  	0.023439 
1516.049376  	0.022565 
1517.978192  	0.021020 
1519.907008  	0.022015 
1521.835824  	0.020737 
1523.764640  	0.024888 
1525.693456  	0.029123 
1527.622272  	0.030968 
1529.551088  	0.031923 
1531.479904  	0.032148 
1533.408720  	0.028071 
1535.337536  	0.026047 
1537.266352  	0.024954 
1539.195168  	0.016471 
1541.123984  	0.009905 
1543.052800  	0.014617 
1544.981616  	0.016129 
1546.910432  	0.015966 
1548.839248  	0.016809 
1550.768064  	0.016716 
1552.696880  	0.016183 
1554.625696  	0.015726 
1556.554512  	0.015115 
1558.483328  	0.010275 
1560.412144  	0.013589 
1562.340960  	0.021643 
1564.269776  	0.024984 
1566.198592  	0.029124 
1568.127408  	0.032062 
1570.056224  	0.034691 
1571.985040  	0.041225 
1573.913856  	0.045232 
1575.842672  	0.044242 
1577.771488  	0.046988 
1579.700304  	0.050103 
1581.629120  	0.050210 
1583.557936  	0.049672 
1585.486752  	0.050139 
1587.415568  	0.051826 
1589.344384  	0.055055 
1591.273200  	0.059457 
1593.202016  	0.064832 
1595.130832  	0.070533 
1597.059648  	0.076816 
1598.988464  	0.082357 
1600.917280  	0.087134 
1602.846096  	0.090378 
1604.774912  	0.092646 
1606.703728  	0.093106 
1608.632544  	0.092430 
1610.561360  	0.091081 
1612.490176  	0.090230 
1614.418992  	0.088260 
1616.347808  	0.084055 
1618.276624  	0.084950 
1620.205440  	0.089954 
1622.134256  	0.091785 
1624.063072  	0.095215 
1625.991888  	0.101199 
1627.920704  	0.107418 
1629.849520  	0.115689 
1631.778336  	0.123921 
1633.707152  	0.128766 
1635.635968  	0.132917 
1637.564784  	0.142777 
1639.493600  	0.151681 
1641.422416  	0.157380 
1643.351232  	0.161611 
1645.280048  	0.162058 
1647.208864  	0.161195 
1649.137680  	0.164699 
1651.066496  	0.166284 
1652.995312  	0.158492 
1654.924128  	0.160442 
1656.852944  	0.163776 
1658.781760  	0.163229 
1660.710576  	0.160374 
1662.639392  	0.155486 
1664.568208  	0.153018 
1666.497024  	0.152230 
1668.425840  	0.146851 
1670.354656  	0.140003 
1672.283472  	0.138548 
1674.212288  	0.136439 
1676.141104  	0.132106 
1678.069920  	0.132625 
1679.998736  	0.132636 
1681.927552  	0.131168 
1683.856368  	0.124539 
1685.785184  	0.124192 
1687.714000  	0.128064 
1689.642816  	0.127840 
1691.571632  	0.126608 
1693.500448  	0.126154 
1695.429264  	0.121655 
1697.358080  	0.118811 
1699.286896  	0.116887 
1701.215712  	0.112139 
1703.144528  	0.113497 
1705.073344  	0.110046 
1707.002160  	0.105107 
1708.930976  	0.102695 
1710.859792  	0.098281 
1712.788608  	0.092911 
1714.717424  	0.085472 
1716.646240  	0.074970 
1718.575056  	0.062521 
1720.503872  	0.057434 
1722.432688  	0.052525 
1724.361504  	0.044504 
1726.290320  	0.037843 
1728.219136  	0.032526 
1730.147952  	0.027554 
1732.076768  	0.023046 
1734.005584  	0.015373 
1735.934400  	0.011206 
1737.863216  	0.011929 
1739.792032  	0.007900 
1741.720848  	0.007145 
1743.649664  	0.007341 
1745.578480  	0.006558 
1747.507296  	0.004865 
1749.436112  	0.003944 
1751.364928  	0.002805 
1753.293744  	0.002362 
1755.222560  	0.002429 
1757.151376  	0.001705 
1759.080192  	0.001361 
1761.009008  	0.000610 
1762.937824  	-0.000993 
1764.866640  	-0.000154 
1766.795456  	0.000482 
1768.724272  	-0.000139 
1770.653088  	-0.002477 
1772.581904  	-0.005638 
1774.510720  	-0.003854 
1776.439536  	-0.001808 
1778.368352  	-0.001354 
1780.297168  	-0.001800 
1782.225984  	-0.002314 
1784.154800  	-0.001762 
1786.083616  	-0.002409 
1788.012432  	-0.002119 
1789.941248  	-0.001648 
1791.870064  	-0.003499 
1793.798880  	-0.004845 
1795.727696  	-0.002982 
1797.656512  	-0.003299 
1799.585328  	-0.003534 
1801.514144  	-0.002974 
1803.442960  	-0.002946 
1805.371776  	-0.003543 
1807.300592  	-0.003186 
1809.229408  	-0.003751 
1811.158224  	-0.004309 
1813.087040  	-0.004359 
1815.015856  	-0.003806 
1816.944672  	-0.003694 
1818.873488  	-0.003727 
1820.802304  	-0.003786 
1822.731120  	-0.003110 
1824.659936  	-0.003930 
1826.588752  	-0.004565 
1828.517568  	-0.005182 
1830.446384  	-0.006036 
1832.375200  	-0.004944 
1834.304016  	-0.003989 
1836.232832  	-0.004214 
1838.161648  	-0.004175 
1840.090464  	-0.004261 
1842.019280  	-0.003533 
1843.948096  	-0.005003 
1845.876912  	-0.005088 
1847.805728  	-0.004175 
1849.734544  	-0.004220 
1851.663360  	-0.004694 
1853.592176  	-0.004673 
1855.520992  	-0.004669 
1857.449808  	-0.004503 
1859.378624  	-0.004738 
1861.307440  	-0.004762 
1863.236256  	-0.004855 
1865.165072  	-0.004510 
1867.093888  	-0.004752 
1869.022704  	-0.005439 
1870.951520  	-0.005558 
1872.880336  	-0.004884 
1874.809152  	-0.005177 
1876.737968  	-0.005116 
1878.666784  	-0.005144 
1880.595600  	-0.004904 
1882.524416  	-0.005166 
1884.453232  	-0.005043 
1886.382048  	-0.005163 
1888.310864  	-0.004922 
1890.239680  	-0.005454 
1892.168496  	-0.005026 
1894.097312  	-0.004913 
1896.026128  	-0.004747 
1897.954944  	-0.005045 
1899.883760  	-0.005090 
1901.812576  	-0.005394 
1903.741392  	-0.005697 
1905.670208  	-0.005663 
1907.599024  	-0.004690 
1909.527840  	-0.004831 
1911.456656  	-0.004958 
1913.385472  	-0.005184 
1915.314288  	-0.004781 
1917.243104  	-0.005246 
1919.171920  	-0.005454 
1921.100736  	-0.004977 
1923.029552  	-0.004876 
1924.958368  	-0.005566 
1926.887184  	-0.005395 
1928.816000  	-0.005756 
1930.744816  	-0.005395 
1932.673632  	-0.005274 
1934.602448  	-0.005242 
1936.531264  	-0.005487 
1938.460080  	-0.005079 
1940.388896  	-0.005295 
1942.317712  	-0.005083 
1944.246528  	-0.005891 
1946.175344  	-0.005151 
1948.104160  	-0.004516 
1950.032976  	-0.004040 
1951.961792  	-0.004589 
1953.890608  	-0.004306 
1955.819424  	-0.004748 
1957.748240  	-0.004527 
1959.677056  	-0.005247 
1961.605872  	-0.005162 
1963.534688  	-0.005676 
1965.463504  	-0.004304 
1967.392320  	-0.004201 
1969.321136  	-0.004076 
1971.249952  	-0.004553 
1973.178768  	-0.004058 
1975.107584  	-0.005543 
1977.036400  	-0.004641 
1978.965216  	-0.003513 
1980.894032  	-0.004019 
1982.822848  	-0.005139 
1984.751664  	-0.004882 
1986.680480  	-0.005788 
1988.609296  	-0.004622 
1990.538112  	-0.004624 
1992.466928  	-0.004479 
1994.395744  	-0.005371 
1996.324560  	-0.005496 
1998.253376  	-0.005451 
2000.182192  	-0.005443 
2002.111008  	-0.005915 
2004.039824  	-0.005090 
2005.968640  	-0.005124 
2007.897456  	-0.003732 
2009.826272  	-0.003883 
2011.755088  	-0.004000 
2013.683904  	-0.005361 
2015.612720  	-0.004470 
2017.541536  	-0.004174 
2019.470352  	-0.003844 
2021.399168  	-0.005331 
2023.327984  	-0.005391 
2025.256800  	-0.004341 
2027.185616  	-0.003889 
2029.114432  	-0.004524 
2031.043248  	-0.003892 
2032.972064  	-0.003180 
2034.900880  	-0.002521 
2036.829696  	-0.003183 
2038.758512  	-0.003140 
2040.687328  	-0.004361 
2042.616144  	-0.004175 
2044.544960  	-0.003994 
2046.473776  	-0.003542 
2048.402592  	-0.004725 
2050.331408  	-0.004983 
2052.260224  	-0.005738 
2054.189040  	-0.005606 
2056.117856  	-0.005705 
2058.046672  	-0.005355 
2059.975488  	-0.005728 
2061.904304  	-0.005932 
2063.833120  	-0.005815 
2065.761936  	-0.005360 
2067.690752  	-0.005918 
2069.619568  	-0.005423 
2071.548384  	-0.005168 
2073.477200  	-0.005249 
2075.406016  	-0.005157 
2077.334832  	-0.004927 
2079.263648  	-0.004948 
2081.192464  	-0.004760 
2083.121280  	-0.004800 
2085.050096  	-0.004957 
2086.978912  	-0.005134 
2088.907728  	-0.005059 
2090.836544  	-0.005367 
2092.765360  	-0.005198 
2094.694176  	-0.005090 
2096.622992  	-0.004996 
2098.551808  	-0.004966 
2100.480624  	-0.004383 
2102.409440  	-0.004376 
2104.338256  	-0.004676 
2106.267072  	-0.004749 
2108.195888  	-0.004302 
2110.124704  	-0.004467 
2112.053520  	-0.004516 
2113.982336  	-0.004652 
2115.911152  	-0.004388 
2117.839968  	-0.004258 
2119.768784  	-0.004556 
2121.697600  	-0.005022 
2123.626416  	-0.004796 
2125.555232  	-0.005150 
2127.484048  	-0.005015 
2129.412864  	-0.005100 
2131.341680  	-0.005516 
2133.270496  	-0.005697 
2135.199312  	-0.004800 
2137.128128  	-0.004778 
2139.056944  	-0.004664 
2140.985760  	-0.005286 
2142.914576  	-0.005513 
2144.843392  	-0.005409 
2146.772208  	-0.004852 
2148.701024  	-0.004843 
2150.629840  	-0.004551 
2152.558656  	-0.005199 
2154.487472  	-0.004768 
2156.416288  	-0.004998 
2158.345104  	-0.004648 
2160.273920  	-0.002844 
2162.202736  	-0.001392 
2164.131552  	-0.002493 
2166.060368  	-0.003214 
2167.989184  	-0.003043 
2169.918000  	-0.001702 
2171.846816  	-0.002789 
2173.775632  	-0.002919 
2175.704448  	-0.002889 
2177.633264  	-0.002701 
2179.562080  	-0.004125 
2181.490896  	-0.004316 
2183.419712  	-0.004224 
2185.348528  	-0.004115 
2187.277344  	-0.004505 
2189.206160  	-0.004499 
2191.134976  	-0.004683 
2193.063792  	-0.004592 
2194.992608  	-0.004729 
2196.921424  	-0.004608 
2198.850240  	-0.004687 
2200.779056  	-0.004437 
2202.707872  	-0.004647 
2204.636688  	-0.004841 
2206.565504  	-0.004515 
2208.494320  	-0.004357 
2210.423136  	-0.005262 
2212.351952  	-0.004864 
2214.280768  	-0.005036 
2216.209584  	-0.005317 
2218.138400  	-0.005779 
2220.067216  	-0.005189 
2221.996032  	-0.005101 
2223.924848  	-0.004838 
2225.853664  	-0.004527 
2227.782480  	-0.004455 
2229.711296  	-0.005052 
2231.640112  	-0.005520 
2233.568928  	-0.005801 
2235.497744  	-0.005083 
2237.426560  	-0.005441 
2239.355376  	-0.005611 
2241.284192  	-0.005381 
2243.213008  	-0.005360 
2245.141824  	-0.005776 
2247.070640  	-0.005359 
2248.999456  	-0.005046 
2250.928272  	-0.005294 
2252.857088  	-0.006106 
2254.785904  	-0.006232 
2256.714720  	-0.006566 
2258.643536  	-0.006863 
2260.572352  	-0.006992 
2262.501168  	-0.006605 
2264.429984  	-0.006597 
2266.358800  	-0.006612 
2268.287616  	-0.006435 
2270.216432  	-0.006177 
2272.145248  	-0.006336 
2274.074064  	-0.006515 
2276.002880  	-0.006420 
2277.931696  	-0.006109 
2279.860512  	-0.006132 
2281.789328  	-0.005727 
2283.718144  	-0.005793 
2285.646960  	-0.005632 
2287.575776  	-0.005417 
2289.504592  	-0.005591 
2291.433408  	-0.006072 
2293.362224  	-0.005951 
2295.291040  	-0.005636 
2297.219856  	-0.005164 
2299.148672  	-0.005167 
2301.077488  	-0.005200 
2303.006304  	-0.005196 
2304.935120  	-0.005098 
2306.863936  	-0.005294 
2308.792752  	-0.005691 
2310.721568  	-0.006408 
2312.650384  	-0.007351 
2314.579200  	-0.008531 
2316.508016  	-0.009862 
2318.436832  	-0.011304 
2320.365648  	-0.012990 
2322.294464  	-0.014782 
2324.223280  	-0.016822 
2326.152096  	-0.019651 
2328.080912  	-0.021987 
2330.009728  	-0.024275 
2331.938544  	-0.026561 
2333.867360  	-0.028218 
2335.796176  	-0.029549 
2337.724992  	-0.030816 
2339.653808  	-0.031166 
2341.582624  	-0.031542 
2343.511440  	-0.030210 
2345.440256  	-0.026790 
2347.369072  	-0.020195 
2349.297888  	-0.016270 
2351.226704  	-0.019751 
2353.155520  	-0.027281 
2355.084336  	-0.033099 
2357.013152  	-0.037499 
2358.941968  	-0.040287 
2360.870784  	-0.041822 
2362.799600  	-0.040421 
2364.728416  	-0.038424 
2366.657232  	-0.034998 
2368.586048  	-0.030547 
2370.514864  	-0.025700 
2372.443680  	-0.020947 
2374.372496  	-0.016418 
2376.301312  	-0.012540 
2378.230128  	-0.009185 
2380.158944  	-0.007148 
2382.087760  	-0.006094 
2384.016576  	-0.005653 
2385.945392  	-0.005787 
2387.874208  	-0.006056 
2389.803024  	-0.006260 
2391.731840  	-0.006488 
2393.660656  	-0.006475 
2395.589472  	-0.006343 
2397.518288  	-0.006292 
2399.447104  	-0.006466 
2401.375920  	-0.006633 
2403.304736  	-0.006889 
2405.233552  	-0.006663 
2407.162368  	-0.006495 
2409.091184  	-0.006381 
2411.020000  	-0.006553 
2412.948816  	-0.006744 
2414.877632  	-0.006705 
2416.806448  	-0.006460 
2418.735264  	-0.006616 
2420.664080  	-0.006912 
2422.592896  	-0.006950 
2424.521712  	-0.006668 
2426.450528  	-0.006688 
2428.379344  	-0.006485 
2430.308160  	-0.006151 
2432.236976  	-0.006022 
2434.165792  	-0.006197 
2436.094608  	-0.006367 
2438.023424  	-0.006250 
2439.952240  	-0.006071 
2441.881056  	-0.006085 
2443.809872  	-0.006085 
2445.738688  	-0.005978 
2447.667504  	-0.005783 
2449.596320  	-0.005760 
2451.525136  	-0.005667 
2453.453952  	-0.005700 
2455.382768  	-0.005847 
2457.311584  	-0.006056 
2459.240400  	-0.006150 
2461.169216  	-0.006282 
2463.098032  	-0.006269 
2465.026848  	-0.006255 
2466.955664  	-0.006264 
2468.884480  	-0.006219 
2470.813296  	-0.006254 
2472.742112  	-0.006411 
2474.670928  	-0.006368 
2476.599744  	-0.006250 
2478.528560  	-0.006083 
2480.457376  	-0.006205 
2482.386192  	-0.006291 
2484.315008  	-0.006151 
2486.243824  	-0.006042 
2488.172640  	-0.006098 
2490.101456  	-0.005862 
2492.030272  	-0.005674 
2493.959088  	-0.005652 
2495.887904  	-0.005585 
2497.816720  	-0.005569 
2499.745536  	-0.005546 
2501.674352  	-0.005396 
2503.603168  	-0.005181 
2505.531984  	-0.005298 
2507.460800  	-0.005593 
2509.389616  	-0.005370 
2511.318432  	-0.005270 
2513.247248  	-0.005266 
2515.176064  	-0.005211 
2517.104880  	-0.005156 
2519.033696  	-0.005349 
2520.962512  	-0.005243 
2522.891328  	-0.005192 
2524.820144  	-0.005428 
2526.748960  	-0.005486 
2528.677776  	-0.005252 
2530.606592  	-0.005127 
2532.535408  	-0.005085 
2534.464224  	-0.004968 
2536.393040  	-0.004954 
2538.321856  	-0.005022 
2540.250672  	-0.004865 
2542.179488  	-0.004734 
2544.108304  	-0.004666 
2546.037120  	-0.004779 
2547.965936  	-0.004740 
2549.894752  	-0.004686 
2551.823568  	-0.004694 
2553.752384  	-0.004539 
2555.681200  	-0.004165 
2557.610016  	-0.004081 
2559.538832  	-0.003933 
2561.467648  	-0.003890 
2563.396464  	-0.003863 
2565.325280  	-0.003826 
2567.254096  	-0.003917 
2569.182912  	-0.003954 
2571.111728  	-0.003882 
2573.040544  	-0.003840 
2574.969360  	-0.003627 
2576.898176  	-0.003441 
2578.826992  	-0.003503 
2580.755808  	-0.003659 
2582.684624  	-0.003559 
2584.613440  	-0.003519 
2586.542256  	-0.003377 
2588.471072  	-0.003304 
2590.399888  	-0.003209 
2592.328704  	-0.003181 
2594.257520  	-0.003445 
2596.186336  	-0.003449 
2598.115152  	-0.003154 
2600.043968  	-0.003143 
2601.972784  	-0.003035 
2603.901600  	-0.002985 
2605.830416  	-0.002908 
2607.759232  	-0.002689 
2609.688048  	-0.002567 
2611.616864  	-0.002563 
2613.545680  	-0.002534 
2615.474496  	-0.002351 
2617.403312  	-0.002172 
2619.332128  	-0.002187 
2621.260944  	-0.002169 
2623.189760  	-0.002022 
2625.118576  	-0.001864 
2627.047392  	-0.001846 
2628.976208  	-0.001786 
2630.905024  	-0.001665 
2632.833840  	-0.001678 
2634.762656  	-0.001552 
2636.691472  	-0.001454 
2638.620288  	-0.001597 
2640.549104  	-0.001630 
2642.477920  	-0.001515 
2644.406736  	-0.001277 
2646.335552  	-0.001188 
2648.264368  	-0.000999 
2650.193184  	-0.000893 
2652.122000  	-0.000867 
2654.050816  	-0.000755 
2655.979632  	-0.000630 
2657.908448  	-0.000541 
2659.837264  	-0.000390 
2661.766080  	-0.000272 
2663.694896  	-0.000184 
2665.623712  	-0.000185 
2667.552528  	-0.000002 
2669.481344  	0.000213 
2671.410160  	0.000313 
2673.338976  	0.000356 
2675.267792  	0.000494 
2677.196608  	0.000723 
2679.125424  	0.000774 
2681.054240  	0.000849 
2682.983056  	0.000991 
2684.911872  	0.000946 
2686.840688  	0.000985 
2688.769504  	0.001109 
2690.698320  	0.001261 
2692.627136  	0.001350 
2694.555952  	0.001342 
2696.484768  	0.001262 
2698.413584  	0.001244 
2700.342400  	0.001310 
2702.271216  	0.001478 
2704.200032  	0.001613 
2706.128848  	0.001726 
2708.057664  	0.001772 
2709.986480  	0.001831 
2711.915296  	0.001934 
2713.844112  	0.002036 
2715.772928  	0.002074 
2717.701744  	0.002207 
2719.630560  	0.002464 
2721.559376  	0.002526 
2723.488192  	0.002560 
2725.417008  	0.002717 
2727.345824  	0.002879 
2729.274640  	0.002974 
2731.203456  	0.003123 
2733.132272  	0.003354 
2735.061088  	0.003492 
2736.989904  	0.003555 
2738.918720  	0.003537 
2740.847536  	0.003640 
2742.776352  	0.003680 
2744.705168  	0.003653 
2746.633984  	0.003665 
2748.562800  	0.003803 
2750.491616  	0.003901 
2752.420432  	0.003955 
2754.349248  	0.003899 
2756.278064  	0.003864 
2758.206880  	0.003740 
2760.135696  	0.003719 
2762.064512  	0.003735 
2763.993328  	0.003732 
2765.922144  	0.003706 
2767.850960  	0.003790 
2769.779776  	0.003894 
2771.708592  	0.003880 
2773.637408  	0.003782 
2775.566224  	0.003755 
2777.495040  	0.003778 
2779.423856  	0.003839 
2781.352672  	0.003882 
2783.281488  	0.003871 
2785.210304  	0.003870 
2787.139120  	0.003918 
2789.067936  	0.003980 
2790.996752  	0.003974 
2792.925568  	0.003849 
2794.854384  	0.003835 
2796.783200  	0.003833 
2798.712016  	0.003733 
2800.640832  	0.003621 
2802.569648  	0.003733 
2804.498464  	0.003836 
2806.427280  	0.003752 
2808.356096  	0.003715 
2810.284912  	0.003757 
2812.213728  	0.003762 
2814.142544  	0.003800 
2816.071360  	0.003701 
2818.000176  	0.003399 
2819.928992  	0.003353 
2821.857808  	0.003338 
2823.786624  	0.003165 
2825.715440  	0.003080 
2827.644256  	0.002947 
2829.573072  	0.002863 
2831.501888  	0.002627 
2833.430704  	0.002339 
2835.359520  	0.001952 
2837.288336  	0.001647 
2839.217152  	0.001453 
2841.145968  	0.001172 
2843.074784  	0.000688 
2845.003600  	0.000198 
2846.932416  	-0.000108 
2848.861232  	-0.000358 
2850.790048  	-0.000721 
2852.718864  	-0.001225 
2854.647680  	-0.001735 
2856.576496  	-0.002296 
2858.505312  	-0.002930 
2860.434128  	-0.003531 
2862.362944  	-0.004332 
2864.291760  	-0.005229 
2866.220576  	-0.005875 
2868.149392  	-0.006164 
2870.078208  	-0.006460 
2872.007024  	-0.006684 
2873.935840  	-0.006804 
2875.864656  	-0.006886 
2877.793472  	-0.007030 
2879.722288  	-0.007359 
2881.651104  	-0.007846 
2883.579920  	-0.008115 
2885.508736  	-0.008111 
2887.437552  	-0.007888 
2889.366368  	-0.007792 
2891.295184  	-0.008081 
2893.224000  	-0.008350 
2895.152816  	-0.008281 
2897.081632  	-0.008552 
2899.010448  	-0.010340 
2900.939264  	-0.011854 
2902.868080  	-0.010518 
2904.796896  	-0.009176 
2906.725712  	-0.008676 
2908.654528  	-0.008087 
2910.583344  	-0.007754 
2912.512160  	-0.007223 
2914.440976  	-0.006165 
2916.369792  	-0.005403 
2918.298608  	-0.004997 
2920.227424  	-0.004534 
2922.156240  	-0.003938 
2924.085056  	-0.003180 
2926.013872  	-0.002232 
2927.942688  	-0.001258 
2929.871504  	-0.000405 
2931.800320  	0.000303 
2933.729136  	0.000918 
2935.657952  	0.001285 
2937.586768  	0.001850 
2939.515584  	0.002473 
2941.444400  	0.002515 
2943.373216  	0.002456 
2945.302032  	0.002786 
2947.230848  	0.002963 
2949.159664  	0.002595 
2951.088480  	0.002079 
2953.017296  	0.001623 
2954.946112  	0.000940 
2956.874928  	0.000169 
2958.803744  	-0.000531 
2960.732560  	-0.001076 
2962.661376  	-0.001605 
2964.590192  	-0.002456 
2966.519008  	-0.003703 
2968.447824  	-0.004748 
2970.376640  	-0.005541 
2972.305456  	-0.006085 
2974.234272  	-0.005761 
2976.163088  	-0.005343 
2978.091904  	-0.005318 
2980.020720  	-0.005293 
2981.949536  	-0.005056 
2983.878352  	-0.005301 
2985.807168  	-0.006354 
2987.735984  	-0.007407 
2989.664800  	-0.007016 
2991.593616  	-0.003864 
2993.522432  	-0.001847 
2995.451248  	-0.001364 
2997.380064  	-0.000614 
2999.308880  	0.000605 
3001.237696  	0.001950 
3003.166512  	0.003386 
3005.095328  	0.004797 
3007.024144  	0.006266 
3008.952960  	0.007646 
3010.881776  	0.009003 
3012.810592  	0.010430 
3014.739408  	0.011753 
3016.668224  	0.012838 
3018.597040  	0.013973 
3020.525856  	0.015236 
3022.454672  	0.016363 
3024.383488  	0.017327 
3026.312304  	0.018281 
3028.241120  	0.019409 
3030.169936  	0.020370 
3032.098752  	0.020999 
3034.027568  	0.021640 
3035.956384  	0.022498 
3037.885200  	0.023386 
3039.814016  	0.024100 
3041.742832  	0.024726 
3043.671648  	0.025089 
3045.600464  	0.025568 
3047.529280  	0.026070 
3049.458096  	0.026664 
3051.386912  	0.027329 
3053.315728  	0.027783 
3055.244544  	0.028162 
3057.173360  	0.028634 
3059.102176  	0.029180 
3061.030992  	0.029806 
3062.959808  	0.030399 
3064.888624  	0.030884 
3066.817440  	0.031549 
3068.746256  	0.032460 
3070.675072  	0.033150 
3072.603888  	0.033623 
3074.532704  	0.034191 
3076.461520  	0.034762 
3078.390336  	0.035438 
3080.319152  	0.036175 
3082.247968  	0.036865 
3084.176784  	0.037405 
3086.105600  	0.038041 
3088.034416  	0.038770 
3089.963232  	0.039531 
3091.892048  	0.040081 
3093.820864  	0.040691 
3095.749680  	0.041294 
3097.678496  	0.042043 
3099.607312  	0.042890 
3101.536128  	0.043800 
3103.464944  	0.044649 
3105.393760  	0.045251 
3107.322576  	0.045734 
3109.251392  	0.046436 
3111.180208  	0.047122 
3113.109024  	0.047750 
3115.037840  	0.048210 
3116.966656  	0.048759 
3118.895472  	0.049360 
3120.824288  	0.050001 
3122.753104  	0.050723 
3124.681920  	0.051194 
3126.610736  	0.051631 
3128.539552  	0.052312 
3130.468368  	0.052889 
3132.397184  	0.053347 
3134.326000  	0.054019 
3136.254816  	0.054640 
3138.183632  	0.055132 
3140.112448  	0.055582 
3142.041264  	0.056096 
3143.970080  	0.056704 
3145.898896  	0.057359 
3147.827712  	0.058187 
3149.756528  	0.058824 
3151.685344  	0.059236 
3153.614160  	0.059874 
3155.542976  	0.060457 
3157.471792  	0.061126 
3159.400608  	0.061873 
3161.329424  	0.062287 
3163.258240  	0.062470 
3165.187056  	0.062912 
3167.115872  	0.063688 
3169.044688  	0.064324 
3170.973504  	0.064726 
3172.902320  	0.065039 
3174.831136  	0.065537 
3176.759952  	0.065974 
3178.688768  	0.066276 
3180.617584  	0.066672 
3182.546400  	0.066933 
3184.475216  	0.067179 
3186.404032  	0.067377 
3188.332848  	0.067636 
3190.261664  	0.068096 
3192.190480  	0.068380 
3194.119296  	0.068356 
3196.048112  	0.068564 
3197.976928  	0.068693 
3199.905744  	0.068749 
3201.834560  	0.068738 
3203.763376  	0.068775 
3205.692192  	0.068780 
3207.621008  	0.068538 
3209.549824  	0.068439 
3211.478640  	0.068518 
3213.407456  	0.068545 
3215.336272  	0.068395 
3217.265088  	0.068423 
3219.193904  	0.068366 
3221.122720  	0.068151 
3223.051536  	0.067996 
3224.980352  	0.067852 
3226.909168  	0.067793 
3228.837984  	0.067677 
3230.766800  	0.067607 
3232.695616  	0.067546 
3234.624432  	0.067646 
3236.553248  	0.067806 
3238.482064  	0.067849 
3240.410880  	0.067698 
3242.339696  	0.067758 
3244.268512  	0.067628 
3246.197328  	0.067676 
3248.126144  	0.067921 
3250.054960  	0.067985 
3251.983776  	0.068250 
3253.912592  	0.068534 
3255.841408  	0.068708 
3257.770224  	0.069046 
3259.699040  	0.069262 
3261.627856  	0.069453 
3263.556672  	0.069653 
3265.485488  	0.069804 
3267.414304  	0.069959 
3269.343120  	0.070309 
3271.271936  	0.070694 
3273.200752  	0.070759 
3275.129568  	0.070793 
3277.058384  	0.071107 
3278.987200  	0.071405 
3280.916016  	0.071721 
3282.844832  	0.071994 
3284.773648  	0.072094 
3286.702464  	0.072210 
3288.631280  	0.072448 
3290.560096  	0.072735 
3292.488912  	0.073124 
3294.417728  	0.073481 
3296.346544  	0.073891 
3298.275360  	0.074166 
3300.204176  	0.074391 
3302.132992  	0.074577 
3304.061808  	0.074937 
3305.990624  	0.075445 
3307.919440  	0.075657 
3309.848256  	0.075891 
3311.777072  	0.076398 
3313.705888  	0.076938 
3315.634704  	0.077443 
3317.563520  	0.077637 
3319.492336  	0.077813 
3321.421152  	0.078127 
3323.349968  	0.078413 
3325.278784  	0.078591 
3327.207600  	0.078791 
3329.136416  	0.078788 
3331.065232  	0.078901 
3332.994048  	0.079292 
3334.922864  	0.079604 
3336.851680  	0.079522 
3338.780496  	0.079379 
3340.709312  	0.079430 
3342.638128  	0.079516 
3344.566944  	0.079243 
3346.495760  	0.079051 
3348.424576  	0.078799 
3350.353392  	0.078505 
3352.282208  	0.078337 
3354.211024  	0.078131 
3356.139840  	0.077925 
3358.068656  	0.077691 
3359.997472  	0.077504 
3361.926288  	0.077215 
3363.855104  	0.076802 
3365.783920  	0.076303 
3367.712736  	0.075911 
3369.641552  	0.075587 
3371.570368  	0.075310 
3373.499184  	0.075058 
3375.428000  	0.074697 
3377.356816  	0.074367 
3379.285632  	0.074410 
3381.214448  	0.074222 
3383.143264  	0.073635 
3385.072080  	0.073201 
3387.000896  	0.072891 
3388.929712  	0.072694 
3390.858528  	0.072400 
3392.787344  	0.072063 
3394.716160  	0.071662 
3396.644976  	0.071395 
3398.573792  	0.071029 
3400.502608  	0.070796 
3402.431424  	0.070340 
3404.360240  	0.069805 
3406.289056  	0.069217 
3408.217872  	0.068738 
3410.146688  	0.068494 
3412.075504  	0.068083 
3414.004320  	0.067592 
3415.933136  	0.067237 
3417.861952  	0.066763 
3419.790768  	0.066413 
3421.719584  	0.065945 
3423.648400  	0.065522 
3425.577216  	0.065007 
3427.506032  	0.064364 
3429.434848  	0.063885 
3431.363664  	0.063448 
3433.292480  	0.062989 
3435.221296  	0.062420 
3437.150112  	0.062036 
3439.078928  	0.061845 
3441.007744  	0.061302 
3442.936560  	0.060894 
3444.865376  	0.060624 
3446.794192  	0.059792 
3448.723008  	0.058987 
3450.651824  	0.058438 
3452.580640  	0.058000 
3454.509456  	0.057545 
3456.438272  	0.056922 
3458.367088  	0.056315 
3460.295904  	0.055692 
3462.224720  	0.054835 
3464.153536  	0.054006 
3466.082352  	0.053437 
3468.011168  	0.052702 
3469.939984  	0.051988 
3471.868800  	0.051450 
3473.797616  	0.050597 
3475.726432  	0.049848 
3477.655248  	0.049243 
3479.584064  	0.048668 
3481.512880  	0.047876 
3483.441696  	0.046979 
3485.370512  	0.046478 
3487.299328  	0.045642 
3489.228144  	0.045002 
3491.156960  	0.044511 
3493.085776  	0.043897 
3495.014592  	0.042997 
3496.943408  	0.042246 
3498.872224  	0.041945 
3500.801040  	0.042031 
3502.729856  	0.041304 
3504.658672  	0.040048 
3506.587488  	0.039542 
3508.516304  	0.039196 
3510.445120  	0.038358 
3512.373936  	0.037443 
3514.302752  	0.036923 
3516.231568  	0.036572 
3518.160384  	0.036002 
3520.089200  	0.035355 
3522.018016  	0.035105 
3523.946832  	0.035095 
3525.875648  	0.034328 
3527.804464  	0.033041 
3529.733280  	0.032247 
3531.662096  	0.031776 
3533.590912  	0.031153 
3535.519728  	0.031045 
3537.448544  	0.030639 
3539.377360  	0.029551 
3541.306176  	0.029117 
3543.234992  	0.029233 
3545.163808  	0.029606 
3547.092624  	0.028702 
3549.021440  	0.027127 
3550.950256  	0.026478 
3552.879072  	0.025844 
3554.807888  	0.025213 
3556.736704  	0.024625 
3558.665520  	0.024524 
3560.594336  	0.024251 
3562.523152  	0.023229 
3564.451968  	0.023346 
3566.380784  	0.023605 
3568.309600  	0.022011 
3570.238416  	0.020915 
3572.167232  	0.020197 
3574.096048  	0.019210 
3576.024864  	0.018317 
3577.953680  	0.017988 
3579.882496  	0.017592 
3581.811312  	0.016984 
3583.740128  	0.016612 
3585.668944  	0.016683 
3587.597760  	0.015557 
3589.526576  	0.013842 
3591.455392  	0.013109 
3593.384208  	0.012743 
3595.313024  	0.011829 
3597.241840  	0.010659 
3599.170656  	0.009202 
3601.099472  	0.008154 
3603.028288  	0.008367 
3604.957104  	0.008419 
3606.885920  	0.007670 
3608.814736  	0.006656 
3610.743552  	0.006512 
3612.672368  	0.005431 
3614.601184  	0.004241 
3616.530000  	0.003822 
3618.458816  	0.001774 
3620.387632  	0.000241 
3622.316448  	0.000516 
3624.245264  	0.000272 
3626.174080  	-0.000019 
3628.102896  	-0.002913 
3630.031712  	-0.005760 
3631.960528  	-0.003637 
3633.889344  	-0.003997 
3635.818160  	-0.004741 
3637.746976  	-0.005451 
3639.675792  	-0.005635 
3641.604608  	-0.005647 
3643.533424  	-0.005999 
3645.462240  	-0.007137 
3647.391056  	-0.010754 
3649.319872  	-0.015361 
3651.248688  	-0.015805 
3653.177504  	-0.012395 
3655.106320  	-0.013213 
3657.035136  	-0.015662 
3658.963952  	-0.014886 
3660.892768  	-0.014774 
3662.821584  	-0.015043 
3664.750400  	-0.015042 
3666.679216  	-0.015183 
3668.608032  	-0.017667 
3670.536848  	-0.021113 
3672.465664  	-0.018880 
3674.394480  	-0.020916 
3676.323296  	-0.024778 
3678.252112  	-0.020035 
3680.180928  	-0.018206 
3682.109744  	-0.017355 
3684.038560  	-0.017430 
3685.967376  	-0.017930 
3687.896192  	-0.021226 
3689.825008  	-0.023998 
3691.753824  	-0.021954 
3693.682640  	-0.019057 
3695.611456  	-0.018060 
3697.540272  	-0.017310 
3699.469088  	-0.016682 
3701.397904  	-0.017783 
3703.326720  	-0.017505 
3705.255536  	-0.015872 
3707.184352  	-0.015696 
3709.113168  	-0.017565 
3711.041984  	-0.019994 
3712.970800  	-0.018211 
3714.899616  	-0.014791 
3716.828432  	-0.014280 
3718.757248  	-0.014901 
3720.686064  	-0.015587 
3722.614880  	-0.015991 
3724.543696  	-0.015359 
3726.472512  	-0.015624 
3728.401328  	-0.015377 
3730.330144  	-0.016351 
3732.258960  	-0.018706 
3734.187776  	-0.017771 
3736.116592  	-0.018073 
3738.045408  	-0.017262 
3739.974224  	-0.015430 
3741.903040  	-0.014483 
3743.831856  	-0.017451 
3745.760672  	-0.018963 
3747.689488  	-0.017158 
3749.618304  	-0.020135 
3751.547120  	-0.021614 
3753.475936  	-0.018430 
3755.404752  	-0.015604 
3757.333568  	-0.015295 
3759.262384  	-0.016128 
3761.191200  	-0.015635 
3763.120016  	-0.013640 
3765.048832  	-0.014588 
3766.977648  	-0.014760 
3768.906464  	-0.015772 
3770.835280  	-0.016331 
3772.764096  	-0.014326 
3774.692912  	-0.013600 
3776.621728  	-0.013692 
3778.550544  	-0.015405 
3780.479360  	-0.016209 
3782.408176  	-0.014460 
3784.336992  	-0.014652 
3786.265808  	-0.014417 
3788.194624  	-0.013869 
3790.123440  	-0.013699 
3792.052256  	-0.013783 
3793.981072  	-0.013871 
3795.909888  	-0.015557 
3797.838704  	-0.015642 
3799.767520  	-0.016249 
3801.696336  	-0.020376 
3803.625152  	-0.017385 
3805.553968  	-0.016207 
3807.482784  	-0.017706 
3809.411600  	-0.015009 
3811.340416  	-0.013621 
3813.269232  	-0.013544 
3815.198048  	-0.016825 
3817.126864  	-0.018009 
3819.055680  	-0.016583 
3820.984496  	-0.020341 
3822.913312  	-0.018055 
3824.842128  	-0.015100 
3826.770944  	-0.015682 
3828.699760  	-0.014863 
3830.628576  	-0.015312 
3832.557392  	-0.016408 
3834.486208  	-0.016382 
3836.415024  	-0.017816 
3838.343840  	-0.019259 
3840.272656  	-0.017817 
3842.201472  	-0.016170 
3844.130288  	-0.015774 
3846.059104  	-0.014481 
3847.987920  	-0.013679 
3849.916736  	-0.013988 
3851.845552  	-0.017172 
3853.774368  	-0.022629 
3855.703184  	-0.018301 
3857.632000  	-0.014993 
3859.560816  	-0.013876 
3861.489632  	-0.014212 
3863.418448  	-0.015260 
3865.347264  	-0.015511 
3867.276080  	-0.013856 
3869.204896  	-0.015574 
3871.133712  	-0.015619 
3873.062528  	-0.014516 
3874.991344  	-0.015239 
3876.920160  	-0.013568 
3878.848976  	-0.013319 
3880.777792  	-0.014225 
3882.706608  	-0.013144 
3884.635424  	-0.013705 
3886.564240  	-0.014733 
3888.493056  	-0.013503 
3890.421872  	-0.014424 
3892.350688  	-0.015125 
3894.279504  	-0.013633 
3896.208320  	-0.012821 
3898.137136  	-0.013055 
3900.065952  	-0.013467 
3901.994768  	-0.013279 
3903.923584  	-0.014250 
3905.852400  	-0.014356 
3907.781216  	-0.013807 
3909.710032  	-0.013584 
3911.638848  	-0.013374 
3913.567664  	-0.012991 
3915.496480  	-0.012719 
3917.425296  	-0.013085 
3919.354112  	-0.013326 
3921.282928  	-0.013028 
3923.211744  	-0.012542 
3925.140560  	-0.012591 
3927.069376  	-0.012815 
3928.998192  	-0.012864 
3930.927008  	-0.012294 
3932.855824  	-0.012118 
3934.784640  	-0.012730 
3936.713456  	-0.013082 
3938.642272  	-0.012800 
3940.571088  	-0.012376 
3942.499904  	-0.012346 
3944.428720  	-0.012542 
3946.357536  	-0.012250 
3948.286352  	-0.012026 
3950.215168  	-0.012698 
3952.143984  	-0.013469 
3954.072800  	-0.013550 
3956.001616  	-0.013188 
3957.930432  	-0.013092 
3959.859248  	-0.013106 
3961.788064  	-0.013009 
3963.716880  	-0.013239 
3965.645696  	-0.013537 
3967.574512  	-0.013362 
3969.503328  	-0.013042 
3971.432144  	-0.013156 
3973.360960  	-0.013172 
3975.289776  	-0.013008 
3977.218592  	-0.012966 
3979.147408  	-0.012967 
3981.076224  	-0.013026 
3983.005040  	-0.013191 
3984.933856  	-0.013134 
3986.862672  	-0.013275 
3988.791488  	-0.013149 
3990.720304  	-0.012832 
3992.649120  	-0.013012 
3994.577936  	-0.013323 
3996.506752  	-0.013267 
3998.435568  	-0.013187 
4000.364384  	-0.013134 