##TITLE=No Description
##DATA TYPE=INFRARED SPECTRUM
##XUNITS=1/CM
##YUNITS=Abs
399.264912  	0.591277 
401.193728  	0.588176 
403.122544  	0.598429 
405.051360  	0.597695 
406.980176  	0.605068 
408.908992  	0.602244 
410.837808  	0.597162 
412.766624  	0.592590 
414.695440  	0.604041 
416.624256  	0.600896 
418.553072  	0.592205 
420.481888  	0.570128 
422.410704  	0.572931 
424.339520  	0.573379 
426.268336  	0.572862 
428.197152  	0.561581 
430.125968  	0.560574 
432.054784  	0.552706 
433.983600  	0.556950 
435.912416  	0.557560 
437.841232  	0.550833 
439.770048  	0.547475 
441.698864  	0.549827 
443.627680  	0.543619 
445.556496  	0.543770 
447.485312  	0.540601 
449.414128  	0.541915 
451.342944  	0.541910 
453.271760  	0.541866 
455.200576  	0.538569 
457.129392  	0.542265 
459.058208  	0.539590 
460.987024  	0.536842 
462.915840  	0.530886 
464.844656  	0.533042 
466.773472  	0.533533 
468.702288  	0.533874 
470.631104  	0.532923 
472.559920  	0.535670 
474.488736  	0.528074 
476.417552  	0.528436 
478.346368  	0.524990 
480.275184  	0.526419 
482.204000  	0.520051 
484.132816  	0.517160 
486.061632  	0.518483 
487.990448  	0.521650 
489.919264  	0.523644 
491.848080  	0.524984 
493.776896  	0.519948 
495.705712  	0.513524 
497.634528  	0.510536 
499.563344  	0.513864 
501.492160  	0.512042 
503.420976  	0.510670 
505.349792  	0.508400 
507.278608  	0.511832 
509.207424  	0.509372 
511.136240  	0.508826 
513.065056  	0.509332 
514.993872  	0.515102 
516.922688  	0.515747 
518.851504  	0.515935 
520.780320  	0.513114 
522.709136  	0.513219 
524.637952  	0.511673 
526.566768  	0.510787 
528.495584  	0.505821 
530.424400  	0.502926 
532.353216  	0.501668 
534.282032  	0.497904 
536.210848  	0.491827 
538.139664  	0.487962 
540.068480  	0.482966 
541.997296  	0.479605 
543.926112  	0.475176 
545.854928  	0.473794 
547.783744  	0.470848 
549.712560  	0.469400 
551.641376  	0.464521 
553.570192  	0.461061 
555.499008  	0.458226 
557.427824  	0.456630 
559.356640  	0.452729 
561.285456  	0.450125 
563.214272  	0.447207 
565.143088  	0.445065 
567.071904  	0.442259 
569.000720  	0.438793 
570.929536  	0.434461 
572.858352  	0.432775 
574.787168  	0.431295 
576.715984  	0.429145 
578.644800  	0.424709 
580.573616  	0.420818 
582.502432  	0.416111 
584.431248  	0.412721 
586.360064  	0.408934 
588.288880  	0.406730 
590.217696  	0.404717 
592.146512  	0.403657 
594.075328  	0.401559 
596.004144  	0.399212 
597.932960  	0.396258 
599.861776  	0.394845 
601.790592  	0.393351 
603.719408  	0.392327 
605.648224  	0.390140 
607.577040  	0.388954 
609.505856  	0.386987 
611.434672  	0.385478 
613.363488  	0.383330 
615.292304  	0.382278 
617.221120  	0.379711 
619.149936  	0.378211 
621.078752  	0.377193 
623.007568  	0.376573 
624.936384  	0.374671 
626.865200  	0.373309 
628.794016  	0.372111 
630.722832  	0.371098 
632.651648  	0.370358 
634.580464  	0.369669 
636.509280  	0.369683 
638.438096  	0.369809 
640.366912  	0.368108 
642.295728  	0.365738 
644.224544  	0.363076 
646.153360  	0.360524 
648.082176  	0.356411 
650.010992  	0.352364 
651.939808  	0.348840 
653.868624  	0.346238 
655.797440  	0.342380 
657.726256  	0.338824 
659.655072  	0.335689 
661.583888  	0.332370 
663.512704  	0.328776 
665.441520  	0.325003 
667.370336  	0.321055 
669.299152  	0.317468 
671.227968  	0.312897 
673.156784  	0.308691 
675.085600  	0.305651 
677.014416  	0.303417 
678.943232  	0.300676 
680.872048  	0.298721 
682.800864  	0.296950 
684.729680  	0.294671 
686.658496  	0.292899 
688.587312  	0.292240 
690.516128  	0.290818 
692.444944  	0.289240 
694.373760  	0.287693 
696.302576  	0.285944 
698.231392  	0.283228 
700.160208  	0.280835 
702.089024  	0.278433 
704.017840  	0.276019 
705.946656  	0.272994 
707.875472  	0.271075 
709.804288  	0.268956 
711.733104  	0.266823 
713.661920  	0.264566 
715.590736  	0.263173 
717.519552  	0.262231 
719.448368  	0.262093 
721.377184  	0.262085 
723.306000  	0.261568 
725.234816  	0.261221 
727.163632  	0.260084 
729.092448  	0.257641 
731.021264  	0.254404 
732.950080  	0.250973 
734.878896  	0.247917 
736.807712  	0.244837 
738.736528  	0.242420 
740.665344  	0.240351 
742.594160  	0.238793 
744.522976  	0.237028 
746.451792  	0.235773 
748.380608  	0.233928 
750.309424  	0.232029 
752.238240  	0.230690 
754.167056  	0.229797 
756.095872  	0.228747 
758.024688  	0.227436 
759.953504  	0.226438 
761.882320  	0.226674 
763.811136  	0.227081 
765.739952  	0.225035 
767.668768  	0.221480 
769.597584  	0.218786 
771.526400  	0.216924 
773.455216  	0.217349 
775.384032  	0.219706 
777.312848  	0.223489 
779.241664  	0.226310 
781.170480  	0.225309 
783.099296  	0.220278 
785.028112  	0.214379 
786.956928  	0.209226 
788.885744  	0.205004 
790.814560  	0.201528 
792.743376  	0.199551 
794.672192  	0.198618 
796.601008  	0.197124 
798.529824  	0.193746 
800.458640  	0.189842 
802.387456  	0.186508 
804.316272  	0.184309 
806.245088  	0.182654 
808.173904  	0.181228 
810.102720  	0.180492 
812.031536  	0.179976 
813.960352  	0.179254 
815.889168  	0.178875 
817.817984  	0.179107 
819.746800  	0.179366 
821.675616  	0.179619 
823.604432  	0.179534 
825.533248  	0.179278 
827.462064  	0.179305 
829.390880  	0.178526 
831.319696  	0.177618 
833.248512  	0.176157 
835.177328  	0.174143 
837.106144  	0.171243 
839.034960  	0.168425 
840.963776  	0.164873 
842.892592  	0.161029 
844.821408  	0.157124 
846.750224  	0.153741 
848.679040  	0.150971 
850.607856  	0.148771 
852.536672  	0.147100 
854.465488  	0.145737 
856.394304  	0.144761 
858.323120  	0.143322 
860.251936  	0.141785 
862.180752  	0.140459 
864.109568  	0.138297 
866.038384  	0.135940 
867.967200  	0.133854 
869.896016  	0.132251 
871.824832  	0.131384 
873.753648  	0.131515 
875.682464  	0.131631 
877.611280  	0.132714 
879.540096  	0.134223 
881.468912  	0.135758 
883.397728  	0.137508 
885.326544  	0.139113 
887.255360  	0.140059 
889.184176  	0.140157 
891.112992  	0.139496 
893.041808  	0.137958 
894.970624  	0.135352 
896.899440  	0.131681 
898.828256  	0.127399 
900.757072  	0.123077 
902.685888  	0.119260 
904.614704  	0.116781 
906.543520  	0.115791 
908.472336  	0.116473 
910.401152  	0.118101 
912.329968  	0.120142 
914.258784  	0.122091 
916.187600  	0.123920 
918.116416  	0.125572 
920.045232  	0.126626 
921.974048  	0.127164 
923.902864  	0.127736 
925.831680  	0.128245 
927.760496  	0.128819 
929.689312  	0.129287 
931.618128  	0.130097 
933.546944  	0.130695 
935.475760  	0.130515 
937.404576  	0.129837 
939.333392  	0.128734 
941.262208  	0.127807 
943.191024  	0.127839 
945.119840  	0.129519 
947.048656  	0.133026 
948.977472  	0.138924 
950.906288  	0.146650 
952.835104  	0.156219 
954.763920  	0.167244 
956.692736  	0.178459 
958.621552  	0.188958 
960.550368  	0.197256 
962.479184  	0.202641 
964.408000  	0.203907 
966.336816  	0.201341 
968.265632  	0.194411 
970.194448  	0.184408 
972.123264  	0.172091 
974.052080  	0.158868 
975.980896  	0.145617 
977.909712  	0.133202 
979.838528  	0.122315 
981.767344  	0.112982 
983.696160  	0.105817 
985.624976  	0.100809 
987.553792  	0.098646 
989.482608  	0.099006 
991.411424  	0.101559 
993.340240  	0.105844 
995.269056  	0.110964 
997.197872  	0.116636 
999.126688  	0.122518 
1001.055504  	0.128806 
1002.984320  	0.134750 
1004.913136  	0.140693 
1006.841952  	0.146574 
1008.770768  	0.152212 
1010.699584  	0.156954 
1012.628400  	0.160636 
1014.557216  	0.163345 
1016.486032  	0.165036 
1018.414848  	0.165482 
1020.343664  	0.165328 
1022.272480  	0.164929 
1024.201296  	0.164532 
1026.130112  	0.163991 
1028.058928  	0.164179 
1029.987744  	0.165686 
1031.916560  	0.167998 
1033.845376  	0.170791 
1035.774192  	0.174782 
1037.703008  	0.180347 
1039.631824  	0.188382 
1041.560640  	0.199285 
1043.489456  	0.213111 
1045.418272  	0.228992 
1047.347088  	0.245551 
1049.275904  	0.259130 
1051.204720  	0.268041 
1053.133536  	0.271644 
1055.062352  	0.271579 
1056.991168  	0.268964 
1058.919984  	0.266874 
1060.848800  	0.265803 
1062.777616  	0.264982 
1064.706432  	0.263336 
1066.635248  	0.261490 
1068.564064  	0.258351 
1070.492880  	0.253300 
1072.421696  	0.247591 
1074.350512  	0.243900 
1076.279328  	0.243573 
1078.208144  	0.247760 
1080.136960  	0.254520 
1082.065776  	0.260956 
1083.994592  	0.263554 
1085.923408  	0.261971 
1087.852224  	0.256171 
1089.781040  	0.247915 
1091.709856  	0.237318 
1093.638672  	0.225061 
1095.567488  	0.211345 
1097.496304  	0.197366 
1099.425120  	0.183181 
1101.353936  	0.169898 
1103.282752  	0.157675 
1105.211568  	0.146060 
1107.140384  	0.135411 
1109.069200  	0.125986 
1110.998016  	0.117634 
1112.926832  	0.110016 
1114.855648  	0.102998 
1116.784464  	0.096115 
1118.713280  	0.089635 
1120.642096  	0.083624 
1122.570912  	0.077983 
1124.499728  	0.072541 
1126.428544  	0.067920 
1128.357360  	0.063973 
1130.286176  	0.060522 
1132.214992  	0.057776 
1134.143808  	0.055734 
1136.072624  	0.054044 
1138.001440  	0.052427 
1139.930256  	0.050968 
1141.859072  	0.049650 
1143.787888  	0.048007 
1145.716704  	0.046384 
1147.645520  	0.045110 
1149.574336  	0.044496 
1151.503152  	0.043787 
1153.431968  	0.043335 
1155.360784  	0.043378 
1157.289600  	0.044294 
1159.218416  	0.045345 
1161.147232  	0.046557 
1163.076048  	0.048091 
1165.004864  	0.049718 
1166.933680  	0.051234 
1168.862496  	0.052793 
1170.791312  	0.054506 
1172.720128  	0.056634 
1174.648944  	0.059007 
1176.577760  	0.061313 
1178.506576  	0.063871 
1180.435392  	0.066532 
1182.364208  	0.069176 
1184.293024  	0.072298 
1186.221840  	0.075881 
1188.150656  	0.080028 
1190.079472  	0.084727 
1192.008288  	0.090246 
1193.937104  	0.096747 
1195.865920  	0.103987 
1197.794736  	0.111628 
1199.723552  	0.120011 
1201.652368  	0.128638 
1203.581184  	0.137001 
1205.510000  	0.145070 
1207.438816  	0.152388 
1209.367632  	0.158984 
1211.296448  	0.164563 
1213.225264  	0.169136 
1215.154080  	0.172245 
1217.082896  	0.174186 
1219.011712  	0.175014 
1220.940528  	0.175157 
1222.869344  	0.174285 
1224.798160  	0.172984 
1226.726976  	0.170806 
1228.655792  	0.167911 
1230.584608  	0.164356 
1232.513424  	0.160332 
1234.442240  	0.155792 
1236.371056  	0.150902 
1238.299872  	0.145387 
1240.228688  	0.139011 
1242.157504  	0.132560 
1244.086320  	0.126249 
1246.015136  	0.119659 
1247.943952  	0.113267 
1249.872768  	0.106982 
1251.801584  	0.100982 
1253.730400  	0.095269 
1255.659216  	0.089692 
1257.588032  	0.084295 
1259.516848  	0.079554 
1261.445664  	0.074946 
1263.374480  	0.070585 
1265.303296  	0.066873 
1267.232112  	0.064085 
1269.160928  	0.062154 
1271.089744  	0.060679 
1273.018560  	0.059774 
1274.947376  	0.059826 
1276.876192  	0.060557 
1278.805008  	0.061136 
1280.733824  	0.061009 
1282.662640  	0.059601 
1284.591456  	0.057801 
1286.520272  	0.056314 
1288.449088  	0.055475 
1290.377904  	0.055201 
1292.306720  	0.055816 
1294.235536  	0.056584 
1296.164352  	0.056604 
1298.093168  	0.055084 
1300.021984  	0.052819 
1301.950800  	0.050316 
1303.879616  	0.047598 
1305.808432  	0.044592 
1307.737248  	0.041618 
1309.666064  	0.038565 
1311.594880  	0.036493 
1313.523696  	0.035215 
1315.452512  	0.034047 
1317.381328  	0.033716 
1319.310144  	0.033804 
1321.238960  	0.033676 
1323.167776  	0.033990 
1325.096592  	0.034490 
1327.025408  	0.034767 
1328.954224  	0.034760 
1330.883040  	0.034216 
1332.811856  	0.033014 
1334.740672  	0.032217 
1336.669488  	0.032573 
1338.598304  	0.034088 
1340.527120  	0.033608 
1342.455936  	0.030888 
1344.384752  	0.030067 
1346.313568  	0.030386 
1348.242384  	0.031064 
1350.171200  	0.031947 
1352.100016  	0.033129 
1354.028832  	0.034886 
1355.957648  	0.036683 
1357.886464  	0.038185 
1359.815280  	0.040300 
1361.744096  	0.043818 
1363.672912  	0.045867 
1365.601728  	0.045629 
1367.530544  	0.047191 
1369.459360  	0.048987 
1371.388176  	0.049625 
1373.316992  	0.050802 
1375.245808  	0.049967 
1377.174624  	0.047050 
1379.103440  	0.044627 
1381.032256  	0.041913 
1382.961072  	0.039767 
1384.889888  	0.038772 
1386.818704  	0.039353 
1388.747520  	0.037540 
1390.676336  	0.034604 
1392.605152  	0.033054 
1394.533968  	0.033807 
1396.462784  	0.034473 
1398.391600  	0.034157 
1400.320416  	0.033168 
1402.249232  	0.032163 
1404.178048  	0.033518 
1406.106864  	0.034312 
1408.035680  	0.034556 
1409.964496  	0.036029 
1411.893312  	0.037869 
1413.822128  	0.039467 
1415.750944  	0.042357 
1417.679760  	0.045758 
1419.608576  	0.047204 
1421.537392  	0.045510 
1423.466208  	0.045351 
1425.395024  	0.043553 
1427.323840  	0.040934 
1429.252656  	0.039751 
1431.181472  	0.038309 
1433.110288  	0.037096 
1435.039104  	0.037712 
1436.967920  	0.040131 
1438.896736  	0.039619 
1440.825552  	0.039339 
1442.754368  	0.039818 
1444.683184  	0.040014 
1446.612000  	0.040901 
1448.540816  	0.041567 
1450.469632  	0.041155 
1452.398448  	0.041581 
1454.327264  	0.042583 
1456.256080  	0.046002 
1458.184896  	0.047518 
1460.113712  	0.043091 
1462.042528  	0.040503 
1463.971344  	0.040675 
1465.900160  	0.041367 
1467.828976  	0.040675 
1469.757792  	0.041498 
1471.686608  	0.046324 
1473.615424  	0.053450 
1475.544240  	0.055930 
1477.473056  	0.058631 
1479.401872  	0.060720 
1481.330688  	0.064279 
1483.259504  	0.066310 
1485.188320  	0.068164 
1487.117136  	0.070980 
1489.045952  	0.074360 
1490.974768  	0.072287 
1492.903584  	0.067262 
1494.832400  	0.064151 
1496.761216  	0.061412 
1498.690032  	0.056146 
1500.618848  	0.050889 
1502.547664  	0.045919 
1504.476480  	0.042892 
1506.405296  	0.046061 
1508.334112  	0.046918 
1510.262928  	0.040874 
1512.191744  	0.036905 
1514.120560  	0.035629 
1516.049376  	0.037858 
1517.978192  	0.038899 
1519.907008  	0.039363 
1521.835824  	0.044646 
1523.764640  	0.045726 
1525.693456  	0.048129 
1527.622272  	0.049740 
1529.551088  	0.048175 
1531.479904  	0.046942 
1533.408720  	0.046867 
1535.337536  	0.043066 
1537.266352  	0.039928 
1539.195168  	0.040144 
1541.123984  	0.040455 
1543.052800  	0.038521 
1544.981616  	0.036276 
1546.910432  	0.031947 
1548.839248  	0.031430 
1550.768064  	0.032501 
1552.696880  	0.031195 
1554.625696  	0.032662 
1556.554512  	0.032980 
1558.483328  	0.038019 
1560.412144  	0.040516 
1562.340960  	0.038160 
1564.269776  	0.039581 
1566.198592  	0.042801 
1568.127408  	0.045479 
1570.056224  	0.051851 
1571.985040  	0.054277 
1573.913856  	0.056203 
1575.842672  	0.060525 
1577.771488  	0.063599 
1579.700304  	0.061730 
1581.629120  	0.060896 
1583.557936  	0.060279 
1585.486752  	0.060811 
1587.415568  	0.062367 
1589.344384  	0.065968 
1591.273200  	0.070311 
1593.202016  	0.076017 
1595.130832  	0.082361 
1597.059648  	0.088748 
1598.988464  	0.094182 
1600.917280  	0.100005 
1602.846096  	0.104465 
1604.774912  	0.107437 
1606.703728  	0.108880 
1608.632544  	0.109661 
1610.561360  	0.108333 
1612.490176  	0.106707 
1614.418992  	0.105079 
1616.347808  	0.106372 
1618.276624  	0.107479 
1620.205440  	0.108460 
1622.134256  	0.111219 
1624.063072  	0.117122 
1625.991888  	0.121097 
1627.920704  	0.127839 
1629.849520  	0.134553 
1631.778336  	0.140734 
1633.707152  	0.146824 
1635.635968  	0.158376 
1637.564784  	0.166567 
1639.493600  	0.169661 
1641.422416  	0.173065 
1643.351232  	0.176474 
1645.280048  	0.179532 
1647.208864  	0.185405 
1649.137680  	0.184127 
1651.066496  	0.182663 
1652.995312  	0.184710 
1654.924128  	0.185091 
1656.852944  	0.180811 
1658.781760  	0.178248 
1660.710576  	0.176288 
1662.639392  	0.174606 
1664.568208  	0.170195 
1666.497024  	0.166570 
1668.425840  	0.163784 
1670.354656  	0.159149 
1672.283472  	0.153330 
1674.212288  	0.149545 
1676.141104  	0.145488 
1678.069920  	0.142301 
1679.998736  	0.141476 
1681.927552  	0.140353 
1683.856368  	0.140820 
1685.785184  	0.139182 
1687.714000  	0.136854 
1689.642816  	0.135971 
1691.571632  	0.133700 
1693.500448  	0.132316 
1695.429264  	0.133329 
1697.358080  	0.134303 
1699.286896  	0.132530 
1701.215712  	0.132064 
1703.144528  	0.129213 
1705.073344  	0.127645 
1707.002160  	0.123840 
1708.930976  	0.119222 
1710.859792  	0.114250 
1712.788608  	0.109258 
1714.717424  	0.104098 
1716.646240  	0.096911 
1718.575056  	0.084364 
1720.503872  	0.072560 
1722.432688  	0.063777 
1724.361504  	0.054343 
1726.290320  	0.045796 
1728.219136  	0.039630 
1730.147952  	0.035255 
1732.076768  	0.030862 
1734.005584  	0.028123 
1735.934400  	0.022222 
1737.863216  	0.018924 
1739.792032  	0.016787 
1741.720848  	0.014863 
1743.649664  	0.014136 
1745.578480  	0.012670 
1747.507296  	0.011855 
1749.436112  	0.012090 
1751.364928  	0.010732 
1753.293744  	0.007628 
1755.222560  	0.005944 
1757.151376  	0.006802 
1759.080192  	0.005509 
1761.009008  	0.005325 
1762.937824  	0.004890 
1764.866640  	0.003374 
1766.795456  	0.003370 
1768.724272  	0.004178 
1770.653088  	0.003491 
1772.581904  	0.005016 
1774.510720  	0.004249 
1776.439536  	0.003055 
1778.368352  	0.001970 
1780.297168  	0.002398 
1782.225984  	0.001606 
1784.154800  	0.001252 
1786.083616  	0.000808 
1788.012432  	0.000095 
1789.941248  	0.000774 
1791.870064  	0.002639 
1793.798880  	0.002008 
1795.727696  	0.001154 
1797.656512  	0.000056 
1799.585328  	0.000147 
1801.514144  	0.001091 
1803.442960  	0.000112 
1805.371776  	-0.000914 
1807.300592  	-0.000950 
1809.229408  	-0.001038 
1811.158224  	-0.000729 
1813.087040  	-0.001489 
1815.015856  	-0.002269 
1816.944672  	-0.001860 
1818.873488  	-0.001782 
1820.802304  	-0.001942 
1822.731120  	-0.001497 
1824.659936  	-0.000903 
1826.588752  	-0.001013 
1828.517568  	-0.001340 
1830.446384  	-0.000493 
1832.375200  	-0.001874 
1834.304016  	-0.002423 
1836.232832  	-0.002315 
1838.161648  	-0.001937 
1840.090464  	-0.002398 
1842.019280  	-0.002279 
1843.948096  	-0.000800 
1845.876912  	-0.000333 
1847.805728  	-0.001514 
1849.734544  	-0.002329 
1851.663360  	-0.002912 
1853.592176  	-0.002735 
1855.520992  	-0.003024 
1857.449808  	-0.002958 
1859.378624  	-0.003158 
1861.307440  	-0.003002 
1863.236256  	-0.003486 
1865.165072  	-0.003230 
1867.093888  	-0.002019 
1869.022704  	-0.000293 
1870.951520  	-0.001687 
1872.880336  	-0.003040 
1874.809152  	-0.003633 
1876.737968  	-0.003641 
1878.666784  	-0.003638 
1880.595600  	-0.003817 
1882.524416  	-0.004088 
1884.453232  	-0.003750 
1886.382048  	-0.004027 
1888.310864  	-0.003274 
1890.239680  	-0.002744 
1892.168496  	-0.003149 
1894.097312  	-0.003157 
1896.026128  	-0.003210 
1897.954944  	-0.003643 
1899.883760  	-0.003430 
1901.812576  	-0.003760 
1903.741392  	-0.004048 
1905.670208  	-0.004497 
1907.599024  	-0.004235 
1909.527840  	-0.003549 
1911.456656  	-0.003076 
1913.385472  	-0.003443 
1915.314288  	-0.003582 
1917.243104  	-0.003236 
1919.171920  	-0.002659 
1921.100736  	-0.002990 
1923.029552  	-0.002488 
1924.958368  	-0.004216 
1926.887184  	-0.004995 
1928.816000  	-0.005242 
1930.744816  	-0.005052 
1932.673632  	-0.004751 
1934.602448  	-0.004276 
1936.531264  	-0.004583 
1938.460080  	-0.004432 
1940.388896  	-0.004373 
1942.317712  	-0.002868 
1944.246528  	-0.003456 
1946.175344  	-0.003997 
1948.104160  	-0.004310 
1950.032976  	-0.004532 
1951.961792  	-0.005391 
1953.890608  	-0.005091 
1955.819424  	-0.005621 
1957.748240  	-0.005873 
1959.677056  	-0.005989 
1961.605872  	-0.005386 
1963.534688  	-0.005962 
1965.463504  	-0.005209 
1967.392320  	-0.005072 
1969.321136  	-0.005858 
1971.249952  	-0.007165 
1973.178768  	-0.007028 
1975.107584  	-0.005680 
1977.036400  	-0.003955 
1978.965216  	-0.003565 
1980.894032  	-0.004024 
1982.822848  	-0.004990 
1984.751664  	-0.004396 
1986.680480  	-0.003876 
1988.609296  	-0.002939 
1990.538112  	-0.002809 
1992.466928  	-0.002299 
1994.395744  	-0.003999 
1996.324560  	-0.005118 
1998.253376  	-0.005037 
2000.182192  	-0.004908 
2002.111008  	-0.005416 
2004.039824  	-0.005090 
2005.968640  	-0.005666 
2007.897456  	-0.005140 
2009.826272  	-0.004393 
2011.755088  	-0.003630 
2013.683904  	-0.003927 
2015.612720  	-0.003469 
2017.541536  	-0.003353 
2019.470352  	-0.003638 
2021.399168  	-0.004734 
2023.327984  	-0.004058 
2025.256800  	-0.004082 
2027.185616  	-0.003525 
2029.114432  	-0.003772 
2031.043248  	-0.003787 
2032.972064  	-0.004793 
2034.900880  	-0.003913 
2036.829696  	-0.002837 
2038.758512  	-0.001950 
2040.687328  	-0.002639 
2042.616144  	-0.002207 
2044.544960  	-0.003172 
2046.473776  	-0.002906 
2048.402592  	-0.001821 
2050.331408  	-0.001363 
2052.260224  	-0.001656 
2054.189040  	-0.002201 
2056.117856  	-0.002785 
2058.046672  	-0.002370 
2059.975488  	-0.002253 
2061.904304  	-0.001931 
2063.833120  	-0.001907 
2065.761936  	-0.001135 
2067.690752  	-0.001369 
2069.619568  	-0.001730 
2071.548384  	-0.002094 
2073.477200  	-0.001782 
2075.406016  	-0.001614 
2077.334832  	-0.000968 
2079.263648  	-0.000714 
2081.192464  	-0.000698 
2083.121280  	-0.001079 
2085.050096  	-0.001310 
2086.978912  	-0.001290 
2088.907728  	-0.000832 
2090.836544  	-0.000934 
2092.765360  	-0.001458 
2094.694176  	-0.001579 
2096.622992  	-0.000827 
2098.551808  	-0.000775 
2100.480624  	-0.000744 
2102.409440  	-0.000822 
2104.338256  	-0.000502 
2106.267072  	-0.000862 
2108.195888  	-0.001017 
2110.124704  	-0.000848 
2112.053520  	-0.000431 
2113.982336  	-0.000208 
2115.911152  	-0.000193 
2117.839968  	-0.000793 
2119.768784  	-0.000941 
2121.697600  	-0.001089 
2123.626416  	-0.001491 
2125.555232  	-0.001816 
2127.484048  	-0.001694 
2129.412864  	-0.001604 
2131.341680  	-0.001472 
2133.270496  	-0.001766 
2135.199312  	-0.001418 
2137.128128  	-0.000919 
2139.056944  	-0.000323 
2140.985760  	-0.000256 
2142.914576  	0.000025 
2144.843392  	-0.000383 
2146.772208  	-0.000535 
2148.701024  	-0.001081 
2150.629840  	-0.001867 
2152.558656  	-0.001676 
2154.487472  	-0.000892 
2156.416288  	-0.001697 
2158.345104  	0.000784 
2160.273920  	0.003538 
2162.202736  	0.003360 
2164.131552  	0.001982 
2166.060368  	0.001842 
2167.989184  	0.001448 
2169.918000  	0.000547 
2171.846816  	0.000807 
2173.775632  	0.001551 
2175.704448  	0.000837 
2177.633264  	0.001108 
2179.562080  	0.000280 
2181.490896  	0.000875 
2183.419712  	0.001938 
2185.348528  	0.001155 
2187.277344  	-0.000613 
2189.206160  	-0.000055 
2191.134976  	0.000069 
2193.063792  	-0.000448 
2194.992608  	-0.000825 
2196.921424  	-0.000291 
2198.850240  	-0.000431 
2200.779056  	-0.001033 
2202.707872  	-0.001190 
2204.636688  	-0.000211 
2206.565504  	-0.000591 
2208.494320  	-0.001482 
2210.423136  	-0.001383 
2212.351952  	-0.000806 
2214.280768  	-0.001555 
2216.209584  	-0.001594 
2218.138400  	-0.001617 
2220.067216  	-0.001531 
2221.996032  	-0.001659 
2223.924848  	-0.001134 
2225.853664  	-0.000537 
2227.782480  	-0.000439 
2229.711296  	-0.001435 
2231.640112  	-0.001601 
2233.568928  	-0.001775 
2235.497744  	-0.001726 
2237.426560  	-0.001695 
2239.355376  	-0.001461 
2241.284192  	-0.002008 
2243.213008  	-0.002223 
2245.141824  	-0.002000 
2247.070640  	-0.001880 
2248.999456  	-0.001873 
2250.928272  	-0.001511 
2252.857088  	-0.001593 
2254.785904  	-0.001329 
2256.714720  	-0.001248 
2258.643536  	-0.001128 
2260.572352  	-0.000871 
2262.501168  	-0.000963 
2264.429984  	-0.000835 
2266.358800  	-0.000634 
2268.287616  	-0.001048 
2270.216432  	-0.001384 
2272.145248  	-0.001286 
2274.074064  	-0.000928 
2276.002880  	-0.001015 
2277.931696  	-0.000795 
2279.860512  	-0.000641 
2281.789328  	-0.000604 
2283.718144  	-0.000889 
2285.646960  	-0.000482 
2287.575776  	0.000055 
2289.504592  	0.000237 
2291.433408  	0.000028 
2293.362224  	0.000358 
2295.291040  	0.000320 
2297.219856  	0.000386 
2299.148672  	0.000667 
2301.077488  	0.001055 
2303.006304  	0.001396 
2304.935120  	0.001686 
2306.863936  	0.001612 
2308.792752  	0.001775 
2310.721568  	0.002147 
2312.650384  	0.001786 
2314.579200  	0.001079 
2316.508016  	0.001083 
2318.436832  	0.001303 
2320.365648  	0.001435 
2322.294464  	0.001266 
2324.223280  	0.000549 
2326.152096  	-0.001294 
2328.080912  	-0.002547 
2330.009728  	-0.003039 
2331.938544  	-0.003572 
2333.867360  	-0.004429 
2335.796176  	-0.005011 
2337.724992  	-0.005866 
2339.653808  	-0.005991 
2341.582624  	-0.005306 
2343.511440  	-0.003897 
2345.440256  	-0.002029 
2347.369072  	-0.000928 
2349.297888  	-0.001277 
2351.226704  	-0.003018 
2353.155520  	-0.005205 
2355.084336  	-0.006175 
2357.013152  	-0.006456 
2358.941968  	-0.006402 
2360.870784  	-0.006938 
2362.799600  	-0.007019 
2364.728416  	-0.006027 
2366.657232  	-0.004579 
2368.586048  	-0.003477 
2370.514864  	-0.002202 
2372.443680  	-0.000901 
2374.372496  	0.000247 
2376.301312  	0.000970 
2378.230128  	0.001362 
2380.158944  	0.001330 
2382.087760  	0.000881 
2384.016576  	-0.000087 
2385.945392  	-0.000821 
2387.874208  	-0.001046 
2389.803024  	-0.001224 
2391.731840  	-0.001460 
2393.660656  	-0.001594 
2395.589472  	-0.001631 
2397.518288  	-0.001654 
2399.447104  	-0.001712 
2401.375920  	-0.001736 
2403.304736  	-0.002009 
2405.233552  	-0.002031 
2407.162368  	-0.001966 
2409.091184  	-0.001993 
2411.020000  	-0.002031 
2412.948816  	-0.001862 
2414.877632  	-0.001719 
2416.806448  	-0.001593 
2418.735264  	-0.001750 
2420.664080  	-0.001785 
2422.592896  	-0.001651 
2424.521712  	-0.001524 
2426.450528  	-0.001508 
2428.379344  	-0.001338 
2430.308160  	-0.001221 
2432.236976  	-0.001266 
2434.165792  	-0.001075 
2436.094608  	-0.000791 
2438.023424  	-0.000858 
2439.952240  	-0.000885 
2441.881056  	-0.000782 
2443.809872  	-0.000804 
2445.738688  	-0.000967 
2447.667504  	-0.000910 
2449.596320  	-0.000429 
2451.525136  	-0.000152 
2453.453952  	-0.000238 
2455.382768  	-0.000443 
2457.311584  	-0.000685 
2459.240400  	-0.000667 
2461.169216  	-0.000482 
2463.098032  	-0.000273 
2465.026848  	-0.000347 
2466.955664  	-0.000503 
2468.884480  	-0.000568 
2470.813296  	-0.000440 
2472.742112  	-0.000423 
2474.670928  	-0.000366 
2476.599744  	-0.000055 
2478.528560  	0.000310 
2480.457376  	0.000458 
2482.386192  	0.000500 
2484.315008  	0.000320 
2486.243824  	0.000391 
2488.172640  	0.000686 
2490.101456  	0.000799 
2492.030272  	0.000777 
2493.959088  	0.000583 
2495.887904  	0.000397 
2497.816720  	0.000626 
2499.745536  	0.000731 
2501.674352  	0.000823 
2503.603168  	0.000892 
2505.531984  	0.000893 
2507.460800  	0.000834 
2509.389616  	0.000829 
2511.318432  	0.000825 
2513.247248  	0.000968 
2515.176064  	0.001177 
2517.104880  	0.001098 
2519.033696  	0.000919 
2520.962512  	0.001237 
2522.891328  	0.001333 
2524.820144  	0.001402 
2526.748960  	0.001461 
2528.677776  	0.001791 
2530.606592  	0.002063 
2532.535408  	0.002193 
2534.464224  	0.002060 
2536.393040  	0.001899 
2538.321856  	0.002033 
2540.250672  	0.002274 
2542.179488  	0.002218 
2544.108304  	0.002299 
2546.037120  	0.002334 
2547.965936  	0.002516 
2549.894752  	0.002718 
2551.823568  	0.002919 
2553.752384  	0.002943 
2555.681200  	0.002758 
2557.610016  	0.002722 
2559.538832  	0.002893 
2561.467648  	0.003022 
2563.396464  	0.003278 
2565.325280  	0.003458 
2567.254096  	0.003267 
2569.182912  	0.003214 
2571.111728  	0.003407 
2573.040544  	0.003560 
2574.969360  	0.003795 
2576.898176  	0.003933 
2578.826992  	0.003938 
2580.755808  	0.003947 
2582.684624  	0.004092 
2584.613440  	0.004213 
2586.542256  	0.004453 
2588.471072  	0.004395 
2590.399888  	0.004421 
2592.328704  	0.004672 
2594.257520  	0.004836 
2596.186336  	0.004841 
2598.115152  	0.004852 
2600.043968  	0.005014 
2601.972784  	0.005289 
2603.901600  	0.005411 
2605.830416  	0.005268 
2607.759232  	0.005231 
2609.688048  	0.005262 
2611.616864  	0.005461 
2613.545680  	0.005678 
2615.474496  	0.005814 
2617.403312  	0.005950 
2619.332128  	0.006044 
2621.260944  	0.006179 
2623.189760  	0.006351 
2625.118576  	0.006585 
2627.047392  	0.006551 
2628.976208  	0.006636 
2630.905024  	0.006791 
2632.833840  	0.006914 
2634.762656  	0.006920 
2636.691472  	0.007079 
2638.620288  	0.007316 
2640.549104  	0.007651 
2642.477920  	0.007913 
2644.406736  	0.007853 
2646.335552  	0.007856 
2648.264368  	0.008014 
2650.193184  	0.008183 
2652.122000  	0.008373 
2654.050816  	0.008531 
2655.979632  	0.008589 
2657.908448  	0.008629 
2659.837264  	0.008719 
2661.766080  	0.008807 
2663.694896  	0.008940 
2665.623712  	0.009083 
2667.552528  	0.009283 
2669.481344  	0.009408 
2671.410160  	0.009463 
2673.338976  	0.009652 
2675.267792  	0.009927 
2677.196608  	0.010104 
2679.125424  	0.010217 
2681.054240  	0.010327 
2682.983056  	0.010472 
2684.911872  	0.010624 
2686.840688  	0.010711 
2688.769504  	0.010814 
2690.698320  	0.010950 
2692.627136  	0.010990 
2694.555952  	0.011027 
2696.484768  	0.011192 
2698.413584  	0.011350 
2700.342400  	0.011439 
2702.271216  	0.011682 
2704.200032  	0.011864 
2706.128848  	0.011901 
2708.057664  	0.012008 
2709.986480  	0.012133 
2711.915296  	0.012273 
2713.844112  	0.012425 
2715.772928  	0.012576 
2717.701744  	0.012695 
2719.630560  	0.012901 
2721.559376  	0.013059 
2723.488192  	0.013196 
2725.417008  	0.013338 
2727.345824  	0.013461 
2729.274640  	0.013717 
2731.203456  	0.013922 
2733.132272  	0.014003 
2735.061088  	0.014116 
2736.989904  	0.014236 
2738.918720  	0.014401 
2740.847536  	0.014535 
2742.776352  	0.014684 
2744.705168  	0.014791 
2746.633984  	0.014836 
2748.562800  	0.015005 
2750.491616  	0.015095 
2752.420432  	0.015114 
2754.349248  	0.015160 
2756.278064  	0.015179 
2758.206880  	0.015254 
2760.135696  	0.015339 
2762.064512  	0.015311 
2763.993328  	0.015257 
2765.922144  	0.015301 
2767.850960  	0.015388 
2769.779776  	0.015448 
2771.708592  	0.015368 
2773.637408  	0.015294 
2775.566224  	0.015345 
2777.495040  	0.015348 
2779.423856  	0.015321 
2781.352672  	0.015374 
2783.281488  	0.015401 
2785.210304  	0.015361 
2787.139120  	0.015462 
2789.067936  	0.015501 
2790.996752  	0.015545 
2792.925568  	0.015515 
2794.854384  	0.015485 
2796.783200  	0.015570 
2798.712016  	0.015490 
2800.640832  	0.015471 
2802.569648  	0.015706 
2804.498464  	0.015780 
2806.427280  	0.015766 
2808.356096  	0.015911 
2810.284912  	0.015902 
2812.213728  	0.015722 
2814.142544  	0.015695 
2816.071360  	0.015656 
2818.000176  	0.015769 
2819.928992  	0.015954 
2821.857808  	0.015985 
2823.786624  	0.015939 
2825.715440  	0.015990 
2827.644256  	0.015973 
2829.573072  	0.015892 
2831.501888  	0.015898 
2833.430704  	0.015838 
2835.359520  	0.015815 
2837.288336  	0.015675 
2839.217152  	0.015579 
2841.145968  	0.015536 
2843.074784  	0.015481 
2845.003600  	0.015514 
2846.932416  	0.015458 
2848.861232  	0.015604 
2850.790048  	0.015752 
2852.718864  	0.015775 
2854.647680  	0.015831 
2856.576496  	0.015974 
2858.505312  	0.016047 
2860.434128  	0.016079 
2862.362944  	0.016079 
2864.291760  	0.016077 
2866.220576  	0.016105 
2868.149392  	0.016193 
2870.078208  	0.016372 
2872.007024  	0.016656 
2873.935840  	0.016895 
2875.864656  	0.017162 
2877.793472  	0.017505 
2879.722288  	0.018047 
2881.651104  	0.018398 
2883.579920  	0.018678 
2885.508736  	0.019035 
2887.437552  	0.019227 
2889.366368  	0.019319 
2891.295184  	0.019410 
2893.224000  	0.019417 
2895.152816  	0.019516 
2897.081632  	0.019637 
2899.010448  	0.019358 
2900.939264  	0.019102 
2902.868080  	0.019356 
2904.796896  	0.019690 
2906.725712  	0.019924 
2908.654528  	0.020178 
2910.583344  	0.020527 
2912.512160  	0.020909 
2914.440976  	0.021335 
2916.369792  	0.021901 
2918.298608  	0.022356 
2920.227424  	0.022860 
2922.156240  	0.023398 
2924.085056  	0.023914 
2926.013872  	0.024432 
2927.942688  	0.025152 
2929.871504  	0.025913 
2931.800320  	0.026572 
2933.729136  	0.027312 
2935.657952  	0.027928 
2937.586768  	0.028573 
2939.515584  	0.029043 
2941.444400  	0.029361 
2943.373216  	0.029782 
2945.302032  	0.030207 
2947.230848  	0.030398 
2949.159664  	0.030469 
2951.088480  	0.030406 
2953.017296  	0.030490 
2954.946112  	0.030483 
2956.874928  	0.030220 
2958.803744  	0.029888 
2960.732560  	0.029692 
2962.661376  	0.029582 
2964.590192  	0.029420 
2966.519008  	0.029184 
2968.447824  	0.028839 
2970.376640  	0.028538 
2972.305456  	0.028297 
2974.234272  	0.028279 
2976.163088  	0.028181 
2978.091904  	0.028086 
2980.020720  	0.028127 
2981.949536  	0.028189 
2983.878352  	0.028058 
2985.807168  	0.027805 
2987.735984  	0.027705 
2989.664800  	0.027752 
2991.593616  	0.028389 
2993.522432  	0.028825 
2995.451248  	0.028906 
2997.380064  	0.029137 
2999.308880  	0.029713 
3001.237696  	0.030333 
3003.166512  	0.030850 
3005.095328  	0.031278 
3007.024144  	0.031691 
3008.952960  	0.032275 
3010.881776  	0.032915 
3012.810592  	0.033598 
3014.739408  	0.034145 
3016.668224  	0.034536 
3018.597040  	0.035045 
3020.525856  	0.035688 
3022.454672  	0.036145 
3024.383488  	0.036623 
3026.312304  	0.037285 
3028.241120  	0.037866 
3030.169936  	0.038381 
3032.098752  	0.039110 
3034.027568  	0.039562 
3035.956384  	0.040011 
3037.885200  	0.040509 
3039.814016  	0.041130 
3041.742832  	0.041644 
3043.671648  	0.042212 
3045.600464  	0.042753 
3047.529280  	0.043313 
3049.458096  	0.044006 
3051.386912  	0.044543 
3053.315728  	0.044996 
3055.244544  	0.045588 
3057.173360  	0.046424 
3059.102176  	0.047285 
3061.030992  	0.047952 
3062.959808  	0.048661 
3064.888624  	0.049713 
3066.817440  	0.050646 
3068.746256  	0.051363 
3070.675072  	0.052030 
3072.603888  	0.052823 
3074.532704  	0.053695 
3076.461520  	0.054616 
3078.390336  	0.055608 
3080.319152  	0.056560 
3082.247968  	0.057244 
3084.176784  	0.057976 
3086.105600  	0.058852 
3088.034416  	0.059669 
3089.963232  	0.060309 
3091.892048  	0.061004 
3093.820864  	0.061857 
3095.749680  	0.063146 
3097.678496  	0.064332 
3099.607312  	0.065303 
3101.536128  	0.066369 
3103.464944  	0.067116 
3105.393760  	0.067720 
3107.322576  	0.068553 
3109.251392  	0.069474 
3111.180208  	0.070305 
3113.109024  	0.070982 
3115.037840  	0.071958 
3116.966656  	0.073112 
3118.895472  	0.073914 
3120.824288  	0.074465 
3122.753104  	0.075162 
3124.681920  	0.075869 
3126.610736  	0.076494 
3128.539552  	0.077104 
3130.468368  	0.077662 
3132.397184  	0.078479 
3134.326000  	0.079243 
3136.254816  	0.079738 
3138.183632  	0.080457 
3140.112448  	0.081189 
3142.041264  	0.082048 
3143.970080  	0.082964 
3145.898896  	0.083789 
3147.827712  	0.084501 
3149.756528  	0.085206 
3151.685344  	0.086013 
3153.614160  	0.086731 
3155.542976  	0.087331 
3157.471792  	0.088109 
3159.400608  	0.088918 
3161.329424  	0.089661 
3163.258240  	0.090355 
3165.187056  	0.091051 
3167.115872  	0.091692 
3169.044688  	0.092449 
3170.973504  	0.093094 
3172.902320  	0.093529 
3174.831136  	0.093968 
3176.759952  	0.094574 
3178.688768  	0.095214 
3180.617584  	0.095475 
3182.546400  	0.095888 
3184.475216  	0.096346 
3186.404032  	0.096672 
3188.332848  	0.097000 
3190.261664  	0.097314 
3192.190480  	0.097425 
3194.119296  	0.097645 
3196.048112  	0.097853 
3197.976928  	0.098257 
3199.905744  	0.098354 
3201.834560  	0.098224 
3203.763376  	0.098062 
3205.692192  	0.097879 
3207.621008  	0.097855 
3209.549824  	0.098087 
3211.478640  	0.098095 
3213.407456  	0.098010 
3215.336272  	0.098076 
3217.265088  	0.098006 
3219.193904  	0.098170 
3221.122720  	0.098010 
3223.051536  	0.097617 
3224.980352  	0.097492 
3226.909168  	0.097407 
3228.837984  	0.097184 
3230.766800  	0.096871 
3232.695616  	0.097138 
3234.624432  	0.097333 
3236.553248  	0.097444 
3238.482064  	0.097545 
3240.410880  	0.097567 
3242.339696  	0.097605 
3244.268512  	0.097652 
3246.197328  	0.097751 
3248.126144  	0.097747 
3250.054960  	0.098107 
3251.983776  	0.098404 
3253.912592  	0.098855 
3255.841408  	0.099122 
3257.770224  	0.099215 
3259.699040  	0.099559 
3261.627856  	0.099810 
3263.556672  	0.099985 
3265.485488  	0.100410 
3267.414304  	0.100646 
3269.343120  	0.100925 
3271.271936  	0.101171 
3273.200752  	0.101344 
3275.129568  	0.101532 
3277.058384  	0.101579 
3278.987200  	0.101648 
3280.916016  	0.101956 
3282.844832  	0.102136 
3284.773648  	0.102278 
3286.702464  	0.102536 
3288.631280  	0.102909 
3290.560096  	0.103150 
3292.488912  	0.103346 
3294.417728  	0.103527 
3296.346544  	0.103879 
3298.275360  	0.104258 
3300.204176  	0.104448 
3302.132992  	0.104641 
3304.061808  	0.105069 
3305.990624  	0.105476 
3307.919440  	0.106036 
3309.848256  	0.106440 
3311.777072  	0.106717 
3313.705888  	0.106996 
3315.634704  	0.107192 
3317.563520  	0.107435 
3319.492336  	0.107860 
3321.421152  	0.108205 
3323.349968  	0.108571 
3325.278784  	0.108731 
3327.207600  	0.108887 
3329.136416  	0.108820 
3331.065232  	0.108730 
3332.994048  	0.108789 
3334.922864  	0.109094 
3336.851680  	0.109357 
3338.780496  	0.109350 
3340.709312  	0.108916 
3342.638128  	0.108755 
3344.566944  	0.108718 
3346.495760  	0.108526 
3348.424576  	0.108323 
3350.353392  	0.108204 
3352.282208  	0.107839 
3354.211024  	0.107596 
3356.139840  	0.107490 
3358.068656  	0.107096 
3359.997472  	0.106750 
3361.926288  	0.106432 
3363.855104  	0.105998 
3365.783920  	0.105736 
3367.712736  	0.105445 
3369.641552  	0.105123 
3371.570368  	0.104737 
3373.499184  	0.104538 
3375.428000  	0.104308 
3377.356816  	0.104003 
3379.285632  	0.103565 
3381.214448  	0.103014 
3383.143264  	0.102783 
3385.072080  	0.102709 
3387.000896  	0.102090 
3388.929712  	0.101527 
3390.858528  	0.101231 
3392.787344  	0.101352 
3394.716160  	0.100814 
3396.644976  	0.100471 
3398.573792  	0.099934 
3400.502608  	0.099110 
3402.431424  	0.098242 
3404.360240  	0.097605 
3406.289056  	0.097046 
3408.217872  	0.096671 
3410.146688  	0.096182 
3412.075504  	0.095570 
3414.004320  	0.095088 
3415.933136  	0.094613 
3417.861952  	0.094047 
3419.790768  	0.094004 
3421.719584  	0.093783 
3423.648400  	0.092750 
3425.577216  	0.091678 
3427.506032  	0.090957 
3429.434848  	0.090247 
3431.363664  	0.090005 
3433.292480  	0.089457 
3435.221296  	0.088790 
3437.150112  	0.087964 
3439.078928  	0.087174 
3441.007744  	0.086485 
3442.936560  	0.086118 
3444.865376  	0.085423 
3446.794192  	0.085254 
3448.723008  	0.084550 
3450.651824  	0.083214 
3452.580640  	0.082399 
3454.509456  	0.081490 
3456.438272  	0.080562 
3458.367088  	0.079823 
3460.295904  	0.079304 
3462.224720  	0.078838 
3464.153536  	0.077702 
3466.082352  	0.076677 
3468.011168  	0.075873 
3469.939984  	0.074983 
3471.868800  	0.073839 
3473.797616  	0.072875 
3475.726432  	0.072204 
3477.655248  	0.071113 
3479.584064  	0.070243 
3481.512880  	0.070073 
3483.441696  	0.069247 
3485.370512  	0.067813 
3487.299328  	0.067076 
3489.228144  	0.066193 
3491.156960  	0.064818 
3493.085776  	0.063905 
3495.014592  	0.063430 
3496.943408  	0.062696 
3498.872224  	0.061386 
3500.801040  	0.061016 
3502.729856  	0.061396 
3504.658672  	0.060466 
3506.587488  	0.058468 
3508.516304  	0.057804 
3510.445120  	0.057648 
3512.373936  	0.056290 
3514.302752  	0.055041 
3516.231568  	0.054209 
3518.160384  	0.053580 
3520.089200  	0.052745 
3522.018016  	0.052497 
3523.946832  	0.052812 
3525.875648  	0.051880 
3527.804464  	0.051023 
3529.733280  	0.049923 
3531.662096  	0.048290 
3533.590912  	0.046803 
3535.519728  	0.046528 
3537.448544  	0.046116 
3539.377360  	0.044603 
3541.306176  	0.043498 
3543.234992  	0.043712 
3545.163808  	0.044923 
3547.092624  	0.044604 
3549.021440  	0.042051 
3550.950256  	0.040749 
3552.879072  	0.041082 
3554.807888  	0.039382 
3556.736704  	0.037425 
3558.665520  	0.037072 
3560.594336  	0.037184 
3562.523152  	0.036214 
3564.451968  	0.036017 
3566.380784  	0.039275 
3568.309600  	0.039772 
3570.238416  	0.034995 
3572.167232  	0.032078 
3574.096048  	0.031183 
3576.024864  	0.030514 
3577.953680  	0.029670 
3579.882496  	0.029095 
3581.811312  	0.028054 
3583.740128  	0.026817 
3585.668944  	0.027215 
3587.597760  	0.030317 
3589.526576  	0.028064 
3591.455392  	0.024100 
3593.384208  	0.023640 
3595.313024  	0.024056 
3597.241840  	0.022630 
3599.170656  	0.021133 
3601.099472  	0.020589 
3603.028288  	0.018817 
3604.957104  	0.017130 
3606.885920  	0.017933 
3608.814736  	0.018923 
3610.743552  	0.016614 
3612.672368  	0.016399 
3614.601184  	0.016502 
3616.530000  	0.014170 
3618.458816  	0.014568 
3620.387632  	0.014739 
3622.316448  	0.011295 
3624.245264  	0.008719 
3626.174080  	0.007410 
3628.102896  	0.009683 
3630.031712  	0.013116 
3631.960528  	0.008355 
3633.889344  	0.006460 
3635.818160  	0.004982 
3637.746976  	0.003273 
3639.675792  	0.002123 
3641.604608  	0.001442 
3643.533424  	0.000585 
3645.462240  	-0.000513 
3647.391056  	0.001872 
3649.319872  	0.005161 
3651.248688  	0.004403 
3653.177504  	-0.001424 
3655.106320  	-0.003551 
3657.035136  	-0.002061 
3658.963952  	-0.003997 
3660.892768  	-0.005577 
3662.821584  	-0.006445 
3664.750400  	-0.007252 
3666.679216  	-0.008272 
3668.608032  	-0.007311 
3670.536848  	-0.003620 
3672.465664  	-0.006951 
3674.394480  	-0.008182 
3676.323296  	-0.002924 
3678.252112  	-0.005430 
3680.180928  	-0.007334 
3682.109744  	-0.009294 
3684.038560  	-0.010420 
3685.967376  	-0.011492 
3687.896192  	-0.009982 
3689.825008  	-0.006270 
3691.753824  	-0.006673 
3693.682640  	-0.009121 
3695.611456  	-0.010595 
3697.540272  	-0.010888 
3699.469088  	-0.011766 
3701.397904  	-0.010324 
3703.326720  	-0.009522 
3705.255536  	-0.010940 
3707.184352  	-0.011823 
3709.113168  	-0.011007 
3711.041984  	-0.007383 
3712.970800  	-0.006198 
3714.899616  	-0.008997 
3716.828432  	-0.010838 
3718.757248  	-0.010526 
3720.686064  	-0.010306 
3722.614880  	-0.009359 
3724.543696  	-0.008854 
3726.472512  	-0.007990 
3728.401328  	-0.009961 
3730.330144  	-0.012840 
3732.258960  	-0.011584 
3734.187776  	-0.007594 
3736.116592  	-0.003314 
3738.045408  	-0.006050 
3739.974224  	-0.008969 
3741.903040  	-0.011278 
3743.831856  	-0.010619 
3745.760672  	-0.006736 
3747.689488  	-0.010044 
3749.618304  	-0.008399 
3751.547120  	-0.004033 
3753.475936  	-0.005625 
3755.404752  	-0.009346 
3757.333568  	-0.009959 
3759.262384  	-0.008702 
3761.191200  	-0.008781 
3763.120016  	-0.011179 
3765.048832  	-0.010406 
3766.977648  	-0.009900 
3768.906464  	-0.009867 
3770.835280  	-0.008642 
3772.764096  	-0.010530 
3774.692912  	-0.011865 
3776.621728  	-0.012326 
3778.550544  	-0.011182 
3780.479360  	-0.009476 
3782.408176  	-0.010909 
3784.336992  	-0.010511 
3786.265808  	-0.010077 
3788.194624  	-0.011092 
3790.123440  	-0.011457 
3792.052256  	-0.011866 
3793.981072  	-0.012841 
3795.909888  	-0.011328 
3797.838704  	-0.009827 
3799.767520  	-0.011336 
3801.696336  	-0.007520 
3803.625152  	-0.008308 
3805.553968  	-0.011270 
3807.482784  	-0.009231 
3809.411600  	-0.010309 
3811.340416  	-0.012080 
3813.269232  	-0.013309 
3815.198048  	-0.011703 
3817.126864  	-0.008826 
3819.055680  	-0.011059 
3820.984496  	-0.007895 
3822.913312  	-0.007107 
3824.842128  	-0.010491 
3826.770944  	-0.010227 
3828.699760  	-0.010927 
3830.628576  	-0.011650 
3832.557392  	-0.011020 
3834.486208  	-0.011696 
3836.415024  	-0.011114 
3838.343840  	-0.008078 
3840.272656  	-0.006698 
3842.201472  	-0.008190 
3844.130288  	-0.008613 
3846.059104  	-0.010275 
3847.987920  	-0.012017 
3849.916736  	-0.012732 
3851.845552  	-0.011632 
3853.774368  	-0.003733 
3855.703184  	-0.004779 
3857.632000  	-0.008242 
3859.560816  	-0.010788 
3861.489632  	-0.011015 
3863.418448  	-0.009313 
3865.347264  	-0.007521 
3867.276080  	-0.010341 
3869.204896  	-0.009433 
3871.133712  	-0.006373 
3873.062528  	-0.008764 
3874.991344  	-0.008399 
3876.920160  	-0.011260 
3878.848976  	-0.011896 
3880.777792  	-0.008158 
3882.706608  	-0.008906 
3884.635424  	-0.009726 
3886.564240  	-0.008111 
3888.493056  	-0.011467 
3890.421872  	-0.011433 
3892.350688  	-0.008665 
3894.279504  	-0.009822 
3896.208320  	-0.011900 
3898.137136  	-0.011446 
3900.065952  	-0.008832 
3901.994768  	-0.007891 
3903.923584  	-0.006655 
3905.852400  	-0.006922 
3907.781216  	-0.009898 
3909.710032  	-0.011721 
3911.638848  	-0.012078 
3913.567664  	-0.012313 
3915.496480  	-0.011428 
3917.425296  	-0.009373 
3919.354112  	-0.009437 
3921.282928  	-0.010125 
3923.211744  	-0.010128 
3925.140560  	-0.009078 
3927.069376  	-0.010541 
3928.998192  	-0.011043 
3930.927008  	-0.009657 
3932.855824  	-0.008713 
3934.784640  	-0.010150 
3936.713456  	-0.011361 
3938.642272  	-0.011571 
3940.571088  	-0.011593 
3942.499904  	-0.009734 
3944.428720  	-0.009655 
3946.357536  	-0.010927 
3948.286352  	-0.009865 
3950.215168  	-0.009847 
3952.143984  	-0.011153 
3954.072800  	-0.011885 
3956.001616  	-0.011673 
3957.930432  	-0.011400 
3959.859248  	-0.011204 
3961.788064  	-0.010839 
3963.716880  	-0.011066 
3965.645696  	-0.011751 
3967.574512  	-0.012028 
3969.503328  	-0.011959 
3971.432144  	-0.011653 
3973.360960  	-0.011139 
3975.289776  	-0.010669 
3977.218592  	-0.011056 
3979.147408  	-0.011612 
3981.076224  	-0.011706 
3983.005040  	-0.011650 
3984.933856  	-0.011589 
3986.862672  	-0.011495 
3988.791488  	-0.011604 
3990.720304  	-0.011310 
3992.649120  	-0.011347 
3994.577936  	-0.011250 
3996.506752  	-0.011353 
3998.435568  	-0.011671 
4000.364384  	-0.011667 