##TITLE=No Description
##DATA TYPE=INFRARED SPECTRUM
##XUNITS=1/CM
##YUNITS=Abs
399.264912  	0.369551 
401.193728  	0.363018 
403.122544  	0.366186 
405.051360  	0.377175 
406.980176  	0.384709 
408.908992  	0.373468 
410.837808  	0.366501 
412.766624  	0.356855 
414.695440  	0.360189 
416.624256  	0.358390 
418.553072  	0.355705 
420.481888  	0.352948 
422.410704  	0.358723 
424.339520  	0.357550 
426.268336  	0.347174 
428.197152  	0.341091 
430.125968  	0.342246 
432.054784  	0.335567 
433.983600  	0.337372 
435.912416  	0.342354 
437.841232  	0.339377 
439.770048  	0.331526 
441.698864  	0.330034 
443.627680  	0.330244 
445.556496  	0.330710 
447.485312  	0.331675 
449.414128  	0.333520 
451.342944  	0.331292 
453.271760  	0.329083 
455.200576  	0.325709 
457.129392  	0.326310 
459.058208  	0.326343 
460.987024  	0.328082 
462.915840  	0.325116 
464.844656  	0.323651 
466.773472  	0.321812 
468.702288  	0.321378 
470.631104  	0.317776 
472.559920  	0.318811 
474.488736  	0.319231 
476.417552  	0.318453 
478.346368  	0.315087 
480.275184  	0.316829 
482.204000  	0.318297 
484.132816  	0.318532 
486.061632  	0.318380 
487.990448  	0.317362 
489.919264  	0.315549 
491.848080  	0.314604 
493.776896  	0.313642 
495.705712  	0.312468 
497.634528  	0.310695 
499.563344  	0.311259 
501.492160  	0.310854 
503.420976  	0.312391 
505.349792  	0.311681 
507.278608  	0.309811 
509.207424  	0.306307 
511.136240  	0.307761 
513.065056  	0.309910 
514.993872  	0.312507 
516.922688  	0.313453 
518.851504  	0.313427 
520.780320  	0.312394 
522.709136  	0.312034 
524.637952  	0.309227 
526.566768  	0.308131 
528.495584  	0.306331 
530.424400  	0.303938 
532.353216  	0.301560 
534.282032  	0.299083 
536.210848  	0.295476 
538.139664  	0.291980 
540.068480  	0.288706 
541.997296  	0.285443 
543.926112  	0.282981 
545.854928  	0.282372 
547.783744  	0.279278 
549.712560  	0.277028 
551.641376  	0.273604 
553.570192  	0.271463 
555.499008  	0.268997 
557.427824  	0.267885 
559.356640  	0.265476 
561.285456  	0.263212 
563.214272  	0.260264 
565.143088  	0.257338 
567.071904  	0.254373 
569.000720  	0.252555 
570.929536  	0.251194 
572.858352  	0.249718 
574.787168  	0.247935 
576.715984  	0.246106 
578.644800  	0.243169 
580.573616  	0.240372 
582.502432  	0.237028 
584.431248  	0.234706 
586.360064  	0.232065 
588.288880  	0.229879 
590.217696  	0.228093 
592.146512  	0.227684 
594.075328  	0.225859 
596.004144  	0.223685 
597.932960  	0.221497 
599.861776  	0.221065 
601.790592  	0.220610 
603.719408  	0.219539 
605.648224  	0.218451 
607.577040  	0.217803 
609.505856  	0.216650 
611.434672  	0.215490 
613.363488  	0.214020 
615.292304  	0.213053 
617.221120  	0.212253 
619.149936  	0.211909 
621.078752  	0.211377 
623.007568  	0.210727 
624.936384  	0.209549 
626.865200  	0.208640 
628.794016  	0.207849 
630.722832  	0.207671 
632.651648  	0.207689 
634.580464  	0.207581 
636.509280  	0.207561 
638.438096  	0.207265 
640.366912  	0.206519 
642.295728  	0.205665 
644.224544  	0.204537 
646.153360  	0.202704 
648.082176  	0.199977 
650.010992  	0.197620 
651.939808  	0.195240 
653.868624  	0.193188 
655.797440  	0.190416 
657.726256  	0.187651 
659.655072  	0.185332 
661.583888  	0.182483 
663.512704  	0.179498 
665.441520  	0.176156 
667.370336  	0.173664 
669.299152  	0.174156 
671.227968  	0.170404 
673.156784  	0.167385 
675.085600  	0.166017 
677.014416  	0.164265 
678.943232  	0.162880 
680.872048  	0.162082 
682.800864  	0.161082 
684.729680  	0.159865 
686.658496  	0.158879 
688.587312  	0.158429 
690.516128  	0.157759 
692.444944  	0.157243 
694.373760  	0.156107 
696.302576  	0.155021 
698.231392  	0.153827 
700.160208  	0.152362 
702.089024  	0.150471 
704.017840  	0.149106 
705.946656  	0.147671 
707.875472  	0.145776 
709.804288  	0.144106 
711.733104  	0.143184 
713.661920  	0.142262 
715.590736  	0.141250 
717.519552  	0.141143 
719.448368  	0.141663 
721.377184  	0.142567 
723.306000  	0.143166 
725.234816  	0.143521 
727.163632  	0.143058 
729.092448  	0.141763 
731.021264  	0.140043 
732.950080  	0.137801 
734.878896  	0.135273 
736.807712  	0.133221 
738.736528  	0.131856 
740.665344  	0.130614 
742.594160  	0.129619 
744.522976  	0.128645 
746.451792  	0.127888 
748.380608  	0.126754 
750.309424  	0.125861 
752.238240  	0.125291 
754.167056  	0.124888 
756.095872  	0.124397 
758.024688  	0.123635 
759.953504  	0.123061 
761.882320  	0.123545 
763.811136  	0.124257 
765.739952  	0.123713 
767.668768  	0.122508 
769.597584  	0.121527 
771.526400  	0.121203 
773.455216  	0.122257 
775.384032  	0.124980 
777.312848  	0.128982 
779.241664  	0.131985 
781.170480  	0.132129 
783.099296  	0.129798 
785.028112  	0.126632 
786.956928  	0.122947 
788.885744  	0.120114 
790.814560  	0.117798 
792.743376  	0.116395 
794.672192  	0.116071 
796.601008  	0.115950 
798.529824  	0.114039 
800.458640  	0.110830 
802.387456  	0.108048 
804.316272  	0.106846 
806.245088  	0.106625 
808.173904  	0.106287 
810.102720  	0.106078 
812.031536  	0.106253 
813.960352  	0.106412 
815.889168  	0.106626 
817.817984  	0.107147 
819.746800  	0.107729 
821.675616  	0.108158 
823.604432  	0.108400 
825.533248  	0.108054 
827.462064  	0.108007 
829.390880  	0.107878 
831.319696  	0.107520 
833.248512  	0.106621 
835.177328  	0.105325 
837.106144  	0.103668 
839.034960  	0.101940 
840.963776  	0.099521 
842.892592  	0.096973 
844.821408  	0.094724 
846.750224  	0.092714 
848.679040  	0.090968 
850.607856  	0.089509 
852.536672  	0.088361 
854.465488  	0.087493 
856.394304  	0.086749 
858.323120  	0.085622 
860.251936  	0.084373 
862.180752  	0.083371 
864.109568  	0.082059 
866.038384  	0.080520 
867.967200  	0.078897 
869.896016  	0.077664 
871.824832  	0.077074 
873.753648  	0.077219 
875.682464  	0.077469 
877.611280  	0.078351 
879.540096  	0.079314 
881.468912  	0.080416 
883.397728  	0.081627 
885.326544  	0.082580 
887.255360  	0.083147 
889.184176  	0.082894 
891.112992  	0.082232 
893.041808  	0.081157 
894.970624  	0.079516 
896.899440  	0.076877 
898.828256  	0.074128 
900.757072  	0.071805 
902.685888  	0.069780 
904.614704  	0.068533 
906.543520  	0.068457 
908.472336  	0.069569 
910.401152  	0.071372 
912.329968  	0.073644 
914.258784  	0.075765 
916.187600  	0.078122 
918.116416  	0.080128 
920.045232  	0.081344 
921.974048  	0.082059 
923.902864  	0.082575 
925.831680  	0.082915 
927.760496  	0.083215 
929.689312  	0.083714 
931.618128  	0.084569 
933.546944  	0.085360 
935.475760  	0.085838 
937.404576  	0.085882 
939.333392  	0.085773 
941.262208  	0.086253 
943.191024  	0.087657 
945.119840  	0.090307 
947.048656  	0.094339 
948.977472  	0.099941 
950.906288  	0.106423 
952.835104  	0.113651 
954.763920  	0.121397 
956.692736  	0.128623 
958.621552  	0.134707 
960.550368  	0.138695 
962.479184  	0.140517 
964.408000  	0.139538 
966.336816  	0.136225 
968.265632  	0.130645 
970.194448  	0.123625 
972.123264  	0.115324 
974.052080  	0.106553 
975.980896  	0.097919 
977.909712  	0.089657 
979.838528  	0.082543 
981.767344  	0.076863 
983.696160  	0.072830 
985.624976  	0.070537 
987.553792  	0.070321 
989.482608  	0.071815 
991.411424  	0.074998 
993.340240  	0.079811 
995.269056  	0.085158 
997.197872  	0.090682 
999.126688  	0.096132 
1001.055504  	0.101787 
1002.984320  	0.106939 
1004.913136  	0.111822 
1006.841952  	0.116014 
1008.770768  	0.119637 
1010.699584  	0.122345 
1012.628400  	0.124086 
1014.557216  	0.125146 
1016.486032  	0.125474 
1018.414848  	0.125418 
1020.343664  	0.124990 
1022.272480  	0.124557 
1024.201296  	0.124080 
1026.130112  	0.123346 
1028.058928  	0.123380 
1029.987744  	0.124400 
1031.916560  	0.125719 
1033.845376  	0.127483 
1035.774192  	0.130132 
1037.703008  	0.133214 
1039.631824  	0.137927 
1041.560640  	0.144251 
1043.489456  	0.151849 
1045.418272  	0.160298 
1047.347088  	0.168691 
1049.275904  	0.174856 
1051.204720  	0.178739 
1053.133536  	0.180388 
1055.062352  	0.179923 
1056.991168  	0.178027 
1058.919984  	0.176506 
1060.848800  	0.174942 
1062.777616  	0.172567 
1064.706432  	0.169082 
1066.635248  	0.165408 
1068.564064  	0.161949 
1070.492880  	0.157993 
1072.421696  	0.153801 
1074.350512  	0.151057 
1076.279328  	0.149826 
1078.208144  	0.150637 
1080.136960  	0.152118 
1082.065776  	0.153098 
1083.994592  	0.152399 
1085.923408  	0.150268 
1087.852224  	0.146675 
1089.781040  	0.142331 
1091.709856  	0.136778 
1093.638672  	0.130173 
1095.567488  	0.122749 
1097.496304  	0.115423 
1099.425120  	0.108197 
1101.353936  	0.100910 
1103.282752  	0.093857 
1105.211568  	0.087203 
1107.140384  	0.080971 
1109.069200  	0.074986 
1110.998016  	0.069465 
1112.926832  	0.064412 
1114.855648  	0.059916 
1116.784464  	0.055538 
1118.713280  	0.051409 
1120.642096  	0.047563 
1122.570912  	0.043835 
1124.499728  	0.040441 
1126.428544  	0.037537 
1128.357360  	0.034826 
1130.286176  	0.032454 
1132.214992  	0.030446 
1134.143808  	0.029006 
1136.072624  	0.027864 
1138.001440  	0.026550 
1139.930256  	0.025369 
1141.859072  	0.024329 
1143.787888  	0.023149 
1145.716704  	0.022148 
1147.645520  	0.021346 
1149.574336  	0.020843 
1151.503152  	0.020262 
1153.431968  	0.019985 
1155.360784  	0.020016 
1157.289600  	0.020842 
1159.218416  	0.021868 
1161.147232  	0.022885 
1163.076048  	0.024280 
1165.004864  	0.025739 
1166.933680  	0.027071 
1168.862496  	0.028609 
1170.791312  	0.030289 
1172.720128  	0.032134 
1174.648944  	0.034102 
1176.577760  	0.035842 
1178.506576  	0.037847 
1180.435392  	0.040054 
1182.364208  	0.042279 
1184.293024  	0.044773 
1186.221840  	0.047585 
1188.150656  	0.050684 
1190.079472  	0.054205 
1192.008288  	0.058429 
1193.937104  	0.063083 
1195.865920  	0.068229 
1197.794736  	0.073637 
1199.723552  	0.079462 
1201.652368  	0.085237 
1203.581184  	0.090516 
1205.510000  	0.095558 
1207.438816  	0.099854 
1209.367632  	0.103570 
1211.296448  	0.106425 
1213.225264  	0.108439 
1215.154080  	0.109509 
1217.082896  	0.110082 
1219.011712  	0.109847 
1220.940528  	0.109233 
1222.869344  	0.108124 
1224.798160  	0.106936 
1226.726976  	0.105272 
1228.655792  	0.103255 
1230.584608  	0.100948 
1232.513424  	0.098365 
1234.442240  	0.095556 
1236.371056  	0.092485 
1238.299872  	0.089003 
1240.228688  	0.085029 
1242.157504  	0.081123 
1244.086320  	0.077453 
1246.015136  	0.073479 
1247.943952  	0.069603 
1249.872768  	0.065609 
1251.801584  	0.061723 
1253.730400  	0.058089 
1255.659216  	0.054495 
1257.588032  	0.051075 
1259.516848  	0.048062 
1261.445664  	0.045156 
1263.374480  	0.042327 
1265.303296  	0.039920 
1267.232112  	0.038143 
1269.160928  	0.036989 
1271.089744  	0.036196 
1273.018560  	0.035600 
1274.947376  	0.035548 
1276.876192  	0.035816 
1278.805008  	0.035900 
1280.733824  	0.035590 
1282.662640  	0.034500 
1284.591456  	0.033217 
1286.520272  	0.032396 
1288.449088  	0.031913 
1290.377904  	0.031566 
1292.306720  	0.031678 
1294.235536  	0.031704 
1296.164352  	0.031492 
1298.093168  	0.030374 
1300.021984  	0.028744 
1301.950800  	0.027014 
1303.879616  	0.025200 
1305.808432  	0.023470 
1307.737248  	0.021833 
1309.666064  	0.020188 
1311.594880  	0.019252 
1313.523696  	0.018695 
1315.452512  	0.017955 
1317.381328  	0.017811 
1319.310144  	0.018017 
1321.238960  	0.017907 
1323.167776  	0.017986 
1325.096592  	0.018276 
1327.025408  	0.018481 
1328.954224  	0.018503 
1330.883040  	0.018188 
1332.811856  	0.017439 
1334.740672  	0.017030 
1336.669488  	0.017631 
1338.598304  	0.018933 
1340.527120  	0.018428 
1342.455936  	0.016066 
1344.384752  	0.015278 
1346.313568  	0.015548 
1348.242384  	0.016133 
1350.171200  	0.016856 
1352.100016  	0.017892 
1354.028832  	0.019389 
1355.957648  	0.020804 
1357.886464  	0.022002 
1359.815280  	0.023613 
1361.744096  	0.026241 
1363.672912  	0.027876 
1365.601728  	0.027273 
1367.530544  	0.027763 
1369.459360  	0.028633 
1371.388176  	0.028601 
1373.316992  	0.029044 
1375.245808  	0.028294 
1377.174624  	0.025924 
1379.103440  	0.024220 
1381.032256  	0.022262 
1382.961072  	0.020450 
1384.889888  	0.019673 
1386.818704  	0.020195 
1388.747520  	0.018896 
1390.676336  	0.016746 
1392.605152  	0.015715 
1394.533968  	0.016458 
1396.462784  	0.017345 
1398.391600  	0.017248 
1400.320416  	0.016640 
1402.249232  	0.015868 
1404.178048  	0.016958 
1406.106864  	0.017787 
1408.035680  	0.018099 
1409.964496  	0.019328 
1411.893312  	0.020767 
1413.822128  	0.021860 
1415.750944  	0.023922 
1417.679760  	0.026334 
1419.608576  	0.027376 
1421.537392  	0.025774 
1423.466208  	0.025220 
1425.395024  	0.023878 
1427.323840  	0.021821 
1429.252656  	0.021095 
1431.181472  	0.020366 
1433.110288  	0.019578 
1435.039104  	0.019759 
1436.967920  	0.021404 
1438.896736  	0.020752 
1440.825552  	0.020041 
1442.754368  	0.020035 
1444.683184  	0.019896 
1446.612000  	0.020450 
1448.540816  	0.021127 
1450.469632  	0.020812 
1452.398448  	0.021000 
1454.327264  	0.021566 
1456.256080  	0.023765 
1458.184896  	0.025859 
1460.113712  	0.022981 
1462.042528  	0.020952 
1463.971344  	0.021211 
1465.900160  	0.022846 
1467.828976  	0.023048 
1469.757792  	0.023876 
1471.686608  	0.027778 
1473.615424  	0.034367 
1475.544240  	0.036515 
1477.473056  	0.038299 
1479.401872  	0.038952 
1481.330688  	0.040928 
1483.259504  	0.041665 
1485.188320  	0.041786 
1487.117136  	0.042908 
1489.045952  	0.044819 
1490.974768  	0.043629 
1492.903584  	0.039137 
1494.832400  	0.035988 
1496.761216  	0.034761 
1498.690032  	0.031985 
1500.618848  	0.028558 
1502.547664  	0.025064 
1504.476480  	0.022354 
1506.405296  	0.024542 
1508.334112  	0.027129 
1510.262928  	0.022439 
1512.191744  	0.019145 
1514.120560  	0.018150 
1516.049376  	0.019718 
1517.978192  	0.020540 
1519.907008  	0.020476 
1521.835824  	0.024050 
1523.764640  	0.024711 
1525.693456  	0.026177 
1527.622272  	0.027376 
1529.551088  	0.026263 
1531.479904  	0.025266 
1533.408720  	0.025636 
1535.337536  	0.023595 
1537.266352  	0.020627 
1539.195168  	0.020015 
1541.123984  	0.020958 
1543.052800  	0.020010 
1544.981616  	0.018529 
1546.910432  	0.015421 
1548.839248  	0.014915 
1550.768064  	0.015922 
1552.696880  	0.014894 
1554.625696  	0.015943 
1556.554512  	0.016008 
1558.483328  	0.019116 
1560.412144  	0.022788 
1562.340960  	0.021338 
1564.269776  	0.022320 
1566.198592  	0.025110 
1568.127408  	0.027043 
1570.056224  	0.032551 
1571.985040  	0.034569 
1573.913856  	0.035050 
1575.842672  	0.038181 
1577.771488  	0.041482 
1579.700304  	0.039349 
1581.629120  	0.038256 
1583.557936  	0.037918 
1585.486752  	0.038709 
1587.415568  	0.040035 
1589.344384  	0.042751 
1591.273200  	0.046046 
1593.202016  	0.050135 
1595.130832  	0.054490 
1597.059648  	0.058479 
1598.988464  	0.061136 
1600.917280  	0.063953 
1602.846096  	0.066068 
1604.774912  	0.067002 
1606.703728  	0.066649 
1608.632544  	0.066746 
1610.561360  	0.065759 
1612.490176  	0.064359 
1614.418992  	0.062060 
1616.347808  	0.063976 
1618.276624  	0.067648 
1620.205440  	0.067008 
1622.134256  	0.068131 
1624.063072  	0.074216 
1625.991888  	0.076470 
1627.920704  	0.080846 
1629.849520  	0.085341 
1631.778336  	0.086994 
1633.707152  	0.087647 
1635.635968  	0.096255 
1637.564784  	0.103984 
1639.493600  	0.102231 
1641.422416  	0.102022 
1643.351232  	0.100987 
1645.280048  	0.099846 
1647.208864  	0.106680 
1649.137680  	0.105091 
1651.066496  	0.096729 
1652.995312  	0.099447 
1654.924128  	0.106526 
1656.852944  	0.098904 
1658.781760  	0.094321 
1660.710576  	0.091277 
1662.639392  	0.091101 
1664.568208  	0.089536 
1666.497024  	0.084773 
1668.425840  	0.082624 
1670.354656  	0.083378 
1672.283472  	0.080204 
1674.212288  	0.076721 
1676.141104  	0.077864 
1678.069920  	0.075290 
1679.998736  	0.074421 
1681.927552  	0.072206 
1683.856368  	0.073325 
1685.785184  	0.076544 
1687.714000  	0.072428 
1689.642816  	0.071372 
1691.571632  	0.069343 
1693.500448  	0.065757 
1695.429264  	0.065901 
1697.358080  	0.068039 
1699.286896  	0.064437 
1701.215712  	0.066730 
1703.144528  	0.062180 
1705.073344  	0.059327 
1707.002160  	0.057388 
1708.930976  	0.053335 
1710.859792  	0.049764 
1712.788608  	0.046292 
1714.717424  	0.043311 
1716.646240  	0.040145 
1718.575056  	0.035619 
1720.503872  	0.029160 
1722.432688  	0.024136 
1724.361504  	0.019722 
1726.290320  	0.015493 
1728.219136  	0.012673 
1730.147952  	0.011114 
1732.076768  	0.009112 
1734.005584  	0.007463 
1735.934400  	0.004599 
1737.863216  	0.002800 
1739.792032  	0.001384 
1741.720848  	0.000508 
1743.649664  	0.000616 
1745.578480  	-0.000029 
1747.507296  	-0.000269 
1749.436112  	-0.000094 
1751.364928  	-0.001243 
1753.293744  	-0.003236 
1755.222560  	-0.004115 
1757.151376  	-0.003482 
1759.080192  	-0.004058 
1761.009008  	-0.004191 
1762.937824  	-0.004646 
1764.866640  	-0.005401 
1766.795456  	-0.005003 
1768.724272  	-0.004427 
1770.653088  	-0.004984 
1772.581904  	-0.004560 
1774.510720  	-0.004781 
1776.439536  	-0.005371 
1778.368352  	-0.006077 
1780.297168  	-0.005944 
1782.225984  	-0.006462 
1784.154800  	-0.006615 
1786.083616  	-0.007071 
1788.012432  	-0.007360 
1789.941248  	-0.006429 
1791.870064  	-0.005624 
1793.798880  	-0.006326 
1795.727696  	-0.006334 
1797.656512  	-0.006906 
1799.585328  	-0.007023 
1801.514144  	-0.006575 
1803.442960  	-0.007287 
1805.371776  	-0.007977 
1807.300592  	-0.008044 
1809.229408  	-0.008050 
1811.158224  	-0.007837 
1813.087040  	-0.008299 
1815.015856  	-0.008724 
1816.944672  	-0.008279 
1818.873488  	-0.008098 
1820.802304  	-0.008179 
1822.731120  	-0.007960 
1824.659936  	-0.007982 
1826.588752  	-0.008044 
1828.517568  	-0.008007 
1830.446384  	-0.007751 
1832.375200  	-0.008549 
1834.304016  	-0.008801 
1836.232832  	-0.008551 
1838.161648  	-0.008331 
1840.090464  	-0.008687 
1842.019280  	-0.008582 
1843.948096  	-0.008105 
1845.876912  	-0.007889 
1847.805728  	-0.008530 
1849.734544  	-0.009213 
1851.663360  	-0.009379 
1853.592176  	-0.009051 
1855.520992  	-0.009163 
1857.449808  	-0.009245 
1859.378624  	-0.009464 
1861.307440  	-0.009472 
1863.236256  	-0.009798 
1865.165072  	-0.009570 
1867.093888  	-0.008849 
1869.022704  	-0.007803 
1870.951520  	-0.008544 
1872.880336  	-0.009397 
1874.809152  	-0.009859 
1876.737968  	-0.009942 
1878.666784  	-0.010048 
1880.595600  	-0.010255 
1882.524416  	-0.010022 
1884.453232  	-0.009685 
1886.382048  	-0.010134 
1888.310864  	-0.009657 
1890.239680  	-0.009297 
1892.168496  	-0.009556 
1894.097312  	-0.009480 
1896.026128  	-0.009568 
1897.954944  	-0.009944 
1899.883760  	-0.009838 
1901.812576  	-0.009855 
1903.741392  	-0.009617 
1905.670208  	-0.009841 
1907.599024  	-0.010258 
1909.527840  	-0.010198 
1911.456656  	-0.009675 
1913.385472  	-0.009292 
1915.314288  	-0.009113 
1917.243104  	-0.009409 
1919.171920  	-0.009109 
1921.100736  	-0.009026 
1923.029552  	-0.009145 
1924.958368  	-0.010421 
1926.887184  	-0.010942 
1928.816000  	-0.011101 
1930.744816  	-0.010724 
1932.673632  	-0.010406 
1934.602448  	-0.010116 
1936.531264  	-0.010391 
1938.460080  	-0.010111 
1940.388896  	-0.009587 
1942.317712  	-0.008754 
1944.246528  	-0.010060 
1946.175344  	-0.010275 
1948.104160  	-0.010266 
1950.032976  	-0.010388 
1951.961792  	-0.010529 
1953.890608  	-0.010689 
1955.819424  	-0.011513 
1957.748240  	-0.012213 
1959.677056  	-0.012452 
1961.605872  	-0.011594 
1963.534688  	-0.011249 
1965.463504  	-0.010300 
1967.392320  	-0.009898 
1969.321136  	-0.010046 
1971.249952  	-0.011174 
1973.178768  	-0.011511 
1975.107584  	-0.010822 
1977.036400  	-0.010209 
1978.965216  	-0.010719 
1980.894032  	-0.010828 
1982.822848  	-0.010707 
1984.751664  	-0.010052 
1986.680480  	-0.010025 
1988.609296  	-0.010168 
1990.538112  	-0.009438 
1992.466928  	-0.008232 
1994.395744  	-0.008893 
1996.324560  	-0.009345 
1998.253376  	-0.010061 
2000.182192  	-0.010348 
2002.111008  	-0.010760 
2004.039824  	-0.010770 
2005.968640  	-0.010904 
2007.897456  	-0.010340 
2009.826272  	-0.009373 
2011.755088  	-0.008934 
2013.683904  	-0.009304 
2015.612720  	-0.009000 
2017.541536  	-0.009097 
2019.470352  	-0.009130 
2021.399168  	-0.009773 
2023.327984  	-0.009817 
2025.256800  	-0.009538 
2027.185616  	-0.008388 
2029.114432  	-0.007951 
2031.043248  	-0.007787 
2032.972064  	-0.008328 
2034.900880  	-0.008377 
2036.829696  	-0.008504 
2038.758512  	-0.008884 
2040.687328  	-0.009588 
2042.616144  	-0.009279 
2044.544960  	-0.009008 
2046.473776  	-0.009080 
2048.402592  	-0.008444 
2050.331408  	-0.007938 
2052.260224  	-0.008170 
2054.189040  	-0.008010 
2056.117856  	-0.008727 
2058.046672  	-0.008712 
2059.975488  	-0.008712 
2061.904304  	-0.008288 
2063.833120  	-0.007792 
2065.761936  	-0.007384 
2067.690752  	-0.007590 
2069.619568  	-0.007851 
2071.548384  	-0.008545 
2073.477200  	-0.008351 
2075.406016  	-0.007676 
2077.334832  	-0.007524 
2079.263648  	-0.007384 
2081.192464  	-0.007089 
2083.121280  	-0.007626 
2085.050096  	-0.008260 
2086.978912  	-0.008463 
2088.907728  	-0.007685 
2090.836544  	-0.007374 
2092.765360  	-0.007486 
2094.694176  	-0.007431 
2096.622992  	-0.007049 
2098.551808  	-0.007077 
2100.480624  	-0.007059 
2102.409440  	-0.007322 
2104.338256  	-0.007479 
2106.267072  	-0.007816 
2108.195888  	-0.007688 
2110.124704  	-0.007510 
2112.053520  	-0.007051 
2113.982336  	-0.006906 
2115.911152  	-0.007266 
2117.839968  	-0.007779 
2119.768784  	-0.007769 
2121.697600  	-0.007637 
2123.626416  	-0.007999 
2125.555232  	-0.008459 
2127.484048  	-0.008569 
2129.412864  	-0.008322 
2131.341680  	-0.007891 
2133.270496  	-0.007751 
2135.199312  	-0.007461 
2137.128128  	-0.006790 
2139.056944  	-0.006569 
2140.985760  	-0.007333 
2142.914576  	-0.007405 
2144.843392  	-0.007331 
2146.772208  	-0.007217 
2148.701024  	-0.007566 
2150.629840  	-0.007566 
2152.558656  	-0.006970 
2154.487472  	-0.006751 
2156.416288  	-0.007230 
2158.345104  	-0.005585 
2160.273920  	-0.003370 
2162.202736  	-0.004305 
2164.131552  	-0.006117 
2166.060368  	-0.005245 
2167.989184  	-0.005211 
2169.918000  	-0.005663 
2171.846816  	-0.005243 
2173.775632  	-0.005334 
2175.704448  	-0.006364 
2177.633264  	-0.006401 
2179.562080  	-0.007275 
2181.490896  	-0.007102 
2183.419712  	-0.006758 
2185.348528  	-0.006841 
2187.277344  	-0.007135 
2189.206160  	-0.006961 
2191.134976  	-0.006631 
2193.063792  	-0.006778 
2194.992608  	-0.007068 
2196.921424  	-0.006623 
2198.850240  	-0.007450 
2200.779056  	-0.007842 
2202.707872  	-0.007304 
2204.636688  	-0.006794 
2206.565504  	-0.007357 
2208.494320  	-0.007744 
2210.423136  	-0.007958 
2212.351952  	-0.007223 
2214.280768  	-0.007227 
2216.209584  	-0.007745 
2218.138400  	-0.008447 
2220.067216  	-0.008533 
2221.996032  	-0.008493 
2223.924848  	-0.008315 
2225.853664  	-0.007566 
2227.782480  	-0.006848 
2229.711296  	-0.007677 
2231.640112  	-0.008207 
2233.568928  	-0.008422 
2235.497744  	-0.008263 
2237.426560  	-0.008335 
2239.355376  	-0.008454 
2241.284192  	-0.008899 
2243.213008  	-0.008907 
2245.141824  	-0.008602 
2247.070640  	-0.008371 
2248.999456  	-0.008340 
2250.928272  	-0.008372 
2252.857088  	-0.008551 
2254.785904  	-0.008276 
2256.714720  	-0.008219 
2258.643536  	-0.008230 
2260.572352  	-0.007789 
2262.501168  	-0.007466 
2264.429984  	-0.007456 
2266.358800  	-0.007554 
2268.287616  	-0.007807 
2270.216432  	-0.007815 
2272.145248  	-0.007771 
2274.074064  	-0.007527 
2276.002880  	-0.007496 
2277.931696  	-0.007456 
2279.860512  	-0.007493 
2281.789328  	-0.007370 
2283.718144  	-0.007406 
2285.646960  	-0.007073 
2287.575776  	-0.007013 
2289.504592  	-0.007035 
2291.433408  	-0.006968 
2293.362224  	-0.006602 
2295.291040  	-0.006731 
2297.219856  	-0.006674 
2299.148672  	-0.006543 
2301.077488  	-0.006396 
2303.006304  	-0.005907 
2304.935120  	-0.005456 
2306.863936  	-0.005410 
2308.792752  	-0.005259 
2310.721568  	-0.005223 
2312.650384  	-0.005485 
2314.579200  	-0.006090 
2316.508016  	-0.006214 
2318.436832  	-0.006078 
2320.365648  	-0.006008 
2322.294464  	-0.006234 
2324.223280  	-0.007083 
2326.152096  	-0.008663 
2328.080912  	-0.009715 
2330.009728  	-0.010044 
2331.938544  	-0.010590 
2333.867360  	-0.011208 
2335.796176  	-0.011766 
2337.724992  	-0.012433 
2339.653808  	-0.012463 
2341.582624  	-0.012189 
2343.511440  	-0.011417 
2345.440256  	-0.010015 
2347.369072  	-0.008713 
2349.297888  	-0.008478 
2351.226704  	-0.009865 
2353.155520  	-0.011685 
2355.084336  	-0.012618 
2357.013152  	-0.013365 
2358.941968  	-0.014035 
2360.870784  	-0.014458 
2362.799600  	-0.013916 
2364.728416  	-0.012970 
2366.657232  	-0.012257 
2368.586048  	-0.011291 
2370.514864  	-0.010088 
2372.443680  	-0.009118 
2374.372496  	-0.007854 
2376.301312  	-0.006811 
2378.230128  	-0.006286 
2380.158944  	-0.006460 
2382.087760  	-0.006716 
2384.016576  	-0.007050 
2385.945392  	-0.007565 
2387.874208  	-0.008002 
2389.803024  	-0.008336 
2391.731840  	-0.008745 
2393.660656  	-0.008826 
2395.589472  	-0.008640 
2397.518288  	-0.008609 
2399.447104  	-0.008759 
2401.375920  	-0.008712 
2403.304736  	-0.008827 
2405.233552  	-0.009018 
2407.162368  	-0.009144 
2409.091184  	-0.009205 
2411.020000  	-0.009237 
2412.948816  	-0.009163 
2414.877632  	-0.009077 
2416.806448  	-0.008838 
2418.735264  	-0.008854 
2420.664080  	-0.008939 
2422.592896  	-0.008964 
2424.521712  	-0.008886 
2426.450528  	-0.009000 
2428.379344  	-0.008901 
2430.308160  	-0.008729 
2432.236976  	-0.008623 
2434.165792  	-0.008426 
2436.094608  	-0.008380 
2438.023424  	-0.008541 
2439.952240  	-0.008501 
2441.881056  	-0.008354 
2443.809872  	-0.008395 
2445.738688  	-0.008529 
2447.667504  	-0.008350 
2449.596320  	-0.008063 
2451.525136  	-0.008085 
2453.453952  	-0.008254 
2455.382768  	-0.008154 
2457.311584  	-0.008128 
2459.240400  	-0.008358 
2461.169216  	-0.008390 
2463.098032  	-0.008090 
2465.026848  	-0.008081 
2466.955664  	-0.008227 
2468.884480  	-0.008364 
2470.813296  	-0.008384 
2472.742112  	-0.008187 
2474.670928  	-0.008136 
2476.599744  	-0.007825 
2478.528560  	-0.007487 
2480.457376  	-0.007535 
2482.386192  	-0.007729 
2484.315008  	-0.007922 
2486.243824  	-0.007838 
2488.172640  	-0.007500 
2490.101456  	-0.007365 
2492.030272  	-0.007321 
2493.959088  	-0.007421 
2495.887904  	-0.007539 
2497.816720  	-0.007395 
2499.745536  	-0.007399 
2501.674352  	-0.007609 
2503.603168  	-0.007583 
2505.531984  	-0.007462 
2507.460800  	-0.007737 
2509.389616  	-0.007884 
2511.318432  	-0.007826 
2513.247248  	-0.007718 
2515.176064  	-0.007644 
2517.104880  	-0.007586 
2519.033696  	-0.007662 
2520.962512  	-0.007502 
2522.891328  	-0.007413 
2524.820144  	-0.007186 
2526.748960  	-0.007092 
2528.677776  	-0.007147 
2530.606592  	-0.007244 
2532.535408  	-0.007148 
2534.464224  	-0.007131 
2536.393040  	-0.007253 
2538.321856  	-0.007231 
2540.250672  	-0.007087 
2542.179488  	-0.006822 
2544.108304  	-0.006639 
2546.037120  	-0.006624 
2547.965936  	-0.006534 
2549.894752  	-0.006469 
2551.823568  	-0.006304 
2553.752384  	-0.006429 
2555.681200  	-0.006562 
2557.610016  	-0.006576 
2559.538832  	-0.006561 
2561.467648  	-0.006298 
2563.396464  	-0.005989 
2565.325280  	-0.006095 
2567.254096  	-0.006302 
2569.182912  	-0.006467 
2571.111728  	-0.006336 
2573.040544  	-0.006290 
2574.969360  	-0.006140 
2576.898176  	-0.005950 
2578.826992  	-0.005988 
2580.755808  	-0.006068 
2582.684624  	-0.005933 
2584.613440  	-0.005888 
2586.542256  	-0.005788 
2588.471072  	-0.005810 
2590.399888  	-0.005809 
2592.328704  	-0.005635 
2594.257520  	-0.005518 
2596.186336  	-0.005643 
2598.115152  	-0.005670 
2600.043968  	-0.005484 
2601.972784  	-0.005391 
2603.901600  	-0.005269 
2605.830416  	-0.005219 
2607.759232  	-0.005274 
2609.688048  	-0.005243 
2611.616864  	-0.005101 
2613.545680  	-0.005013 
2615.474496  	-0.004927 
2617.403312  	-0.004734 
2619.332128  	-0.004654 
2621.260944  	-0.004712 
2623.189760  	-0.004776 
2625.118576  	-0.004628 
2627.047392  	-0.004544 
2628.976208  	-0.004448 
2630.905024  	-0.004418 
2632.833840  	-0.004386 
2634.762656  	-0.004396 
2636.691472  	-0.004276 
2638.620288  	-0.004168 
2640.549104  	-0.004051 
2642.477920  	-0.003898 
2644.406736  	-0.003969 
2646.335552  	-0.003976 
2648.264368  	-0.003738 
2650.193184  	-0.003664 
2652.122000  	-0.003667 
2654.050816  	-0.003634 
2655.979632  	-0.003647 
2657.908448  	-0.003586 
2659.837264  	-0.003447 
2661.766080  	-0.003345 
2663.694896  	-0.003299 
2665.623712  	-0.003264 
2667.552528  	-0.003212 
2669.481344  	-0.003242 
2671.410160  	-0.003206 
2673.338976  	-0.003075 
2675.267792  	-0.002933 
2677.196608  	-0.002740 
2679.125424  	-0.002624 
2681.054240  	-0.002625 
2682.983056  	-0.002530 
2684.911872  	-0.002474 
2686.840688  	-0.002558 
2688.769504  	-0.002518 
2690.698320  	-0.002406 
2692.627136  	-0.002374 
2694.555952  	-0.002356 
2696.484768  	-0.002259 
2698.413584  	-0.002238 
2700.342400  	-0.002365 
2702.271216  	-0.002232 
2704.200032  	-0.002026 
2706.128848  	-0.001930 
2708.057664  	-0.001814 
2709.986480  	-0.001738 
2711.915296  	-0.001666 
2713.844112  	-0.001640 
2715.772928  	-0.001649 
2717.701744  	-0.001534 
2719.630560  	-0.001300 
2721.559376  	-0.001235 
2723.488192  	-0.001230 
2725.417008  	-0.001123 
2727.345824  	-0.001027 
2729.274640  	-0.000906 
2731.203456  	-0.000873 
2733.132272  	-0.000775 
2735.061088  	-0.000659 
2736.989904  	-0.000627 
2738.918720  	-0.000530 
2740.847536  	-0.000538 
2742.776352  	-0.000492 
2744.705168  	-0.000366 
2746.633984  	-0.000319 
2748.562800  	-0.000261 
2750.491616  	-0.000262 
2752.420432  	-0.000261 
2754.349248  	-0.000280 
2756.278064  	-0.000339 
2758.206880  	-0.000336 
2760.135696  	-0.000297 
2762.064512  	-0.000351 
2763.993328  	-0.000411 
2765.922144  	-0.000362 
2767.850960  	-0.000335 
2769.779776  	-0.000368 
2771.708592  	-0.000299 
2773.637408  	-0.000275 
2775.566224  	-0.000235 
2777.495040  	-0.000214 
2779.423856  	-0.000236 
2781.352672  	-0.000136 
2783.281488  	-0.000030 
2785.210304  	0.000025 
2787.139120  	0.000034 
2789.067936  	-0.000046 
2790.996752  	-0.000039 
2792.925568  	0.000053 
2794.854384  	0.000072 
2796.783200  	0.000091 
2798.712016  	0.000060 
2800.640832  	0.000025 
2802.569648  	0.000088 
2804.498464  	0.000168 
2806.427280  	0.000260 
2808.356096  	0.000405 
2810.284912  	0.000494 
2812.213728  	0.000463 
2814.142544  	0.000474 
2816.071360  	0.000405 
2818.000176  	0.000358 
2819.928992  	0.000471 
2821.857808  	0.000481 
2823.786624  	0.000359 
2825.715440  	0.000328 
2827.644256  	0.000340 
2829.573072  	0.000322 
2831.501888  	0.000316 
2833.430704  	0.000294 
2835.359520  	0.000170 
2837.288336  	0.000049 
2839.217152  	0.000020 
2841.145968  	-0.000022 
2843.074784  	-0.000096 
2845.003600  	-0.000063 
2846.932416  	-0.000163 
2848.861232  	-0.000214 
2850.790048  	-0.000185 
2852.718864  	-0.000100 
2854.647680  	-0.000149 
2856.576496  	-0.000143 
2858.505312  	-0.000043 
2860.434128  	-0.000018 
2862.362944  	-0.000121 
2864.291760  	-0.000166 
2866.220576  	-0.000252 
2868.149392  	-0.000233 
2870.078208  	-0.000057 
2872.007024  	0.000175 
2873.935840  	0.000284 
2875.864656  	0.000280 
2877.793472  	0.000363 
2879.722288  	0.000610 
2881.651104  	0.000947 
2883.579920  	0.001185 
2885.508736  	0.001300 
2887.437552  	0.001417 
2889.366368  	0.001517 
2891.295184  	0.001555 
2893.224000  	0.001544 
2895.152816  	0.001472 
2897.081632  	0.001501 
2899.010448  	0.001311 
2900.939264  	0.001006 
2902.868080  	0.001226 
2904.796896  	0.001544 
2906.725712  	0.001656 
2908.654528  	0.001758 
2910.583344  	0.002012 
2912.512160  	0.002193 
2914.440976  	0.002427 
2916.369792  	0.002816 
2918.298608  	0.003162 
2920.227424  	0.003457 
2922.156240  	0.003749 
2924.085056  	0.004021 
2926.013872  	0.004277 
2927.942688  	0.004689 
2929.871504  	0.005183 
2931.800320  	0.005598 
2933.729136  	0.006044 
2935.657952  	0.006385 
2937.586768  	0.006649 
2939.515584  	0.006865 
2941.444400  	0.007083 
2943.373216  	0.007210 
2945.302032  	0.007360 
2947.230848  	0.007488 
2949.159664  	0.007438 
2951.088480  	0.007234 
2953.017296  	0.007224 
2954.946112  	0.007228 
2956.874928  	0.007021 
2958.803744  	0.006774 
2960.732560  	0.006748 
2962.661376  	0.006748 
2964.590192  	0.006666 
2966.519008  	0.006390 
2968.447824  	0.006120 
2970.376640  	0.005867 
2972.305456  	0.005634 
2974.234272  	0.005800 
2976.163088  	0.005925 
2978.091904  	0.005751 
2980.020720  	0.005636 
2981.949536  	0.005621 
2983.878352  	0.005549 
2985.807168  	0.005490 
2987.735984  	0.005509 
2989.664800  	0.005618 
2991.593616  	0.006040 
2993.522432  	0.006343 
2995.451248  	0.006485 
2997.380064  	0.006742 
2999.308880  	0.007145 
3001.237696  	0.007642 
3003.166512  	0.007935 
3005.095328  	0.008079 
3007.024144  	0.008370 
3008.952960  	0.008936 
3010.881776  	0.009375 
3012.810592  	0.009801 
3014.739408  	0.010179 
3016.668224  	0.010455 
3018.597040  	0.010738 
3020.525856  	0.010993 
3022.454672  	0.011295 
3024.383488  	0.011669 
3026.312304  	0.012118 
3028.241120  	0.012385 
3030.169936  	0.012749 
3032.098752  	0.013231 
3034.027568  	0.013359 
3035.956384  	0.013499 
3037.885200  	0.013880 
3039.814016  	0.014277 
3041.742832  	0.014462 
3043.671648  	0.014692 
3045.600464  	0.015007 
3047.529280  	0.015402 
3049.458096  	0.015840 
3051.386912  	0.015997 
3053.315728  	0.016090 
3055.244544  	0.016386 
3057.173360  	0.016760 
3059.102176  	0.017150 
3061.030992  	0.017563 
3062.959808  	0.017884 
3064.888624  	0.018361 
3066.817440  	0.018768 
3068.746256  	0.019081 
3070.675072  	0.019301 
3072.603888  	0.019704 
3074.532704  	0.020333 
3076.461520  	0.020837 
3078.390336  	0.021171 
3080.319152  	0.021615 
3082.247968  	0.022007 
3084.176784  	0.022325 
3086.105600  	0.022660 
3088.034416  	0.023049 
3089.963232  	0.023158 
3091.892048  	0.023429 
3093.820864  	0.023937 
3095.749680  	0.024620 
3097.678496  	0.025069 
3099.607312  	0.025322 
3101.536128  	0.025925 
3103.464944  	0.026302 
3105.393760  	0.026441 
3107.322576  	0.026733 
3109.251392  	0.027139 
3111.180208  	0.027411 
3113.109024  	0.027610 
3115.037840  	0.028017 
3116.966656  	0.028603 
3118.895472  	0.028948 
3120.824288  	0.029133 
3122.753104  	0.029526 
3124.681920  	0.029675 
3126.610736  	0.029813 
3128.539552  	0.029959 
3130.468368  	0.029993 
3132.397184  	0.030495 
3134.326000  	0.030931 
3136.254816  	0.030972 
3138.183632  	0.031127 
3140.112448  	0.031326 
3142.041264  	0.031696 
3143.970080  	0.032015 
3145.898896  	0.032274 
3147.827712  	0.032563 
3149.756528  	0.032889 
3151.685344  	0.033072 
3153.614160  	0.033297 
3155.542976  	0.033532 
3157.471792  	0.033735 
3159.400608  	0.034065 
3161.329424  	0.034443 
3163.258240  	0.034655 
3165.187056  	0.034860 
3167.115872  	0.034929 
3169.044688  	0.035211 
3170.973504  	0.035606 
3172.902320  	0.035621 
3174.831136  	0.035418 
3176.759952  	0.035423 
3178.688768  	0.035812 
3180.617584  	0.035861 
3182.546400  	0.035818 
3184.475216  	0.036033 
3186.404032  	0.036321 
3188.332848  	0.036253 
3190.261664  	0.036056 
3192.190480  	0.036077 
3194.119296  	0.036260 
3196.048112  	0.036177 
3197.976928  	0.036374 
3199.905744  	0.036550 
3201.834560  	0.036389 
3203.763376  	0.036218 
3205.692192  	0.036041 
3207.621008  	0.036020 
3209.549824  	0.036261 
3211.478640  	0.036355 
3213.407456  	0.036088 
3215.336272  	0.036132 
3217.265088  	0.035911 
3219.193904  	0.036058 
3221.122720  	0.036229 
3223.051536  	0.035875 
3224.980352  	0.035571 
3226.909168  	0.035400 
3228.837984  	0.035336 
3230.766800  	0.035229 
3232.695616  	0.035281 
3234.624432  	0.035200 
3236.553248  	0.035245 
3238.482064  	0.035278 
3240.410880  	0.035145 
3242.339696  	0.035004 
3244.268512  	0.034973 
3246.197328  	0.035127 
3248.126144  	0.035024 
3250.054960  	0.035219 
3251.983776  	0.035176 
3253.912592  	0.035172 
3255.841408  	0.035420 
3257.770224  	0.035616 
3259.699040  	0.035811 
3261.627856  	0.035816 
3263.556672  	0.035470 
3265.485488  	0.035450 
3267.414304  	0.035691 
3269.343120  	0.035788 
3271.271936  	0.035877 
3273.200752  	0.036059 
3275.129568  	0.036177 
3277.058384  	0.036170 
3278.987200  	0.036141 
3280.916016  	0.036195 
3282.844832  	0.036207 
3284.773648  	0.036295 
3286.702464  	0.036386 
3288.631280  	0.036586 
3290.560096  	0.036663 
3292.488912  	0.036670 
3294.417728  	0.036601 
3296.346544  	0.036667 
3298.275360  	0.036819 
3300.204176  	0.036732 
3302.132992  	0.036637 
3304.061808  	0.036926 
3305.990624  	0.037190 
3307.919440  	0.037435 
3309.848256  	0.037478 
3311.777072  	0.037427 
3313.705888  	0.037601 
3315.634704  	0.037739 
3317.563520  	0.037878 
3319.492336  	0.037859 
3321.421152  	0.037888 
3323.349968  	0.038036 
3325.278784  	0.038156 
3327.207600  	0.038310 
3329.136416  	0.038177 
3331.065232  	0.037974 
3332.994048  	0.037830 
3334.922864  	0.038156 
3336.851680  	0.038459 
3338.780496  	0.038370 
3340.709312  	0.037927 
3342.638128  	0.037758 
3344.566944  	0.037521 
3346.495760  	0.037329 
3348.424576  	0.037351 
3350.353392  	0.037231 
3352.282208  	0.036797 
3354.211024  	0.036588 
3356.139840  	0.036582 
3358.068656  	0.036354 
3359.997472  	0.036128 
3361.926288  	0.036070 
3363.855104  	0.035827 
3365.783920  	0.035752 
3367.712736  	0.035754 
3369.641552  	0.035395 
3371.570368  	0.034965 
3373.499184  	0.034914 
3375.428000  	0.034763 
3377.356816  	0.034599 
3379.285632  	0.034499 
3381.214448  	0.034294 
3383.143264  	0.034101 
3385.072080  	0.034190 
3387.000896  	0.033883 
3388.929712  	0.033397 
3390.858528  	0.033095 
3392.787344  	0.033426 
3394.716160  	0.033147 
3396.644976  	0.032908 
3398.573792  	0.032774 
3400.502608  	0.032122 
3402.431424  	0.031755 
3404.360240  	0.031598 
3406.289056  	0.031219 
3408.217872  	0.030840 
3410.146688  	0.030575 
3412.075504  	0.030284 
3414.004320  	0.030269 
3415.933136  	0.030247 
3417.861952  	0.029912 
3419.790768  	0.030005 
3421.719584  	0.030138 
3423.648400  	0.029524 
3425.577216  	0.028761 
3427.506032  	0.028480 
3429.434848  	0.028344 
3431.363664  	0.028333 
3433.292480  	0.028130 
3435.221296  	0.027697 
3437.150112  	0.027169 
3439.078928  	0.026827 
3441.007744  	0.026694 
3442.936560  	0.026822 
3444.865376  	0.026169 
3446.794192  	0.026486 
3448.723008  	0.026666 
3450.651824  	0.025521 
3452.580640  	0.025004 
3454.509456  	0.024555 
3456.438272  	0.024189 
3458.367088  	0.023971 
3460.295904  	0.023836 
3462.224720  	0.023726 
3464.153536  	0.023226 
3466.082352  	0.022700 
3468.011168  	0.022438 
3469.939984  	0.021940 
3471.868800  	0.021389 
3473.797616  	0.020790 
3475.726432  	0.020721 
3477.655248  	0.020194 
3479.584064  	0.019704 
3481.512880  	0.020081 
3483.441696  	0.019969 
3485.370512  	0.018892 
3487.299328  	0.018546 
3489.228144  	0.018251 
3491.156960  	0.017561 
3493.085776  	0.017136 
3495.014592  	0.016930 
3496.943408  	0.016883 
3498.872224  	0.016400 
3500.801040  	0.016170 
3502.729856  	0.016818 
3504.658672  	0.016725 
3506.587488  	0.015358 
3508.516304  	0.014933 
3510.445120  	0.015090 
3512.373936  	0.014276 
3514.302752  	0.013801 
3516.231568  	0.013424 
3518.160384  	0.013057 
3520.089200  	0.012335 
3522.018016  	0.012303 
3523.946832  	0.013436 
3525.875648  	0.012982 
3527.804464  	0.012605 
3529.733280  	0.012453 
3531.662096  	0.011428 
3533.590912  	0.010385 
3535.519728  	0.010254 
3537.448544  	0.010307 
3539.377360  	0.009406 
3541.306176  	0.008811 
3543.234992  	0.008958 
3545.163808  	0.010234 
3547.092624  	0.010787 
3549.021440  	0.009157 
3550.950256  	0.007892 
3552.879072  	0.008576 
3554.807888  	0.007826 
3556.736704  	0.006598 
3558.665520  	0.006637 
3560.594336  	0.006882 
3562.523152  	0.006058 
3564.451968  	0.005823 
3566.380784  	0.008723 
3568.309600  	0.010607 
3570.238416  	0.007036 
3572.167232  	0.004455 
3574.096048  	0.003888 
3576.024864  	0.003666 
3577.953680  	0.003271 
3579.882496  	0.003134 
3581.811312  	0.002475 
3583.740128  	0.001686 
3585.668944  	0.001974 
3587.597760  	0.005070 
3589.526576  	0.004344 
3591.455392  	0.001036 
3593.384208  	0.000398 
3595.313024  	0.000964 
3597.241840  	0.000242 
3599.170656  	-0.000499 
3601.099472  	-0.000432 
3603.028288  	-0.001271 
3604.957104  	-0.002394 
3606.885920  	-0.001817 
3608.814736  	-0.000800 
3610.743552  	-0.001976 
3612.672368  	-0.002143 
3614.601184  	-0.001577 
3616.530000  	-0.003178 
3618.458816  	-0.003326 
3620.387632  	-0.002652 
3622.316448  	-0.004342 
3624.245264  	-0.006113 
3626.174080  	-0.006880 
3628.102896  	-0.005896 
3630.031712  	-0.002876 
3631.960528  	-0.005601 
3633.889344  	-0.007311 
3635.818160  	-0.008074 
3637.746976  	-0.008944 
3639.675792  	-0.009203 
3641.604608  	-0.009308 
3643.533424  	-0.009701 
3645.462240  	-0.010230 
3647.391056  	-0.008671 
3649.319872  	-0.006913 
3651.248688  	-0.007463 
3653.177504  	-0.010761 
3655.106320  	-0.012727 
3657.035136  	-0.011932 
3658.963952  	-0.012418 
3660.892768  	-0.013196 
3662.821584  	-0.013675 
3664.750400  	-0.013864 
3666.679216  	-0.014044 
3668.608032  	-0.013750 
3670.536848  	-0.012193 
3672.465664  	-0.013073 
3674.394480  	-0.013806 
3676.323296  	-0.011289 
3678.252112  	-0.012434 
3680.180928  	-0.013703 
3682.109744  	-0.014492 
3684.038560  	-0.014791 
3685.967376  	-0.015106 
3687.896192  	-0.014669 
3689.825008  	-0.013194 
3691.753824  	-0.013486 
3693.682640  	-0.014264 
3695.611456  	-0.014791 
3697.540272  	-0.014976 
3699.469088  	-0.015474 
3701.397904  	-0.015042 
3703.326720  	-0.014485 
3705.255536  	-0.014756 
3707.184352  	-0.014909 
3709.113168  	-0.014578 
3711.041984  	-0.013037 
3712.970800  	-0.012429 
3714.899616  	-0.013663 
3716.828432  	-0.014812 
3718.757248  	-0.014651 
3720.686064  	-0.014541 
3722.614880  	-0.014080 
3724.543696  	-0.013716 
3726.472512  	-0.013245 
3728.401328  	-0.013919 
3730.330144  	-0.015212 
3732.258960  	-0.014801 
3734.187776  	-0.012254 
3736.116592  	-0.010257 
3738.045408  	-0.011818 
3739.974224  	-0.013105 
3741.903040  	-0.013844 
3743.831856  	-0.014395 
3745.760672  	-0.012450 
3747.689488  	-0.013302 
3749.618304  	-0.012842 
3751.547120  	-0.011398 
3753.475936  	-0.012121 
3755.404752  	-0.013676 
3757.333568  	-0.014004 
3759.262384  	-0.013442 
3761.191200  	-0.013651 
3763.120016  	-0.014551 
3765.048832  	-0.014389 
3766.977648  	-0.014097 
3768.906464  	-0.014332 
3770.835280  	-0.013754 
3772.764096  	-0.014280 
3774.692912  	-0.014957 
3776.621728  	-0.015073 
3778.550544  	-0.014680 
3780.479360  	-0.014091 
3782.408176  	-0.014720 
3784.336992  	-0.014675 
3786.265808  	-0.014459 
3788.194624  	-0.014924 
3790.123440  	-0.015044 
3792.052256  	-0.015229 
3793.981072  	-0.015572 
3795.909888  	-0.014685 
3797.838704  	-0.013417 
3799.767520  	-0.014189 
3801.696336  	-0.013279 
3803.625152  	-0.013480 
3805.553968  	-0.015254 
3807.482784  	-0.014605 
3809.411600  	-0.014344 
3811.340416  	-0.014975 
3813.269232  	-0.015364 
3815.198048  	-0.015081 
3817.126864  	-0.013565 
3819.055680  	-0.014096 
3820.984496  	-0.013465 
3822.913312  	-0.012756 
3824.842128  	-0.014148 
3826.770944  	-0.014295 
3828.699760  	-0.014257 
3830.628576  	-0.014692 
3832.557392  	-0.014620 
3834.486208  	-0.014967 
3836.415024  	-0.015005 
3838.343840  	-0.013795 
3840.272656  	-0.012562 
3842.201472  	-0.013284 
3844.130288  	-0.013699 
3846.059104  	-0.014164 
3847.987920  	-0.014776 
3849.916736  	-0.014875 
3851.845552  	-0.014559 
3853.774368  	-0.011531 
3855.703184  	-0.011473 
3857.632000  	-0.013035 
3859.560816  	-0.014269 
3861.489632  	-0.014300 
3863.418448  	-0.013411 
3865.347264  	-0.012306 
3867.276080  	-0.013342 
3869.204896  	-0.013354 
3871.133712  	-0.011753 
3873.062528  	-0.013049 
3874.991344  	-0.013382 
3876.920160  	-0.014603 
3878.848976  	-0.014897 
3880.777792  	-0.012942 
3882.706608  	-0.012671 
3884.635424  	-0.013418 
3886.564240  	-0.013336 
3888.493056  	-0.014794 
3890.421872  	-0.014892 
3892.350688  	-0.013566 
3894.279504  	-0.014082 
3896.208320  	-0.015021 
3898.137136  	-0.014625 
3900.065952  	-0.012954 
3901.994768  	-0.012211 
3903.923584  	-0.012069 
3905.852400  	-0.012593 
3907.781216  	-0.014362 
3909.710032  	-0.015615 
3911.638848  	-0.015808 
3913.567664  	-0.015585 
3915.496480  	-0.014725 
3917.425296  	-0.013334 
3919.354112  	-0.013564 
3921.282928  	-0.013894 
3923.211744  	-0.013722 
3925.140560  	-0.013514 
3927.069376  	-0.014504 
3928.998192  	-0.014605 
3930.927008  	-0.013622 
3932.855824  	-0.013197 
3934.784640  	-0.014120 
3936.713456  	-0.014871 
3938.642272  	-0.015003 
3940.571088  	-0.015101 
3942.499904  	-0.014073 
3944.428720  	-0.014037 
3946.357536  	-0.014760 
3948.286352  	-0.013933 
3950.215168  	-0.014120 
3952.143984  	-0.015081 
3954.072800  	-0.015444 
3956.001616  	-0.015304 
3957.930432  	-0.015032 
3959.859248  	-0.014865 
3961.788064  	-0.014686 
3963.716880  	-0.014927 
3965.645696  	-0.015398 
3967.574512  	-0.015533 
3969.503328  	-0.015588 
3971.432144  	-0.015444 
3973.360960  	-0.015045 
3975.289776  	-0.014544 
3977.218592  	-0.014795 
3979.147408  	-0.015372 
3981.076224  	-0.015350 
3983.005040  	-0.015225 
3984.933856  	-0.015229 
3986.862672  	-0.015167 
3988.791488  	-0.015157 
3990.720304  	-0.014823 
3992.649120  	-0.015007 
3994.577936  	-0.015314 
3996.506752  	-0.015459 
3998.435568  	-0.015568 
4000.364384  	-0.015455 