##TITLE=No Description
##DATA TYPE=INFRARED SPECTRUM
##XUNITS=1/CM
##YUNITS=Abs
399.264912  	0.523043 
401.193728  	0.538978 
403.122544  	0.557210 
405.051360  	0.540650 
406.980176  	0.529582 
408.908992  	0.516248 
410.837808  	0.518966 
412.766624  	0.511919 
414.695440  	0.499226 
416.624256  	0.497717 
418.553072  	0.515626 
420.481888  	0.517911 
422.410704  	0.514567 
424.339520  	0.505846 
426.268336  	0.494081 
428.197152  	0.490268 
430.125968  	0.492080 
432.054784  	0.487457 
433.983600  	0.489375 
435.912416  	0.488071 
437.841232  	0.480894 
439.770048  	0.478597 
441.698864  	0.480593 
443.627680  	0.474973 
445.556496  	0.476404 
447.485312  	0.476280 
449.414128  	0.475354 
451.342944  	0.476194 
453.271760  	0.474040 
455.200576  	0.472752 
457.129392  	0.476278 
459.058208  	0.470621 
460.987024  	0.475607 
462.915840  	0.476492 
464.844656  	0.477306 
466.773472  	0.478913 
468.702288  	0.477647 
470.631104  	0.473236 
472.559920  	0.474567 
474.488736  	0.469175 
476.417552  	0.468258 
478.346368  	0.463845 
480.275184  	0.462442 
482.204000  	0.461278 
484.132816  	0.464957 
486.061632  	0.465579 
487.990448  	0.463067 
489.919264  	0.461840 
491.848080  	0.461384 
493.776896  	0.457075 
495.705712  	0.456349 
497.634528  	0.453263 
499.563344  	0.451763 
501.492160  	0.451698 
503.420976  	0.452968 
505.349792  	0.451718 
507.278608  	0.454159 
509.207424  	0.450914 
511.136240  	0.451807 
513.065056  	0.450672 
514.993872  	0.452265 
516.922688  	0.456565 
518.851504  	0.459274 
520.780320  	0.457373 
522.709136  	0.456106 
524.637952  	0.454780 
526.566768  	0.452882 
528.495584  	0.448607 
530.424400  	0.446878 
532.353216  	0.443160 
534.282032  	0.437507 
536.210848  	0.431563 
538.139664  	0.427356 
540.068480  	0.423560 
541.997296  	0.420118 
543.926112  	0.416692 
545.854928  	0.414833 
547.783744  	0.411942 
549.712560  	0.410030 
551.641376  	0.406160 
553.570192  	0.404617 
555.499008  	0.401720 
557.427824  	0.399619 
559.356640  	0.395497 
561.285456  	0.392580 
563.214272  	0.389818 
565.143088  	0.388237 
567.071904  	0.385002 
569.000720  	0.383325 
570.929536  	0.380654 
572.858352  	0.377603 
574.787168  	0.374567 
576.715984  	0.372126 
578.644800  	0.368459 
580.573616  	0.364804 
582.502432  	0.359195 
584.431248  	0.354826 
586.360064  	0.351109 
588.288880  	0.349131 
590.217696  	0.348006 
592.146512  	0.346772 
594.075328  	0.343520 
596.004144  	0.341734 
597.932960  	0.340596 
599.861776  	0.339992 
601.790592  	0.337614 
603.719408  	0.335821 
605.648224  	0.335053 
607.577040  	0.334692 
609.505856  	0.332909 
611.434672  	0.331293 
613.363488  	0.330008 
615.292304  	0.329340 
617.221120  	0.327866 
619.149936  	0.326461 
621.078752  	0.324859 
623.007568  	0.324470 
624.936384  	0.323736 
626.865200  	0.322479 
628.794016  	0.321044 
630.722832  	0.320656 
632.651648  	0.320628 
634.580464  	0.320516 
636.509280  	0.320145 
638.438096  	0.319574 
640.366912  	0.318688 
642.295728  	0.317603 
644.224544  	0.315698 
646.153360  	0.313028 
648.082176  	0.309468 
650.010992  	0.306413 
651.939808  	0.303527 
653.868624  	0.300132 
655.797440  	0.296300 
657.726256  	0.293531 
659.655072  	0.290111 
661.583888  	0.286358 
663.512704  	0.282562 
665.441520  	0.278684 
667.370336  	0.276181 
669.299152  	0.274111 
671.227968  	0.267916 
673.156784  	0.263771 
675.085600  	0.261702 
677.014416  	0.259209 
678.943232  	0.256884 
680.872048  	0.255593 
682.800864  	0.253750 
684.729680  	0.252196 
686.658496  	0.251078 
688.587312  	0.249797 
690.516128  	0.248773 
692.444944  	0.248159 
694.373760  	0.246490 
696.302576  	0.245091 
698.231392  	0.243245 
700.160208  	0.241127 
702.089024  	0.238645 
704.017840  	0.236246 
705.946656  	0.233848 
707.875472  	0.231500 
709.804288  	0.229351 
711.733104  	0.227724 
713.661920  	0.226162 
715.590736  	0.224501 
717.519552  	0.223844 
719.448368  	0.224412 
721.377184  	0.225056 
723.306000  	0.225125 
725.234816  	0.225308 
727.163632  	0.224565 
729.092448  	0.222129 
731.021264  	0.218982 
732.950080  	0.215678 
734.878896  	0.212728 
736.807712  	0.210197 
738.736528  	0.207796 
740.665344  	0.205965 
742.594160  	0.204926 
744.522976  	0.203454 
746.451792  	0.201937 
748.380608  	0.200420 
750.309424  	0.198837 
752.238240  	0.197935 
754.167056  	0.197533 
756.095872  	0.196588 
758.024688  	0.195426 
759.953504  	0.194866 
761.882320  	0.195561 
763.811136  	0.196188 
765.739952  	0.194373 
767.668768  	0.191086 
769.597584  	0.188461 
771.526400  	0.187440 
773.455216  	0.188412 
775.384032  	0.191620 
777.312848  	0.196466 
779.241664  	0.199817 
781.170480  	0.198878 
783.099296  	0.194161 
785.028112  	0.188649 
786.956928  	0.183239 
788.885744  	0.178967 
790.814560  	0.175894 
792.743376  	0.174178 
794.672192  	0.173214 
796.601008  	0.172081 
798.529824  	0.169254 
800.458640  	0.165271 
802.387456  	0.162040 
804.316272  	0.160195 
806.245088  	0.159233 
808.173904  	0.158398 
810.102720  	0.157814 
812.031536  	0.157503 
813.960352  	0.157547 
815.889168  	0.157777 
817.817984  	0.158446 
819.746800  	0.159474 
821.675616  	0.159877 
823.604432  	0.160306 
825.533248  	0.160819 
827.462064  	0.161155 
829.390880  	0.160647 
831.319696  	0.159907 
833.248512  	0.158954 
835.177328  	0.157201 
837.106144  	0.154949 
839.034960  	0.152198 
840.963776  	0.148420 
842.892592  	0.144432 
844.821408  	0.140661 
846.750224  	0.137374 
848.679040  	0.134739 
850.607856  	0.132493 
852.536672  	0.131006 
854.465488  	0.129933 
856.394304  	0.129031 
858.323120  	0.127638 
860.251936  	0.126125 
862.180752  	0.124713 
864.109568  	0.122793 
866.038384  	0.120786 
867.967200  	0.118850 
869.896016  	0.117296 
871.824832  	0.116342 
873.753648  	0.116470 
875.682464  	0.117165 
877.611280  	0.118480 
879.540096  	0.120515 
881.468912  	0.122819 
883.397728  	0.124913 
885.326544  	0.126853 
887.255360  	0.128324 
889.184176  	0.128477 
891.112992  	0.127835 
893.041808  	0.126466 
894.970624  	0.124093 
896.899440  	0.120313 
898.828256  	0.115776 
900.757072  	0.111162 
902.685888  	0.107314 
904.614704  	0.104800 
906.543520  	0.104133 
908.472336  	0.105339 
910.401152  	0.107412 
912.329968  	0.110014 
914.258784  	0.112296 
916.187600  	0.114556 
918.116416  	0.116575 
920.045232  	0.117972 
921.974048  	0.118960 
923.902864  	0.119933 
925.831680  	0.120736 
927.760496  	0.121457 
929.689312  	0.122439 
931.618128  	0.123741 
933.546944  	0.124622 
935.475760  	0.124803 
937.404576  	0.124358 
939.333392  	0.123505 
941.262208  	0.122776 
943.191024  	0.123304 
945.119840  	0.125708 
947.048656  	0.130334 
948.977472  	0.137520 
950.906288  	0.146845 
952.835104  	0.158141 
954.763920  	0.171136 
956.692736  	0.184378 
958.621552  	0.196497 
960.550368  	0.205524 
962.479184  	0.210893 
964.408000  	0.211707 
966.336816  	0.208179 
968.265632  	0.200133 
970.194448  	0.188848 
972.123264  	0.175315 
974.052080  	0.161134 
975.980896  	0.147023 
977.909712  	0.133812 
979.838528  	0.122263 
981.767344  	0.112438 
983.696160  	0.104705 
985.624976  	0.099520 
987.553792  	0.097477 
989.482608  	0.098047 
991.411424  	0.101120 
993.340240  	0.106195 
995.269056  	0.112259 
997.197872  	0.118852 
999.126688  	0.125471 
1001.055504  	0.132368 
1002.984320  	0.138973 
1004.913136  	0.145850 
1006.841952  	0.152658 
1008.770768  	0.158981 
1010.699584  	0.164163 
1012.628400  	0.168215 
1014.557216  	0.170916 
1016.486032  	0.172135 
1018.414848  	0.172371 
1020.343664  	0.172281 
1022.272480  	0.172156 
1024.201296  	0.171757 
1026.130112  	0.171172 
1028.058928  	0.171600 
1029.987744  	0.173372 
1031.916560  	0.176022 
1033.845376  	0.179368 
1035.774192  	0.183885 
1037.703008  	0.190183 
1039.631824  	0.199636 
1041.560640  	0.212105 
1043.489456  	0.227581 
1045.418272  	0.244640 
1047.347088  	0.261588 
1049.275904  	0.273826 
1051.204720  	0.280028 
1053.133536  	0.280677 
1055.062352  	0.278099 
1056.991168  	0.274038 
1058.919984  	0.270749 
1060.848800  	0.268848 
1062.777616  	0.267523 
1064.706432  	0.265378 
1066.635248  	0.262742 
1068.564064  	0.258768 
1070.492880  	0.253113 
1072.421696  	0.247129 
1074.350512  	0.243558 
1076.279328  	0.243412 
1078.208144  	0.247737 
1080.136960  	0.254051 
1082.065776  	0.259105 
1083.994592  	0.259947 
1085.923408  	0.256819 
1087.852224  	0.249515 
1089.781040  	0.239950 
1091.709856  	0.228510 
1093.638672  	0.216019 
1095.567488  	0.202002 
1097.496304  	0.187913 
1099.425120  	0.174266 
1101.353936  	0.161072 
1103.282752  	0.148834 
1105.211568  	0.137693 
1107.140384  	0.127364 
1109.069200  	0.118097 
1110.998016  	0.109875 
1112.926832  	0.102451 
1114.855648  	0.095862 
1116.784464  	0.089550 
1118.713280  	0.083167 
1120.642096  	0.077012 
1122.570912  	0.071308 
1124.499728  	0.066247 
1126.428544  	0.061890 
1128.357360  	0.057908 
1130.286176  	0.054518 
1132.214992  	0.051979 
1134.143808  	0.050221 
1136.072624  	0.048632 
1138.001440  	0.047049 
1139.930256  	0.045662 
1141.859072  	0.044351 
1143.787888  	0.042862 
1145.716704  	0.041513 
1147.645520  	0.040159 
1149.574336  	0.039326 
1151.503152  	0.038719 
1153.431968  	0.038566 
1155.360784  	0.038656 
1157.289600  	0.039454 
1159.218416  	0.040741 
1161.147232  	0.042285 
1163.076048  	0.043885 
1165.004864  	0.045714 
1166.933680  	0.047530 
1168.862496  	0.049445 
1170.791312  	0.051387 
1172.720128  	0.053778 
1174.648944  	0.056462 
1176.577760  	0.059016 
1178.506576  	0.061976 
1180.435392  	0.065069 
1182.364208  	0.068019 
1184.293024  	0.071366 
1186.221840  	0.075453 
1188.150656  	0.080046 
1190.079472  	0.085138 
1192.008288  	0.091034 
1193.937104  	0.097605 
1195.865920  	0.105255 
1197.794736  	0.113581 
1199.723552  	0.122439 
1201.652368  	0.131347 
1203.581184  	0.139917 
1205.510000  	0.148062 
1207.438816  	0.155241 
1209.367632  	0.161613 
1211.296448  	0.166729 
1213.225264  	0.170647 
1215.154080  	0.173067 
1217.082896  	0.174397 
1219.011712  	0.174470 
1220.940528  	0.173982 
1222.869344  	0.172744 
1224.798160  	0.171087 
1226.726976  	0.168388 
1228.655792  	0.165160 
1230.584608  	0.161380 
1232.513424  	0.156963 
1234.442240  	0.152067 
1236.371056  	0.146845 
1238.299872  	0.141190 
1240.228688  	0.134610 
1242.157504  	0.128197 
1244.086320  	0.122222 
1246.015136  	0.115804 
1247.943952  	0.109557 
1249.872768  	0.103354 
1251.801584  	0.097535 
1253.730400  	0.091991 
1255.659216  	0.086504 
1257.588032  	0.081367 
1259.516848  	0.076792 
1261.445664  	0.072275 
1263.374480  	0.067951 
1265.303296  	0.064378 
1267.232112  	0.061645 
1269.160928  	0.059821 
1271.089744  	0.058540 
1273.018560  	0.057771 
1274.947376  	0.057816 
1276.876192  	0.058540 
1278.805008  	0.059079 
1280.733824  	0.058956 
1282.662640  	0.057628 
1284.591456  	0.056086 
1286.520272  	0.054791 
1288.449088  	0.053906 
1290.377904  	0.053499 
1292.306720  	0.054195 
1294.235536  	0.055026 
1296.164352  	0.055074 
1298.093168  	0.053556 
1300.021984  	0.051229 
1301.950800  	0.048661 
1303.879616  	0.045950 
1305.808432  	0.042967 
1307.737248  	0.039897 
1309.666064  	0.036773 
1311.594880  	0.034923 
1313.523696  	0.033709 
1315.452512  	0.032526 
1317.381328  	0.032366 
1319.310144  	0.032493 
1321.238960  	0.032077 
1323.167776  	0.032294 
1325.096592  	0.032839 
1327.025408  	0.033150 
1328.954224  	0.033010 
1330.883040  	0.032317 
1332.811856  	0.031141 
1334.740672  	0.030550 
1336.669488  	0.031519 
1338.598304  	0.033687 
1340.527120  	0.032803 
1342.455936  	0.029462 
1344.384752  	0.028500 
1346.313568  	0.028817 
1348.242384  	0.029515 
1350.171200  	0.030467 
1352.100016  	0.031706 
1354.028832  	0.033644 
1355.957648  	0.035465 
1357.886464  	0.037083 
1359.815280  	0.039519 
1361.744096  	0.043520 
1363.672912  	0.045237 
1365.601728  	0.044521 
1367.530544  	0.046184 
1369.459360  	0.048108 
1371.388176  	0.048843 
1373.316992  	0.050326 
1375.245808  	0.049221 
1377.174624  	0.045886 
1379.103440  	0.043369 
1381.032256  	0.040473 
1382.961072  	0.038218 
1384.889888  	0.037556 
1386.818704  	0.038507 
1388.747520  	0.036225 
1390.676336  	0.033162 
1392.605152  	0.032183 
1394.533968  	0.033467 
1396.462784  	0.034100 
1398.391600  	0.033652 
1400.320416  	0.031928 
1402.249232  	0.030787 
1404.178048  	0.032406 
1406.106864  	0.032898 
1408.035680  	0.032972 
1409.964496  	0.034657 
1411.893312  	0.036528 
1413.822128  	0.038177 
1415.750944  	0.041716 
1417.679760  	0.045974 
1419.608576  	0.046832 
1421.537392  	0.044440 
1423.466208  	0.044331 
1425.395024  	0.042260 
1427.323840  	0.039741 
1429.252656  	0.038715 
1431.181472  	0.037061 
1433.110288  	0.036063 
1435.039104  	0.037317 
1436.967920  	0.039260 
1438.896736  	0.038162 
1440.825552  	0.037981 
1442.754368  	0.038488 
1444.683184  	0.038863 
1446.612000  	0.040132 
1448.540816  	0.040629 
1450.469632  	0.040101 
1452.398448  	0.040885 
1454.327264  	0.042665 
1456.256080  	0.047045 
1458.184896  	0.047355 
1460.113712  	0.041933 
1462.042528  	0.039453 
1463.971344  	0.040020 
1465.900160  	0.040274 
1467.828976  	0.039325 
1469.757792  	0.040565 
1471.686608  	0.046439 
1473.615424  	0.053689 
1475.544240  	0.055739 
1477.473056  	0.057876 
1479.401872  	0.059759 
1481.330688  	0.063331 
1483.259504  	0.065184 
1485.188320  	0.067323 
1487.117136  	0.070775 
1489.045952  	0.074553 
1490.974768  	0.071758 
1492.903584  	0.066020 
1494.832400  	0.063063 
1496.761216  	0.060481 
1498.690032  	0.054855 
1500.618848  	0.049299 
1502.547664  	0.044712 
1504.476480  	0.042944 
1506.405296  	0.047816 
1508.334112  	0.047377 
1510.262928  	0.040451 
1512.191744  	0.036067 
1514.120560  	0.035247 
1516.049376  	0.038434 
1517.978192  	0.039359 
1519.907008  	0.040392 
1521.835824  	0.045618 
1523.764640  	0.046064 
1525.693456  	0.048285 
1527.622272  	0.049097 
1529.551088  	0.047170 
1531.479904  	0.046401 
1533.408720  	0.046362 
1535.337536  	0.041902 
1537.266352  	0.039616 
1539.195168  	0.041312 
1541.123984  	0.041506 
1543.052800  	0.038731 
1544.981616  	0.035426 
1546.910432  	0.030427 
1548.839248  	0.030407 
1550.768064  	0.031408 
1552.696880  	0.030400 
1554.625696  	0.032417 
1556.554512  	0.033761 
1558.483328  	0.039831 
1560.412144  	0.039377 
1562.340960  	0.036938 
1564.269776  	0.038450 
1566.198592  	0.041777 
1568.127408  	0.045041 
1570.056224  	0.051277 
1571.985040  	0.053350 
1573.913856  	0.055722 
1575.842672  	0.060383 
1577.771488  	0.062824 
1579.700304  	0.060364 
1581.629120  	0.059275 
1583.557936  	0.058727 
1585.486752  	0.059512 
1587.415568  	0.061330 
1589.344384  	0.065049 
1591.273200  	0.069678 
1593.202016  	0.075625 
1595.130832  	0.082098 
1597.059648  	0.088268 
1598.988464  	0.093363 
1600.917280  	0.098963 
1602.846096  	0.103453 
1604.774912  	0.106303 
1606.703728  	0.107406 
1608.632544  	0.108000 
1610.561360  	0.106260 
1612.490176  	0.104466 
1614.418992  	0.102915 
1616.347808  	0.104700 
1618.276624  	0.105975 
1620.205440  	0.106394 
1622.134256  	0.109270 
1624.063072  	0.115831 
1625.991888  	0.119226 
1627.920704  	0.125548 
1629.849520  	0.131824 
1631.778336  	0.136985 
1633.707152  	0.142082 
1635.635968  	0.154242 
1637.564784  	0.162467 
1639.493600  	0.163340 
1641.422416  	0.165497 
1643.351232  	0.167424 
1645.280048  	0.169364 
1647.208864  	0.176983 
1649.137680  	0.174933 
1651.066496  	0.170145 
1652.995312  	0.173117 
1654.924128  	0.175616 
1656.852944  	0.168689 
1658.781760  	0.164854 
1660.710576  	0.162408 
1662.639392  	0.161367 
1664.568208  	0.157120 
1666.497024  	0.152365 
1668.425840  	0.149847 
1670.354656  	0.146940 
1672.283472  	0.141197 
1674.212288  	0.137028 
1676.141104  	0.134071 
1678.069920  	0.130514 
1679.998736  	0.129922 
1681.927552  	0.128738 
1683.856368  	0.130138 
1685.785184  	0.129187 
1687.714000  	0.125754 
1689.642816  	0.124807 
1691.571632  	0.122280 
1693.500448  	0.120386 
1695.429264  	0.122097 
1697.358080  	0.124360 
1699.286896  	0.121709 
1701.215712  	0.122056 
1703.144528  	0.118405 
1705.073344  	0.116506 
1707.002160  	0.112918 
1708.930976  	0.107940 
1710.859792  	0.103150 
1712.788608  	0.098628 
1714.717424  	0.094491 
1716.646240  	0.088633 
1718.575056  	0.076226 
1720.503872  	0.064435 
1722.432688  	0.056232 
1724.361504  	0.047229 
1726.290320  	0.039136 
1728.219136  	0.034072 
1730.147952  	0.030893 
1732.076768  	0.027824 
1734.005584  	0.024955 
1735.934400  	0.018146 
1737.863216  	0.015723 
1739.792032  	0.013569 
1741.720848  	0.011756 
1743.649664  	0.011636 
1745.578480  	0.010506 
1747.507296  	0.010389 
1749.436112  	0.010746 
1751.364928  	0.008413 
1753.293744  	0.004803 
1755.222560  	0.003676 
1757.151376  	0.004337 
1759.080192  	0.003196 
1761.009008  	0.003226 
1762.937824  	0.002069 
1764.866640  	0.000733 
1766.795456  	0.001467 
1768.724272  	0.002479 
1770.653088  	0.002474 
1772.581904  	0.002959 
1774.510720  	0.001388 
1776.439536  	0.000221 
1778.368352  	-0.000520 
1780.297168  	0.000077 
1782.225984  	-0.001016 
1784.154800  	-0.001202 
1786.083616  	-0.001842 
1788.012432  	-0.002254 
1789.941248  	-0.000644 
1791.870064  	0.001100 
1793.798880  	-0.000548 
1795.727696  	-0.001107 
1797.656512  	-0.001942 
1799.585328  	-0.001637 
1801.514144  	-0.000995 
1803.442960  	-0.002325 
1805.371776  	-0.003444 
1807.300592  	-0.003275 
1809.229408  	-0.003019 
1811.158224  	-0.002820 
1813.087040  	-0.003978 
1815.015856  	-0.004788 
1816.944672  	-0.004330 
1818.873488  	-0.004159 
1820.802304  	-0.004250 
1822.731120  	-0.003527 
1824.659936  	-0.002794 
1826.588752  	-0.003018 
1828.517568  	-0.002750 
1830.446384  	-0.002488 
1832.375200  	-0.004338 
1834.304016  	-0.004798 
1836.232832  	-0.004526 
1838.161648  	-0.004136 
1840.090464  	-0.004597 
1842.019280  	-0.003718 
1843.948096  	-0.002717 
1845.876912  	-0.002951 
1847.805728  	-0.003802 
1849.734544  	-0.004899 
1851.663360  	-0.005613 
1853.592176  	-0.005280 
1855.520992  	-0.005409 
1857.449808  	-0.005284 
1859.378624  	-0.005436 
1861.307440  	-0.005290 
1863.236256  	-0.005740 
1865.165072  	-0.005165 
1867.093888  	-0.003550 
1869.022704  	-0.002133 
1870.951520  	-0.003899 
1872.880336  	-0.005315 
1874.809152  	-0.006073 
1876.737968  	-0.006299 
1878.666784  	-0.006519 
1880.595600  	-0.006520 
1882.524416  	-0.006278 
1884.453232  	-0.005521 
1886.382048  	-0.005825 
1888.310864  	-0.005051 
1890.239680  	-0.004961 
1892.168496  	-0.005586 
1894.097312  	-0.005383 
1896.026128  	-0.005573 
1897.954944  	-0.006186 
1899.883760  	-0.006057 
1901.812576  	-0.006253 
1903.741392  	-0.006084 
1905.670208  	-0.006420 
1907.599024  	-0.005968 
1909.527840  	-0.005404 
1911.456656  	-0.005493 
1913.385472  	-0.006039 
1915.314288  	-0.005748 
1917.243104  	-0.005107 
1919.171920  	-0.004822 
1921.100736  	-0.005429 
1923.029552  	-0.005245 
1924.958368  	-0.006820 
1926.887184  	-0.007019 
1928.816000  	-0.007438 
1930.744816  	-0.006961 
1932.673632  	-0.006717 
1934.602448  	-0.006503 
1936.531264  	-0.007137 
1938.460080  	-0.006901 
1940.388896  	-0.006013 
1942.317712  	-0.004697 
1944.246528  	-0.006619 
1946.175344  	-0.006966 
1948.104160  	-0.006635 
1950.032976  	-0.006581 
1951.961792  	-0.007448 
1953.890608  	-0.007457 
1955.819424  	-0.008153 
1957.748240  	-0.008068 
1959.677056  	-0.008256 
1961.605872  	-0.007910 
1963.534688  	-0.008039 
1965.463504  	-0.006421 
1967.392320  	-0.006863 
1969.321136  	-0.007753 
1971.249952  	-0.008879 
1973.178768  	-0.008238 
1975.107584  	-0.007104 
1977.036400  	-0.006778 
1978.965216  	-0.007643 
1980.894032  	-0.007972 
1982.822848  	-0.007608 
1984.751664  	-0.006575 
1986.680480  	-0.006780 
1988.609296  	-0.006041 
1990.538112  	-0.005941 
1992.466928  	-0.005698 
1994.395744  	-0.007489 
1996.324560  	-0.008372 
1998.253376  	-0.008132 
2000.182192  	-0.007271 
2002.111008  	-0.007376 
2004.039824  	-0.007264 
2005.968640  	-0.008963 
2007.897456  	-0.008649 
2009.826272  	-0.007596 
2011.755088  	-0.006599 
2013.683904  	-0.007207 
2015.612720  	-0.006333 
2017.541536  	-0.005909 
2019.470352  	-0.005847 
2021.399168  	-0.006940 
2023.327984  	-0.006652 
2025.256800  	-0.006124 
2027.185616  	-0.004787 
2029.114432  	-0.005606 
2031.043248  	-0.005611 
2032.972064  	-0.005717 
2034.900880  	-0.005612 
2036.829696  	-0.006046 
2038.758512  	-0.004748 
2040.687328  	-0.005086 
2042.616144  	-0.005484 
2044.544960  	-0.006118 
2046.473776  	-0.006178 
2048.402592  	-0.005321 
2050.331408  	-0.004406 
2052.260224  	-0.004600 
2054.189040  	-0.004373 
2056.117856  	-0.004750 
2058.046672  	-0.004820 
2059.975488  	-0.005155 
2061.904304  	-0.004567 
2063.833120  	-0.004341 
2065.761936  	-0.004033 
2067.690752  	-0.004402 
2069.619568  	-0.004823 
2071.548384  	-0.005136 
2073.477200  	-0.004490 
2075.406016  	-0.004497 
2077.334832  	-0.004425 
2079.263648  	-0.004081 
2081.192464  	-0.003309 
2083.121280  	-0.003644 
2085.050096  	-0.003974 
2086.978912  	-0.004275 
2088.907728  	-0.003838 
2090.836544  	-0.003641 
2092.765360  	-0.003799 
2094.694176  	-0.004005 
2096.622992  	-0.003643 
2098.551808  	-0.003747 
2100.480624  	-0.003528 
2102.409440  	-0.003665 
2104.338256  	-0.003863 
2106.267072  	-0.004263 
2108.195888  	-0.004042 
2110.124704  	-0.003880 
2112.053520  	-0.003546 
2113.982336  	-0.003492 
2115.911152  	-0.003641 
2117.839968  	-0.004177 
2119.768784  	-0.004106 
2121.697600  	-0.004041 
2123.626416  	-0.004078 
2125.555232  	-0.004654 
2127.484048  	-0.004670 
2129.412864  	-0.004244 
2131.341680  	-0.003979 
2133.270496  	-0.004176 
2135.199312  	-0.004010 
2137.128128  	-0.003733 
2139.056944  	-0.003006 
2140.985760  	-0.002993 
2142.914576  	-0.002558 
2144.843392  	-0.003210 
2146.772208  	-0.003610 
2148.701024  	-0.003674 
2150.629840  	-0.003438 
2152.558656  	-0.003591 
2154.487472  	-0.003660 
2156.416288  	-0.004180 
2158.345104  	-0.002193 
2160.273920  	0.000347 
2162.202736  	0.000018 
2164.131552  	-0.002399 
2166.060368  	-0.001914 
2167.989184  	-0.001793 
2169.918000  	-0.002808 
2171.846816  	-0.002968 
2173.775632  	-0.002197 
2175.704448  	-0.001773 
2177.633264  	-0.001567 
2179.562080  	-0.002778 
2181.490896  	-0.002205 
2183.419712  	-0.001507 
2185.348528  	-0.001951 
2187.277344  	-0.002807 
2189.206160  	-0.002435 
2191.134976  	-0.002685 
2193.063792  	-0.003378 
2194.992608  	-0.003436 
2196.921424  	-0.003338 
2198.850240  	-0.004165 
2200.779056  	-0.004661 
2202.707872  	-0.004775 
2204.636688  	-0.004143 
2206.565504  	-0.004198 
2208.494320  	-0.004557 
2210.423136  	-0.004801 
2212.351952  	-0.004281 
2214.280768  	-0.004410 
2216.209584  	-0.004567 
2218.138400  	-0.005264 
2220.067216  	-0.005397 
2221.996032  	-0.005315 
2223.924848  	-0.004678 
2225.853664  	-0.004226 
2227.782480  	-0.003595 
2229.711296  	-0.004488 
2231.640112  	-0.004862 
2233.568928  	-0.005167 
2235.497744  	-0.005180 
2237.426560  	-0.005128 
2239.355376  	-0.004756 
2241.284192  	-0.004955 
2243.213008  	-0.005231 
2245.141824  	-0.004937 
2247.070640  	-0.004802 
2248.999456  	-0.005009 
2250.928272  	-0.005140 
2252.857088  	-0.005152 
2254.785904  	-0.004604 
2256.714720  	-0.004378 
2258.643536  	-0.004361 
2260.572352  	-0.004521 
2262.501168  	-0.004375 
2264.429984  	-0.004165 
2266.358800  	-0.003795 
2268.287616  	-0.004217 
2270.216432  	-0.004744 
2272.145248  	-0.004644 
2274.074064  	-0.004165 
2276.002880  	-0.004360 
2277.931696  	-0.004327 
2279.860512  	-0.004392 
2281.789328  	-0.004299 
2283.718144  	-0.004143 
2285.646960  	-0.003676 
2287.575776  	-0.003509 
2289.504592  	-0.003287 
2291.433408  	-0.003217 
2293.362224  	-0.002956 
2295.291040  	-0.002681 
2297.219856  	-0.002220 
2299.148672  	-0.001961 
2301.077488  	-0.001600 
2303.006304  	-0.001092 
2304.935120  	-0.000405 
2306.863936  	-0.000158 
2308.792752  	-0.000004 
2310.721568  	0.000064 
2312.650384  	-0.000039 
2314.579200  	-0.000370 
2316.508016  	-0.000141 
2318.436832  	0.000258 
2320.365648  	0.000507 
2322.294464  	0.000387 
2324.223280  	-0.000565 
2326.152096  	-0.002037 
2328.080912  	-0.002994 
2330.009728  	-0.003364 
2331.938544  	-0.003797 
2333.867360  	-0.004515 
2335.796176  	-0.005171 
2337.724992  	-0.005900 
2339.653808  	-0.006029 
2341.582624  	-0.005265 
2343.511440  	-0.004301 
2345.440256  	-0.003274 
2347.369072  	-0.002375 
2349.297888  	-0.002000 
2351.226704  	-0.002747 
2353.155520  	-0.004652 
2355.084336  	-0.005839 
2357.013152  	-0.005813 
2358.941968  	-0.005411 
2360.870784  	-0.006000 
2362.799600  	-0.006303 
2364.728416  	-0.005799 
2366.657232  	-0.005007 
2368.586048  	-0.004068 
2370.514864  	-0.003083 
2372.443680  	-0.002268 
2374.372496  	-0.001345 
2376.301312  	-0.001104 
2378.230128  	-0.001014 
2380.158944  	-0.001409 
2382.087760  	-0.002183 
2384.016576  	-0.003183 
2385.945392  	-0.004009 
2387.874208  	-0.004495 
2389.803024  	-0.004865 
2391.731840  	-0.005255 
2393.660656  	-0.005215 
2395.589472  	-0.005084 
2397.518288  	-0.004994 
2399.447104  	-0.005189 
2401.375920  	-0.005278 
2403.304736  	-0.005390 
2405.233552  	-0.005439 
2407.162368  	-0.005555 
2409.091184  	-0.005444 
2411.020000  	-0.005401 
2412.948816  	-0.005547 
2414.877632  	-0.005521 
2416.806448  	-0.005321 
2418.735264  	-0.005209 
2420.664080  	-0.005115 
2422.592896  	-0.005204 
2424.521712  	-0.005159 
2426.450528  	-0.005203 
2428.379344  	-0.005018 
2430.308160  	-0.004911 
2432.236976  	-0.005066 
2434.165792  	-0.004973 
2436.094608  	-0.004689 
2438.023424  	-0.004627 
2439.952240  	-0.004609 
2441.881056  	-0.004545 
2443.809872  	-0.004464 
2445.738688  	-0.004457 
2447.667504  	-0.004435 
2449.596320  	-0.004304 
2451.525136  	-0.004190 
2453.453952  	-0.004157 
2455.382768  	-0.004143 
2457.311584  	-0.004181 
2459.240400  	-0.004256 
2461.169216  	-0.004184 
2463.098032  	-0.004109 
2465.026848  	-0.004242 
2466.955664  	-0.004392 
2468.884480  	-0.004531 
2470.813296  	-0.004390 
2472.742112  	-0.004152 
2474.670928  	-0.003963 
2476.599744  	-0.003980 
2478.528560  	-0.003914 
2480.457376  	-0.003721 
2482.386192  	-0.003301 
2484.315008  	-0.003442 
2486.243824  	-0.003493 
2488.172640  	-0.003290 
2490.101456  	-0.003068 
2492.030272  	-0.002949 
2493.959088  	-0.003056 
2495.887904  	-0.003206 
2497.816720  	-0.003113 
2499.745536  	-0.003056 
2501.674352  	-0.003033 
2503.603168  	-0.002859 
2505.531984  	-0.002679 
2507.460800  	-0.002870 
2509.389616  	-0.003020 
2511.318432  	-0.003093 
2513.247248  	-0.002743 
2515.176064  	-0.002621 
2517.104880  	-0.002700 
2519.033696  	-0.002727 
2520.962512  	-0.002734 
2522.891328  	-0.002804 
2524.820144  	-0.002311 
2526.748960  	-0.002080 
2528.677776  	-0.002171 
2530.606592  	-0.002206 
2532.535408  	-0.002011 
2534.464224  	-0.002046 
2536.393040  	-0.002215 
2538.321856  	-0.002059 
2540.250672  	-0.001860 
2542.179488  	-0.001755 
2544.108304  	-0.001589 
2546.037120  	-0.001454 
2547.965936  	-0.001309 
2549.894752  	-0.001256 
2551.823568  	-0.001103 
2553.752384  	-0.001032 
2555.681200  	-0.001083 
2557.610016  	-0.001160 
2559.538832  	-0.000981 
2561.467648  	-0.000732 
2563.396464  	-0.000609 
2565.325280  	-0.000641 
2567.254096  	-0.000713 
2569.182912  	-0.000592 
2571.111728  	-0.000576 
2573.040544  	-0.000558 
2574.969360  	-0.000198 
2576.898176  	0.000040 
2578.826992  	-0.000003 
2580.755808  	-0.000047 
2582.684624  	0.000014 
2584.613440  	0.000211 
2586.542256  	0.000538 
2588.471072  	0.000467 
2590.399888  	0.000370 
2592.328704  	0.000504 
2594.257520  	0.000739 
2596.186336  	0.000657 
2598.115152  	0.000753 
2600.043968  	0.001003 
2601.972784  	0.001082 
2603.901600  	0.001190 
2605.830416  	0.001257 
2607.759232  	0.001235 
2609.688048  	0.001242 
2611.616864  	0.001387 
2613.545680  	0.001680 
2615.474496  	0.001749 
2617.403312  	0.001848 
2619.332128  	0.002030 
2621.260944  	0.002093 
2623.189760  	0.002145 
2625.118576  	0.002311 
2627.047392  	0.002364 
2628.976208  	0.002554 
2630.905024  	0.002605 
2632.833840  	0.002684 
2634.762656  	0.002799 
2636.691472  	0.003039 
2638.620288  	0.003172 
2640.549104  	0.003223 
2642.477920  	0.003373 
2644.406736  	0.003394 
2646.335552  	0.003464 
2648.264368  	0.003678 
2650.193184  	0.003837 
2652.122000  	0.003970 
2654.050816  	0.004096 
2655.979632  	0.004229 
2657.908448  	0.004328 
2659.837264  	0.004470 
2661.766080  	0.004675 
2663.694896  	0.004779 
2665.623712  	0.004854 
2667.552528  	0.005057 
2669.481344  	0.005132 
2671.410160  	0.005119 
2673.338976  	0.005199 
2675.267792  	0.005447 
2677.196608  	0.005737 
2679.125424  	0.005883 
2681.054240  	0.005990 
2682.983056  	0.006175 
2684.911872  	0.006315 
2686.840688  	0.006412 
2688.769504  	0.006451 
2690.698320  	0.006532 
2692.627136  	0.006647 
2694.555952  	0.006784 
2696.484768  	0.006915 
2698.413584  	0.006934 
2700.342400  	0.006907 
2702.271216  	0.007131 
2704.200032  	0.007312 
2706.128848  	0.007487 
2708.057664  	0.007625 
2709.986480  	0.007670 
2711.915296  	0.007765 
2713.844112  	0.007986 
2715.772928  	0.008228 
2717.701744  	0.008310 
2719.630560  	0.008408 
2721.559376  	0.008576 
2723.488192  	0.008698 
2725.417008  	0.008851 
2727.345824  	0.009009 
2729.274640  	0.009289 
2731.203456  	0.009408 
2733.132272  	0.009427 
2735.061088  	0.009535 
2736.989904  	0.009660 
2738.918720  	0.009860 
2740.847536  	0.009996 
2742.776352  	0.010109 
2744.705168  	0.010275 
2746.633984  	0.010400 
2748.562800  	0.010476 
2750.491616  	0.010476 
2752.420432  	0.010437 
2754.349248  	0.010342 
2756.278064  	0.010376 
2758.206880  	0.010360 
2760.135696  	0.010391 
2762.064512  	0.010439 
2763.993328  	0.010497 
2765.922144  	0.010493 
2767.850960  	0.010482 
2769.779776  	0.010436 
2771.708592  	0.010482 
2773.637408  	0.010487 
2775.566224  	0.010451 
2777.495040  	0.010461 
2779.423856  	0.010497 
2781.352672  	0.010522 
2783.281488  	0.010515 
2785.210304  	0.010508 
2787.139120  	0.010554 
2789.067936  	0.010500 
2790.996752  	0.010448 
2792.925568  	0.010517 
2794.854384  	0.010499 
2796.783200  	0.010404 
2798.712016  	0.010424 
2800.640832  	0.010436 
2802.569648  	0.010526 
2804.498464  	0.010594 
2806.427280  	0.010574 
2808.356096  	0.010578 
2810.284912  	0.010557 
2812.213728  	0.010527 
2814.142544  	0.010605 
2816.071360  	0.010582 
2818.000176  	0.010618 
2819.928992  	0.010730 
2821.857808  	0.010672 
2823.786624  	0.010460 
2825.715440  	0.010542 
2827.644256  	0.010648 
2829.573072  	0.010617 
2831.501888  	0.010609 
2833.430704  	0.010628 
2835.359520  	0.010508 
2837.288336  	0.010331 
2839.217152  	0.010297 
2841.145968  	0.010304 
2843.074784  	0.010240 
2845.003600  	0.010189 
2846.932416  	0.010177 
2848.861232  	0.010359 
2850.790048  	0.010354 
2852.718864  	0.010367 
2854.647680  	0.010377 
2856.576496  	0.010456 
2858.505312  	0.010505 
2860.434128  	0.010568 
2862.362944  	0.010553 
2864.291760  	0.010560 
2866.220576  	0.010660 
2868.149392  	0.010666 
2870.078208  	0.010750 
2872.007024  	0.011047 
2873.935840  	0.011399 
2875.864656  	0.011617 
2877.793472  	0.011810 
2879.722288  	0.012159 
2881.651104  	0.012522 
2883.579920  	0.012784 
2885.508736  	0.013129 
2887.437552  	0.013429 
2889.366368  	0.013447 
2891.295184  	0.013523 
2893.224000  	0.013613 
2895.152816  	0.013768 
2897.081632  	0.013738 
2899.010448  	0.013386 
2900.939264  	0.013167 
2902.868080  	0.013456 
2904.796896  	0.013834 
2906.725712  	0.013984 
2908.654528  	0.014183 
2910.583344  	0.014441 
2912.512160  	0.014704 
2914.440976  	0.015183 
2916.369792  	0.015762 
2918.298608  	0.016232 
2920.227424  	0.016690 
2922.156240  	0.017247 
2924.085056  	0.017829 
2926.013872  	0.018287 
2927.942688  	0.018926 
2929.871504  	0.019587 
2931.800320  	0.020026 
2933.729136  	0.020637 
2935.657952  	0.021354 
2937.586768  	0.022027 
2939.515584  	0.022571 
2941.444400  	0.022983 
2943.373216  	0.023349 
2945.302032  	0.023724 
2947.230848  	0.024003 
2949.159664  	0.024061 
2951.088480  	0.023974 
2953.017296  	0.023950 
2954.946112  	0.023775 
2956.874928  	0.023525 
2958.803744  	0.023340 
2960.732560  	0.023329 
2962.661376  	0.023204 
2964.590192  	0.022942 
2966.519008  	0.022739 
2968.447824  	0.022350 
2970.376640  	0.022029 
2972.305456  	0.021798 
2974.234272  	0.021858 
2976.163088  	0.021782 
2978.091904  	0.021662 
2980.020720  	0.021683 
2981.949536  	0.021631 
2983.878352  	0.021456 
2985.807168  	0.021300 
2987.735984  	0.021264 
2989.664800  	0.021395 
2991.593616  	0.021961 
2993.522432  	0.022349 
2995.451248  	0.022544 
2997.380064  	0.022859 
2999.308880  	0.023311 
3001.237696  	0.023845 
3003.166512  	0.024391 
3005.095328  	0.024756 
3007.024144  	0.025142 
3008.952960  	0.025810 
3010.881776  	0.026508 
3012.810592  	0.027156 
3014.739408  	0.027704 
3016.668224  	0.028175 
3018.597040  	0.028584 
3020.525856  	0.029073 
3022.454672  	0.029536 
3024.383488  	0.030145 
3026.312304  	0.030784 
3028.241120  	0.031206 
3030.169936  	0.031890 
3032.098752  	0.032604 
3034.027568  	0.033018 
3035.956384  	0.033555 
3037.885200  	0.034039 
3039.814016  	0.034565 
3041.742832  	0.034971 
3043.671648  	0.035476 
3045.600464  	0.036045 
3047.529280  	0.036630 
3049.458096  	0.037253 
3051.386912  	0.037695 
3053.315728  	0.038300 
3055.244544  	0.039078 
3057.173360  	0.039765 
3059.102176  	0.040332 
3061.030992  	0.041039 
3062.959808  	0.041711 
3064.888624  	0.042561 
3066.817440  	0.043471 
3068.746256  	0.044215 
3070.675072  	0.044880 
3072.603888  	0.045652 
3074.532704  	0.046360 
3076.461520  	0.047186 
3078.390336  	0.048099 
3080.319152  	0.049108 
3082.247968  	0.049786 
3084.176784  	0.050290 
3086.105600  	0.050989 
3088.034416  	0.051931 
3089.963232  	0.052658 
3091.892048  	0.053307 
3093.820864  	0.054185 
3095.749680  	0.055322 
3097.678496  	0.056247 
3099.607312  	0.057072 
3101.536128  	0.058072 
3103.464944  	0.058821 
3105.393760  	0.059238 
3107.322576  	0.059892 
3109.251392  	0.060826 
3111.180208  	0.061585 
3113.109024  	0.062160 
3115.037840  	0.062930 
3116.966656  	0.063838 
3118.895472  	0.064483 
3120.824288  	0.065046 
3122.753104  	0.065847 
3124.681920  	0.066237 
3126.610736  	0.066714 
3128.539552  	0.067390 
3130.468368  	0.067814 
3132.397184  	0.068608 
3134.326000  	0.069159 
3136.254816  	0.069540 
3138.183632  	0.070229 
3140.112448  	0.070829 
3142.041264  	0.071461 
3143.970080  	0.072111 
3145.898896  	0.072677 
3147.827712  	0.073322 
3149.756528  	0.074097 
3151.685344  	0.074582 
3153.614160  	0.075177 
3155.542976  	0.075671 
3157.471792  	0.076332 
3159.400608  	0.077111 
3161.329424  	0.077809 
3163.258240  	0.078404 
3165.187056  	0.078914 
3167.115872  	0.079258 
3169.044688  	0.079747 
3170.973504  	0.080333 
3172.902320  	0.080611 
3174.831136  	0.080815 
3176.759952  	0.081321 
3178.688768  	0.081941 
3180.617584  	0.082137 
3182.546400  	0.082222 
3184.475216  	0.082354 
3186.404032  	0.082569 
3188.332848  	0.082874 
3190.261664  	0.083101 
3192.190480  	0.083220 
3194.119296  	0.083245 
3196.048112  	0.083147 
3197.976928  	0.083535 
3199.905744  	0.083735 
3201.834560  	0.083505 
3203.763376  	0.083185 
3205.692192  	0.082839 
3207.621008  	0.082905 
3209.549824  	0.083197 
3211.478640  	0.083047 
3213.407456  	0.082838 
3215.336272  	0.082846 
3217.265088  	0.082602 
3219.193904  	0.082771 
3221.122720  	0.082856 
3223.051536  	0.082541 
3224.980352  	0.082172 
3226.909168  	0.082067 
3228.837984  	0.081910 
3230.766800  	0.081646 
3232.695616  	0.081902 
3234.624432  	0.082045 
3236.553248  	0.081989 
3238.482064  	0.082062 
3240.410880  	0.082000 
3242.339696  	0.081834 
3244.268512  	0.081966 
3246.197328  	0.082137 
3248.126144  	0.082080 
3250.054960  	0.082405 
3251.983776  	0.082573 
3253.912592  	0.082774 
3255.841408  	0.083183 
3257.770224  	0.083489 
3259.699040  	0.083567 
3261.627856  	0.083572 
3263.556672  	0.083593 
3265.485488  	0.083983 
3267.414304  	0.084172 
3269.343120  	0.084266 
3271.271936  	0.084414 
3273.200752  	0.084628 
3275.129568  	0.084834 
3277.058384  	0.085058 
3278.987200  	0.084913 
3280.916016  	0.084974 
3282.844832  	0.085212 
3284.773648  	0.085384 
3286.702464  	0.085342 
3288.631280  	0.085666 
3290.560096  	0.086035 
3292.488912  	0.086287 
3294.417728  	0.086316 
3296.346544  	0.086517 
3298.275360  	0.086856 
3300.204176  	0.087026 
3302.132992  	0.087108 
3304.061808  	0.087329 
3305.990624  	0.087478 
3307.919440  	0.087864 
3309.848256  	0.088150 
3311.777072  	0.088256 
3313.705888  	0.088532 
3315.634704  	0.088808 
3317.563520  	0.089089 
3319.492336  	0.089287 
3321.421152  	0.089368 
3323.349968  	0.089437 
3325.278784  	0.089467 
3327.207600  	0.089701 
3329.136416  	0.089524 
3331.065232  	0.089385 
3332.994048  	0.089524 
3334.922864  	0.089799 
3336.851680  	0.089998 
3338.780496  	0.089766 
3340.709312  	0.089281 
3342.638128  	0.089067 
3344.566944  	0.089054 
3346.495760  	0.088801 
3348.424576  	0.088406 
3350.353392  	0.088148 
3352.282208  	0.087856 
3354.211024  	0.087695 
3356.139840  	0.087490 
3358.068656  	0.087069 
3359.997472  	0.086859 
3361.926288  	0.086635 
3363.855104  	0.086236 
3365.783920  	0.085983 
3367.712736  	0.085724 
3369.641552  	0.085318 
3371.570368  	0.084777 
3373.499184  	0.084603 
3375.428000  	0.084495 
3377.356816  	0.084354 
3379.285632  	0.084052 
3381.214448  	0.083559 
3383.143264  	0.083213 
3385.072080  	0.083040 
3387.000896  	0.082468 
3388.929712  	0.081777 
3390.858528  	0.081595 
3392.787344  	0.081809 
3394.716160  	0.081115 
3396.644976  	0.080784 
3398.573792  	0.080442 
3400.502608  	0.079642 
3402.431424  	0.078981 
3404.360240  	0.078543 
3406.289056  	0.077947 
3408.217872  	0.077295 
3410.146688  	0.076849 
3412.075504  	0.076507 
3414.004320  	0.076061 
3415.933136  	0.075650 
3417.861952  	0.075196 
3419.790768  	0.075305 
3421.719584  	0.075182 
3423.648400  	0.074121 
3425.577216  	0.073097 
3427.506032  	0.072499 
3429.434848  	0.072039 
3431.363664  	0.071590 
3433.292480  	0.071049 
3435.221296  	0.070534 
3437.150112  	0.069734 
3439.078928  	0.069009 
3441.007744  	0.068528 
3442.936560  	0.068411 
3444.865376  	0.067789 
3446.794192  	0.068033 
3448.723008  	0.067505 
3450.651824  	0.065768 
3452.580640  	0.064675 
3454.509456  	0.063915 
3456.438272  	0.063364 
3458.367088  	0.062873 
3460.295904  	0.062510 
3462.224720  	0.062154 
3464.153536  	0.061159 
3466.082352  	0.060170 
3468.011168  	0.059394 
3469.939984  	0.058531 
3471.868800  	0.057688 
3473.797616  	0.056869 
3475.726432  	0.056312 
3477.655248  	0.055337 
3479.584064  	0.054684 
3481.512880  	0.054714 
3483.441696  	0.053881 
3485.370512  	0.052405 
3487.299328  	0.051912 
3489.228144  	0.051033 
3491.156960  	0.049687 
3493.085776  	0.049097 
3495.014592  	0.048695 
3496.943408  	0.048121 
3498.872224  	0.047144 
3500.801040  	0.047222 
3502.729856  	0.047778 
3504.658672  	0.046699 
3506.587488  	0.044393 
3508.516304  	0.044028 
3510.445120  	0.044243 
3512.373936  	0.042890 
3514.302752  	0.041531 
3516.231568  	0.040712 
3518.160384  	0.040265 
3520.089200  	0.039574 
3522.018016  	0.039664 
3523.946832  	0.040528 
3525.875648  	0.039733 
3527.804464  	0.038880 
3529.733280  	0.037792 
3531.662096  	0.036077 
3533.590912  	0.034551 
3535.519728  	0.034644 
3537.448544  	0.034421 
3539.377360  	0.032815 
3541.306176  	0.032002 
3543.234992  	0.032569 
3545.163808  	0.034120 
3547.092624  	0.033764 
3549.021440  	0.030895 
3550.950256  	0.029676 
3552.879072  	0.030182 
3554.807888  	0.028516 
3556.736704  	0.026843 
3558.665520  	0.026696 
3560.594336  	0.026752 
3562.523152  	0.026204 
3564.451968  	0.026957 
3566.380784  	0.030605 
3568.309600  	0.030078 
3570.238416  	0.024832 
3572.167232  	0.021946 
3574.096048  	0.021095 
3576.024864  	0.020641 
3577.953680  	0.019954 
3579.882496  	0.019563 
3581.811312  	0.018657 
3583.740128  	0.017912 
3585.668944  	0.019184 
3587.597760  	0.022224 
3589.526576  	0.019069 
3591.455392  	0.015309 
3593.384208  	0.015475 
3595.313024  	0.016153 
3597.241840  	0.014737 
3599.170656  	0.013145 
3601.099472  	0.012485 
3603.028288  	0.010956 
3604.957104  	0.009721 
3606.885920  	0.010927 
3608.814736  	0.011834 
3610.743552  	0.009695 
3612.672368  	0.009701 
3614.601184  	0.009707 
3616.530000  	0.008073 
3618.458816  	0.008181 
3620.387632  	0.006978 
3622.316448  	0.003708 
3624.245264  	0.002243 
3626.174080  	0.002475 
3628.102896  	0.004702 
3630.031712  	0.005047 
3631.960528  	0.001010 
3633.889344  	-0.000454 
3635.818160  	-0.001980 
3637.746976  	-0.003275 
3639.675792  	-0.004095 
3641.604608  	-0.004444 
3643.533424  	-0.004807 
3645.462240  	-0.004439 
3647.391056  	-0.001024 
3649.319872  	0.000489 
3651.248688  	-0.002688 
3653.177504  	-0.007565 
3655.106320  	-0.008871 
3657.035136  	-0.008806 
3658.963952  	-0.010479 
3660.892768  	-0.011605 
3662.821584  	-0.012413 
3664.750400  	-0.012852 
3666.679216  	-0.012477 
3668.608032  	-0.010623 
3670.536848  	-0.008977 
3672.465664  	-0.010945 
3674.394480  	-0.010363 
3676.323296  	-0.008785 
3678.252112  	-0.011346 
3680.180928  	-0.013174 
3682.109744  	-0.014790 
3684.038560  	-0.015124 
3685.967376  	-0.014922 
3687.896192  	-0.012955 
3689.825008  	-0.011185 
3691.753824  	-0.013071 
3693.682640  	-0.014934 
3695.611456  	-0.015447 
3697.540272  	-0.015640 
3699.469088  	-0.015960 
3701.397904  	-0.014977 
3703.326720  	-0.015028 
3705.255536  	-0.015599 
3707.184352  	-0.015074 
3709.113168  	-0.013518 
3711.041984  	-0.011516 
3712.970800  	-0.012369 
3714.899616  	-0.014397 
3716.828432  	-0.015338 
3718.757248  	-0.014736 
3720.686064  	-0.014022 
3722.614880  	-0.013136 
3724.543696  	-0.012688 
3726.472512  	-0.012467 
3728.401328  	-0.014326 
3730.330144  	-0.015296 
3732.258960  	-0.013643 
3734.187776  	-0.009900 
3736.116592  	-0.007629 
3738.045408  	-0.011116 
3739.974224  	-0.012784 
3741.903040  	-0.013155 
3743.831856  	-0.012410 
3745.760672  	-0.011603 
3747.689488  	-0.012425 
3749.618304  	-0.010728 
3751.547120  	-0.009645 
3753.475936  	-0.012239 
3755.404752  	-0.014309 
3757.333568  	-0.014108 
3759.262384  	-0.013432 
3761.191200  	-0.014764 
3763.120016  	-0.016000 
3765.048832  	-0.014872 
3766.977648  	-0.014693 
3768.906464  	-0.014705 
3770.835280  	-0.014822 
3772.764096  	-0.016290 
3774.692912  	-0.016956 
3776.621728  	-0.016771 
3778.550544  	-0.015423 
3780.479360  	-0.015094 
3782.408176  	-0.016191 
3784.336992  	-0.015705 
3786.265808  	-0.015754 
3788.194624  	-0.016668 
3790.123440  	-0.016984 
3792.052256  	-0.017064 
3793.981072  	-0.016891 
3795.909888  	-0.015264 
3797.838704  	-0.014072 
3799.767520  	-0.014143 
3801.696336  	-0.012496 
3803.625152  	-0.014371 
3805.553968  	-0.015629 
3807.482784  	-0.014926 
3809.411600  	-0.016253 
3811.340416  	-0.016899 
3813.269232  	-0.016700 
3815.198048  	-0.014867 
3817.126864  	-0.013619 
3819.055680  	-0.013852 
3820.984496  	-0.011904 
3822.913312  	-0.013511 
3824.842128  	-0.015226 
3826.770944  	-0.015117 
3828.699760  	-0.015748 
3830.628576  	-0.015551 
3832.557392  	-0.014944 
3834.486208  	-0.015142 
3836.415024  	-0.014220 
3838.343840  	-0.012252 
3840.272656  	-0.011831 
3842.201472  	-0.013396 
3844.130288  	-0.014318 
3846.059104  	-0.015707 
3847.987920  	-0.016088 
3849.916736  	-0.015041 
3851.845552  	-0.012473 
3853.774368  	-0.009315 
3855.703184  	-0.012108 
3857.632000  	-0.014175 
3859.560816  	-0.015438 
3861.489632  	-0.014613 
3863.418448  	-0.013088 
3865.347264  	-0.012524 
3867.276080  	-0.014081 
3869.204896  	-0.012396 
3871.133712  	-0.011629 
3873.062528  	-0.013547 
3874.991344  	-0.014395 
3876.920160  	-0.016324 
3878.848976  	-0.015537 
3880.777792  	-0.013093 
3882.706608  	-0.013579 
3884.635424  	-0.013721 
3886.564240  	-0.014205 
3888.493056  	-0.016337 
3890.421872  	-0.015452 
3892.350688  	-0.014189 
3894.279504  	-0.015483 
3896.208320  	-0.016315 
3898.137136  	-0.014772 
3900.065952  	-0.012379 
3901.994768  	-0.011823 
3903.923584  	-0.011576 
3905.852400  	-0.013292 
3907.781216  	-0.016178 
3909.710032  	-0.017587 
3911.638848  	-0.017872 
3913.567664  	-0.017459 
3915.496480  	-0.015839 
3917.425296  	-0.014243 
3919.354112  	-0.014798 
3921.282928  	-0.015419 
3923.211744  	-0.014962 
3925.140560  	-0.014484 
3927.069376  	-0.016139 
3928.998192  	-0.016010 
3930.927008  	-0.014543 
3932.855824  	-0.014403 
3934.784640  	-0.016257 
3936.713456  	-0.017059 
3938.642272  	-0.017170 
3940.571088  	-0.016793 
3942.499904  	-0.014916 
3944.428720  	-0.015258 
3946.357536  	-0.016066 
3948.286352  	-0.015011 
3950.215168  	-0.015559 
3952.143984  	-0.016975 
3954.072800  	-0.017527 
3956.001616  	-0.017241 
3957.930432  	-0.016950 
3959.859248  	-0.016639 
3961.788064  	-0.016259 
3963.716880  	-0.016618 
3965.645696  	-0.017433 
3967.574512  	-0.017485 
3969.503328  	-0.017379 
3971.432144  	-0.017270 
3973.360960  	-0.016727 
3975.289776  	-0.016157 
3977.218592  	-0.016606 
3979.147408  	-0.017183 
3981.076224  	-0.017147 
3983.005040  	-0.017231 
3984.933856  	-0.017265 
3986.862672  	-0.017264 
3988.791488  	-0.017237 
3990.720304  	-0.016922 
3992.649120  	-0.017127 
3994.577936  	-0.017191 
3996.506752  	-0.017306 
3998.435568  	-0.017494 
4000.364384  	-0.017541 