##TITLE=No Description
##DATA TYPE=INFRARED SPECTRUM
##XUNITS=1/CM
##YUNITS=Abs
399.264912  	0.378763 
401.193728  	0.378931 
403.122544  	0.377953 
405.051360  	0.361721 
406.980176  	0.363964 
408.908992  	0.370046 
410.837808  	0.374378 
412.766624  	0.372938 
414.695440  	0.375269 
416.624256  	0.375662 
418.553072  	0.379114 
420.481888  	0.370445 
422.410704  	0.369275 
424.339520  	0.359867 
426.268336  	0.349850 
428.197152  	0.349042 
430.125968  	0.347860 
432.054784  	0.338111 
433.983600  	0.337675 
435.912416  	0.340690 
437.841232  	0.340256 
439.770048  	0.336900 
441.698864  	0.338700 
443.627680  	0.335282 
445.556496  	0.334478 
447.485312  	0.331685 
449.414128  	0.333011 
451.342944  	0.332242 
453.271760  	0.329417 
455.200576  	0.323857 
457.129392  	0.325671 
459.058208  	0.328535 
460.987024  	0.327790 
462.915840  	0.324006 
464.844656  	0.323885 
466.773472  	0.326634 
468.702288  	0.323728 
470.631104  	0.319796 
472.559920  	0.325132 
474.488736  	0.323115 
476.417552  	0.320357 
478.346368  	0.318584 
480.275184  	0.319640 
482.204000  	0.319901 
484.132816  	0.319307 
486.061632  	0.318585 
487.990448  	0.316872 
489.919264  	0.317294 
491.848080  	0.317357 
493.776896  	0.314201 
495.705712  	0.312047 
497.634528  	0.309902 
499.563344  	0.311588 
501.492160  	0.313241 
503.420976  	0.312954 
505.349792  	0.309138 
507.278608  	0.310197 
509.207424  	0.308194 
511.136240  	0.307558 
513.065056  	0.307495 
514.993872  	0.309552 
516.922688  	0.311084 
518.851504  	0.314304 
520.780320  	0.313297 
522.709136  	0.310460 
524.637952  	0.308145 
526.566768  	0.306773 
528.495584  	0.304820 
530.424400  	0.303301 
532.353216  	0.300619 
534.282032  	0.297591 
536.210848  	0.295705 
538.139664  	0.292945 
540.068480  	0.288536 
541.997296  	0.285641 
543.926112  	0.283557 
545.854928  	0.282032 
547.783744  	0.279386 
549.712560  	0.278129 
551.641376  	0.274672 
553.570192  	0.272142 
555.499008  	0.269493 
557.427824  	0.268335 
559.356640  	0.265209 
561.285456  	0.262792 
563.214272  	0.260723 
565.143088  	0.258834 
567.071904  	0.256486 
569.000720  	0.254210 
570.929536  	0.252721 
572.858352  	0.251149 
574.787168  	0.249727 
576.715984  	0.248213 
578.644800  	0.244899 
580.573616  	0.241713 
582.502432  	0.237993 
584.431248  	0.235184 
586.360064  	0.232444 
588.288880  	0.230842 
590.217696  	0.230081 
592.146512  	0.229232 
594.075328  	0.226827 
596.004144  	0.224967 
597.932960  	0.223211 
599.861776  	0.222595 
601.790592  	0.221382 
603.719408  	0.220524 
605.648224  	0.219818 
607.577040  	0.219041 
609.505856  	0.217942 
611.434672  	0.216629 
613.363488  	0.215751 
615.292304  	0.215539 
617.221120  	0.214872 
619.149936  	0.213791 
621.078752  	0.212198 
623.007568  	0.211215 
624.936384  	0.210347 
626.865200  	0.209660 
628.794016  	0.208786 
630.722832  	0.208237 
632.651648  	0.208134 
634.580464  	0.208324 
636.509280  	0.207961 
638.438096  	0.207600 
640.366912  	0.207080 
642.295728  	0.206123 
644.224544  	0.204529 
646.153360  	0.202843 
648.082176  	0.200741 
650.010992  	0.198813 
651.939808  	0.196393 
653.868624  	0.193700 
655.797440  	0.190696 
657.726256  	0.188394 
659.655072  	0.186235 
661.583888  	0.183649 
663.512704  	0.181370 
665.441520  	0.178557 
667.370336  	0.176948 
669.299152  	0.176805 
671.227968  	0.172343 
673.156784  	0.169358 
675.085600  	0.167847 
677.014416  	0.165732 
678.943232  	0.164182 
680.872048  	0.163728 
682.800864  	0.162748 
684.729680  	0.161491 
686.658496  	0.160300 
688.587312  	0.159760 
690.516128  	0.158841 
692.444944  	0.158180 
694.373760  	0.157298 
696.302576  	0.156382 
698.231392  	0.155090 
700.160208  	0.153232 
702.089024  	0.151040 
704.017840  	0.149461 
705.946656  	0.147993 
707.875472  	0.146235 
709.804288  	0.145037 
711.733104  	0.143870 
713.661920  	0.142571 
715.590736  	0.141539 
717.519552  	0.141468 
719.448368  	0.142140 
721.377184  	0.142425 
723.306000  	0.142586 
725.234816  	0.142862 
727.163632  	0.142631 
729.092448  	0.141257 
731.021264  	0.139540 
732.950080  	0.137471 
734.878896  	0.135054 
736.807712  	0.132782 
738.736528  	0.131039 
740.665344  	0.129835 
742.594160  	0.129082 
744.522976  	0.128145 
746.451792  	0.127205 
748.380608  	0.126129 
750.309424  	0.125004 
752.238240  	0.124201 
754.167056  	0.123662 
756.095872  	0.122973 
758.024688  	0.122256 
759.953504  	0.121889 
761.882320  	0.122484 
763.811136  	0.123066 
765.739952  	0.122270 
767.668768  	0.120537 
769.597584  	0.119268 
771.526400  	0.118861 
773.455216  	0.119732 
775.384032  	0.122000 
777.312848  	0.125523 
779.241664  	0.128475 
781.170480  	0.128523 
783.099296  	0.125871 
785.028112  	0.122466 
786.956928  	0.118953 
788.885744  	0.116132 
790.814560  	0.114013 
792.743376  	0.112736 
794.672192  	0.112204 
796.601008  	0.111530 
798.529824  	0.109502 
800.458640  	0.106614 
802.387456  	0.104427 
804.316272  	0.103330 
806.245088  	0.102576 
808.173904  	0.101798 
810.102720  	0.101451 
812.031536  	0.101377 
813.960352  	0.101354 
815.889168  	0.101611 
817.817984  	0.102097 
819.746800  	0.102662 
821.675616  	0.102873 
823.604432  	0.102834 
825.533248  	0.102847 
827.462064  	0.103034 
829.390880  	0.102725 
831.319696  	0.102286 
833.248512  	0.101589 
835.177328  	0.100401 
837.106144  	0.098780 
839.034960  	0.096989 
840.963776  	0.094746 
842.892592  	0.092412 
844.821408  	0.089948 
846.750224  	0.087669 
848.679040  	0.085974 
850.607856  	0.084754 
852.536672  	0.083834 
854.465488  	0.082860 
856.394304  	0.081857 
858.323120  	0.080698 
860.251936  	0.079541 
862.180752  	0.078432 
864.109568  	0.076788 
866.038384  	0.075297 
867.967200  	0.073985 
869.896016  	0.072748 
871.824832  	0.071895 
873.753648  	0.071788 
875.682464  	0.071948 
877.611280  	0.072746 
879.540096  	0.073725 
881.468912  	0.074800 
883.397728  	0.076104 
885.326544  	0.077233 
887.255360  	0.077944 
889.184176  	0.077996 
891.112992  	0.077452 
893.041808  	0.076557 
894.970624  	0.075017 
896.899440  	0.072596 
898.828256  	0.069954 
900.757072  	0.067446 
902.685888  	0.065255 
904.614704  	0.064084 
906.543520  	0.063766 
908.472336  	0.064758 
910.401152  	0.066461 
912.329968  	0.068441 
914.258784  	0.070237 
916.187600  	0.072288 
918.116416  	0.074064 
920.045232  	0.075089 
921.974048  	0.075768 
923.902864  	0.076383 
925.831680  	0.076890 
927.760496  	0.077235 
929.689312  	0.077764 
931.618128  	0.078685 
933.546944  	0.079397 
935.475760  	0.079649 
937.404576  	0.079689 
939.333392  	0.079541 
941.262208  	0.079687 
943.191024  	0.080798 
945.119840  	0.083037 
947.048656  	0.086662 
948.977472  	0.091817 
950.906288  	0.098014 
952.835104  	0.105133 
954.763920  	0.113032 
956.692736  	0.120555 
958.621552  	0.127099 
960.550368  	0.131759 
962.479184  	0.134298 
964.408000  	0.134182 
966.336816  	0.131618 
968.265632  	0.126436 
970.194448  	0.119494 
972.123264  	0.111282 
974.052080  	0.102649 
975.980896  	0.094086 
977.909712  	0.085708 
979.838528  	0.078436 
981.767344  	0.072574 
983.696160  	0.068174 
985.624976  	0.065394 
987.553792  	0.064538 
989.482608  	0.065553 
991.411424  	0.068332 
993.340240  	0.072454 
995.269056  	0.077121 
997.197872  	0.082043 
999.126688  	0.086853 
1001.055504  	0.091851 
1002.984320  	0.096473 
1004.913136  	0.101050 
1006.841952  	0.105308 
1008.770768  	0.109041 
1010.699584  	0.111721 
1012.628400  	0.113715 
1014.557216  	0.115151 
1016.486032  	0.115691 
1018.414848  	0.115647 
1020.343664  	0.115404 
1022.272480  	0.115225 
1024.201296  	0.114773 
1026.130112  	0.114033 
1028.058928  	0.114141 
1029.987744  	0.115377 
1031.916560  	0.116802 
1033.845376  	0.118263 
1035.774192  	0.120446 
1037.703008  	0.123511 
1039.631824  	0.128412 
1041.560640  	0.134763 
1043.489456  	0.142659 
1045.418272  	0.151326 
1047.347088  	0.159993 
1049.275904  	0.166416 
1051.204720  	0.169991 
1053.133536  	0.171110 
1055.062352  	0.170344 
1056.991168  	0.168432 
1058.919984  	0.166871 
1060.848800  	0.165591 
1062.777616  	0.163732 
1064.706432  	0.161243 
1066.635248  	0.158713 
1068.564064  	0.155795 
1070.492880  	0.152068 
1072.421696  	0.148057 
1074.350512  	0.145505 
1076.279328  	0.144608 
1078.208144  	0.145870 
1080.136960  	0.147999 
1082.065776  	0.149714 
1083.994592  	0.149505 
1085.923408  	0.147518 
1087.852224  	0.143674 
1089.781040  	0.139038 
1091.709856  	0.133335 
1093.638672  	0.126701 
1095.567488  	0.119220 
1097.496304  	0.111617 
1099.425120  	0.103951 
1101.353936  	0.096364 
1103.282752  	0.089251 
1105.211568  	0.082404 
1107.140384  	0.076189 
1109.069200  	0.070489 
1110.998016  	0.065285 
1112.926832  	0.060619 
1114.855648  	0.056352 
1116.784464  	0.052116 
1118.713280  	0.047972 
1120.642096  	0.044157 
1122.570912  	0.040725 
1124.499728  	0.037478 
1126.428544  	0.034702 
1128.357360  	0.032086 
1130.286176  	0.029761 
1132.214992  	0.028042 
1134.143808  	0.026733 
1136.072624  	0.025541 
1138.001440  	0.024294 
1139.930256  	0.023084 
1141.859072  	0.022030 
1143.787888  	0.020865 
1145.716704  	0.019823 
1147.645520  	0.019022 
1149.574336  	0.018543 
1151.503152  	0.017879 
1153.431968  	0.017582 
1155.360784  	0.017725 
1157.289600  	0.018488 
1159.218416  	0.019435 
1161.147232  	0.020487 
1163.076048  	0.021780 
1165.004864  	0.023046 
1166.933680  	0.024304 
1168.862496  	0.025767 
1170.791312  	0.027371 
1172.720128  	0.029329 
1174.648944  	0.031196 
1176.577760  	0.032927 
1178.506576  	0.034962 
1180.435392  	0.037119 
1182.364208  	0.039153 
1184.293024  	0.041505 
1186.221840  	0.044308 
1188.150656  	0.047155 
1190.079472  	0.050414 
1192.008288  	0.054384 
1193.937104  	0.058840 
1195.865920  	0.063724 
1197.794736  	0.068930 
1199.723552  	0.074601 
1201.652368  	0.080105 
1203.581184  	0.085025 
1205.510000  	0.089831 
1207.438816  	0.094111 
1209.367632  	0.097736 
1211.296448  	0.100734 
1213.225264  	0.102965 
1215.154080  	0.104052 
1217.082896  	0.104561 
1219.011712  	0.104568 
1220.940528  	0.104132 
1222.869344  	0.103216 
1224.798160  	0.102056 
1226.726976  	0.100366 
1228.655792  	0.098362 
1230.584608  	0.096350 
1232.513424  	0.093854 
1234.442240  	0.090933 
1236.371056  	0.087989 
1238.299872  	0.084768 
1240.228688  	0.080856 
1242.157504  	0.077140 
1244.086320  	0.073645 
1246.015136  	0.069701 
1247.943952  	0.065720 
1249.872768  	0.061810 
1251.801584  	0.058242 
1253.730400  	0.054741 
1255.659216  	0.051266 
1257.588032  	0.048014 
1259.516848  	0.045250 
1261.445664  	0.042351 
1263.374480  	0.039450 
1265.303296  	0.037158 
1267.232112  	0.035528 
1269.160928  	0.034571 
1271.089744  	0.033809 
1273.018560  	0.033084 
1274.947376  	0.032884 
1276.876192  	0.033282 
1278.805008  	0.033557 
1280.733824  	0.033281 
1282.662640  	0.032226 
1284.591456  	0.031110 
1286.520272  	0.030408 
1288.449088  	0.029968 
1290.377904  	0.029427 
1292.306720  	0.029529 
1294.235536  	0.029702 
1296.164352  	0.029507 
1298.093168  	0.028384 
1300.021984  	0.026821 
1301.950800  	0.025150 
1303.879616  	0.023388 
1305.808432  	0.021668 
1307.737248  	0.020096 
1309.666064  	0.018323 
1311.594880  	0.017568 
1313.523696  	0.017175 
1315.452512  	0.016453 
1317.381328  	0.016571 
1319.310144  	0.016739 
1321.238960  	0.016188 
1323.167776  	0.016046 
1325.096592  	0.016251 
1327.025408  	0.016342 
1328.954224  	0.016309 
1330.883040  	0.016040 
1332.811856  	0.015342 
1334.740672  	0.015122 
1336.669488  	0.016448 
1338.598304  	0.018778 
1340.527120  	0.017902 
1342.455936  	0.014258 
1344.384752  	0.013191 
1346.313568  	0.013524 
1348.242384  	0.014189 
1350.171200  	0.014932 
1352.100016  	0.015809 
1354.028832  	0.017357 
1355.957648  	0.018799 
1357.886464  	0.019885 
1359.815280  	0.021894 
1361.744096  	0.025586 
1363.672912  	0.026690 
1365.601728  	0.024921 
1367.530544  	0.025685 
1369.459360  	0.026749 
1371.388176  	0.026725 
1373.316992  	0.028003 
1375.245808  	0.027354 
1377.174624  	0.024395 
1379.103440  	0.022429 
1381.032256  	0.020162 
1382.961072  	0.018341 
1384.889888  	0.017961 
1386.818704  	0.019392 
1388.747520  	0.017701 
1390.676336  	0.015042 
1392.605152  	0.014486 
1394.533968  	0.016439 
1396.462784  	0.017398 
1398.391600  	0.016887 
1400.320416  	0.015224 
1402.249232  	0.014008 
1404.178048  	0.015619 
1406.106864  	0.016132 
1408.035680  	0.015993 
1409.964496  	0.017397 
1411.893312  	0.018875 
1413.822128  	0.019887 
1415.750944  	0.022741 
1417.679760  	0.026498 
1419.608576  	0.027140 
1421.537392  	0.024382 
1423.466208  	0.024137 
1425.395024  	0.022372 
1427.323840  	0.020150 
1429.252656  	0.020030 
1431.181472  	0.019167 
1433.110288  	0.018201 
1435.039104  	0.019248 
1436.967920  	0.021029 
1438.896736  	0.019113 
1440.825552  	0.018197 
1442.754368  	0.018271 
1444.683184  	0.018332 
1446.612000  	0.019548 
1448.540816  	0.020232 
1450.469632  	0.019502 
1452.398448  	0.020105 
1454.327264  	0.021660 
1456.256080  	0.026406 
1458.184896  	0.028041 
1460.113712  	0.022476 
1462.042528  	0.019646 
1463.971344  	0.020564 
1465.900160  	0.021741 
1467.828976  	0.021153 
1469.757792  	0.022352 
1471.686608  	0.028137 
1473.615424  	0.034796 
1475.544240  	0.035241 
1477.473056  	0.035824 
1479.401872  	0.036066 
1481.330688  	0.038253 
1483.259504  	0.038876 
1485.188320  	0.039675 
1487.117136  	0.042327 
1489.045952  	0.045742 
1490.974768  	0.043184 
1492.903584  	0.037166 
1494.832400  	0.034721 
1496.761216  	0.034468 
1498.690032  	0.031251 
1500.618848  	0.027199 
1502.547664  	0.023782 
1504.476480  	0.022699 
1506.405296  	0.029577 
1508.334112  	0.031343 
1510.262928  	0.023824 
1512.191744  	0.019295 
1514.120560  	0.018493 
1516.049376  	0.021795 
1517.978192  	0.022587 
1519.907008  	0.022896 
1521.835824  	0.027239 
1523.764640  	0.026417 
1525.693456  	0.027753 
1527.622272  	0.028118 
1529.551088  	0.025938 
1531.479904  	0.025305 
1533.408720  	0.026613 
1535.337536  	0.023586 
1537.266352  	0.021387 
1539.195168  	0.023923 
1541.123984  	0.025835 
1543.052800  	0.023205 
1544.981616  	0.020141 
1546.910432  	0.015036 
1548.839248  	0.014940 
1550.768064  	0.016097 
1552.696880  	0.014972 
1554.625696  	0.016868 
1556.554512  	0.017890 
1558.483328  	0.024054 
1560.412144  	0.023889 
1562.340960  	0.020100 
1564.269776  	0.020923 
1566.198592  	0.023447 
1568.127408  	0.025765 
1570.056224  	0.031483 
1571.985040  	0.032194 
1573.913856  	0.032816 
1575.842672  	0.036908 
1577.771488  	0.039319 
1579.700304  	0.036287 
1581.629120  	0.035106 
1583.557936  	0.034715 
1585.486752  	0.035372 
1587.415568  	0.036665 
1589.344384  	0.039471 
1591.273200  	0.042556 
1593.202016  	0.046470 
1595.130832  	0.050742 
1597.059648  	0.054260 
1598.988464  	0.056770 
1600.917280  	0.059862 
1602.846096  	0.062195 
1604.774912  	0.063143 
1606.703728  	0.063155 
1608.632544  	0.063580 
1610.561360  	0.062480 
1612.490176  	0.060907 
1614.418992  	0.059218 
1616.347808  	0.062266 
1618.276624  	0.064823 
1620.205440  	0.063542 
1622.134256  	0.065341 
1624.063072  	0.071310 
1625.991888  	0.072732 
1627.920704  	0.076858 
1629.849520  	0.080551 
1631.778336  	0.082020 
1633.707152  	0.083597 
1635.635968  	0.094135 
1637.564784  	0.100921 
1639.493600  	0.097880 
1641.422416  	0.097390 
1643.351232  	0.096763 
1645.280048  	0.097116 
1647.208864  	0.105755 
1649.137680  	0.102640 
1651.066496  	0.094298 
1652.995312  	0.099778 
1654.924128  	0.105488 
1656.852944  	0.096106 
1658.781760  	0.091312 
1660.710576  	0.088985 
1662.639392  	0.089599 
1664.568208  	0.087393 
1666.497024  	0.082669 
1668.425840  	0.082021 
1670.354656  	0.083357 
1672.283472  	0.079216 
1674.212288  	0.075764 
1676.141104  	0.076532 
1678.069920  	0.073532 
1679.998736  	0.073731 
1681.927552  	0.072499 
1683.856368  	0.075412 
1685.785184  	0.076664 
1687.714000  	0.071773 
1689.642816  	0.070568 
1691.571632  	0.067828 
1693.500448  	0.064750 
1695.429264  	0.066827 
1697.358080  	0.069789 
1699.286896  	0.066321 
1701.215712  	0.067883 
1703.144528  	0.062864 
1705.073344  	0.060850 
1707.002160  	0.058252 
1708.930976  	0.053553 
1710.859792  	0.050129 
1712.788608  	0.047497 
1714.717424  	0.046361 
1716.646240  	0.044336 
1718.575056  	0.037661 
1720.503872  	0.029289 
1722.432688  	0.024213 
1724.361504  	0.019566 
1726.290320  	0.014974 
1728.219136  	0.012663 
1730.147952  	0.012037 
1732.076768  	0.010878 
1734.005584  	0.009641 
1735.934400  	0.004676 
1737.863216  	0.002871 
1739.792032  	0.001815 
1741.720848  	0.000826 
1743.649664  	0.001259 
1745.578480  	0.000595 
1747.507296  	0.001161 
1749.436112  	0.001806 
1751.364928  	-0.000439 
1753.293744  	-0.003952 
1755.222560  	-0.004667 
1757.151376  	-0.003635 
1759.080192  	-0.004487 
1761.009008  	-0.004481 
1762.937824  	-0.005490 
1764.866640  	-0.006731 
1766.795456  	-0.005729 
1768.724272  	-0.004639 
1770.653088  	-0.004367 
1772.581904  	-0.003675 
1774.510720  	-0.005099 
1776.439536  	-0.006446 
1778.368352  	-0.007100 
1780.297168  	-0.006536 
1782.225984  	-0.007472 
1784.154800  	-0.007576 
1786.083616  	-0.008282 
1788.012432  	-0.008670 
1789.941248  	-0.006680 
1791.870064  	-0.004687 
1793.798880  	-0.006404 
1795.727696  	-0.007170 
1797.656512  	-0.007926 
1799.585328  	-0.007627 
1801.514144  	-0.006964 
1803.442960  	-0.008297 
1805.371776  	-0.009355 
1807.300592  	-0.009086 
1809.229408  	-0.008757 
1811.158224  	-0.008498 
1813.087040  	-0.009539 
1815.015856  	-0.010404 
1816.944672  	-0.009943 
1818.873488  	-0.009785 
1820.802304  	-0.009785 
1822.731120  	-0.008939 
1824.659936  	-0.008171 
1826.588752  	-0.008558 
1828.517568  	-0.008285 
1830.446384  	-0.008258 
1832.375200  	-0.009937 
1834.304016  	-0.010068 
1836.232832  	-0.009796 
1838.161648  	-0.009808 
1840.090464  	-0.010238 
1842.019280  	-0.009206 
1843.948096  	-0.008015 
1845.876912  	-0.008387 
1847.805728  	-0.009473 
1849.734544  	-0.010859 
1851.663360  	-0.011336 
1853.592176  	-0.011005 
1855.520992  	-0.010972 
1857.449808  	-0.010799 
1859.378624  	-0.011218 
1861.307440  	-0.011135 
1863.236256  	-0.011224 
1865.165072  	-0.010607 
1867.093888  	-0.008908 
1869.022704  	-0.007905 
1870.951520  	-0.009899 
1872.880336  	-0.011312 
1874.809152  	-0.011871 
1876.737968  	-0.011782 
1878.666784  	-0.011845 
1880.595600  	-0.011971 
1882.524416  	-0.011767 
1884.453232  	-0.011393 
1886.382048  	-0.011589 
1888.310864  	-0.010659 
1890.239680  	-0.010569 
1892.168496  	-0.011227 
1894.097312  	-0.010888 
1896.026128  	-0.010981 
1897.954944  	-0.011559 
1899.883760  	-0.011545 
1901.812576  	-0.011623 
1903.741392  	-0.011706 
1905.670208  	-0.011880 
1907.599024  	-0.011489 
1909.527840  	-0.011182 
1911.456656  	-0.011171 
1913.385472  	-0.011243 
1915.314288  	-0.010920 
1917.243104  	-0.010420 
1919.171920  	-0.010261 
1921.100736  	-0.010328 
1923.029552  	-0.010158 
1924.958368  	-0.012031 
1926.887184  	-0.012461 
1928.816000  	-0.012478 
1930.744816  	-0.012060 
1932.673632  	-0.011875 
1934.602448  	-0.011827 
1936.531264  	-0.012127 
1938.460080  	-0.011653 
1940.388896  	-0.010551 
1942.317712  	-0.009522 
1944.246528  	-0.011685 
1946.175344  	-0.012463 
1948.104160  	-0.012068 
1950.032976  	-0.011706 
1951.961792  	-0.012533 
1953.890608  	-0.012604 
1955.819424  	-0.013004 
1957.748240  	-0.013373 
1959.677056  	-0.013494 
1961.605872  	-0.013064 
1963.534688  	-0.012776 
1965.463504  	-0.011213 
1967.392320  	-0.011903 
1969.321136  	-0.013124 
1971.249952  	-0.014079 
1973.178768  	-0.013448 
1975.107584  	-0.011205 
1977.036400  	-0.010201 
1978.965216  	-0.012192 
1980.894032  	-0.012630 
1982.822848  	-0.012316 
1984.751664  	-0.011370 
1986.680480  	-0.010207 
1988.609296  	-0.009929 
1990.538112  	-0.010107 
1992.466928  	-0.009860 
1994.395744  	-0.011066 
1996.324560  	-0.011653 
1998.253376  	-0.011740 
2000.182192  	-0.011730 
2002.111008  	-0.012017 
2004.039824  	-0.011608 
2005.968640  	-0.011895 
2007.897456  	-0.011478 
2009.826272  	-0.011863 
2011.755088  	-0.012192 
2013.683904  	-0.012680 
2015.612720  	-0.011134 
2017.541536  	-0.010402 
2019.470352  	-0.010577 
2021.399168  	-0.011682 
2023.327984  	-0.011771 
2025.256800  	-0.011207 
2027.185616  	-0.009950 
2029.114432  	-0.010139 
2031.043248  	-0.010678 
2032.972064  	-0.010986 
2034.900880  	-0.010321 
2036.829696  	-0.010273 
2038.758512  	-0.010063 
2040.687328  	-0.010881 
2042.616144  	-0.010938 
2044.544960  	-0.010751 
2046.473776  	-0.010439 
2048.402592  	-0.010425 
2050.331408  	-0.010790 
2052.260224  	-0.011169 
2054.189040  	-0.010816 
2056.117856  	-0.011226 
2058.046672  	-0.010458 
2059.975488  	-0.010006 
2061.904304  	-0.009928 
2063.833120  	-0.010085 
2065.761936  	-0.010083 
2067.690752  	-0.010542 
2069.619568  	-0.010367 
2071.548384  	-0.010775 
2073.477200  	-0.010606 
2075.406016  	-0.009931 
2077.334832  	-0.009449 
2079.263648  	-0.009313 
2081.192464  	-0.009259 
2083.121280  	-0.009921 
2085.050096  	-0.010167 
2086.978912  	-0.010198 
2088.907728  	-0.009894 
2090.836544  	-0.009810 
2092.765360  	-0.009953 
2094.694176  	-0.009995 
2096.622992  	-0.009458 
2098.551808  	-0.009508 
2100.480624  	-0.009733 
2102.409440  	-0.009507 
2104.338256  	-0.009446 
2106.267072  	-0.009910 
2108.195888  	-0.009855 
2110.124704  	-0.009728 
2112.053520  	-0.009460 
2113.982336  	-0.009233 
2115.911152  	-0.009250 
2117.839968  	-0.009863 
2119.768784  	-0.010135 
2121.697600  	-0.010290 
2123.626416  	-0.010241 
2125.555232  	-0.010457 
2127.484048  	-0.010456 
2129.412864  	-0.010176 
2131.341680  	-0.009596 
2133.270496  	-0.009295 
2135.199312  	-0.009255 
2137.128128  	-0.009373 
2139.056944  	-0.008660 
2140.985760  	-0.008639 
2142.914576  	-0.008990 
2144.843392  	-0.009954 
2146.772208  	-0.009497 
2148.701024  	-0.009739 
2150.629840  	-0.009713 
2152.558656  	-0.009247 
2154.487472  	-0.008919 
2156.416288  	-0.008293 
2158.345104  	-0.006715 
2160.273920  	-0.004777 
2162.202736  	-0.005297 
2164.131552  	-0.007225 
2166.060368  	-0.007120 
2167.989184  	-0.008225 
2169.918000  	-0.009189 
2171.846816  	-0.009273 
2173.775632  	-0.008721 
2175.704448  	-0.008749 
2177.633264  	-0.008578 
2179.562080  	-0.009053 
2181.490896  	-0.008042 
2183.419712  	-0.007182 
2185.348528  	-0.007816 
2187.277344  	-0.009278 
2189.206160  	-0.009161 
2191.134976  	-0.008742 
2193.063792  	-0.008552 
2194.992608  	-0.008208 
2196.921424  	-0.008235 
2198.850240  	-0.009178 
2200.779056  	-0.009593 
2202.707872  	-0.009513 
2204.636688  	-0.008998 
2206.565504  	-0.009268 
2208.494320  	-0.010180 
2210.423136  	-0.010145 
2212.351952  	-0.009169 
2214.280768  	-0.009231 
2216.209584  	-0.009682 
2218.138400  	-0.010785 
2220.067216  	-0.010820 
2221.996032  	-0.010564 
2223.924848  	-0.010160 
2225.853664  	-0.010003 
2227.782480  	-0.009724 
2229.711296  	-0.009773 
2231.640112  	-0.010003 
2233.568928  	-0.010921 
2235.497744  	-0.011172 
2237.426560  	-0.010439 
2239.355376  	-0.010218 
2241.284192  	-0.010891 
2243.213008  	-0.011285 
2245.141824  	-0.011005 
2247.070640  	-0.010892 
2248.999456  	-0.010660 
2250.928272  	-0.010412 
2252.857088  	-0.010778 
2254.785904  	-0.010928 
2256.714720  	-0.010582 
2258.643536  	-0.010274 
2260.572352  	-0.010295 
2262.501168  	-0.010224 
2264.429984  	-0.010064 
2266.358800  	-0.010007 
2268.287616  	-0.010515 
2270.216432  	-0.010819 
2272.145248  	-0.010621 
2274.074064  	-0.010137 
2276.002880  	-0.009786 
2277.931696  	-0.009704 
2279.860512  	-0.010073 
2281.789328  	-0.010195 
2283.718144  	-0.009970 
2285.646960  	-0.009480 
2287.575776  	-0.009417 
2289.504592  	-0.009423 
2291.433408  	-0.009350 
2293.362224  	-0.008957 
2295.291040  	-0.008860 
2297.219856  	-0.008587 
2299.148672  	-0.008314 
2301.077488  	-0.007900 
2303.006304  	-0.007267 
2304.935120  	-0.006710 
2306.863936  	-0.006496 
2308.792752  	-0.006132 
2310.721568  	-0.006029 
2312.650384  	-0.006438 
2314.579200  	-0.006995 
2316.508016  	-0.006761 
2318.436832  	-0.006212 
2320.365648  	-0.006282 
2322.294464  	-0.006881 
2324.223280  	-0.007844 
2326.152096  	-0.009286 
2328.080912  	-0.010280 
2330.009728  	-0.010640 
2331.938544  	-0.011164 
2333.867360  	-0.012190 
2335.796176  	-0.012904 
2337.724992  	-0.013511 
2339.653808  	-0.013667 
2341.582624  	-0.013210 
2343.511440  	-0.012144 
2345.440256  	-0.010737 
2347.369072  	-0.009646 
2349.297888  	-0.008952 
2351.226704  	-0.009636 
2353.155520  	-0.011850 
2355.084336  	-0.013235 
2357.013152  	-0.013567 
2358.941968  	-0.013479 
2360.870784  	-0.014232 
2362.799600  	-0.014652 
2364.728416  	-0.013729 
2366.657232  	-0.012777 
2368.586048  	-0.012086 
2370.514864  	-0.010876 
2372.443680  	-0.009718 
2374.372496  	-0.008487 
2376.301312  	-0.007814 
2378.230128  	-0.007678 
2380.158944  	-0.007876 
2382.087760  	-0.008307 
2384.016576  	-0.009243 
2385.945392  	-0.010151 
2387.874208  	-0.010628 
2389.803024  	-0.010972 
2391.731840  	-0.011371 
2393.660656  	-0.011298 
2395.589472  	-0.011246 
2397.518288  	-0.011320 
2399.447104  	-0.011401 
2401.375920  	-0.011365 
2403.304736  	-0.011522 
2405.233552  	-0.011547 
2407.162368  	-0.011504 
2409.091184  	-0.011518 
2411.020000  	-0.011545 
2412.948816  	-0.011691 
2414.877632  	-0.011780 
2416.806448  	-0.011542 
2418.735264  	-0.011493 
2420.664080  	-0.011523 
2422.592896  	-0.011636 
2424.521712  	-0.011645 
2426.450528  	-0.011500 
2428.379344  	-0.011466 
2430.308160  	-0.011328 
2432.236976  	-0.011216 
2434.165792  	-0.011111 
2436.094608  	-0.010960 
2438.023424  	-0.010891 
2439.952240  	-0.010806 
2441.881056  	-0.010809 
2443.809872  	-0.011028 
2445.738688  	-0.011204 
2447.667504  	-0.010983 
2449.596320  	-0.010778 
2451.525136  	-0.010672 
2453.453952  	-0.010622 
2455.382768  	-0.010611 
2457.311584  	-0.010745 
2459.240400  	-0.010949 
2461.169216  	-0.010965 
2463.098032  	-0.010901 
2465.026848  	-0.011031 
2466.955664  	-0.010995 
2468.884480  	-0.010979 
2470.813296  	-0.011049 
2472.742112  	-0.011001 
2474.670928  	-0.010884 
2476.599744  	-0.010667 
2478.528560  	-0.010500 
2480.457376  	-0.010483 
2482.386192  	-0.010277 
2484.315008  	-0.010196 
2486.243824  	-0.010118 
2488.172640  	-0.010105 
2490.101456  	-0.010061 
2492.030272  	-0.010066 
2493.959088  	-0.010143 
2495.887904  	-0.010296 
2497.816720  	-0.010012 
2499.745536  	-0.009928 
2501.674352  	-0.010089 
2503.603168  	-0.010205 
2505.531984  	-0.010240 
2507.460800  	-0.010278 
2509.389616  	-0.010310 
2511.318432  	-0.010187 
2513.247248  	-0.010027 
2515.176064  	-0.009975 
2517.104880  	-0.009857 
2519.033696  	-0.009916 
2520.962512  	-0.010047 
2522.891328  	-0.010093 
2524.820144  	-0.009655 
2526.748960  	-0.009543 
2528.677776  	-0.009637 
2530.606592  	-0.009693 
2532.535408  	-0.009633 
2534.464224  	-0.009493 
2536.393040  	-0.009525 
2538.321856  	-0.009518 
2540.250672  	-0.009362 
2542.179488  	-0.009181 
2544.108304  	-0.008989 
2546.037120  	-0.009002 
2547.965936  	-0.009083 
2549.894752  	-0.009014 
2551.823568  	-0.008692 
2553.752384  	-0.008587 
2555.681200  	-0.008733 
2557.610016  	-0.008786 
2559.538832  	-0.008847 
2561.467648  	-0.008671 
2563.396464  	-0.008419 
2565.325280  	-0.008474 
2567.254096  	-0.008585 
2569.182912  	-0.008565 
2571.111728  	-0.008464 
2573.040544  	-0.008599 
2574.969360  	-0.008463 
2576.898176  	-0.008325 
2578.826992  	-0.008570 
2580.755808  	-0.008624 
2582.684624  	-0.008246 
2584.613440  	-0.008129 
2586.542256  	-0.008038 
2588.471072  	-0.008120 
2590.399888  	-0.008241 
2592.328704  	-0.007931 
2594.257520  	-0.007799 
2596.186336  	-0.007982 
2598.115152  	-0.008029 
2600.043968  	-0.007850 
2601.972784  	-0.007645 
2603.901600  	-0.007543 
2605.830416  	-0.007536 
2607.759232  	-0.007538 
2609.688048  	-0.007462 
2611.616864  	-0.007307 
2613.545680  	-0.007201 
2615.474496  	-0.007272 
2617.403312  	-0.007242 
2619.332128  	-0.007176 
2621.260944  	-0.007152 
2623.189760  	-0.007084 
2625.118576  	-0.007012 
2627.047392  	-0.006991 
2628.976208  	-0.006817 
2630.905024  	-0.006794 
2632.833840  	-0.006827 
2634.762656  	-0.006893 
2636.691472  	-0.006824 
2638.620288  	-0.006637 
2640.549104  	-0.006527 
2642.477920  	-0.006413 
2644.406736  	-0.006375 
2646.335552  	-0.006451 
2648.264368  	-0.006402 
2650.193184  	-0.006324 
2652.122000  	-0.006289 
2654.050816  	-0.006236 
2655.979632  	-0.006148 
2657.908448  	-0.006067 
2659.837264  	-0.005895 
2661.766080  	-0.005788 
2663.694896  	-0.005806 
2665.623712  	-0.005769 
2667.552528  	-0.005641 
2669.481344  	-0.005616 
2671.410160  	-0.005630 
2673.338976  	-0.005555 
2675.267792  	-0.005352 
2677.196608  	-0.005229 
2679.125424  	-0.005174 
2681.054240  	-0.005110 
2682.983056  	-0.005018 
2684.911872  	-0.004983 
2686.840688  	-0.004957 
2688.769504  	-0.004910 
2690.698320  	-0.004853 
2692.627136  	-0.004809 
2694.555952  	-0.004827 
2696.484768  	-0.004745 
2698.413584  	-0.004635 
2700.342400  	-0.004700 
2702.271216  	-0.004601 
2704.200032  	-0.004482 
2706.128848  	-0.004317 
2708.057664  	-0.004206 
2709.986480  	-0.004263 
2711.915296  	-0.004239 
2713.844112  	-0.004122 
2715.772928  	-0.003996 
2717.701744  	-0.003917 
2719.630560  	-0.003736 
2721.559376  	-0.003639 
2723.488192  	-0.003722 
2725.417008  	-0.003705 
2727.345824  	-0.003499 
2729.274640  	-0.003270 
2731.203456  	-0.003307 
2733.132272  	-0.003368 
2735.061088  	-0.003290 
2736.989904  	-0.003197 
2738.918720  	-0.003110 
2740.847536  	-0.003100 
2742.776352  	-0.003032 
2744.705168  	-0.002926 
2746.633984  	-0.002896 
2748.562800  	-0.002785 
2750.491616  	-0.002698 
2752.420432  	-0.002790 
2754.349248  	-0.002908 
2756.278064  	-0.002889 
2758.206880  	-0.002870 
2760.135696  	-0.002909 
2762.064512  	-0.002896 
2763.993328  	-0.002793 
2765.922144  	-0.002778 
2767.850960  	-0.002756 
2769.779776  	-0.002794 
2771.708592  	-0.002851 
2773.637408  	-0.002793 
2775.566224  	-0.002776 
2777.495040  	-0.002708 
2779.423856  	-0.002646 
2781.352672  	-0.002560 
2783.281488  	-0.002503 
2785.210304  	-0.002533 
2787.139120  	-0.002553 
2789.067936  	-0.002529 
2790.996752  	-0.002467 
2792.925568  	-0.002433 
2794.854384  	-0.002464 
2796.783200  	-0.002434 
2798.712016  	-0.002447 
2800.640832  	-0.002473 
2802.569648  	-0.002395 
2804.498464  	-0.002298 
2806.427280  	-0.002195 
2808.356096  	-0.002074 
2810.284912  	-0.002151 
2812.213728  	-0.002337 
2814.142544  	-0.002304 
2816.071360  	-0.002254 
2818.000176  	-0.002208 
2819.928992  	-0.002191 
2821.857808  	-0.002218 
2823.786624  	-0.002258 
2825.715440  	-0.002203 
2827.644256  	-0.002190 
2829.573072  	-0.002254 
2831.501888  	-0.002245 
2833.430704  	-0.002250 
2835.359520  	-0.002317 
2837.288336  	-0.002420 
2839.217152  	-0.002494 
2841.145968  	-0.002547 
2843.074784  	-0.002627 
2845.003600  	-0.002657 
2846.932416  	-0.002755 
2848.861232  	-0.002690 
2850.790048  	-0.002605 
2852.718864  	-0.002578 
2854.647680  	-0.002685 
2856.576496  	-0.002641 
2858.505312  	-0.002654 
2860.434128  	-0.002712 
2862.362944  	-0.002706 
2864.291760  	-0.002771 
2866.220576  	-0.002860 
2868.149392  	-0.002886 
2870.078208  	-0.002820 
2872.007024  	-0.002691 
2873.935840  	-0.002535 
2875.864656  	-0.002417 
2877.793472  	-0.002327 
2879.722288  	-0.002071 
2881.651104  	-0.001772 
2883.579920  	-0.001598 
2885.508736  	-0.001469 
2887.437552  	-0.001400 
2889.366368  	-0.001430 
2891.295184  	-0.001364 
2893.224000  	-0.001323 
2895.152816  	-0.001277 
2897.081632  	-0.001154 
2899.010448  	-0.001376 
2900.939264  	-0.001742 
2902.868080  	-0.001521 
2904.796896  	-0.001166 
2906.725712  	-0.001154 
2908.654528  	-0.001046 
2910.583344  	-0.000758 
2912.512160  	-0.000549 
2914.440976  	-0.000232 
2916.369792  	0.000162 
2918.298608  	0.000317 
2920.227424  	0.000594 
2922.156240  	0.000991 
2924.085056  	0.001382 
2926.013872  	0.001621 
2927.942688  	0.001957 
2929.871504  	0.002528 
2931.800320  	0.002926 
2933.729136  	0.003323 
2935.657952  	0.003690 
2937.586768  	0.003983 
2939.515584  	0.004092 
2941.444400  	0.004134 
2943.373216  	0.004344 
2945.302032  	0.004656 
2947.230848  	0.004749 
2949.159664  	0.004642 
2951.088480  	0.004531 
2953.017296  	0.004376 
2954.946112  	0.004192 
2956.874928  	0.004039 
2958.803744  	0.003942 
2960.732560  	0.003898 
2962.661376  	0.003781 
2964.590192  	0.003627 
2966.519008  	0.003374 
2968.447824  	0.003126 
2970.376640  	0.002959 
2972.305456  	0.002775 
2974.234272  	0.002892 
2976.163088  	0.002936 
2978.091904  	0.002759 
2980.020720  	0.002584 
2981.949536  	0.002571 
2983.878352  	0.002567 
2985.807168  	0.002431 
2987.735984  	0.002317 
2989.664800  	0.002430 
2991.593616  	0.003036 
2993.522432  	0.003447 
2995.451248  	0.003572 
2997.380064  	0.003875 
2999.308880  	0.004231 
3001.237696  	0.004504 
3003.166512  	0.004999 
3005.095328  	0.005243 
3007.024144  	0.005464 
3008.952960  	0.006040 
3010.881776  	0.006577 
3012.810592  	0.007049 
3014.739408  	0.007388 
3016.668224  	0.007649 
3018.597040  	0.007933 
3020.525856  	0.008275 
3022.454672  	0.008527 
3024.383488  	0.008867 
3026.312304  	0.009229 
3028.241120  	0.009579 
3030.169936  	0.010057 
3032.098752  	0.010482 
3034.027568  	0.010645 
3035.956384  	0.010972 
3037.885200  	0.011207 
3039.814016  	0.011539 
3041.742832  	0.011827 
3043.671648  	0.011933 
3045.600464  	0.012096 
3047.529280  	0.012442 
3049.458096  	0.012841 
3051.386912  	0.013032 
3053.315728  	0.013207 
3055.244544  	0.013634 
3057.173360  	0.014152 
3059.102176  	0.014532 
3061.030992  	0.014807 
3062.959808  	0.015103 
3064.888624  	0.015686 
3066.817440  	0.016180 
3068.746256  	0.016504 
3070.675072  	0.016761 
3072.603888  	0.017096 
3074.532704  	0.017465 
3076.461520  	0.017879 
3078.390336  	0.018485 
3080.319152  	0.018954 
3082.247968  	0.019093 
3084.176784  	0.019364 
3086.105600  	0.019889 
3088.034416  	0.020432 
3089.963232  	0.020583 
3091.892048  	0.020653 
3093.820864  	0.021001 
3095.749680  	0.021773 
3097.678496  	0.022155 
3099.607312  	0.022542 
3101.536128  	0.023237 
3103.464944  	0.023446 
3105.393760  	0.023501 
3107.322576  	0.023888 
3109.251392  	0.024327 
3111.180208  	0.024567 
3113.109024  	0.024853 
3115.037840  	0.025257 
3116.966656  	0.025737 
3118.895472  	0.026156 
3120.824288  	0.026334 
3122.753104  	0.026675 
3124.681920  	0.026938 
3126.610736  	0.026978 
3128.539552  	0.027086 
3130.468368  	0.027271 
3132.397184  	0.027786 
3134.326000  	0.028134 
3136.254816  	0.028141 
3138.183632  	0.028364 
3140.112448  	0.028467 
3142.041264  	0.028766 
3143.970080  	0.029256 
3145.898896  	0.029447 
3147.827712  	0.029651 
3149.756528  	0.029973 
3151.685344  	0.030255 
3153.614160  	0.030477 
3155.542976  	0.030561 
3157.471792  	0.030816 
3159.400608  	0.031245 
3161.329424  	0.031535 
3163.258240  	0.031653 
3165.187056  	0.031852 
3167.115872  	0.032022 
3169.044688  	0.032107 
3170.973504  	0.032148 
3172.902320  	0.032324 
3174.831136  	0.032422 
3176.759952  	0.032674 
3178.688768  	0.033088 
3180.617584  	0.033000 
3182.546400  	0.032988 
3184.475216  	0.033037 
3186.404032  	0.033164 
3188.332848  	0.033221 
3190.261664  	0.033221 
3192.190480  	0.033142 
3194.119296  	0.033117 
3196.048112  	0.033033 
3197.976928  	0.033360 
3199.905744  	0.033507 
3201.834560  	0.033306 
3203.763376  	0.033053 
3205.692192  	0.032905 
3207.621008  	0.032949 
3209.549824  	0.033068 
3211.478640  	0.033048 
3213.407456  	0.032960 
3215.336272  	0.033010 
3217.265088  	0.032882 
3219.193904  	0.033049 
3221.122720  	0.033060 
3223.051536  	0.032566 
3224.980352  	0.032263 
3226.909168  	0.032320 
3228.837984  	0.032245 
3230.766800  	0.031957 
3232.695616  	0.032057 
3234.624432  	0.032083 
3236.553248  	0.032256 
3238.482064  	0.032254 
3240.410880  	0.031900 
3242.339696  	0.031740 
3244.268512  	0.031853 
3246.197328  	0.031958 
3248.126144  	0.031699 
3250.054960  	0.031693 
3251.983776  	0.031953 
3253.912592  	0.032415 
3255.841408  	0.032381 
3257.770224  	0.032234 
3259.699040  	0.032311 
3261.627856  	0.032337 
3263.556672  	0.032189 
3265.485488  	0.032346 
3267.414304  	0.032527 
3269.343120  	0.032552 
3271.271936  	0.032602 
3273.200752  	0.032969 
3275.129568  	0.033200 
3277.058384  	0.033133 
3278.987200  	0.032987 
3280.916016  	0.033001 
3282.844832  	0.033010 
3284.773648  	0.032869 
3286.702464  	0.032783 
3288.631280  	0.033162 
3290.560096  	0.033377 
3292.488912  	0.033329 
3294.417728  	0.033233 
3296.346544  	0.033298 
3298.275360  	0.033400 
3300.204176  	0.033401 
3302.132992  	0.033408 
3304.061808  	0.033586 
3305.990624  	0.033691 
3307.919440  	0.033933 
3309.848256  	0.034320 
3311.777072  	0.034435 
3313.705888  	0.034526 
3315.634704  	0.034569 
3317.563520  	0.034614 
3319.492336  	0.034755 
3321.421152  	0.034743 
3323.349968  	0.034728 
3325.278784  	0.034801 
3327.207600  	0.035060 
3329.136416  	0.034938 
3331.065232  	0.034643 
3332.994048  	0.034533 
3334.922864  	0.034773 
3336.851680  	0.035007 
3338.780496  	0.034856 
3340.709312  	0.034563 
3342.638128  	0.034560 
3344.566944  	0.034441 
3346.495760  	0.034112 
3348.424576  	0.033927 
3350.353392  	0.033792 
3352.282208  	0.033492 
3354.211024  	0.033384 
3356.139840  	0.033427 
3358.068656  	0.033267 
3359.997472  	0.033008 
3361.926288  	0.032676 
3363.855104  	0.032379 
3365.783920  	0.032340 
3367.712736  	0.032269 
3369.641552  	0.031967 
3371.570368  	0.031559 
3373.499184  	0.031362 
3375.428000  	0.031289 
3377.356816  	0.031208 
3379.285632  	0.031028 
3381.214448  	0.030675 
3383.143264  	0.030541 
3385.072080  	0.030562 
3387.000896  	0.030142 
3388.929712  	0.029823 
3390.858528  	0.029719 
3392.787344  	0.030151 
3394.716160  	0.029767 
3396.644976  	0.029585 
3398.573792  	0.029339 
3400.502608  	0.028639 
3402.431424  	0.028270 
3404.360240  	0.028041 
3406.289056  	0.027621 
3408.217872  	0.027243 
3410.146688  	0.027199 
3412.075504  	0.027021 
3414.004320  	0.026732 
3415.933136  	0.026565 
3417.861952  	0.026357 
3419.790768  	0.026603 
3421.719584  	0.026811 
3423.648400  	0.026069 
3425.577216  	0.025276 
3427.506032  	0.024933 
3429.434848  	0.024798 
3431.363664  	0.024898 
3433.292480  	0.024558 
3435.221296  	0.024054 
3437.150112  	0.023680 
3439.078928  	0.023264 
3441.007744  	0.023028 
3442.936560  	0.023230 
3444.865376  	0.022796 
3446.794192  	0.023459 
3448.723008  	0.023281 
3450.651824  	0.021916 
3452.580640  	0.021454 
3454.509456  	0.021048 
3456.438272  	0.020760 
3458.367088  	0.020495 
3460.295904  	0.020308 
3462.224720  	0.020123 
3464.153536  	0.019508 
3466.082352  	0.019096 
3468.011168  	0.019026 
3469.939984  	0.018484 
3471.868800  	0.017840 
3473.797616  	0.017274 
3475.726432  	0.016976 
3477.655248  	0.016305 
3479.584064  	0.016236 
3481.512880  	0.016862 
3483.441696  	0.016550 
3485.370512  	0.015341 
3487.299328  	0.014998 
3489.228144  	0.014547 
3491.156960  	0.013681 
3493.085776  	0.013396 
3495.014592  	0.013455 
3496.943408  	0.013223 
3498.872224  	0.012628 
3500.801040  	0.013105 
3502.729856  	0.014239 
3504.658672  	0.013605 
3506.587488  	0.011741 
3508.516304  	0.011772 
3510.445120  	0.012132 
3512.373936  	0.010964 
3514.302752  	0.010166 
3516.231568  	0.009627 
3518.160384  	0.009327 
3520.089200  	0.009039 
3522.018016  	0.009533 
3523.946832  	0.010861 
3525.875648  	0.010363 
3527.804464  	0.009905 
3529.733280  	0.009148 
3531.662096  	0.007666 
3533.590912  	0.006574 
3535.519728  	0.007047 
3537.448544  	0.007086 
3539.377360  	0.005704 
3541.306176  	0.005235 
3543.234992  	0.006293 
3545.163808  	0.008338 
3547.092624  	0.008179 
3549.021440  	0.005708 
3550.950256  	0.004814 
3552.879072  	0.005635 
3554.807888  	0.004206 
3556.736704  	0.002730 
3558.665520  	0.003043 
3560.594336  	0.003809 
3562.523152  	0.003508 
3564.451968  	0.004646 
3566.380784  	0.008847 
3568.309600  	0.008617 
3570.238416  	0.003403 
3572.167232  	0.000859 
3574.096048  	0.000427 
3576.024864  	0.000325 
3577.953680  	-0.000051 
3579.882496  	-0.000107 
3581.811312  	-0.000750 
3583.740128  	-0.000905 
3585.668944  	0.000751 
3587.597760  	0.003895 
3589.526576  	0.001129 
3591.455392  	-0.002222 
3593.384208  	-0.001791 
3595.313024  	-0.000891 
3597.241840  	-0.001893 
3599.170656  	-0.002883 
3601.099472  	-0.003234 
3603.028288  	-0.004640 
3604.957104  	-0.005498 
3606.885920  	-0.003716 
3608.814736  	-0.002291 
3610.743552  	-0.003730 
3612.672368  	-0.003418 
3614.601184  	-0.003509 
3616.530000  	-0.005106 
3618.458816  	-0.004332 
3620.387632  	-0.004957 
3622.316448  	-0.007808 
3624.245264  	-0.009156 
3626.174080  	-0.008454 
3628.102896  	-0.005799 
3630.031712  	-0.005166 
3631.960528  	-0.009154 
3633.889344  	-0.010562 
3635.818160  	-0.011748 
3637.746976  	-0.012683 
3639.675792  	-0.013113 
3641.604608  	-0.012870 
3643.533424  	-0.012637 
3645.462240  	-0.011822 
3647.391056  	-0.008070 
3649.319872  	-0.006197 
3651.248688  	-0.009639 
3653.177504  	-0.014062 
3655.106320  	-0.015171 
3657.035136  	-0.015099 
3658.963952  	-0.016527 
3660.892768  	-0.017213 
3662.821584  	-0.017810 
3664.750400  	-0.017998 
3666.679216  	-0.017105 
3668.608032  	-0.014686 
3670.536848  	-0.013255 
3672.465664  	-0.015001 
3674.394480  	-0.014093 
3676.323296  	-0.013006 
3678.252112  	-0.015508 
3680.180928  	-0.017185 
3682.109744  	-0.018418 
3684.038560  	-0.018469 
3685.967376  	-0.017775 
3687.896192  	-0.015633 
3689.825008  	-0.014426 
3691.753824  	-0.016428 
3693.682640  	-0.018300 
3695.611456  	-0.018779 
3697.540272  	-0.018948 
3699.469088  	-0.018931 
3701.397904  	-0.017855 
3703.326720  	-0.017940 
3705.255536  	-0.018380 
3707.184352  	-0.017749 
3709.113168  	-0.015937 
3711.041984  	-0.013852 
3712.970800  	-0.015208 
3714.899616  	-0.017248 
3716.828432  	-0.017880 
3718.757248  	-0.017293 
3720.686064  	-0.016755 
3722.614880  	-0.015661 
3724.543696  	-0.015022 
3726.472512  	-0.015011 
3728.401328  	-0.016702 
3730.330144  	-0.017510 
3732.258960  	-0.015580 
3734.187776  	-0.011255 
3736.116592  	-0.009741 
3738.045408  	-0.013699 
3739.974224  	-0.015028 
3741.903040  	-0.014921 
3743.831856  	-0.014394 
3745.760672  	-0.013760 
3747.689488  	-0.014453 
3749.618304  	-0.012987 
3751.547120  	-0.012163 
3753.475936  	-0.015039 
3755.404752  	-0.016585 
3757.333568  	-0.016292 
3759.262384  	-0.016090 
3761.191200  	-0.017472 
3763.120016  	-0.018234 
3765.048832  	-0.017264 
3766.977648  	-0.017133 
3768.906464  	-0.017125 
3770.835280  	-0.017534 
3772.764096  	-0.018911 
3774.692912  	-0.019488 
3776.621728  	-0.019169 
3778.550544  	-0.018051 
3780.479360  	-0.018203 
3782.408176  	-0.019070 
3784.336992  	-0.018484 
3786.265808  	-0.018471 
3788.194624  	-0.019340 
3790.123440  	-0.019636 
3792.052256  	-0.019657 
3793.981072  	-0.019290 
3795.909888  	-0.017542 
3797.838704  	-0.016191 
3799.767520  	-0.015919 
3801.696336  	-0.014900 
3803.625152  	-0.016644 
3805.553968  	-0.017750 
3807.482784  	-0.017788 
3809.411600  	-0.018763 
3811.340416  	-0.019217 
3813.269232  	-0.018735 
3815.198048  	-0.016828 
3817.126864  	-0.015703 
3819.055680  	-0.015691 
3820.984496  	-0.014453 
3822.913312  	-0.016284 
3824.842128  	-0.017660 
3826.770944  	-0.017512 
3828.699760  	-0.017902 
3830.628576  	-0.017879 
3832.557392  	-0.017392 
3834.486208  	-0.017075 
3836.415024  	-0.016047 
3838.343840  	-0.014411 
3840.272656  	-0.014056 
3842.201472  	-0.015718 
3844.130288  	-0.016952 
3846.059104  	-0.018308 
3847.987920  	-0.018345 
3849.916736  	-0.016791 
3851.845552  	-0.014339 
3853.774368  	-0.012492 
3855.703184  	-0.014625 
3857.632000  	-0.016414 
3859.560816  	-0.017678 
3861.489632  	-0.016798 
3863.418448  	-0.015199 
3865.347264  	-0.014912 
3867.276080  	-0.016325 
3869.204896  	-0.014749 
3871.133712  	-0.014065 
3873.062528  	-0.015830 
3874.991344  	-0.016899 
3876.920160  	-0.018489 
3878.848976  	-0.017524 
3880.777792  	-0.015404 
3882.706608  	-0.015711 
3884.635424  	-0.015880 
3886.564240  	-0.016777 
3888.493056  	-0.018562 
3890.421872  	-0.017744 
3892.350688  	-0.016823 
3894.279504  	-0.018064 
3896.208320  	-0.018609 
3898.137136  	-0.017034 
3900.065952  	-0.014761 
3901.994768  	-0.013990 
3903.923584  	-0.014028 
3905.852400  	-0.016062 
3907.781216  	-0.018934 
3909.710032  	-0.020250 
3911.638848  	-0.020229 
3913.567664  	-0.019765 
3915.496480  	-0.018105 
3917.425296  	-0.016608 
3919.354112  	-0.017270 
3921.282928  	-0.017896 
3923.211744  	-0.017377 
3925.140560  	-0.017026 
3927.069376  	-0.018621 
3928.998192  	-0.018420 
3930.927008  	-0.017064 
3932.855824  	-0.017033 
3934.784640  	-0.018811 
3936.713456  	-0.019667 
3938.642272  	-0.019635 
3940.571088  	-0.019143 
3942.499904  	-0.017540 
3944.428720  	-0.017908 
3946.357536  	-0.018537 
3948.286352  	-0.017579 
3950.215168  	-0.018173 
3952.143984  	-0.019436 
3954.072800  	-0.019935 
3956.001616  	-0.019612 
3957.930432  	-0.019227 
3959.859248  	-0.019140 
3961.788064  	-0.018999 
3963.716880  	-0.019564 
3965.645696  	-0.020309 
3967.574512  	-0.020234 
3969.503328  	-0.020011 
3971.432144  	-0.019769 
3973.360960  	-0.019404 
3975.289776  	-0.019090 
3977.218592  	-0.019536 
3979.147408  	-0.020077 
3981.076224  	-0.020029 
3983.005040  	-0.020126 
3984.933856  	-0.019956 
3986.862672  	-0.019844 
3988.791488  	-0.019831 
3990.720304  	-0.019562 
3992.649120  	-0.019798 
3994.577936  	-0.019880 
3996.506752  	-0.020197 
3998.435568  	-0.020501 
4000.364384  	-0.020325 