##TITLE=No Description
##DATA TYPE=INFRARED SPECTRUM
##XUNITS=1/CM
##YUNITS=Abs
399.264912  	0.421975 
401.193728  	0.430746 
403.122544  	0.430135 
405.051360  	0.419268 
406.980176  	0.415467 
408.908992  	0.409482 
410.837808  	0.417889 
412.766624  	0.421516 
414.695440  	0.419332 
416.624256  	0.413655 
418.553072  	0.425821 
420.481888  	0.419998 
422.410704  	0.406607 
424.339520  	0.404851 
426.268336  	0.399718 
428.197152  	0.388791 
430.125968  	0.384329 
432.054784  	0.383979 
433.983600  	0.395781 
435.912416  	0.394858 
437.841232  	0.384680 
439.770048  	0.375965 
441.698864  	0.378713 
443.627680  	0.378335 
445.556496  	0.378918 
447.485312  	0.376562 
449.414128  	0.375549 
451.342944  	0.373861 
453.271760  	0.374728 
455.200576  	0.373415 
457.129392  	0.376615 
459.058208  	0.373887 
460.987024  	0.370314 
462.915840  	0.366701 
464.844656  	0.365506 
466.773472  	0.362518 
468.702288  	0.362581 
470.631104  	0.364773 
472.559920  	0.368475 
474.488736  	0.365195 
476.417552  	0.362900 
478.346368  	0.357873 
480.275184  	0.360014 
482.204000  	0.363952 
484.132816  	0.366028 
486.061632  	0.361356 
487.990448  	0.357486 
489.919264  	0.358000 
491.848080  	0.359276 
493.776896  	0.358124 
495.705712  	0.356438 
497.634528  	0.351885 
499.563344  	0.350537 
501.492160  	0.350759 
503.420976  	0.353691 
505.349792  	0.351916 
507.278608  	0.350790 
509.207424  	0.349479 
511.136240  	0.351608 
513.065056  	0.351276 
514.993872  	0.354072 
516.922688  	0.354902 
518.851504  	0.354521 
520.780320  	0.352442 
522.709136  	0.351895 
524.637952  	0.351993 
526.566768  	0.349826 
528.495584  	0.346041 
530.424400  	0.344386 
532.353216  	0.341862 
534.282032  	0.338936 
536.210848  	0.335917 
538.139664  	0.332017 
540.068480  	0.326847 
541.997296  	0.323530 
543.926112  	0.321448 
545.854928  	0.318906 
547.783744  	0.315566 
549.712560  	0.313345 
551.641376  	0.310213 
553.570192  	0.308047 
555.499008  	0.304672 
557.427824  	0.302594 
559.356640  	0.299369 
561.285456  	0.297038 
563.214272  	0.294394 
565.143088  	0.292077 
567.071904  	0.289194 
569.000720  	0.287329 
570.929536  	0.285370 
572.858352  	0.283059 
574.787168  	0.281458 
576.715984  	0.279599 
578.644800  	0.276326 
580.573616  	0.273273 
582.502432  	0.269269 
584.431248  	0.266865 
586.360064  	0.264666 
588.288880  	0.262528 
590.217696  	0.260664 
592.146512  	0.259918 
594.075328  	0.257621 
596.004144  	0.256144 
597.932960  	0.254366 
599.861776  	0.253502 
601.790592  	0.251760 
603.719408  	0.250144 
605.648224  	0.249259 
607.577040  	0.248846 
609.505856  	0.247593 
611.434672  	0.246669 
613.363488  	0.245471 
615.292304  	0.244678 
617.221120  	0.243325 
619.149936  	0.241859 
621.078752  	0.240306 
623.007568  	0.239528 
624.936384  	0.238876 
626.865200  	0.237568 
628.794016  	0.236101 
630.722832  	0.235667 
632.651648  	0.236008 
634.580464  	0.236303 
636.509280  	0.235854 
638.438096  	0.235095 
640.366912  	0.234330 
642.295728  	0.233336 
644.224544  	0.231949 
646.153360  	0.229953 
648.082176  	0.227151 
650.010992  	0.225008 
651.939808  	0.222149 
653.868624  	0.219153 
655.797440  	0.216125 
657.726256  	0.214091 
659.655072  	0.211357 
661.583888  	0.207997 
663.512704  	0.205051 
665.441520  	0.201762 
667.370336  	0.199702 
669.299152  	0.199982 
671.227968  	0.195451 
673.156784  	0.192182 
675.085600  	0.190474 
677.014416  	0.188351 
678.943232  	0.186579 
680.872048  	0.185768 
682.800864  	0.184871 
684.729680  	0.183552 
686.658496  	0.182514 
688.587312  	0.182135 
690.516128  	0.180800 
692.444944  	0.179790 
694.373760  	0.178516 
696.302576  	0.177714 
698.231392  	0.176323 
700.160208  	0.174544 
702.089024  	0.172630 
704.017840  	0.170773 
705.946656  	0.169069 
707.875472  	0.167205 
709.804288  	0.165582 
711.733104  	0.164354 
713.661920  	0.162882 
715.590736  	0.161680 
717.519552  	0.161082 
719.448368  	0.161497 
721.377184  	0.162214 
723.306000  	0.162564 
725.234816  	0.163134 
727.163632  	0.162958 
729.092448  	0.161614 
731.021264  	0.159379 
732.950080  	0.156824 
734.878896  	0.154367 
736.807712  	0.151958 
738.736528  	0.150315 
740.665344  	0.148717 
742.594160  	0.147697 
744.522976  	0.146729 
746.451792  	0.145758 
748.380608  	0.144499 
750.309424  	0.143357 
752.238240  	0.142379 
754.167056  	0.141899 
756.095872  	0.141420 
758.024688  	0.140309 
759.953504  	0.139870 
761.882320  	0.140572 
763.811136  	0.141174 
765.739952  	0.140527 
767.668768  	0.139156 
769.597584  	0.137932 
771.526400  	0.137488 
773.455216  	0.138557 
775.384032  	0.141120 
777.312848  	0.144794 
779.241664  	0.147873 
781.170480  	0.148567 
783.099296  	0.146274 
785.028112  	0.142616 
786.956928  	0.138672 
788.885744  	0.135270 
790.814560  	0.132604 
792.743376  	0.131210 
794.672192  	0.130675 
796.601008  	0.130360 
798.529824  	0.128266 
800.458640  	0.124936 
802.387456  	0.122513 
804.316272  	0.121158 
806.245088  	0.120322 
808.173904  	0.119756 
810.102720  	0.119470 
812.031536  	0.119200 
813.960352  	0.119193 
815.889168  	0.119512 
817.817984  	0.119694 
819.746800  	0.120009 
821.675616  	0.120384 
823.604432  	0.120575 
825.533248  	0.120465 
827.462064  	0.120176 
829.390880  	0.119362 
831.319696  	0.118754 
833.248512  	0.118023 
835.177328  	0.116767 
837.106144  	0.114809 
839.034960  	0.112940 
840.963776  	0.110599 
842.892592  	0.108049 
844.821408  	0.105520 
846.750224  	0.103318 
848.679040  	0.101400 
850.607856  	0.099639 
852.536672  	0.098525 
854.465488  	0.097551 
856.394304  	0.096874 
858.323120  	0.095582 
860.251936  	0.094097 
862.180752  	0.092776 
864.109568  	0.091184 
866.038384  	0.089468 
867.967200  	0.087707 
869.896016  	0.086420 
871.824832  	0.085501 
873.753648  	0.085454 
875.682464  	0.085492 
877.611280  	0.086223 
879.540096  	0.087398 
881.468912  	0.088413 
883.397728  	0.089483 
885.326544  	0.090389 
887.255360  	0.090731 
889.184176  	0.090462 
891.112992  	0.089694 
893.041808  	0.088542 
894.970624  	0.086813 
896.899440  	0.084277 
898.828256  	0.081587 
900.757072  	0.078926 
902.685888  	0.076491 
904.614704  	0.075068 
906.543520  	0.074787 
908.472336  	0.075724 
910.401152  	0.077361 
912.329968  	0.079608 
914.258784  	0.081952 
916.187600  	0.084417 
918.116416  	0.086441 
920.045232  	0.087772 
921.974048  	0.088546 
923.902864  	0.089063 
925.831680  	0.089228 
927.760496  	0.089475 
929.689312  	0.089913 
931.618128  	0.090720 
933.546944  	0.091634 
935.475760  	0.092090 
937.404576  	0.092347 
939.333392  	0.092367 
941.262208  	0.092674 
943.191024  	0.094048 
945.119840  	0.096658 
947.048656  	0.100747 
948.977472  	0.106357 
950.906288  	0.112878 
952.835104  	0.120096 
954.763920  	0.127936 
956.692736  	0.135618 
958.621552  	0.142577 
960.550368  	0.147541 
962.479184  	0.150102 
964.408000  	0.149638 
966.336816  	0.146640 
968.265632  	0.141171 
970.194448  	0.133923 
972.123264  	0.125132 
974.052080  	0.115738 
975.980896  	0.106568 
977.909712  	0.097771 
979.838528  	0.090138 
981.767344  	0.083962 
983.696160  	0.079509 
985.624976  	0.076796 
987.553792  	0.076322 
989.482608  	0.077820 
991.411424  	0.081121 
993.340240  	0.086147 
995.269056  	0.091613 
997.197872  	0.097339 
999.126688  	0.103173 
1001.055504  	0.109394 
1002.984320  	0.114804 
1004.913136  	0.120001 
1006.841952  	0.124839 
1008.770768  	0.128941 
1010.699584  	0.131801 
1012.628400  	0.133728 
1014.557216  	0.134977 
1016.486032  	0.135362 
1018.414848  	0.135260 
1020.343664  	0.135060 
1022.272480  	0.134785 
1024.201296  	0.134277 
1026.130112  	0.133447 
1028.058928  	0.133107 
1029.987744  	0.134111 
1031.916560  	0.135387 
1033.845376  	0.137005 
1035.774192  	0.139568 
1037.703008  	0.142787 
1039.631824  	0.147652 
1041.560640  	0.154082 
1043.489456  	0.162612 
1045.418272  	0.172329 
1047.347088  	0.182674 
1049.275904  	0.191010 
1051.204720  	0.196727 
1053.133536  	0.200157 
1055.062352  	0.201145 
1056.991168  	0.200192 
1058.919984  	0.198988 
1060.848800  	0.197342 
1062.777616  	0.194899 
1064.706432  	0.191385 
1066.635248  	0.187643 
1068.564064  	0.183515 
1070.492880  	0.178747 
1072.421696  	0.173985 
1074.350512  	0.170850 
1076.279328  	0.169385 
1078.208144  	0.170103 
1080.136960  	0.171371 
1082.065776  	0.172413 
1083.994592  	0.171887 
1085.923408  	0.169591 
1087.852224  	0.165684 
1089.781040  	0.160996 
1091.709856  	0.154880 
1093.638672  	0.147802 
1095.567488  	0.139771 
1097.496304  	0.131522 
1099.425120  	0.123223 
1101.353936  	0.114867 
1103.282752  	0.106737 
1105.211568  	0.099061 
1107.140384  	0.092144 
1109.069200  	0.085490 
1110.998016  	0.079325 
1112.926832  	0.073750 
1114.855648  	0.068852 
1116.784464  	0.064217 
1118.713280  	0.059540 
1120.642096  	0.055097 
1122.570912  	0.050919 
1124.499728  	0.047159 
1126.428544  	0.043998 
1128.357360  	0.041052 
1130.286176  	0.038052 
1132.214992  	0.035724 
1134.143808  	0.034064 
1136.072624  	0.032543 
1138.001440  	0.030932 
1139.930256  	0.029583 
1141.859072  	0.028270 
1143.787888  	0.026681 
1145.716704  	0.025491 
1147.645520  	0.024568 
1149.574336  	0.023943 
1151.503152  	0.023287 
1153.431968  	0.023122 
1155.360784  	0.023245 
1157.289600  	0.024055 
1159.218416  	0.025105 
1161.147232  	0.026319 
1163.076048  	0.027834 
1165.004864  	0.029249 
1166.933680  	0.030518 
1168.862496  	0.032151 
1170.791312  	0.034071 
1172.720128  	0.036149 
1174.648944  	0.038325 
1176.577760  	0.040151 
1178.506576  	0.042079 
1180.435392  	0.044412 
1182.364208  	0.046756 
1184.293024  	0.049322 
1186.221840  	0.052368 
1188.150656  	0.055724 
1190.079472  	0.059465 
1192.008288  	0.063856 
1193.937104  	0.068777 
1195.865920  	0.074241 
1197.794736  	0.080233 
1199.723552  	0.086661 
1201.652368  	0.092859 
1203.581184  	0.098659 
1205.510000  	0.104296 
1207.438816  	0.109117 
1209.367632  	0.113515 
1211.296448  	0.117319 
1213.225264  	0.120068 
1215.154080  	0.121532 
1217.082896  	0.122453 
1219.011712  	0.122509 
1220.940528  	0.122059 
1222.869344  	0.121069 
1224.798160  	0.119922 
1226.726976  	0.118083 
1228.655792  	0.115782 
1230.584608  	0.113496 
1232.513424  	0.110627 
1234.442240  	0.107402 
1236.371056  	0.104044 
1238.299872  	0.100344 
1240.228688  	0.095834 
1242.157504  	0.091327 
1244.086320  	0.087188 
1246.015136  	0.082671 
1247.943952  	0.078233 
1249.872768  	0.073721 
1251.801584  	0.069395 
1253.730400  	0.065283 
1255.659216  	0.061307 
1257.588032  	0.057559 
1259.516848  	0.054221 
1261.445664  	0.050817 
1263.374480  	0.047543 
1265.303296  	0.045026 
1267.232112  	0.043175 
1269.160928  	0.041955 
1271.089744  	0.041123 
1273.018560  	0.040479 
1274.947376  	0.040204 
1276.876192  	0.040577 
1278.805008  	0.040822 
1280.733824  	0.040428 
1282.662640  	0.039125 
1284.591456  	0.037694 
1286.520272  	0.036774 
1288.449088  	0.036177 
1290.377904  	0.035551 
1292.306720  	0.035461 
1294.235536  	0.035409 
1296.164352  	0.035056 
1298.093168  	0.033648 
1300.021984  	0.031697 
1301.950800  	0.029771 
1303.879616  	0.027900 
1305.808432  	0.026129 
1307.737248  	0.024476 
1309.666064  	0.022679 
1311.594880  	0.021948 
1313.523696  	0.021627 
1315.452512  	0.020890 
1317.381328  	0.021062 
1319.310144  	0.021380 
1321.238960  	0.020805 
1323.167776  	0.020698 
1325.096592  	0.021034 
1327.025408  	0.021207 
1328.954224  	0.021220 
1330.883040  	0.020957 
1332.811856  	0.020179 
1334.740672  	0.019956 
1336.669488  	0.021283 
1338.598304  	0.023673 
1340.527120  	0.022784 
1342.455936  	0.018859 
1344.384752  	0.017588 
1346.313568  	0.017821 
1348.242384  	0.018573 
1350.171200  	0.019506 
1352.100016  	0.020604 
1354.028832  	0.022429 
1355.957648  	0.024092 
1357.886464  	0.025389 
1359.815280  	0.027639 
1361.744096  	0.031630 
1363.672912  	0.032953 
1365.601728  	0.031098 
1367.530544  	0.031912 
1369.459360  	0.033038 
1371.388176  	0.032860 
1373.316992  	0.034077 
1375.245808  	0.033325 
1377.174624  	0.030010 
1379.103440  	0.027813 
1381.032256  	0.025312 
1382.961072  	0.023287 
1384.889888  	0.022758 
1386.818704  	0.024242 
1388.747520  	0.022339 
1390.676336  	0.019390 
1392.605152  	0.018651 
1394.533968  	0.020704 
1396.462784  	0.021859 
1398.391600  	0.021450 
1400.320416  	0.019890 
1402.249232  	0.018562 
1404.178048  	0.020526 
1406.106864  	0.021461 
1408.035680  	0.021354 
1409.964496  	0.022872 
1411.893312  	0.024582 
1413.822128  	0.025687 
1415.750944  	0.028646 
1417.679760  	0.032609 
1419.608576  	0.033651 
1421.537392  	0.030450 
1423.466208  	0.030033 
1425.395024  	0.028183 
1427.323840  	0.025539 
1429.252656  	0.025280 
1431.181472  	0.024369 
1433.110288  	0.023206 
1435.039104  	0.024033 
1436.967920  	0.026245 
1438.896736  	0.024123 
1440.825552  	0.022792 
1442.754368  	0.022743 
1444.683184  	0.022714 
1446.612000  	0.023919 
1448.540816  	0.024778 
1450.469632  	0.023933 
1452.398448  	0.024479 
1454.327264  	0.026088 
1456.256080  	0.031217 
1458.184896  	0.033544 
1460.113712  	0.027549 
1462.042528  	0.024370 
1463.971344  	0.025566 
1465.900160  	0.027378 
1467.828976  	0.026920 
1469.757792  	0.028370 
1471.686608  	0.035004 
1473.615424  	0.043206 
1475.544240  	0.044033 
1477.473056  	0.044584 
1479.401872  	0.044780 
1481.330688  	0.047168 
1483.259504  	0.047546 
1485.188320  	0.048015 
1487.117136  	0.050458 
1489.045952  	0.053760 
1490.974768  	0.050944 
1492.903584  	0.044220 
1494.832400  	0.041353 
1496.761216  	0.041165 
1498.690032  	0.037840 
1500.618848  	0.033512 
1502.547664  	0.029618 
1504.476480  	0.028110 
1506.405296  	0.035614 
1508.334112  	0.037620 
1510.262928  	0.029183 
1512.191744  	0.024260 
1514.120560  	0.023097 
1516.049376  	0.026468 
1517.978192  	0.027404 
1519.907008  	0.027577 
1521.835824  	0.032702 
1523.764640  	0.031704 
1525.693456  	0.033118 
1527.622272  	0.033753 
1529.551088  	0.031540 
1531.479904  	0.030997 
1533.408720  	0.033109 
1535.337536  	0.029667 
1537.266352  	0.026618 
1539.195168  	0.029214 
1541.123984  	0.031815 
1543.052800  	0.028637 
1544.981616  	0.025320 
1546.910432  	0.019683 
1548.839248  	0.019497 
1550.768064  	0.020850 
1552.696880  	0.019416 
1554.625696  	0.021509 
1556.554512  	0.022287 
1558.483328  	0.029100 
1560.412144  	0.030144 
1562.340960  	0.025997 
1564.269776  	0.027120 
1566.198592  	0.030083 
1568.127408  	0.032632 
1570.056224  	0.039439 
1571.985040  	0.040464 
1573.913856  	0.041129 
1575.842672  	0.045809 
1577.771488  	0.048484 
1579.700304  	0.044909 
1581.629120  	0.043550 
1583.557936  	0.043105 
1585.486752  	0.043834 
1587.415568  	0.045356 
1589.344384  	0.048565 
1591.273200  	0.052264 
1593.202016  	0.056903 
1595.130832  	0.061877 
1597.059648  	0.066000 
1598.988464  	0.068993 
1600.917280  	0.072601 
1602.846096  	0.075070 
1604.774912  	0.075967 
1606.703728  	0.075813 
1608.632544  	0.076058 
1610.561360  	0.074590 
1612.490176  	0.072989 
1614.418992  	0.071267 
1616.347808  	0.074640 
1618.276624  	0.077670 
1620.205440  	0.076617 
1622.134256  	0.078921 
1624.063072  	0.086055 
1625.991888  	0.088147 
1627.920704  	0.093246 
1629.849520  	0.098012 
1631.778336  	0.100259 
1633.707152  	0.102506 
1635.635968  	0.114272 
1637.564784  	0.121897 
1639.493600  	0.118976 
1641.422416  	0.118712 
1643.351232  	0.118362 
1645.280048  	0.118945 
1647.208864  	0.127978 
1649.137680  	0.124302 
1651.066496  	0.115542 
1652.995312  	0.121395 
1654.924128  	0.126171 
1656.852944  	0.115671 
1658.781760  	0.110274 
1660.710576  	0.107579 
1662.639392  	0.107898 
1664.568208  	0.105165 
1666.497024  	0.100062 
1668.425840  	0.099246 
1670.354656  	0.100185 
1672.283472  	0.095656 
1674.212288  	0.092120 
1676.141104  	0.092817 
1678.069920  	0.089491 
1679.998736  	0.089508 
1681.927552  	0.088154 
1683.856368  	0.091383 
1685.785184  	0.092519 
1687.714000  	0.087206 
1689.642816  	0.085784 
1691.571632  	0.082527 
1693.500448  	0.079000 
1695.429264  	0.080707 
1697.358080  	0.083154 
1699.286896  	0.079226 
1701.215712  	0.080080 
1703.144528  	0.074140 
1705.073344  	0.071332 
1707.002160  	0.067909 
1708.930976  	0.062314 
1710.859792  	0.058039 
1712.788608  	0.054677 
1714.717424  	0.053081 
1716.646240  	0.050700 
1718.575056  	0.044043 
1720.503872  	0.034906 
1722.432688  	0.029186 
1724.361504  	0.024080 
1726.290320  	0.019075 
1728.219136  	0.016562 
1730.147952  	0.015953 
1732.076768  	0.014292 
1734.005584  	0.013483 
1735.934400  	0.008156 
1737.863216  	0.005525 
1739.792032  	0.004409 
1741.720848  	0.003311 
1743.649664  	0.003781 
1745.578480  	0.002985 
1747.507296  	0.003447 
1749.436112  	0.004278 
1751.364928  	0.002133 
1753.293744  	-0.001814 
1755.222560  	-0.002940 
1757.151376  	-0.001666 
1759.080192  	-0.002531 
1761.009008  	-0.002337 
1762.937824  	-0.003200 
1764.866640  	-0.004859 
1766.795456  	-0.004089 
1768.724272  	-0.002789 
1770.653088  	-0.002566 
1772.581904  	-0.001446 
1774.510720  	-0.003029 
1776.439536  	-0.004499 
1778.368352  	-0.005324 
1780.297168  	-0.004466 
1782.225984  	-0.005435 
1784.154800  	-0.005699 
1786.083616  	-0.006264 
1788.012432  	-0.006993 
1789.941248  	-0.005240 
1791.870064  	-0.002698 
1793.798880  	-0.004166 
1795.727696  	-0.005130 
1797.656512  	-0.006053 
1799.585328  	-0.005767 
1801.514144  	-0.004920 
1803.442960  	-0.006433 
1805.371776  	-0.007712 
1807.300592  	-0.007557 
1809.229408  	-0.007115 
1811.158224  	-0.006687 
1813.087040  	-0.007916 
1815.015856  	-0.008957 
1816.944672  	-0.008390 
1818.873488  	-0.008164 
1820.802304  	-0.008256 
1822.731120  	-0.007639 
1824.659936  	-0.006688 
1826.588752  	-0.007062 
1828.517568  	-0.006841 
1830.446384  	-0.006183 
1832.375200  	-0.008024 
1834.304016  	-0.008640 
1836.232832  	-0.008440 
1838.161648  	-0.008201 
1840.090464  	-0.008660 
1842.019280  	-0.007647 
1843.948096  	-0.006001 
1845.876912  	-0.006526 
1847.805728  	-0.007892 
1849.734544  	-0.009065 
1851.663360  	-0.009617 
1853.592176  	-0.009307 
1855.520992  	-0.009255 
1857.449808  	-0.008991 
1859.378624  	-0.009363 
1861.307440  	-0.009364 
1863.236256  	-0.009661 
1865.165072  	-0.009240 
1867.093888  	-0.007449 
1869.022704  	-0.005717 
1870.951520  	-0.007814 
1872.880336  	-0.009498 
1874.809152  	-0.010107 
1876.737968  	-0.010272 
1878.666784  	-0.010349 
1880.595600  	-0.010372 
1882.524416  	-0.010267 
1884.453232  	-0.009822 
1886.382048  	-0.010123 
1888.310864  	-0.009068 
1890.239680  	-0.008649 
1892.168496  	-0.009475 
1894.097312  	-0.009187 
1896.026128  	-0.009127 
1897.954944  	-0.009993 
1899.883760  	-0.010155 
1901.812576  	-0.010163 
1903.741392  	-0.010007 
1905.670208  	-0.010281 
1907.599024  	-0.010014 
1909.527840  	-0.009536 
1911.456656  	-0.009380 
1913.385472  	-0.009598 
1915.314288  	-0.009427 
1917.243104  	-0.008796 
1919.171920  	-0.008541 
1921.100736  	-0.008717 
1923.029552  	-0.008341 
1924.958368  	-0.010213 
1926.887184  	-0.010703 
1928.816000  	-0.010879 
1930.744816  	-0.010519 
1932.673632  	-0.010397 
1934.602448  	-0.010294 
1936.531264  	-0.010701 
1938.460080  	-0.010555 
1940.388896  	-0.009744 
1942.317712  	-0.008175 
1944.246528  	-0.009376 
1946.175344  	-0.009954 
1948.104160  	-0.010008 
1950.032976  	-0.009920 
1951.961792  	-0.010379 
1953.890608  	-0.010846 
1955.819424  	-0.011171 
1957.748240  	-0.010928 
1959.677056  	-0.011524 
1961.605872  	-0.010953 
1963.534688  	-0.011475 
1965.463504  	-0.010503 
1967.392320  	-0.009707 
1969.321136  	-0.010851 
1971.249952  	-0.012761 
1973.178768  	-0.012952 
1975.107584  	-0.011575 
1977.036400  	-0.009694 
1978.965216  	-0.009791 
1980.894032  	-0.010099 
1982.822848  	-0.010802 
1984.751664  	-0.010473 
1986.680480  	-0.009984 
1988.609296  	-0.008787 
1990.538112  	-0.008371 
1992.466928  	-0.007991 
1994.395744  	-0.010005 
1996.324560  	-0.010659 
1998.253376  	-0.009872 
2000.182192  	-0.009914 
2002.111008  	-0.011103 
2004.039824  	-0.010621 
2005.968640  	-0.010971 
2007.897456  	-0.011420 
2009.826272  	-0.011162 
2011.755088  	-0.010459 
2013.683904  	-0.010906 
2015.612720  	-0.009845 
2017.541536  	-0.009043 
2019.470352  	-0.009641 
2021.399168  	-0.010775 
2023.327984  	-0.010872 
2025.256800  	-0.009979 
2027.185616  	-0.008284 
2029.114432  	-0.008366 
2031.043248  	-0.009034 
2032.972064  	-0.009238 
2034.900880  	-0.008545 
2036.829696  	-0.009564 
2038.758512  	-0.009921 
2040.687328  	-0.010333 
2042.616144  	-0.010193 
2044.544960  	-0.010364 
2046.473776  	-0.009746 
2048.402592  	-0.009020 
2050.331408  	-0.009168 
2052.260224  	-0.009650 
2054.189040  	-0.009220 
2056.117856  	-0.009537 
2058.046672  	-0.009623 
2059.975488  	-0.009338 
2061.904304  	-0.009031 
2063.833120  	-0.008670 
2065.761936  	-0.008125 
2067.690752  	-0.008838 
2069.619568  	-0.009018 
2071.548384  	-0.009407 
2073.477200  	-0.008929 
2075.406016  	-0.008911 
2077.334832  	-0.008867 
2079.263648  	-0.008406 
2081.192464  	-0.008158 
2083.121280  	-0.008793 
2085.050096  	-0.009158 
2086.978912  	-0.009107 
2088.907728  	-0.008522 
2090.836544  	-0.008075 
2092.765360  	-0.008237 
2094.694176  	-0.008366 
2096.622992  	-0.008098 
2098.551808  	-0.008219 
2100.480624  	-0.008182 
2102.409440  	-0.008258 
2104.338256  	-0.008277 
2106.267072  	-0.008648 
2108.195888  	-0.008415 
2110.124704  	-0.008018 
2112.053520  	-0.007749 
2113.982336  	-0.008024 
2115.911152  	-0.008484 
2117.839968  	-0.008808 
2119.768784  	-0.008736 
2121.697600  	-0.008574 
2123.626416  	-0.008245 
2125.555232  	-0.008695 
2127.484048  	-0.009151 
2129.412864  	-0.009328 
2131.341680  	-0.008846 
2133.270496  	-0.008512 
2135.199312  	-0.008526 
2137.128128  	-0.008179 
2139.056944  	-0.007516 
2140.985760  	-0.007594 
2142.914576  	-0.007665 
2144.843392  	-0.008771 
2146.772208  	-0.008938 
2148.701024  	-0.009064 
2150.629840  	-0.009169 
2152.558656  	-0.008741 
2154.487472  	-0.008429 
2156.416288  	-0.008184 
2158.345104  	-0.006194 
2160.273920  	-0.004804 
2162.202736  	-0.005454 
2164.131552  	-0.007543 
2166.060368  	-0.007347 
2167.989184  	-0.007808 
2169.918000  	-0.007950 
2171.846816  	-0.006995 
2173.775632  	-0.006124 
2175.704448  	-0.006979 
2177.633264  	-0.007380 
2179.562080  	-0.008098 
2181.490896  	-0.007678 
2183.419712  	-0.007317 
2185.348528  	-0.007202 
2187.277344  	-0.007723 
2189.206160  	-0.007597 
2191.134976  	-0.007818 
2193.063792  	-0.008348 
2194.992608  	-0.008397 
2196.921424  	-0.007973 
2198.850240  	-0.008284 
2200.779056  	-0.008677 
2202.707872  	-0.008640 
2204.636688  	-0.008261 
2206.565504  	-0.008706 
2208.494320  	-0.009044 
2210.423136  	-0.009137 
2212.351952  	-0.008698 
2214.280768  	-0.009191 
2216.209584  	-0.008856 
2218.138400  	-0.009141 
2220.067216  	-0.009693 
2221.996032  	-0.010455 
2223.924848  	-0.009928 
2225.853664  	-0.008815 
2227.782480  	-0.008307 
2229.711296  	-0.009275 
2231.640112  	-0.009748 
2233.568928  	-0.009990 
2235.497744  	-0.009918 
2237.426560  	-0.009715 
2239.355376  	-0.009339 
2241.284192  	-0.009586 
2243.213008  	-0.009916 
2245.141824  	-0.009900 
2247.070640  	-0.009722 
2248.999456  	-0.009680 
2250.928272  	-0.009432 
2252.857088  	-0.009432 
2254.785904  	-0.009149 
2256.714720  	-0.008970 
2258.643536  	-0.009131 
2260.572352  	-0.009056 
2262.501168  	-0.008638 
2264.429984  	-0.008579 
2266.358800  	-0.008738 
2268.287616  	-0.009180 
2270.216432  	-0.009482 
2272.145248  	-0.009365 
2274.074064  	-0.008791 
2276.002880  	-0.009041 
2277.931696  	-0.008925 
2279.860512  	-0.008776 
2281.789328  	-0.008740 
2283.718144  	-0.008461 
2285.646960  	-0.007920 
2287.575776  	-0.007943 
2289.504592  	-0.007866 
2291.433408  	-0.007679 
2293.362224  	-0.007402 
2295.291040  	-0.007519 
2297.219856  	-0.007232 
2299.148672  	-0.006633 
2301.077488  	-0.006247 
2303.006304  	-0.005832 
2304.935120  	-0.005344 
2306.863936  	-0.005037 
2308.792752  	-0.004648 
2310.721568  	-0.004639 
2312.650384  	-0.005090 
2314.579200  	-0.005510 
2316.508016  	-0.005474 
2318.436832  	-0.005436 
2320.365648  	-0.005297 
2322.294464  	-0.005633 
2324.223280  	-0.006631 
2326.152096  	-0.007974 
2328.080912  	-0.008980 
2330.009728  	-0.009478 
2331.938544  	-0.010232 
2333.867360  	-0.011257 
2335.796176  	-0.012019 
2337.724992  	-0.012663 
2339.653808  	-0.012948 
2341.582624  	-0.012332 
2343.511440  	-0.011006 
2345.440256  	-0.009292 
2347.369072  	-0.007929 
2349.297888  	-0.007842 
2351.226704  	-0.009128 
2353.155520  	-0.011104 
2355.084336  	-0.012116 
2357.013152  	-0.012681 
2358.941968  	-0.013062 
2360.870784  	-0.013550 
2362.799600  	-0.013352 
2364.728416  	-0.012557 
2366.657232  	-0.011423 
2368.586048  	-0.010442 
2370.514864  	-0.009177 
2372.443680  	-0.008064 
2374.372496  	-0.007098 
2376.301312  	-0.006584 
2378.230128  	-0.006273 
2380.158944  	-0.006379 
2382.087760  	-0.006947 
2384.016576  	-0.007982 
2385.945392  	-0.008935 
2387.874208  	-0.009444 
2389.803024  	-0.009695 
2391.731840  	-0.009953 
2393.660656  	-0.010099 
2395.589472  	-0.009890 
2397.518288  	-0.009789 
2399.447104  	-0.009988 
2401.375920  	-0.010032 
2403.304736  	-0.010197 
2405.233552  	-0.010316 
2407.162368  	-0.010370 
2409.091184  	-0.010303 
2411.020000  	-0.010322 
2412.948816  	-0.010519 
2414.877632  	-0.010556 
2416.806448  	-0.010268 
2418.735264  	-0.010276 
2420.664080  	-0.010347 
2422.592896  	-0.010322 
2424.521712  	-0.010208 
2426.450528  	-0.010221 
2428.379344  	-0.010244 
2430.308160  	-0.010079 
2432.236976  	-0.009940 
2434.165792  	-0.009754 
2436.094608  	-0.009622 
2438.023424  	-0.009607 
2439.952240  	-0.009619 
2441.881056  	-0.009654 
2443.809872  	-0.009717 
2445.738688  	-0.009780 
2447.667504  	-0.009624 
2449.596320  	-0.009215 
2451.525136  	-0.009063 
2453.453952  	-0.009349 
2455.382768  	-0.009643 
2457.311584  	-0.009662 
2459.240400  	-0.009765 
2461.169216  	-0.009807 
2463.098032  	-0.009602 
2465.026848  	-0.009538 
2466.955664  	-0.009627 
2468.884480  	-0.009741 
2470.813296  	-0.009832 
2472.742112  	-0.009725 
2474.670928  	-0.009386 
2476.599744  	-0.009249 
2478.528560  	-0.009186 
2480.457376  	-0.009027 
2482.386192  	-0.008863 
2484.315008  	-0.008982 
2486.243824  	-0.009011 
2488.172640  	-0.008894 
2490.101456  	-0.008835 
2492.030272  	-0.008934 
2493.959088  	-0.008977 
2495.887904  	-0.008920 
2497.816720  	-0.008633 
2499.745536  	-0.008596 
2501.674352  	-0.008816 
2503.603168  	-0.008796 
2505.531984  	-0.008661 
2507.460800  	-0.008838 
2509.389616  	-0.008909 
2511.318432  	-0.008796 
2513.247248  	-0.008732 
2515.176064  	-0.008744 
2517.104880  	-0.008865 
2519.033696  	-0.008970 
2520.962512  	-0.008748 
2522.891328  	-0.008685 
2524.820144  	-0.008520 
2526.748960  	-0.008504 
2528.677776  	-0.008405 
2530.606592  	-0.008308 
2532.535408  	-0.008231 
2534.464224  	-0.008288 
2536.393040  	-0.008288 
2538.321856  	-0.008184 
2540.250672  	-0.008129 
2542.179488  	-0.008144 
2544.108304  	-0.008105 
2546.037120  	-0.007937 
2547.965936  	-0.007665 
2549.894752  	-0.007454 
2551.823568  	-0.007459 
2553.752384  	-0.007701 
2555.681200  	-0.007873 
2557.610016  	-0.007717 
2559.538832  	-0.007564 
2561.467648  	-0.007449 
2563.396464  	-0.007373 
2565.325280  	-0.007481 
2567.254096  	-0.007499 
2569.182912  	-0.007509 
2571.111728  	-0.007518 
2573.040544  	-0.007567 
2574.969360  	-0.007411 
2576.898176  	-0.007133 
2578.826992  	-0.007109 
2580.755808  	-0.007398 
2582.684624  	-0.007248 
2584.613440  	-0.007000 
2586.542256  	-0.006880 
2588.471072  	-0.007069 
2590.399888  	-0.007221 
2592.328704  	-0.007129 
2594.257520  	-0.006894 
2596.186336  	-0.006962 
2598.115152  	-0.006911 
2600.043968  	-0.006496 
2601.972784  	-0.006446 
2603.901600  	-0.006554 
2605.830416  	-0.006659 
2607.759232  	-0.006550 
2609.688048  	-0.006461 
2611.616864  	-0.006239 
2613.545680  	-0.006127 
2615.474496  	-0.006182 
2617.403312  	-0.006076 
2619.332128  	-0.005984 
2621.260944  	-0.005986 
2623.189760  	-0.005998 
2625.118576  	-0.005789 
2627.047392  	-0.005680 
2628.976208  	-0.005611 
2630.905024  	-0.005557 
2632.833840  	-0.005523 
2634.762656  	-0.005640 
2636.691472  	-0.005478 
2638.620288  	-0.005364 
2640.549104  	-0.005268 
2642.477920  	-0.005088 
2644.406736  	-0.005002 
2646.335552  	-0.004990 
2648.264368  	-0.004929 
2650.193184  	-0.004845 
2652.122000  	-0.004775 
2654.050816  	-0.004763 
2655.979632  	-0.004712 
2657.908448  	-0.004617 
2659.837264  	-0.004427 
2661.766080  	-0.004275 
2663.694896  	-0.004265 
2665.623712  	-0.004289 
2667.552528  	-0.004174 
2669.481344  	-0.004162 
2671.410160  	-0.004218 
2673.338976  	-0.004153 
2675.267792  	-0.004049 
2677.196608  	-0.003800 
2679.125424  	-0.003639 
2681.054240  	-0.003637 
2682.983056  	-0.003524 
2684.911872  	-0.003435 
2686.840688  	-0.003506 
2688.769504  	-0.003513 
2690.698320  	-0.003355 
2692.627136  	-0.003241 
2694.555952  	-0.003230 
2696.484768  	-0.003218 
2698.413584  	-0.003150 
2700.342400  	-0.003110 
2702.271216  	-0.003001 
2704.200032  	-0.002845 
2706.128848  	-0.002753 
2708.057664  	-0.002673 
2709.986480  	-0.002643 
2711.915296  	-0.002598 
2713.844112  	-0.002507 
2715.772928  	-0.002381 
2717.701744  	-0.002302 
2719.630560  	-0.002196 
2721.559376  	-0.002052 
2723.488192  	-0.001918 
2725.417008  	-0.001797 
2727.345824  	-0.001740 
2729.274640  	-0.001588 
2731.203456  	-0.001498 
2733.132272  	-0.001467 
2735.061088  	-0.001356 
2736.989904  	-0.001361 
2738.918720  	-0.001277 
2740.847536  	-0.001168 
2742.776352  	-0.001142 
2744.705168  	-0.001100 
2746.633984  	-0.001081 
2748.562800  	-0.000983 
2750.491616  	-0.000926 
2752.420432  	-0.000884 
2754.349248  	-0.000861 
2756.278064  	-0.000839 
2758.206880  	-0.000935 
2760.135696  	-0.000911 
2762.064512  	-0.000776 
2763.993328  	-0.000745 
2765.922144  	-0.000707 
2767.850960  	-0.000686 
2769.779776  	-0.000754 
2771.708592  	-0.000705 
2773.637408  	-0.000696 
2775.566224  	-0.000673 
2777.495040  	-0.000692 
2779.423856  	-0.000690 
2781.352672  	-0.000557 
2783.281488  	-0.000426 
2785.210304  	-0.000400 
2787.139120  	-0.000345 
2789.067936  	-0.000305 
2790.996752  	-0.000203 
2792.925568  	-0.000164 
2794.854384  	-0.000162 
2796.783200  	-0.000082 
2798.712016  	-0.000031 
2800.640832  	-0.000036 
2802.569648  	0.000034 
2804.498464  	0.000094 
2806.427280  	0.000209 
2808.356096  	0.000372 
2810.284912  	0.000287 
2812.213728  	0.000206 
2814.142544  	0.000293 
2816.071360  	0.000248 
2818.000176  	0.000327 
2819.928992  	0.000477 
2821.857808  	0.000408 
2823.786624  	0.000269 
2825.715440  	0.000352 
2827.644256  	0.000387 
2829.573072  	0.000328 
2831.501888  	0.000312 
2833.430704  	0.000261 
2835.359520  	0.000128 
2837.288336  	0.000077 
2839.217152  	0.000072 
2841.145968  	0.000005 
2843.074784  	-0.000125 
2845.003600  	-0.000193 
2846.932416  	-0.000279 
2848.861232  	-0.000277 
2850.790048  	-0.000235 
2852.718864  	-0.000221 
2854.647680  	-0.000152 
2856.576496  	-0.000110 
2858.505312  	-0.000201 
2860.434128  	-0.000182 
2862.362944  	-0.000164 
2864.291760  	-0.000229 
2866.220576  	-0.000289 
2868.149392  	-0.000336 
2870.078208  	-0.000306 
2872.007024  	-0.000103 
2873.935840  	0.000235 
2875.864656  	0.000486 
2877.793472  	0.000626 
2879.722288  	0.000947 
2881.651104  	0.001260 
2883.579920  	0.001410 
2885.508736  	0.001584 
2887.437552  	0.001713 
2889.366368  	0.001738 
2891.295184  	0.001796 
2893.224000  	0.001778 
2895.152816  	0.001818 
2897.081632  	0.001850 
2899.010448  	0.001534 
2900.939264  	0.001241 
2902.868080  	0.001463 
2904.796896  	0.001770 
2906.725712  	0.001901 
2908.654528  	0.002192 
2910.583344  	0.002468 
2912.512160  	0.002603 
2914.440976  	0.002830 
2916.369792  	0.003359 
2918.298608  	0.003732 
2920.227424  	0.003960 
2922.156240  	0.004242 
2924.085056  	0.004620 
2926.013872  	0.004975 
2927.942688  	0.005461 
2929.871504  	0.005987 
2931.800320  	0.006400 
2933.729136  	0.006948 
2935.657952  	0.007411 
2937.586768  	0.007719 
2939.515584  	0.007924 
2941.444400  	0.008012 
2943.373216  	0.008199 
2945.302032  	0.008427 
2947.230848  	0.008540 
2949.159664  	0.008478 
2951.088480  	0.008283 
2953.017296  	0.008181 
2954.946112  	0.008075 
2956.874928  	0.007897 
2958.803744  	0.007731 
2960.732560  	0.007674 
2962.661376  	0.007465 
2964.590192  	0.007221 
2966.519008  	0.007063 
2968.447824  	0.006754 
2970.376640  	0.006503 
2972.305456  	0.006305 
2974.234272  	0.006433 
2976.163088  	0.006541 
2978.091904  	0.006403 
2980.020720  	0.006259 
2981.949536  	0.006205 
2983.878352  	0.006217 
2985.807168  	0.006051 
2987.735984  	0.006035 
2989.664800  	0.006122 
2991.593616  	0.006616 
2993.522432  	0.007048 
2995.451248  	0.007151 
2997.380064  	0.007452 
2999.308880  	0.007925 
3001.237696  	0.008370 
3003.166512  	0.008796 
3005.095328  	0.009079 
3007.024144  	0.009273 
3008.952960  	0.009737 
3010.881776  	0.010369 
3012.810592  	0.010833 
3014.739408  	0.011123 
3016.668224  	0.011348 
3018.597040  	0.011723 
3020.525856  	0.012143 
3022.454672  	0.012394 
3024.383488  	0.012819 
3026.312304  	0.013289 
3028.241120  	0.013501 
3030.169936  	0.013988 
3032.098752  	0.014635 
3034.027568  	0.014748 
3035.956384  	0.014894 
3037.885200  	0.015120 
3039.814016  	0.015526 
3041.742832  	0.015834 
3043.671648  	0.016095 
3045.600464  	0.016330 
3047.529280  	0.016764 
3049.458096  	0.017275 
3051.386912  	0.017442 
3053.315728  	0.017546 
3055.244544  	0.017895 
3057.173360  	0.018432 
3059.102176  	0.018823 
3061.030992  	0.019089 
3062.959808  	0.019469 
3064.888624  	0.020009 
3066.817440  	0.020484 
3068.746256  	0.020872 
3070.675072  	0.021225 
3072.603888  	0.021681 
3074.532704  	0.022135 
3076.461520  	0.022653 
3078.390336  	0.023178 
3080.319152  	0.023733 
3082.247968  	0.024077 
3084.176784  	0.024220 
3086.105600  	0.024623 
3088.034416  	0.025180 
3089.963232  	0.025412 
3091.892048  	0.025765 
3093.820864  	0.026197 
3095.749680  	0.026891 
3097.678496  	0.027362 
3099.607312  	0.027644 
3101.536128  	0.028344 
3103.464944  	0.028691 
3105.393760  	0.028784 
3107.322576  	0.029198 
3109.251392  	0.029679 
3111.180208  	0.029935 
3113.109024  	0.030117 
3115.037840  	0.030693 
3116.966656  	0.031352 
3118.895472  	0.031641 
3120.824288  	0.031939 
3122.753104  	0.032500 
3124.681920  	0.032698 
3126.610736  	0.032909 
3128.539552  	0.033081 
3130.468368  	0.033254 
3132.397184  	0.033711 
3134.326000  	0.033975 
3136.254816  	0.034011 
3138.183632  	0.034291 
3140.112448  	0.034612 
3142.041264  	0.034984 
3143.970080  	0.035358 
3145.898896  	0.035614 
3147.827712  	0.035890 
3149.756528  	0.036350 
3151.685344  	0.036618 
3153.614160  	0.036763 
3155.542976  	0.036999 
3157.471792  	0.037375 
3159.400608  	0.037815 
3161.329424  	0.038029 
3163.258240  	0.038281 
3165.187056  	0.038527 
3167.115872  	0.038591 
3169.044688  	0.038874 
3170.973504  	0.039256 
3172.902320  	0.039395 
3174.831136  	0.039491 
3176.759952  	0.039861 
3178.688768  	0.040356 
3180.617584  	0.040281 
3182.546400  	0.040259 
3184.475216  	0.040346 
3186.404032  	0.040426 
3188.332848  	0.040422 
3190.261664  	0.040465 
3192.190480  	0.040609 
3194.119296  	0.040772 
3196.048112  	0.040748 
3197.976928  	0.041082 
3199.905744  	0.041072 
3201.834560  	0.040930 
3203.763376  	0.040786 
3205.692192  	0.040483 
3207.621008  	0.040469 
3209.549824  	0.040837 
3211.478640  	0.040985 
3213.407456  	0.040914 
3215.336272  	0.040847 
3217.265088  	0.040483 
3219.193904  	0.040638 
3221.122720  	0.040750 
3223.051536  	0.040330 
3224.980352  	0.040090 
3226.909168  	0.040076 
3228.837984  	0.039784 
3230.766800  	0.039531 
3232.695616  	0.039597 
3234.624432  	0.039644 
3236.553248  	0.039710 
3238.482064  	0.039652 
3240.410880  	0.039404 
3242.339696  	0.039319 
3244.268512  	0.039416 
3246.197328  	0.039397 
3248.126144  	0.039142 
3250.054960  	0.039266 
3251.983776  	0.039443 
3253.912592  	0.039772 
3255.841408  	0.039822 
3257.770224  	0.039706 
3259.699040  	0.039882 
3261.627856  	0.039936 
3263.556672  	0.039825 
3265.485488  	0.040026 
3267.414304  	0.040246 
3269.343120  	0.040270 
3271.271936  	0.040294 
3273.200752  	0.040437 
3275.129568  	0.040456 
3277.058384  	0.040553 
3278.987200  	0.040465 
3280.916016  	0.040455 
3282.844832  	0.040608 
3284.773648  	0.040537 
3286.702464  	0.040429 
3288.631280  	0.040836 
3290.560096  	0.041023 
3292.488912  	0.040985 
3294.417728  	0.040943 
3296.346544  	0.041015 
3298.275360  	0.041191 
3300.204176  	0.041258 
3302.132992  	0.041303 
3304.061808  	0.041550 
3305.990624  	0.041546 
3307.919440  	0.041789 
3309.848256  	0.042222 
3311.777072  	0.042354 
3313.705888  	0.042572 
3315.634704  	0.042650 
3317.563520  	0.042782 
3319.492336  	0.042836 
3321.421152  	0.042895 
3323.349968  	0.043092 
3325.278784  	0.043188 
3327.207600  	0.043303 
3329.136416  	0.043051 
3331.065232  	0.042868 
3332.994048  	0.042954 
3334.922864  	0.043160 
3336.851680  	0.043390 
3338.780496  	0.043266 
3340.709312  	0.042848 
3342.638128  	0.042705 
3344.566944  	0.042524 
3346.495760  	0.042319 
3348.424576  	0.042239 
3350.353392  	0.042116 
3352.282208  	0.041849 
3354.211024  	0.041777 
3356.139840  	0.041704 
3358.068656  	0.041354 
3359.997472  	0.041102 
3361.926288  	0.040963 
3363.855104  	0.040670 
3365.783920  	0.040617 
3367.712736  	0.040389 
3369.641552  	0.039880 
3371.570368  	0.039317 
3373.499184  	0.039291 
3375.428000  	0.039335 
3377.356816  	0.039277 
3379.285632  	0.039031 
3381.214448  	0.038615 
3383.143264  	0.038483 
3385.072080  	0.038474 
3387.000896  	0.037831 
3388.929712  	0.037305 
3390.858528  	0.037263 
3392.787344  	0.037741 
3394.716160  	0.037432 
3396.644976  	0.037108 
3398.573792  	0.036759 
3400.502608  	0.036085 
3402.431424  	0.035773 
3404.360240  	0.035429 
3406.289056  	0.034940 
3408.217872  	0.034635 
3410.146688  	0.034375 
3412.075504  	0.034150 
3414.004320  	0.033960 
3415.933136  	0.033647 
3417.861952  	0.033395 
3419.790768  	0.033984 
3421.719584  	0.034257 
3423.648400  	0.033331 
3425.577216  	0.032353 
3427.506032  	0.031967 
3429.434848  	0.031667 
3431.363664  	0.031769 
3433.292480  	0.031667 
3435.221296  	0.031167 
3437.150112  	0.030671 
3439.078928  	0.030343 
3441.007744  	0.030038 
3442.936560  	0.030046 
3444.865376  	0.029495 
3446.794192  	0.030209 
3448.723008  	0.030118 
3450.651824  	0.028577 
3452.580640  	0.028042 
3454.509456  	0.027487 
3456.438272  	0.026935 
3458.367088  	0.026617 
3460.295904  	0.026612 
3462.224720  	0.026732 
3464.153536  	0.026077 
3466.082352  	0.025376 
3468.011168  	0.025069 
3469.939984  	0.024310 
3471.868800  	0.023660 
3473.797616  	0.023208 
3475.726432  	0.022899 
3477.655248  	0.022097 
3479.584064  	0.021839 
3481.512880  	0.022544 
3483.441696  	0.022389 
3485.370512  	0.021094 
3487.299328  	0.020724 
3489.228144  	0.020282 
3491.156960  	0.019314 
3493.085776  	0.018831 
3495.014592  	0.018834 
3496.943408  	0.018751 
3498.872224  	0.017888 
3500.801040  	0.017975 
3502.729856  	0.019318 
3504.658672  	0.018932 
3506.587488  	0.016903 
3508.516304  	0.016740 
3510.445120  	0.017145 
3512.373936  	0.016013 
3514.302752  	0.015062 
3516.231568  	0.014413 
3518.160384  	0.014073 
3520.089200  	0.013606 
3522.018016  	0.014286 
3523.946832  	0.015871 
3525.875648  	0.015288 
3527.804464  	0.014847 
3529.733280  	0.014048 
3531.662096  	0.012420 
3533.590912  	0.011115 
3535.519728  	0.011534 
3537.448544  	0.011609 
3539.377360  	0.010087 
3541.306176  	0.009510 
3543.234992  	0.010402 
3545.163808  	0.012752 
3547.092624  	0.013029 
3549.021440  	0.010185 
3550.950256  	0.008985 
3552.879072  	0.010037 
3554.807888  	0.008436 
3556.736704  	0.006736 
3558.665520  	0.007033 
3560.594336  	0.007760 
3562.523152  	0.007214 
3564.451968  	0.008121 
3566.380784  	0.013035 
3568.309600  	0.013814 
3570.238416  	0.008037 
3572.167232  	0.004780 
3574.096048  	0.004167 
3576.024864  	0.003956 
3577.953680  	0.003560 
3579.882496  	0.003515 
3581.811312  	0.002746 
3583.740128  	0.002301 
3585.668944  	0.003920 
3587.597760  	0.008088 
3589.526576  	0.005290 
3591.455392  	0.001306 
3593.384208  	0.001814 
3595.313024  	0.002842 
3597.241840  	0.001331 
3599.170656  	0.000079 
3601.099472  	0.000028 
3603.028288  	-0.001428 
3604.957104  	-0.002643 
3606.885920  	-0.000811 
3608.814736  	0.000842 
3610.743552  	-0.001231 
3612.672368  	-0.000906 
3614.601184  	-0.000302 
3616.530000  	-0.002333 
3618.458816  	-0.001522 
3620.387632  	-0.001624 
3622.316448  	-0.005240 
3624.245264  	-0.007389 
3626.174080  	-0.007049 
3628.102896  	-0.003716 
3630.031712  	-0.001406 
3631.960528  	-0.006259 
3633.889344  	-0.007999 
3635.818160  	-0.009456 
3637.746976  	-0.010567 
3639.675792  	-0.011093 
3641.604608  	-0.011092 
3643.533424  	-0.011270 
3645.462240  	-0.010804 
3647.391056  	-0.006110 
3649.319872  	-0.002907 
3651.248688  	-0.006087 
3653.177504  	-0.011996 
3655.106320  	-0.013564 
3657.035136  	-0.012846 
3658.963952  	-0.014564 
3660.892768  	-0.015537 
3662.821584  	-0.016213 
3664.750400  	-0.016567 
3666.679216  	-0.016358 
3668.608032  	-0.014238 
3670.536848  	-0.011526 
3672.465664  	-0.013859 
3674.394480  	-0.013152 
3676.323296  	-0.009561 
3678.252112  	-0.013209 
3680.180928  	-0.015491 
3682.109744  	-0.017133 
3684.038560  	-0.017450 
3685.967376  	-0.017346 
3687.896192  	-0.015208 
3689.825008  	-0.012362 
3691.753824  	-0.013772 
3693.682640  	-0.016447 
3695.611456  	-0.017485 
3697.540272  	-0.017556 
3699.469088  	-0.017958 
3701.397904  	-0.016838 
3703.326720  	-0.016697 
3705.255536  	-0.017557 
3707.184352  	-0.017264 
3709.113168  	-0.015596 
3711.041984  	-0.012503 
3712.970800  	-0.012653 
3714.899616  	-0.015513 
3716.828432  	-0.016946 
3718.757248  	-0.016242 
3720.686064  	-0.015702 
3722.614880  	-0.014598 
3724.543696  	-0.013849 
3726.472512  	-0.013310 
3728.401328  	-0.015293 
3730.330144  	-0.016828 
3732.258960  	-0.014801 
3734.187776  	-0.010569 
3736.116592  	-0.007924 
3738.045408  	-0.011838 
3739.974224  	-0.013985 
3741.903040  	-0.014645 
3743.831856  	-0.013890 
3745.760672  	-0.012069 
3747.689488  	-0.013810 
3749.618304  	-0.011768 
3751.547120  	-0.009469 
3753.475936  	-0.012178 
3755.404752  	-0.015135 
3757.333568  	-0.015462 
3759.262384  	-0.014779 
3761.191200  	-0.015944 
3763.120016  	-0.017564 
3765.048832  	-0.016425 
3766.977648  	-0.016193 
3768.906464  	-0.016242 
3770.835280  	-0.015877 
3772.764096  	-0.017574 
3774.692912  	-0.018449 
3776.621728  	-0.018402 
3778.550544  	-0.017036 
3780.479360  	-0.016340 
3782.408176  	-0.017481 
3784.336992  	-0.016998 
3786.265808  	-0.017056 
3788.194624  	-0.018109 
3790.123440  	-0.018489 
3792.052256  	-0.018559 
3793.981072  	-0.018639 
3795.909888  	-0.016610 
3797.838704  	-0.014924 
3799.767520  	-0.015226 
3801.696336  	-0.012803 
3803.625152  	-0.014734 
3805.553968  	-0.016750 
3807.482784  	-0.015876 
3809.411600  	-0.017309 
3811.340416  	-0.018407 
3813.269232  	-0.018397 
3815.198048  	-0.016159 
3817.126864  	-0.014218 
3819.055680  	-0.015103 
3820.984496  	-0.012805 
3822.913312  	-0.013904 
3824.842128  	-0.016362 
3826.770944  	-0.016149 
3828.699760  	-0.016891 
3830.628576  	-0.017256 
3832.557392  	-0.016466 
3834.486208  	-0.016188 
3836.415024  	-0.015053 
3838.343840  	-0.012936 
3840.272656  	-0.012438 
3842.201472  	-0.014205 
3844.130288  	-0.015148 
3846.059104  	-0.016884 
3847.987920  	-0.017742 
3849.916736  	-0.016826 
3851.845552  	-0.014105 
3853.774368  	-0.009310 
3855.703184  	-0.011916 
3857.632000  	-0.014774 
3859.560816  	-0.016901 
3861.489632  	-0.016170 
3863.418448  	-0.014046 
3865.347264  	-0.013120 
3867.276080  	-0.015442 
3869.204896  	-0.013756 
3871.133712  	-0.012070 
3873.062528  	-0.014345 
3874.991344  	-0.014984 
3876.920160  	-0.017605 
3878.848976  	-0.017161 
3880.777792  	-0.013827 
3882.706608  	-0.014401 
3884.635424  	-0.014757 
3886.564240  	-0.014898 
3888.493056  	-0.017762 
3890.421872  	-0.016871 
3892.350688  	-0.014973 
3894.279504  	-0.016581 
3896.208320  	-0.017748 
3898.137136  	-0.016278 
3900.065952  	-0.013459 
3901.994768  	-0.012493 
3903.923584  	-0.012104 
3905.852400  	-0.013968 
3907.781216  	-0.017488 
3909.710032  	-0.019239 
3911.638848  	-0.019413 
3913.567664  	-0.019099 
3915.496480  	-0.017500 
3917.425296  	-0.015499 
3919.354112  	-0.015832 
3921.282928  	-0.016646 
3923.211744  	-0.016351 
3925.140560  	-0.015653 
3927.069376  	-0.017466 
3928.998192  	-0.017496 
3930.927008  	-0.015741 
3932.855824  	-0.015385 
3934.784640  	-0.017408 
3936.713456  	-0.018583 
3938.642272  	-0.018597 
3940.571088  	-0.018185 
3942.499904  	-0.016390 
3944.428720  	-0.016705 
3946.357536  	-0.017526 
3948.286352  	-0.016309 
3950.215168  	-0.016803 
3952.143984  	-0.018322 
3954.072800  	-0.018916 
3956.001616  	-0.018679 
3957.930432  	-0.018383 
3959.859248  	-0.018098 
3961.788064  	-0.017825 
3963.716880  	-0.018339 
3965.645696  	-0.019102 
3967.574512  	-0.019195 
3969.503328  	-0.019007 
3971.432144  	-0.018793 
3973.360960  	-0.018181 
3975.289776  	-0.017740 
3977.218592  	-0.018352 
3979.147408  	-0.018940 
3981.076224  	-0.018802 
3983.005040  	-0.018885 
3984.933856  	-0.018923 
3986.862672  	-0.018752 
3988.791488  	-0.018792 
3990.720304  	-0.018461 
3992.649120  	-0.018621 
3994.577936  	-0.018657 
3996.506752  	-0.018731 
3998.435568  	-0.019097 
4000.364384  	-0.019219 