##TITLE=No Description
##DATA TYPE=INFRARED SPECTRUM
##XUNITS=1/CM
##YUNITS=Abs
399.264912  	0.496763 
401.193728  	0.492997 
403.122544  	0.497958 
405.051360  	0.489822 
406.980176  	0.491246 
408.908992  	0.493992 
410.837808  	0.502377 
412.766624  	0.505156 
414.695440  	0.492046 
416.624256  	0.473593 
418.553072  	0.478656 
420.481888  	0.488913 
422.410704  	0.489675 
424.339520  	0.478462 
426.268336  	0.473885 
428.197152  	0.472550 
430.125968  	0.470819 
432.054784  	0.462265 
433.983600  	0.463477 
435.912416  	0.459264 
437.841232  	0.455974 
439.770048  	0.456658 
441.698864  	0.454867 
443.627680  	0.448072 
445.556496  	0.451962 
447.485312  	0.448141 
449.414128  	0.444641 
451.342944  	0.446042 
453.271760  	0.448797 
455.200576  	0.441725 
457.129392  	0.446696 
459.058208  	0.448850 
460.987024  	0.445778 
462.915840  	0.441613 
464.844656  	0.440409 
466.773472  	0.439697 
468.702288  	0.440175 
470.631104  	0.441228 
472.559920  	0.443051 
474.488736  	0.439307 
476.417552  	0.441860 
478.346368  	0.439690 
480.275184  	0.434992 
482.204000  	0.433720 
484.132816  	0.434527 
486.061632  	0.435661 
487.990448  	0.434779 
489.919264  	0.431697 
491.848080  	0.432797 
493.776896  	0.431408 
495.705712  	0.428029 
497.634528  	0.425870 
499.563344  	0.426436 
501.492160  	0.425679 
503.420976  	0.425035 
505.349792  	0.424054 
507.278608  	0.424057 
509.207424  	0.422749 
511.136240  	0.423859 
513.065056  	0.424002 
514.993872  	0.428962 
516.922688  	0.430119 
518.851504  	0.431668 
520.780320  	0.431265 
522.709136  	0.430539 
524.637952  	0.428986 
526.566768  	0.427443 
528.495584  	0.423667 
530.424400  	0.420779 
532.353216  	0.416377 
534.282032  	0.413400 
536.210848  	0.409871 
538.139664  	0.404642 
540.068480  	0.398744 
541.997296  	0.395189 
543.926112  	0.391819 
545.854928  	0.390338 
547.783744  	0.388069 
549.712560  	0.384918 
551.641376  	0.381065 
553.570192  	0.379085 
555.499008  	0.375771 
557.427824  	0.373125 
559.356640  	0.369966 
561.285456  	0.367905 
563.214272  	0.364677 
565.143088  	0.362188 
567.071904  	0.360198 
569.000720  	0.358139 
570.929536  	0.353967 
572.858352  	0.351246 
574.787168  	0.349800 
576.715984  	0.348037 
578.644800  	0.344464 
580.573616  	0.340731 
582.502432  	0.335386 
584.431248  	0.331108 
586.360064  	0.327709 
588.288880  	0.325275 
590.217696  	0.323197 
592.146512  	0.322304 
594.075328  	0.320140 
596.004144  	0.317911 
597.932960  	0.315816 
599.861776  	0.314920 
601.790592  	0.313743 
603.719408  	0.312423 
605.648224  	0.311613 
607.577040  	0.310462 
609.505856  	0.308471 
611.434672  	0.308048 
613.363488  	0.306430 
615.292304  	0.305156 
617.221120  	0.303429 
619.149936  	0.301941 
621.078752  	0.301343 
623.007568  	0.301173 
624.936384  	0.300007 
626.865200  	0.299061 
628.794016  	0.297725 
630.722832  	0.296929 
632.651648  	0.296725 
634.580464  	0.297326 
636.509280  	0.297889 
638.438096  	0.297632 
640.366912  	0.296378 
642.295728  	0.295240 
644.224544  	0.293419 
646.153360  	0.290486 
648.082176  	0.286693 
650.010992  	0.284084 
651.939808  	0.281604 
653.868624  	0.278795 
655.797440  	0.275370 
657.726256  	0.272620 
659.655072  	0.269098 
661.583888  	0.265167 
663.512704  	0.261348 
665.441520  	0.257625 
667.370336  	0.254821 
669.299152  	0.252476 
671.227968  	0.247519 
673.156784  	0.243890 
675.085600  	0.240959 
677.014416  	0.238343 
678.943232  	0.236543 
680.872048  	0.235468 
682.800864  	0.234177 
684.729680  	0.232760 
686.658496  	0.231012 
688.587312  	0.229890 
690.516128  	0.228747 
692.444944  	0.228276 
694.373760  	0.227398 
696.302576  	0.226069 
698.231392  	0.223993 
700.160208  	0.221735 
702.089024  	0.219420 
704.017840  	0.217554 
705.946656  	0.215199 
707.875472  	0.212808 
709.804288  	0.210849 
711.733104  	0.209573 
713.661920  	0.208534 
715.590736  	0.207512 
717.519552  	0.206834 
719.448368  	0.207082 
721.377184  	0.207705 
723.306000  	0.208082 
725.234816  	0.208495 
727.163632  	0.207819 
729.092448  	0.205087 
731.021264  	0.201890 
732.950080  	0.199036 
734.878896  	0.196166 
736.807712  	0.193083 
738.736528  	0.190631 
740.665344  	0.188983 
742.594160  	0.188025 
744.522976  	0.186579 
746.451792  	0.185073 
748.380608  	0.183627 
750.309424  	0.182465 
752.238240  	0.181338 
754.167056  	0.181202 
756.095872  	0.180871 
758.024688  	0.179602 
759.953504  	0.178995 
761.882320  	0.179931 
763.811136  	0.180587 
765.739952  	0.179059 
767.668768  	0.175909 
769.597584  	0.173571 
771.526400  	0.172609 
773.455216  	0.173717 
775.384032  	0.177365 
777.312848  	0.182643 
779.241664  	0.186317 
781.170480  	0.185280 
783.099296  	0.180382 
785.028112  	0.174674 
786.956928  	0.169669 
788.885744  	0.165983 
790.814560  	0.163142 
792.743376  	0.161191 
794.672192  	0.160242 
796.601008  	0.159311 
798.529824  	0.156428 
800.458640  	0.152818 
802.387456  	0.149966 
804.316272  	0.148129 
806.245088  	0.147226 
808.173904  	0.146496 
810.102720  	0.146151 
812.031536  	0.146082 
813.960352  	0.146232 
815.889168  	0.146612 
817.817984  	0.147231 
819.746800  	0.148144 
821.675616  	0.149012 
823.604432  	0.149466 
825.533248  	0.149847 
827.462064  	0.150233 
829.390880  	0.150139 
831.319696  	0.149804 
833.248512  	0.149063 
835.177328  	0.147582 
837.106144  	0.145009 
839.034960  	0.142106 
840.963776  	0.138623 
842.892592  	0.134905 
844.821408  	0.131295 
846.750224  	0.127970 
848.679040  	0.125451 
850.607856  	0.123714 
852.536672  	0.122236 
854.465488  	0.121068 
856.394304  	0.120108 
858.323120  	0.118789 
860.251936  	0.117477 
862.180752  	0.116314 
864.109568  	0.114578 
866.038384  	0.112396 
867.967200  	0.110307 
869.896016  	0.108743 
871.824832  	0.107996 
873.753648  	0.108112 
875.682464  	0.108846 
877.611280  	0.110353 
879.540096  	0.112310 
881.468912  	0.114623 
883.397728  	0.116946 
885.326544  	0.118725 
887.255360  	0.119915 
889.184176  	0.120151 
891.112992  	0.119489 
893.041808  	0.118283 
894.970624  	0.115970 
896.899440  	0.112129 
898.828256  	0.107839 
900.757072  	0.103616 
902.685888  	0.100079 
904.614704  	0.097919 
906.543520  	0.097295 
908.472336  	0.098387 
910.401152  	0.100695 
912.329968  	0.103324 
914.258784  	0.105802 
916.187600  	0.108028 
918.116416  	0.109895 
920.045232  	0.111422 
921.974048  	0.112553 
923.902864  	0.113474 
925.831680  	0.114363 
927.760496  	0.115358 
929.689312  	0.116256 
931.618128  	0.117392 
933.546944  	0.118396 
935.475760  	0.118665 
937.404576  	0.118271 
939.333392  	0.117439 
941.262208  	0.116964 
943.191024  	0.117754 
945.119840  	0.120217 
947.048656  	0.124904 
948.977472  	0.132210 
950.906288  	0.141521 
952.835104  	0.152773 
954.763920  	0.165401 
956.692736  	0.177943 
958.621552  	0.189258 
960.550368  	0.197616 
962.479184  	0.202587 
964.408000  	0.203019 
966.336816  	0.199172 
968.265632  	0.191074 
970.194448  	0.180292 
972.123264  	0.167495 
974.052080  	0.153781 
975.980896  	0.140315 
977.909712  	0.127585 
979.838528  	0.116427 
981.767344  	0.107280 
983.696160  	0.100362 
985.624976  	0.095670 
987.553792  	0.093793 
989.482608  	0.094747 
991.411424  	0.098055 
993.340240  	0.103212 
995.269056  	0.109246 
997.197872  	0.115856 
999.126688  	0.122584 
1001.055504  	0.129493 
1002.984320  	0.136107 
1004.913136  	0.142883 
1006.841952  	0.149318 
1008.770768  	0.155283 
1010.699584  	0.160251 
1012.628400  	0.164087 
1014.557216  	0.166499 
1016.486032  	0.167555 
1018.414848  	0.167602 
1020.343664  	0.167340 
1022.272480  	0.166950 
1024.201296  	0.166383 
1026.130112  	0.165755 
1028.058928  	0.166113 
1029.987744  	0.167930 
1031.916560  	0.170466 
1033.845376  	0.173667 
1035.774192  	0.178034 
1037.703008  	0.184114 
1039.631824  	0.192982 
1041.560640  	0.204433 
1043.489456  	0.218832 
1045.418272  	0.234585 
1047.347088  	0.249699 
1049.275904  	0.260265 
1051.204720  	0.265253 
1053.133536  	0.265040 
1055.062352  	0.262026 
1056.991168  	0.257678 
1058.919984  	0.254401 
1060.848800  	0.251993 
1062.777616  	0.250256 
1064.706432  	0.247586 
1066.635248  	0.244504 
1068.564064  	0.240883 
1070.492880  	0.235672 
1072.421696  	0.229880 
1074.350512  	0.226503 
1076.279328  	0.226714 
1078.208144  	0.230312 
1080.136960  	0.235381 
1082.065776  	0.239618 
1083.994592  	0.240154 
1085.923408  	0.236825 
1087.852224  	0.229429 
1089.781040  	0.220376 
1091.709856  	0.209949 
1093.638672  	0.198476 
1095.567488  	0.185781 
1097.496304  	0.172925 
1099.425120  	0.160147 
1101.353936  	0.148224 
1103.282752  	0.136809 
1105.211568  	0.126355 
1107.140384  	0.117033 
1109.069200  	0.108464 
1110.998016  	0.100943 
1112.926832  	0.094048 
1114.855648  	0.087923 
1116.784464  	0.081921 
1118.713280  	0.075988 
1120.642096  	0.070481 
1122.570912  	0.065381 
1124.499728  	0.060652 
1126.428544  	0.056365 
1128.357360  	0.052653 
1130.286176  	0.049581 
1132.214992  	0.047269 
1134.143808  	0.045585 
1136.072624  	0.044080 
1138.001440  	0.042807 
1139.930256  	0.041571 
1141.859072  	0.040121 
1143.787888  	0.038493 
1145.716704  	0.037163 
1147.645520  	0.036059 
1149.574336  	0.035457 
1151.503152  	0.034733 
1153.431968  	0.034401 
1155.360784  	0.034600 
1157.289600  	0.035636 
1159.218416  	0.036972 
1161.147232  	0.038509 
1163.076048  	0.040159 
1165.004864  	0.041962 
1166.933680  	0.043624 
1168.862496  	0.045537 
1170.791312  	0.047568 
1172.720128  	0.050001 
1174.648944  	0.052768 
1176.577760  	0.055379 
1178.506576  	0.058059 
1180.435392  	0.060954 
1182.364208  	0.063950 
1184.293024  	0.067403 
1186.221840  	0.071417 
1188.150656  	0.075649 
1190.079472  	0.080535 
1192.008288  	0.086435 
1193.937104  	0.093038 
1195.865920  	0.100185 
1197.794736  	0.107890 
1199.723552  	0.116543 
1201.652368  	0.125084 
1203.581184  	0.132914 
1205.510000  	0.140142 
1207.438816  	0.146593 
1209.367632  	0.152278 
1211.296448  	0.156739 
1213.225264  	0.160219 
1215.154080  	0.162192 
1217.082896  	0.163231 
1219.011712  	0.163042 
1220.940528  	0.162283 
1222.869344  	0.160750 
1224.798160  	0.158880 
1226.726976  	0.156178 
1228.655792  	0.153019 
1230.584608  	0.149418 
1232.513424  	0.145265 
1234.442240  	0.140710 
1236.371056  	0.135926 
1238.299872  	0.130623 
1240.228688  	0.124567 
1242.157504  	0.118608 
1244.086320  	0.112816 
1246.015136  	0.106810 
1247.943952  	0.101115 
1249.872768  	0.095474 
1251.801584  	0.090046 
1253.730400  	0.084890 
1255.659216  	0.079845 
1257.588032  	0.075001 
1259.516848  	0.070784 
1261.445664  	0.066669 
1263.374480  	0.062735 
1265.303296  	0.059477 
1267.232112  	0.057049 
1269.160928  	0.055427 
1271.089744  	0.054284 
1273.018560  	0.053510 
1274.947376  	0.053452 
1276.876192  	0.054192 
1278.805008  	0.054785 
1280.733824  	0.054643 
1282.662640  	0.053321 
1284.591456  	0.051711 
1286.520272  	0.050552 
1288.449088  	0.049922 
1290.377904  	0.049585 
1292.306720  	0.050216 
1294.235536  	0.050917 
1296.164352  	0.050873 
1298.093168  	0.049342 
1300.021984  	0.047156 
1301.950800  	0.044732 
1303.879616  	0.042146 
1305.808432  	0.039395 
1307.737248  	0.036587 
1309.666064  	0.033738 
1311.594880  	0.032194 
1313.523696  	0.031187 
1315.452512  	0.029945 
1317.381328  	0.029804 
1319.310144  	0.029966 
1321.238960  	0.029591 
1323.167776  	0.029782 
1325.096592  	0.030267 
1327.025408  	0.030476 
1328.954224  	0.030413 
1330.883040  	0.029944 
1332.811856  	0.028779 
1334.740672  	0.028199 
1336.669488  	0.029208 
1338.598304  	0.031392 
1340.527120  	0.030599 
1342.455936  	0.027118 
1344.384752  	0.026105 
1346.313568  	0.026495 
1348.242384  	0.027270 
1350.171200  	0.028177 
1352.100016  	0.029318 
1354.028832  	0.031170 
1355.957648  	0.032906 
1357.886464  	0.034429 
1359.815280  	0.036856 
1361.744096  	0.040925 
1363.672912  	0.042637 
1365.601728  	0.041646 
1367.530544  	0.043143 
1369.459360  	0.044888 
1371.388176  	0.045330 
1373.316992  	0.046717 
1375.245808  	0.045794 
1377.174624  	0.042352 
1379.103440  	0.039882 
1381.032256  	0.037108 
1382.961072  	0.034889 
1384.889888  	0.034244 
1386.818704  	0.035370 
1388.747520  	0.033307 
1390.676336  	0.030289 
1392.605152  	0.029320 
1394.533968  	0.030807 
1396.462784  	0.031503 
1398.391600  	0.031091 
1400.320416  	0.029502 
1402.249232  	0.028235 
1404.178048  	0.029796 
1406.106864  	0.030380 
1408.035680  	0.030357 
1409.964496  	0.031988 
1411.893312  	0.033773 
1413.822128  	0.035200 
1415.750944  	0.038556 
1417.679760  	0.042705 
1419.608576  	0.043798 
1421.537392  	0.041284 
1423.466208  	0.041086 
1425.395024  	0.039114 
1427.323840  	0.036503 
1429.252656  	0.035637 
1431.181472  	0.034185 
1433.110288  	0.033070 
1435.039104  	0.034134 
1436.967920  	0.036437 
1438.896736  	0.035214 
1440.825552  	0.034777 
1442.754368  	0.035207 
1444.683184  	0.035388 
1446.612000  	0.036669 
1448.540816  	0.037480 
1450.469632  	0.036927 
1452.398448  	0.037546 
1454.327264  	0.039128 
1456.256080  	0.043735 
1458.184896  	0.044945 
1460.113712  	0.039189 
1462.042528  	0.036229 
1463.971344  	0.036828 
1465.900160  	0.037496 
1467.828976  	0.036597 
1469.757792  	0.037711 
1471.686608  	0.043668 
1473.615424  	0.051230 
1475.544240  	0.052925 
1477.473056  	0.054754 
1479.401872  	0.056091 
1481.330688  	0.059346 
1483.259504  	0.060884 
1485.188320  	0.062495 
1487.117136  	0.065702 
1489.045952  	0.069590 
1490.974768  	0.067190 
1492.903584  	0.061056 
1494.832400  	0.057859 
1496.761216  	0.056006 
1498.690032  	0.050986 
1500.618848  	0.045523 
1502.547664  	0.040878 
1504.476480  	0.038976 
1506.405296  	0.045035 
1508.334112  	0.045825 
1510.262928  	0.038084 
1512.191744  	0.033555 
1514.120560  	0.032576 
1516.049376  	0.035724 
1517.978192  	0.036807 
1519.907008  	0.037416 
1521.835824  	0.042886 
1523.764640  	0.043051 
1525.693456  	0.045019 
1527.622272  	0.045984 
1529.551088  	0.043813 
1531.479904  	0.042716 
1533.408720  	0.043191 
1535.337536  	0.039022 
1537.266352  	0.036273 
1539.195168  	0.038408 
1541.123984  	0.039472 
1543.052800  	0.036442 
1544.981616  	0.033238 
1546.910432  	0.028121 
1548.839248  	0.027911 
1550.768064  	0.029057 
1552.696880  	0.027916 
1554.625696  	0.029982 
1556.554512  	0.031167 
1558.483328  	0.037765 
1560.412144  	0.038121 
1562.340960  	0.034782 
1564.269776  	0.036085 
1566.198592  	0.039225 
1568.127408  	0.042095 
1570.056224  	0.048693 
1571.985040  	0.050325 
1573.913856  	0.051875 
1575.842672  	0.056689 
1577.771488  	0.059591 
1579.700304  	0.056716 
1581.629120  	0.055600 
1583.557936  	0.055101 
1585.486752  	0.055889 
1587.415568  	0.057618 
1589.344384  	0.061236 
1591.273200  	0.065559 
1593.202016  	0.071099 
1595.130832  	0.077212 
1597.059648  	0.082957 
1598.988464  	0.087381 
1600.917280  	0.092311 
1602.846096  	0.096170 
1604.774912  	0.098428 
1606.703728  	0.099187 
1608.632544  	0.099856 
1610.561360  	0.098220 
1612.490176  	0.096298 
1614.418992  	0.094380 
1616.347808  	0.096852 
1618.276624  	0.098952 
1620.205440  	0.098398 
1622.134256  	0.100744 
1624.063072  	0.107585 
1625.991888  	0.110279 
1627.920704  	0.116128 
1629.849520  	0.121948 
1631.778336  	0.125871 
1633.707152  	0.129679 
1635.635968  	0.141981 
1637.564784  	0.149930 
1639.493600  	0.148743 
1641.422416  	0.149615 
1643.351232  	0.150353 
1645.280048  	0.151692 
1647.208864  	0.160413 
1649.137680  	0.157614 
1651.066496  	0.150817 
1652.995312  	0.155699 
1654.924128  	0.159530 
1656.852944  	0.150661 
1658.781760  	0.145964 
1660.710576  	0.143221 
1662.639392  	0.142509 
1664.568208  	0.138793 
1666.497024  	0.133757 
1668.425840  	0.132028 
1670.354656  	0.130810 
1672.283472  	0.125044 
1674.212288  	0.120702 
1676.141104  	0.119183 
1678.069920  	0.115405 
1679.998736  	0.114813 
1681.927552  	0.113421 
1683.856368  	0.115549 
1685.785184  	0.115943 
1687.714000  	0.111471 
1689.642816  	0.110314 
1691.571632  	0.107574 
1693.500448  	0.104970 
1695.429264  	0.107076 
1697.358080  	0.110115 
1699.286896  	0.107046 
1701.215712  	0.107935 
1703.144528  	0.103404 
1705.073344  	0.101508 
1707.002160  	0.098421 
1708.930976  	0.093276 
1710.859792  	0.088679 
1712.788608  	0.084655 
1714.717424  	0.081443 
1716.646240  	0.076676 
1718.575056  	0.066183 
1720.503872  	0.055133 
1722.432688  	0.047527 
1724.361504  	0.039802 
1726.290320  	0.032790 
1728.219136  	0.028521 
1730.147952  	0.026019 
1732.076768  	0.023258 
1734.005584  	0.021064 
1735.934400  	0.014940 
1737.863216  	0.012420 
1739.792032  	0.010697 
1741.720848  	0.009168 
1743.649664  	0.009191 
1745.578480  	0.008158 
1747.507296  	0.008217 
1749.436112  	0.008743 
1751.364928  	0.006451 
1753.293744  	0.002714 
1755.222560  	0.001705 
1757.151376  	0.002691 
1759.080192  	0.001482 
1761.009008  	0.001498 
1762.937824  	0.000540 
1764.866640  	-0.000961 
1766.795456  	-0.000181 
1768.724272  	0.000974 
1770.653088  	0.001057 
1772.581904  	0.001743 
1774.510720  	0.000149 
1776.439536  	-0.001115 
1778.368352  	-0.001984 
1780.297168  	-0.001334 
1782.225984  	-0.002305 
1784.154800  	-0.002597 
1786.083616  	-0.003293 
1788.012432  	-0.003709 
1789.941248  	-0.001863 
1791.870064  	0.000229 
1793.798880  	-0.001468 
1795.727696  	-0.002229 
1797.656512  	-0.003107 
1799.585328  	-0.002846 
1801.514144  	-0.002242 
1803.442960  	-0.003659 
1805.371776  	-0.004725 
1807.300592  	-0.004439 
1809.229408  	-0.004239 
1811.158224  	-0.004090 
1813.087040  	-0.005205 
1815.015856  	-0.006035 
1816.944672  	-0.005546 
1818.873488  	-0.005422 
1820.802304  	-0.005516 
1822.731120  	-0.004678 
1824.659936  	-0.003887 
1826.588752  	-0.004216 
1828.517568  	-0.003940 
1830.446384  	-0.003588 
1832.375200  	-0.005462 
1834.304016  	-0.005913 
1836.232832  	-0.005715 
1838.161648  	-0.005497 
1840.090464  	-0.005945 
1842.019280  	-0.005036 
1843.948096  	-0.003643 
1845.876912  	-0.003894 
1847.805728  	-0.005178 
1849.734544  	-0.006401 
1851.663360  	-0.007025 
1853.592176  	-0.006652 
1855.520992  	-0.006717 
1857.449808  	-0.006608 
1859.378624  	-0.006739 
1861.307440  	-0.006545 
1863.236256  	-0.006935 
1865.165072  	-0.006283 
1867.093888  	-0.004666 
1869.022704  	-0.003643 
1870.951520  	-0.005633 
1872.880336  	-0.006731 
1874.809152  	-0.007153 
1876.737968  	-0.007320 
1878.666784  	-0.007530 
1880.595600  	-0.007674 
1882.524416  	-0.007558 
1884.453232  	-0.007029 
1886.382048  	-0.007427 
1888.310864  	-0.006472 
1890.239680  	-0.006043 
1892.168496  	-0.006678 
1894.097312  	-0.006489 
1896.026128  	-0.006621 
1897.954944  	-0.007314 
1899.883760  	-0.007163 
1901.812576  	-0.007347 
1903.741392  	-0.007277 
1905.670208  	-0.007577 
1907.599024  	-0.007236 
1909.527840  	-0.006740 
1911.456656  	-0.006577 
1913.385472  	-0.006971 
1915.314288  	-0.006598 
1917.243104  	-0.005855 
1919.171920  	-0.005852 
1921.100736  	-0.006232 
1923.029552  	-0.005456 
1924.958368  	-0.007377 
1926.887184  	-0.008257 
1928.816000  	-0.008566 
1930.744816  	-0.008006 
1932.673632  	-0.007821 
1934.602448  	-0.007812 
1936.531264  	-0.007781 
1938.460080  	-0.007182 
1940.388896  	-0.006237 
1942.317712  	-0.004883 
1944.246528  	-0.006589 
1946.175344  	-0.006902 
1948.104160  	-0.006930 
1950.032976  	-0.006881 
1951.961792  	-0.007068 
1953.890608  	-0.007717 
1955.819424  	-0.008897 
1957.748240  	-0.008951 
1959.677056  	-0.008812 
1961.605872  	-0.007827 
1963.534688  	-0.007722 
1965.463504  	-0.006592 
1967.392320  	-0.007019 
1969.321136  	-0.007762 
1971.249952  	-0.008872 
1973.178768  	-0.008722 
1975.107584  	-0.008172 
1977.036400  	-0.006798 
1978.965216  	-0.006915 
1980.894032  	-0.007248 
1982.822848  	-0.007743 
1984.751664  	-0.007692 
1986.680480  	-0.007517 
1988.609296  	-0.006514 
1990.538112  	-0.005959 
1992.466928  	-0.005207 
1994.395744  	-0.007388 
1996.324560  	-0.008222 
1998.253376  	-0.007592 
2000.182192  	-0.007168 
2002.111008  	-0.007631 
2004.039824  	-0.007417 
2005.968640  	-0.008050 
2007.897456  	-0.007754 
2009.826272  	-0.007729 
2011.755088  	-0.006504 
2013.683904  	-0.006676 
2015.612720  	-0.006194 
2017.541536  	-0.005395 
2019.470352  	-0.005259 
2021.399168  	-0.006789 
2023.327984  	-0.007186 
2025.256800  	-0.006952 
2027.185616  	-0.005706 
2029.114432  	-0.006298 
2031.043248  	-0.006199 
2032.972064  	-0.006287 
2034.900880  	-0.005097 
2036.829696  	-0.004970 
2038.758512  	-0.005015 
2040.687328  	-0.005837 
2042.616144  	-0.006084 
2044.544960  	-0.006653 
2046.473776  	-0.006533 
2048.402592  	-0.005956 
2050.331408  	-0.005727 
2052.260224  	-0.006259 
2054.189040  	-0.006371 
2056.117856  	-0.006497 
2058.046672  	-0.006261 
2059.975488  	-0.006435 
2061.904304  	-0.005833 
2063.833120  	-0.005137 
2065.761936  	-0.004570 
2067.690752  	-0.005444 
2069.619568  	-0.005975 
2071.548384  	-0.006488 
2073.477200  	-0.006134 
2075.406016  	-0.005952 
2077.334832  	-0.005543 
2079.263648  	-0.005204 
2081.192464  	-0.004931 
2083.121280  	-0.005533 
2085.050096  	-0.005895 
2086.978912  	-0.006043 
2088.907728  	-0.005219 
2090.836544  	-0.004920 
2092.765360  	-0.005711 
2094.694176  	-0.006090 
2096.622992  	-0.005295 
2098.551808  	-0.005222 
2100.480624  	-0.005103 
2102.409440  	-0.005207 
2104.338256  	-0.005073 
2106.267072  	-0.005128 
2108.195888  	-0.004912 
2110.124704  	-0.005091 
2112.053520  	-0.005134 
2113.982336  	-0.005086 
2115.911152  	-0.004991 
2117.839968  	-0.005129 
2119.768784  	-0.005016 
2121.697600  	-0.005133 
2123.626416  	-0.005288 
2125.555232  	-0.005572 
2127.484048  	-0.005682 
2129.412864  	-0.005806 
2131.341680  	-0.005338 
2133.270496  	-0.004712 
2135.199312  	-0.004219 
2137.128128  	-0.004163 
2139.056944  	-0.004022 
2140.985760  	-0.004086 
2142.914576  	-0.003704 
2144.843392  	-0.004552 
2146.772208  	-0.004365 
2148.701024  	-0.004079 
2150.629840  	-0.004362 
2152.558656  	-0.003502 
2154.487472  	-0.002469 
2156.416288  	-0.003458 
2158.345104  	-0.002523 
2160.273920  	-0.000598 
2162.202736  	-0.000539 
2164.131552  	-0.002632 
2166.060368  	-0.002139 
2167.989184  	-0.002231 
2169.918000  	-0.003484 
2171.846816  	-0.003793 
2173.775632  	-0.002947 
2175.704448  	-0.002861 
2177.633264  	-0.002615 
2179.562080  	-0.003318 
2181.490896  	-0.003492 
2183.419712  	-0.003120 
2185.348528  	-0.003342 
2187.277344  	-0.004523 
2189.206160  	-0.004630 
2191.134976  	-0.004215 
2193.063792  	-0.004140 
2194.992608  	-0.004549 
2196.921424  	-0.003735 
2198.850240  	-0.004186 
2200.779056  	-0.004840 
2202.707872  	-0.004729 
2204.636688  	-0.003834 
2206.565504  	-0.004065 
2208.494320  	-0.005068 
2210.423136  	-0.005724 
2212.351952  	-0.005055 
2214.280768  	-0.004864 
2216.209584  	-0.005001 
2218.138400  	-0.005789 
2220.067216  	-0.005911 
2221.996032  	-0.005941 
2223.924848  	-0.005354 
2225.853664  	-0.005270 
2227.782480  	-0.004990 
2229.711296  	-0.005670 
2231.640112  	-0.006103 
2233.568928  	-0.006124 
2235.497744  	-0.005696 
2237.426560  	-0.005723 
2239.355376  	-0.005893 
2241.284192  	-0.006545 
2243.213008  	-0.006368 
2245.141824  	-0.006129 
2247.070640  	-0.006128 
2248.999456  	-0.006170 
2250.928272  	-0.006099 
2252.857088  	-0.006309 
2254.785904  	-0.006135 
2256.714720  	-0.005792 
2258.643536  	-0.005623 
2260.572352  	-0.005500 
2262.501168  	-0.005250 
2264.429984  	-0.005317 
2266.358800  	-0.005263 
2268.287616  	-0.005340 
2270.216432  	-0.005476 
2272.145248  	-0.005678 
2274.074064  	-0.005602 
2276.002880  	-0.005539 
2277.931696  	-0.005146 
2279.860512  	-0.005233 
2281.789328  	-0.005435 
2283.718144  	-0.005518 
2285.646960  	-0.005116 
2287.575776  	-0.004795 
2289.504592  	-0.004448 
2291.433408  	-0.004348 
2293.362224  	-0.004224 
2295.291040  	-0.004225 
2297.219856  	-0.003710 
2299.148672  	-0.003253 
2301.077488  	-0.002979 
2303.006304  	-0.002531 
2304.935120  	-0.002018 
2306.863936  	-0.001850 
2308.792752  	-0.001550 
2310.721568  	-0.001216 
2312.650384  	-0.001292 
2314.579200  	-0.001940 
2316.508016  	-0.001949 
2318.436832  	-0.001770 
2320.365648  	-0.001510 
2322.294464  	-0.001639 
2324.223280  	-0.002740 
2326.152096  	-0.003971 
2328.080912  	-0.004593 
2330.009728  	-0.005199 
2331.938544  	-0.005759 
2333.867360  	-0.006732 
2335.796176  	-0.007532 
2337.724992  	-0.008025 
2339.653808  	-0.007968 
2341.582624  	-0.007462 
2343.511440  	-0.006507 
2345.440256  	-0.005077 
2347.369072  	-0.004029 
2349.297888  	-0.003833 
2351.226704  	-0.004724 
2353.155520  	-0.006296 
2355.084336  	-0.007036 
2357.013152  	-0.007449 
2358.941968  	-0.007840 
2360.870784  	-0.008569 
2362.799600  	-0.008164 
2364.728416  	-0.006978 
2366.657232  	-0.006426 
2368.586048  	-0.005889 
2370.514864  	-0.004884 
2372.443680  	-0.004021 
2374.372496  	-0.003043 
2376.301312  	-0.002651 
2378.230128  	-0.002555 
2380.158944  	-0.002959 
2382.087760  	-0.003705 
2384.016576  	-0.004684 
2385.945392  	-0.005445 
2387.874208  	-0.005935 
2389.803024  	-0.006254 
2391.731840  	-0.006548 
2393.660656  	-0.006588 
2395.589472  	-0.006657 
2397.518288  	-0.006619 
2399.447104  	-0.006674 
2401.375920  	-0.006776 
2403.304736  	-0.006983 
2405.233552  	-0.006903 
2407.162368  	-0.006994 
2409.091184  	-0.007019 
2411.020000  	-0.006966 
2412.948816  	-0.006882 
2414.877632  	-0.006805 
2416.806448  	-0.006648 
2418.735264  	-0.006670 
2420.664080  	-0.006627 
2422.592896  	-0.006670 
2424.521712  	-0.006718 
2426.450528  	-0.006827 
2428.379344  	-0.006720 
2430.308160  	-0.006500 
2432.236976  	-0.006480 
2434.165792  	-0.006416 
2436.094608  	-0.006221 
2438.023424  	-0.006194 
2439.952240  	-0.006155 
2441.881056  	-0.005997 
2443.809872  	-0.005995 
2445.738688  	-0.006026 
2447.667504  	-0.005871 
2449.596320  	-0.005646 
2451.525136  	-0.005757 
2453.453952  	-0.005907 
2455.382768  	-0.005882 
2457.311584  	-0.005975 
2459.240400  	-0.006033 
2461.169216  	-0.005874 
2463.098032  	-0.005727 
2465.026848  	-0.005870 
2466.955664  	-0.005881 
2468.884480  	-0.006011 
2470.813296  	-0.006270 
2472.742112  	-0.006093 
2474.670928  	-0.005707 
2476.599744  	-0.005620 
2478.528560  	-0.005402 
2480.457376  	-0.005086 
2482.386192  	-0.005105 
2484.315008  	-0.005253 
2486.243824  	-0.005123 
2488.172640  	-0.004920 
2490.101456  	-0.004805 
2492.030272  	-0.004754 
2493.959088  	-0.004919 
2495.887904  	-0.005092 
2497.816720  	-0.004589 
2499.745536  	-0.004307 
2501.674352  	-0.004515 
2503.603168  	-0.004744 
2505.531984  	-0.004622 
2507.460800  	-0.004558 
2509.389616  	-0.004561 
2511.318432  	-0.004599 
2513.247248  	-0.004300 
2515.176064  	-0.004146 
2517.104880  	-0.004333 
2519.033696  	-0.004554 
2520.962512  	-0.004403 
2522.891328  	-0.004295 
2524.820144  	-0.004061 
2526.748960  	-0.003916 
2528.677776  	-0.003898 
2530.606592  	-0.003851 
2532.535408  	-0.003727 
2534.464224  	-0.003572 
2536.393040  	-0.003647 
2538.321856  	-0.003771 
2540.250672  	-0.003687 
2542.179488  	-0.003461 
2544.108304  	-0.003304 
2546.037120  	-0.003181 
2547.965936  	-0.003026 
2549.894752  	-0.003036 
2551.823568  	-0.002772 
2553.752384  	-0.002564 
2555.681200  	-0.002699 
2557.610016  	-0.002814 
2559.538832  	-0.002724 
2561.467648  	-0.002600 
2563.396464  	-0.002360 
2565.325280  	-0.002357 
2567.254096  	-0.002491 
2569.182912  	-0.002475 
2571.111728  	-0.002229 
2573.040544  	-0.002038 
2574.969360  	-0.001896 
2576.898176  	-0.001797 
2578.826992  	-0.001916 
2580.755808  	-0.002014 
2582.684624  	-0.001772 
2584.613440  	-0.001743 
2586.542256  	-0.001543 
2588.471072  	-0.001432 
2590.399888  	-0.001474 
2592.328704  	-0.001375 
2594.257520  	-0.001123 
2596.186336  	-0.001127 
2598.115152  	-0.001134 
2600.043968  	-0.000953 
2601.972784  	-0.000841 
2603.901600  	-0.000817 
2605.830416  	-0.000913 
2607.759232  	-0.000913 
2609.688048  	-0.000878 
2611.616864  	-0.000725 
2613.545680  	-0.000514 
2615.474496  	-0.000443 
2617.403312  	-0.000267 
2619.332128  	-0.000240 
2621.260944  	-0.000183 
2623.189760  	0.000014 
2625.118576  	0.000200 
2627.047392  	0.000168 
2628.976208  	0.000239 
2630.905024  	0.000350 
2632.833840  	0.000371 
2634.762656  	0.000307 
2636.691472  	0.000486 
2638.620288  	0.000738 
2640.549104  	0.000928 
2642.477920  	0.001033 
2644.406736  	0.000983 
2646.335552  	0.000944 
2648.264368  	0.001056 
2650.193184  	0.001299 
2652.122000  	0.001486 
2654.050816  	0.001652 
2655.979632  	0.001759 
2657.908448  	0.001817 
2659.837264  	0.001920 
2661.766080  	0.002048 
2663.694896  	0.002093 
2665.623712  	0.002255 
2667.552528  	0.002477 
2669.481344  	0.002465 
2671.410160  	0.002480 
2673.338976  	0.002689 
2675.267792  	0.002917 
2677.196608  	0.003047 
2679.125424  	0.003178 
2681.054240  	0.003227 
2682.983056  	0.003346 
2684.911872  	0.003435 
2686.840688  	0.003443 
2688.769504  	0.003522 
2690.698320  	0.003664 
2692.627136  	0.003694 
2694.555952  	0.003819 
2696.484768  	0.003971 
2698.413584  	0.004062 
2700.342400  	0.004080 
2702.271216  	0.004202 
2704.200032  	0.004382 
2706.128848  	0.004533 
2708.057664  	0.004579 
2709.986480  	0.004612 
2711.915296  	0.004792 
2713.844112  	0.004957 
2715.772928  	0.005033 
2717.701744  	0.005129 
2719.630560  	0.005323 
2721.559376  	0.005411 
2723.488192  	0.005476 
2725.417008  	0.005608 
2727.345824  	0.005762 
2729.274640  	0.006025 
2731.203456  	0.006125 
2733.132272  	0.006152 
2735.061088  	0.006290 
2736.989904  	0.006422 
2738.918720  	0.006511 
2740.847536  	0.006567 
2742.776352  	0.006696 
2744.705168  	0.006774 
2746.633984  	0.006800 
2748.562800  	0.006946 
2750.491616  	0.007005 
2752.420432  	0.006969 
2754.349248  	0.006917 
2756.278064  	0.006972 
2758.206880  	0.006977 
2760.135696  	0.007020 
2762.064512  	0.007018 
2763.993328  	0.006978 
2765.922144  	0.007005 
2767.850960  	0.007007 
2769.779776  	0.006980 
2771.708592  	0.007049 
2773.637408  	0.007105 
2775.566224  	0.007101 
2777.495040  	0.006984 
2779.423856  	0.006909 
2781.352672  	0.007006 
2783.281488  	0.007085 
2785.210304  	0.007086 
2787.139120  	0.007149 
2789.067936  	0.007126 
2790.996752  	0.007123 
2792.925568  	0.007083 
2794.854384  	0.007031 
2796.783200  	0.007054 
2798.712016  	0.007073 
2800.640832  	0.007099 
2802.569648  	0.007190 
2804.498464  	0.007246 
2806.427280  	0.007346 
2808.356096  	0.007355 
2810.284912  	0.007232 
2812.213728  	0.007207 
2814.142544  	0.007222 
2816.071360  	0.007108 
2818.000176  	0.007140 
2819.928992  	0.007309 
2821.857808  	0.007347 
2823.786624  	0.007261 
2825.715440  	0.007333 
2827.644256  	0.007342 
2829.573072  	0.007211 
2831.501888  	0.007142 
2833.430704  	0.007164 
2835.359520  	0.007149 
2837.288336  	0.007045 
2839.217152  	0.006967 
2841.145968  	0.006865 
2843.074784  	0.006831 
2845.003600  	0.006884 
2846.932416  	0.006826 
2848.861232  	0.006884 
2850.790048  	0.006920 
2852.718864  	0.006944 
2854.647680  	0.006934 
2856.576496  	0.007005 
2858.505312  	0.006974 
2860.434128  	0.007011 
2862.362944  	0.007095 
2864.291760  	0.007067 
2866.220576  	0.007070 
2868.149392  	0.007183 
2870.078208  	0.007191 
2872.007024  	0.007325 
2873.935840  	0.007598 
2875.864656  	0.007878 
2877.793472  	0.008058 
2879.722288  	0.008412 
2881.651104  	0.008705 
2883.579920  	0.009000 
2885.508736  	0.009290 
2887.437552  	0.009428 
2889.366368  	0.009516 
2891.295184  	0.009629 
2893.224000  	0.009717 
2895.152816  	0.009770 
2897.081632  	0.009776 
2899.010448  	0.009488 
2900.939264  	0.009218 
2902.868080  	0.009477 
2904.796896  	0.009800 
2906.725712  	0.010063 
2908.654528  	0.010308 
2910.583344  	0.010516 
2912.512160  	0.010770 
2914.440976  	0.011171 
2916.369792  	0.011717 
2918.298608  	0.012123 
2920.227424  	0.012382 
2922.156240  	0.012792 
2924.085056  	0.013269 
2926.013872  	0.013684 
2927.942688  	0.014312 
2929.871504  	0.014980 
2931.800320  	0.015552 
2933.729136  	0.016166 
2935.657952  	0.016694 
2937.586768  	0.017149 
2939.515584  	0.017494 
2941.444400  	0.017755 
2943.373216  	0.018056 
2945.302032  	0.018523 
2947.230848  	0.018806 
2949.159664  	0.018746 
2951.088480  	0.018565 
2953.017296  	0.018496 
2954.946112  	0.018299 
2956.874928  	0.018188 
2958.803744  	0.018037 
2960.732560  	0.017861 
2962.661376  	0.017702 
2964.590192  	0.017533 
2966.519008  	0.017300 
2968.447824  	0.017076 
2970.376640  	0.016824 
2972.305456  	0.016479 
2974.234272  	0.016548 
2976.163088  	0.016722 
2978.091904  	0.016672 
2980.020720  	0.016647 
2981.949536  	0.016618 
2983.878352  	0.016568 
2985.807168  	0.016409 
2987.735984  	0.016308 
2989.664800  	0.016385 
2991.593616  	0.016882 
2993.522432  	0.017340 
2995.451248  	0.017446 
2997.380064  	0.017746 
2999.308880  	0.018326 
3001.237696  	0.018709 
3003.166512  	0.019142 
3005.095328  	0.019572 
3007.024144  	0.020018 
3008.952960  	0.020563 
3010.881776  	0.021136 
3012.810592  	0.021833 
3014.739408  	0.022302 
3016.668224  	0.022649 
3018.597040  	0.023096 
3020.525856  	0.023560 
3022.454672  	0.023952 
3024.383488  	0.024415 
3026.312304  	0.024984 
3028.241120  	0.025502 
3030.169936  	0.026166 
3032.098752  	0.026765 
3034.027568  	0.026992 
3035.956384  	0.027431 
3037.885200  	0.027725 
3039.814016  	0.028146 
3041.742832  	0.028678 
3043.671648  	0.029275 
3045.600464  	0.029804 
3047.529280  	0.030267 
3049.458096  	0.030825 
3051.386912  	0.031185 
3053.315728  	0.031440 
3055.244544  	0.031953 
3057.173360  	0.032839 
3059.102176  	0.033549 
3061.030992  	0.034059 
3062.959808  	0.034597 
3064.888624  	0.035393 
3066.817440  	0.036078 
3068.746256  	0.036549 
3070.675072  	0.037010 
3072.603888  	0.037661 
3074.532704  	0.038458 
3076.461520  	0.039265 
3078.390336  	0.040026 
3080.319152  	0.040632 
3082.247968  	0.041066 
3084.176784  	0.041675 
3086.105600  	0.042426 
3088.034416  	0.043100 
3089.963232  	0.043470 
3091.892048  	0.043980 
3093.820864  	0.044748 
3095.749680  	0.045664 
3097.678496  	0.046530 
3099.607312  	0.047303 
3101.536128  	0.048181 
3103.464944  	0.048723 
3105.393760  	0.049045 
3107.322576  	0.049541 
3109.251392  	0.050193 
3111.180208  	0.050724 
3113.109024  	0.051066 
3115.037840  	0.051830 
3116.966656  	0.052763 
3118.895472  	0.053329 
3120.824288  	0.053540 
3122.753104  	0.054115 
3124.681920  	0.054580 
3126.610736  	0.054861 
3128.539552  	0.055275 
3130.468368  	0.055751 
3132.397184  	0.056408 
3134.326000  	0.057000 
3136.254816  	0.057257 
3138.183632  	0.057568 
3140.112448  	0.057823 
3142.041264  	0.058395 
3143.970080  	0.059075 
3145.898896  	0.059415 
3147.827712  	0.059666 
3149.756528  	0.060249 
3151.685344  	0.060817 
3153.614160  	0.061299 
3155.542976  	0.061667 
3157.471792  	0.062158 
3159.400608  	0.062784 
3161.329424  	0.063160 
3163.258240  	0.063484 
3165.187056  	0.063939 
3167.115872  	0.064331 
3169.044688  	0.064724 
3170.973504  	0.065008 
3172.902320  	0.065210 
3174.831136  	0.065416 
3176.759952  	0.065691 
3178.688768  	0.066183 
3180.617584  	0.066218 
3182.546400  	0.066159 
3184.475216  	0.066369 
3186.404032  	0.066610 
3188.332848  	0.066599 
3190.261664  	0.066613 
3192.190480  	0.066677 
3194.119296  	0.066876 
3196.048112  	0.066858 
3197.976928  	0.067083 
3199.905744  	0.067112 
3201.834560  	0.066886 
3203.763376  	0.066582 
3205.692192  	0.066162 
3207.621008  	0.066116 
3209.549824  	0.066322 
3211.478640  	0.066465 
3213.407456  	0.066448 
3215.336272  	0.066434 
3217.265088  	0.066134 
3219.193904  	0.066179 
3221.122720  	0.066135 
3223.051536  	0.065664 
3224.980352  	0.065469 
3226.909168  	0.065479 
3228.837984  	0.065395 
3230.766800  	0.065240 
3232.695616  	0.065189 
3234.624432  	0.065043 
3236.553248  	0.065155 
3238.482064  	0.065415 
3240.410880  	0.065239 
3242.339696  	0.065112 
3244.268512  	0.065216 
3246.197328  	0.065284 
3248.126144  	0.064990 
3250.054960  	0.065054 
3251.983776  	0.065378 
3253.912592  	0.065773 
3255.841408  	0.065838 
3257.770224  	0.065761 
3259.699040  	0.065910 
3261.627856  	0.066069 
3263.556672  	0.066099 
3265.485488  	0.066429 
3267.414304  	0.066544 
3269.343120  	0.066744 
3271.271936  	0.066977 
3273.200752  	0.067098 
3275.129568  	0.067265 
3277.058384  	0.067282 
3278.987200  	0.067155 
3280.916016  	0.067260 
3282.844832  	0.067433 
3284.773648  	0.067392 
3286.702464  	0.067169 
3288.631280  	0.067440 
3290.560096  	0.067713 
3292.488912  	0.067872 
3294.417728  	0.067919 
3296.346544  	0.067999 
3298.275360  	0.068079 
3300.204176  	0.068140 
3302.132992  	0.068265 
3304.061808  	0.068633 
3305.990624  	0.068663 
3307.919440  	0.068999 
3309.848256  	0.069421 
3311.777072  	0.069363 
3313.705888  	0.069632 
3315.634704  	0.069902 
3317.563520  	0.069932 
3319.492336  	0.069897 
3321.421152  	0.069941 
3323.349968  	0.070101 
3325.278784  	0.070238 
3327.207600  	0.070315 
3329.136416  	0.070209 
3331.065232  	0.070001 
3332.994048  	0.069759 
3334.922864  	0.069967 
3336.851680  	0.070286 
3338.780496  	0.070154 
3340.709312  	0.069733 
3342.638128  	0.069517 
3344.566944  	0.069298 
3346.495760  	0.069118 
3348.424576  	0.068920 
3350.353392  	0.068652 
3352.282208  	0.068226 
3354.211024  	0.068015 
3356.139840  	0.067980 
3358.068656  	0.067722 
3359.997472  	0.067495 
3361.926288  	0.067124 
3363.855104  	0.066575 
3365.783920  	0.066500 
3367.712736  	0.066378 
3369.641552  	0.065818 
3371.570368  	0.065407 
3373.499184  	0.065385 
3375.428000  	0.065252 
3377.356816  	0.065008 
3379.285632  	0.064696 
3381.214448  	0.064328 
3383.143264  	0.064052 
3385.072080  	0.064045 
3387.000896  	0.063617 
3388.929712  	0.063058 
3390.858528  	0.062849 
3392.787344  	0.063172 
3394.716160  	0.062603 
3396.644976  	0.062278 
3398.573792  	0.062076 
3400.502608  	0.061271 
3402.431424  	0.060576 
3404.360240  	0.059944 
3406.289056  	0.059413 
3408.217872  	0.059033 
3410.146688  	0.058858 
3412.075504  	0.058537 
3414.004320  	0.058230 
3415.933136  	0.057813 
3417.861952  	0.057341 
3419.790768  	0.057650 
3421.719584  	0.057817 
3423.648400  	0.056818 
3425.577216  	0.055623 
3427.506032  	0.055039 
3429.434848  	0.054622 
3431.363664  	0.054424 
3433.292480  	0.054064 
3435.221296  	0.053553 
3437.150112  	0.053027 
3439.078928  	0.052451 
3441.007744  	0.052034 
3442.936560  	0.052013 
3444.865376  	0.051200 
3446.794192  	0.051599 
3448.723008  	0.051452 
3450.651824  	0.049774 
3452.580640  	0.049042 
3454.509456  	0.048565 
3456.438272  	0.047841 
3458.367088  	0.047296 
3460.295904  	0.047030 
3462.224720  	0.046745 
3464.153536  	0.045799 
3466.082352  	0.044965 
3468.011168  	0.044583 
3469.939984  	0.043865 
3471.868800  	0.042978 
3473.797616  	0.042325 
3475.726432  	0.041915 
3477.655248  	0.040946 
3479.584064  	0.040464 
3481.512880  	0.040875 
3483.441696  	0.040454 
3485.370512  	0.039040 
3487.299328  	0.038458 
3489.228144  	0.037697 
3491.156960  	0.036552 
3493.085776  	0.036035 
3495.014592  	0.035885 
3496.943408  	0.035631 
3498.872224  	0.034822 
3500.801040  	0.034635 
3502.729856  	0.035502 
3504.658672  	0.034907 
3506.587488  	0.032720 
3508.516304  	0.032420 
3510.445120  	0.032507 
3512.373936  	0.031077 
3514.302752  	0.030066 
3516.231568  	0.029510 
3518.160384  	0.029127 
3520.089200  	0.028499 
3522.018016  	0.028772 
3523.946832  	0.029820 
3525.875648  	0.028987 
3527.804464  	0.028370 
3529.733280  	0.027573 
3531.662096  	0.025973 
3533.590912  	0.024611 
3535.519728  	0.024660 
3537.448544  	0.024425 
3539.377360  	0.022986 
3541.306176  	0.022381 
3543.234992  	0.023114 
3545.163808  	0.024948 
3547.092624  	0.024669 
3549.021440  	0.021909 
3550.950256  	0.020814 
3552.879072  	0.021522 
3554.807888  	0.019721 
3556.736704  	0.017935 
3558.665520  	0.018154 
3560.594336  	0.018591 
3562.523152  	0.018144 
3564.451968  	0.019147 
3566.380784  	0.023113 
3568.309600  	0.022808 
3570.238416  	0.017358 
3572.167232  	0.014430 
3574.096048  	0.013755 
3576.024864  	0.013347 
3577.953680  	0.012749 
3579.882496  	0.012457 
3581.811312  	0.011705 
3583.740128  	0.011275 
3585.668944  	0.012549 
3587.597760  	0.015632 
3589.526576  	0.012807 
3591.455392  	0.009202 
3593.384208  	0.009438 
3595.313024  	0.010090 
3597.241840  	0.008638 
3599.170656  	0.007347 
3601.099472  	0.007149 
3603.028288  	0.005619 
3604.957104  	0.004317 
3606.885920  	0.005817 
3608.814736  	0.007101 
3610.743552  	0.005176 
3612.672368  	0.005194 
3614.601184  	0.005065 
3616.530000  	0.003363 
3618.458816  	0.004133 
3620.387632  	0.003562 
3622.316448  	0.000136 
3624.245264  	-0.001725 
3626.174080  	-0.001635 
3628.102896  	0.000907 
3630.031712  	0.002203 
3631.960528  	-0.002213 
3633.889344  	-0.003916 
3635.818160  	-0.005347 
3637.746976  	-0.006551 
3639.675792  	-0.007048 
3641.604608  	-0.007096 
3643.533424  	-0.007375 
3645.462240  	-0.007037 
3647.391056  	-0.003226 
3649.319872  	-0.001080 
3651.248688  	-0.004262 
3653.177504  	-0.009383 
3655.106320  	-0.010874 
3657.035136  	-0.010672 
3658.963952  	-0.012364 
3660.892768  	-0.013297 
3662.821584  	-0.014089 
3664.750400  	-0.014465 
3666.679216  	-0.013966 
3668.608032  	-0.011932 
3670.536848  	-0.009789 
3672.465664  	-0.011919 
3674.394480  	-0.011191 
3676.323296  	-0.008995 
3678.252112  	-0.012268 
3680.180928  	-0.014236 
3682.109744  	-0.015732 
3684.038560  	-0.016023 
3685.967376  	-0.015758 
3687.896192  	-0.013646 
3689.825008  	-0.011485 
3691.753824  	-0.013184 
3693.682640  	-0.015441 
3695.611456  	-0.016291 
3697.540272  	-0.016442 
3699.469088  	-0.016716 
3701.397904  	-0.015727 
3703.326720  	-0.015659 
3705.255536  	-0.016229 
3707.184352  	-0.015809 
3709.113168  	-0.014140 
3711.041984  	-0.011747 
3712.970800  	-0.012489 
3714.899616  	-0.014927 
3716.828432  	-0.016114 
3718.757248  	-0.015458 
3720.686064  	-0.014834 
3722.614880  	-0.013781 
3724.543696  	-0.013280 
3726.472512  	-0.013006 
3728.401328  	-0.014883 
3730.330144  	-0.016002 
3732.258960  	-0.013913 
3734.187776  	-0.009623 
3736.116592  	-0.007347 
3738.045408  	-0.011344 
3739.974224  	-0.013445 
3741.903040  	-0.013874 
3743.831856  	-0.012612 
3745.760672  	-0.011374 
3747.689488  	-0.012664 
3749.618304  	-0.010651 
3751.547120  	-0.009269 
3753.475936  	-0.012148 
3755.404752  	-0.014609 
3757.333568  	-0.014724 
3759.262384  	-0.014276 
3761.191200  	-0.015082 
3763.120016  	-0.016166 
3765.048832  	-0.015394 
3766.977648  	-0.015312 
3768.906464  	-0.015136 
3770.835280  	-0.015218 
3772.764096  	-0.016892 
3774.692912  	-0.017569 
3776.621728  	-0.017341 
3778.550544  	-0.016113 
3780.479360  	-0.015712 
3782.408176  	-0.016830 
3784.336992  	-0.016349 
3786.265808  	-0.016393 
3788.194624  	-0.017351 
3790.123440  	-0.017644 
3792.052256  	-0.017725 
3793.981072  	-0.017671 
3795.909888  	-0.015952 
3797.838704  	-0.014692 
3799.767520  	-0.014856 
3801.696336  	-0.012809 
3803.625152  	-0.014610 
3805.553968  	-0.016175 
3807.482784  	-0.015448 
3809.411600  	-0.016762 
3811.340416  	-0.017507 
3813.269232  	-0.017316 
3815.198048  	-0.015404 
3817.126864  	-0.013955 
3819.055680  	-0.014465 
3820.984496  	-0.012522 
3822.913312  	-0.013932 
3824.842128  	-0.015937 
3826.770944  	-0.015697 
3828.699760  	-0.016241 
3830.628576  	-0.016257 
3832.557392  	-0.015562 
3834.486208  	-0.015304 
3836.415024  	-0.014339 
3838.343840  	-0.012489 
3840.272656  	-0.011913 
3842.201472  	-0.013625 
3844.130288  	-0.014687 
3846.059104  	-0.016267 
3847.987920  	-0.016825 
3849.916736  	-0.015682 
3851.845552  	-0.013107 
3853.774368  	-0.009297 
3855.703184  	-0.011988 
3857.632000  	-0.014400 
3859.560816  	-0.015951 
3861.489632  	-0.015241 
3863.418448  	-0.013619 
3865.347264  	-0.013187 
3867.276080  	-0.014974 
3869.204896  	-0.013130 
3871.133712  	-0.011833 
3873.062528  	-0.013966 
3874.991344  	-0.014821 
3876.920160  	-0.016958 
3878.848976  	-0.016220 
3880.777792  	-0.013389 
3882.706608  	-0.013818 
3884.635424  	-0.014203 
3886.564240  	-0.014769 
3888.493056  	-0.016960 
3890.421872  	-0.015885 
3892.350688  	-0.014528 
3894.279504  	-0.015892 
3896.208320  	-0.016781 
3898.137136  	-0.015286 
3900.065952  	-0.012870 
3901.994768  	-0.012174 
3903.923584  	-0.011933 
3905.852400  	-0.013644 
3907.781216  	-0.016742 
3909.710032  	-0.018233 
3911.638848  	-0.018380 
3913.567664  	-0.018005 
3915.496480  	-0.016354 
3917.425296  	-0.014610 
3919.354112  	-0.015093 
3921.282928  	-0.015843 
3923.211744  	-0.015451 
3925.140560  	-0.014935 
3927.069376  	-0.016559 
3928.998192  	-0.016389 
3930.927008  	-0.014904 
3932.855824  	-0.014872 
3934.784640  	-0.016614 
3936.713456  	-0.017486 
3938.642272  	-0.017585 
3940.571088  	-0.017181 
3942.499904  	-0.015471 
3944.428720  	-0.015799 
3946.357536  	-0.016593 
3948.286352  	-0.015360 
3950.215168  	-0.015759 
3952.143984  	-0.017138 
3954.072800  	-0.017769 
3956.001616  	-0.017785 
3957.930432  	-0.017493 
3959.859248  	-0.017238 
3961.788064  	-0.016872 
3963.716880  	-0.017325 
3965.645696  	-0.018133 
3967.574512  	-0.018208 
3969.503328  	-0.018077 
3971.432144  	-0.017923 
3973.360960  	-0.017376 
3975.289776  	-0.016887 
3977.218592  	-0.017355 
3979.147408  	-0.017900 
3981.076224  	-0.017829 
3983.005040  	-0.018048 
3984.933856  	-0.018125 
3986.862672  	-0.017988 
3988.791488  	-0.017900 
3990.720304  	-0.017368 
3992.649120  	-0.017463 
3994.577936  	-0.017724 
3996.506752  	-0.017963 
3998.435568  	-0.018136 
4000.364384  	-0.018038 