##TITLE=No Description
##DATA TYPE=INFRARED SPECTRUM
##XUNITS=1/CM
##YUNITS=Abs
399.264912  	0.586172 
401.193728  	0.583843 
403.122544  	0.586006 
405.051360  	0.575374 
406.980176  	0.582456 
408.908992  	0.579749 
410.837808  	0.578616 
412.766624  	0.570179 
414.695440  	0.556320 
416.624256  	0.564200 
418.553072  	0.584006 
420.481888  	0.558679 
422.410704  	0.558238 
424.339520  	0.553497 
426.268336  	0.544945 
428.197152  	0.532939 
430.125968  	0.530018 
432.054784  	0.526153 
433.983600  	0.524568 
435.912416  	0.519614 
437.841232  	0.522949 
439.770048  	0.527573 
441.698864  	0.531980 
443.627680  	0.524317 
445.556496  	0.523079 
447.485312  	0.517987 
449.414128  	0.517491 
451.342944  	0.523758 
453.271760  	0.525643 
455.200576  	0.518499 
457.129392  	0.520448 
459.058208  	0.514942 
460.987024  	0.514722 
462.915840  	0.515163 
464.844656  	0.514619 
466.773472  	0.512892 
468.702288  	0.513265 
470.631104  	0.513845 
472.559920  	0.521971 
474.488736  	0.510853 
476.417552  	0.507786 
478.346368  	0.506498 
480.275184  	0.502944 
482.204000  	0.503368 
484.132816  	0.507373 
486.061632  	0.503344 
487.990448  	0.502717 
489.919264  	0.503793 
491.848080  	0.502905 
493.776896  	0.500918 
495.705712  	0.498304 
497.634528  	0.492461 
499.563344  	0.493860 
501.492160  	0.491030 
503.420976  	0.492419 
505.349792  	0.492774 
507.278608  	0.492988 
509.207424  	0.489154 
511.136240  	0.488580 
513.065056  	0.489382 
514.993872  	0.493945 
516.922688  	0.496527 
518.851504  	0.498195 
520.780320  	0.495624 
522.709136  	0.494686 
524.637952  	0.493408 
526.566768  	0.492461 
528.495584  	0.487627 
530.424400  	0.484263 
532.353216  	0.480442 
534.282032  	0.477492 
536.210848  	0.472973 
538.139664  	0.467237 
540.068480  	0.461929 
541.997296  	0.459307 
543.926112  	0.456417 
545.854928  	0.454919 
547.783744  	0.451600 
549.712560  	0.448374 
551.641376  	0.444192 
553.570192  	0.442644 
555.499008  	0.440449 
557.427824  	0.437472 
559.356640  	0.432132 
561.285456  	0.429966 
563.214272  	0.427303 
565.143088  	0.423865 
567.071904  	0.420344 
569.000720  	0.417390 
570.929536  	0.414480 
572.858352  	0.412596 
574.787168  	0.409931 
576.715984  	0.407778 
578.644800  	0.404507 
580.573616  	0.400071 
582.502432  	0.393694 
584.431248  	0.389524 
586.360064  	0.387051 
588.288880  	0.385097 
590.217696  	0.382065 
592.146512  	0.380864 
594.075328  	0.378004 
596.004144  	0.376147 
597.932960  	0.374522 
599.861776  	0.373327 
601.790592  	0.371053 
603.719408  	0.370354 
605.648224  	0.369038 
607.577040  	0.366913 
609.505856  	0.364402 
611.434672  	0.363542 
613.363488  	0.361862 
615.292304  	0.361008 
617.221120  	0.359267 
619.149936  	0.358072 
621.078752  	0.356169 
623.007568  	0.354822 
624.936384  	0.354574 
626.865200  	0.353784 
628.794016  	0.351765 
630.722832  	0.351231 
632.651648  	0.351288 
634.580464  	0.350691 
636.509280  	0.350738 
638.438096  	0.351049 
640.366912  	0.350422 
642.295728  	0.349136 
644.224544  	0.346688 
646.153360  	0.343513 
648.082176  	0.339364 
650.010992  	0.335841 
651.939808  	0.332040 
653.868624  	0.329181 
655.797440  	0.325049 
657.726256  	0.321442 
659.655072  	0.318049 
661.583888  	0.314021 
663.512704  	0.309877 
665.441520  	0.306320 
667.370336  	0.302446 
669.299152  	0.297925 
671.227968  	0.294306 
673.156784  	0.290957 
675.085600  	0.287897 
677.014416  	0.285391 
678.943232  	0.283069 
680.872048  	0.281555 
682.800864  	0.279566 
684.729680  	0.277605 
686.658496  	0.275989 
688.587312  	0.274941 
690.516128  	0.273640 
692.444944  	0.272472 
694.373760  	0.270465 
696.302576  	0.269072 
698.231392  	0.267719 
700.160208  	0.265411 
702.089024  	0.262456 
704.017840  	0.260265 
705.946656  	0.257715 
707.875472  	0.255164 
709.804288  	0.253261 
711.733104  	0.251928 
713.661920  	0.250244 
715.590736  	0.248365 
717.519552  	0.247232 
719.448368  	0.247450 
721.377184  	0.248070 
723.306000  	0.248043 
725.234816  	0.247680 
727.163632  	0.246929 
729.092448  	0.244668 
731.021264  	0.241354 
732.950080  	0.237730 
734.878896  	0.234617 
736.807712  	0.231735 
738.736528  	0.229397 
740.665344  	0.227690 
742.594160  	0.226521 
744.522976  	0.224750 
746.451792  	0.223247 
748.380608  	0.221645 
750.309424  	0.220136 
752.238240  	0.218653 
754.167056  	0.217810 
756.095872  	0.216874 
758.024688  	0.215698 
759.953504  	0.215140 
761.882320  	0.216015 
763.811136  	0.216517 
765.739952  	0.214758 
767.668768  	0.211520 
769.597584  	0.208606 
771.526400  	0.207525 
773.455216  	0.208692 
775.384032  	0.211524 
777.312848  	0.216219 
779.241664  	0.220114 
781.170480  	0.219306 
783.099296  	0.214123 
785.028112  	0.208090 
786.956928  	0.202487 
788.885744  	0.197999 
790.814560  	0.194523 
792.743376  	0.192638 
794.672192  	0.191832 
796.601008  	0.190704 
798.529824  	0.187527 
800.458640  	0.183540 
802.387456  	0.180238 
804.316272  	0.178215 
806.245088  	0.177151 
808.173904  	0.176175 
810.102720  	0.175485 
812.031536  	0.175027 
813.960352  	0.174610 
815.889168  	0.174746 
817.817984  	0.175456 
819.746800  	0.176200 
821.675616  	0.176798 
823.604432  	0.177042 
825.533248  	0.177068 
827.462064  	0.177217 
829.390880  	0.176912 
831.319696  	0.176506 
833.248512  	0.175304 
835.177328  	0.173350 
837.106144  	0.170660 
839.034960  	0.167584 
840.963776  	0.163834 
842.892592  	0.159725 
844.821408  	0.155792 
846.750224  	0.152389 
848.679040  	0.149551 
850.607856  	0.147429 
852.536672  	0.145955 
854.465488  	0.144619 
856.394304  	0.143448 
858.323120  	0.141880 
860.251936  	0.140301 
862.180752  	0.139008 
864.109568  	0.136957 
866.038384  	0.134782 
867.967200  	0.132739 
869.896016  	0.131113 
871.824832  	0.130164 
873.753648  	0.130068 
875.682464  	0.130467 
877.611280  	0.131824 
879.540096  	0.133885 
881.468912  	0.136169 
883.397728  	0.138330 
885.326544  	0.140101 
887.255360  	0.141267 
889.184176  	0.141393 
891.112992  	0.140364 
893.041808  	0.138752 
894.970624  	0.136450 
896.899440  	0.132483 
898.828256  	0.127639 
900.757072  	0.123214 
902.685888  	0.119435 
904.614704  	0.117067 
906.543520  	0.116346 
908.472336  	0.117299 
910.401152  	0.119279 
912.329968  	0.121703 
914.258784  	0.124130 
916.187600  	0.126507 
918.116416  	0.128677 
920.045232  	0.130283 
921.974048  	0.131131 
923.902864  	0.131872 
925.831680  	0.132570 
927.760496  	0.133315 
929.689312  	0.134158 
931.618128  	0.135270 
933.546944  	0.136098 
935.475760  	0.136312 
937.404576  	0.135994 
939.333392  	0.135171 
941.262208  	0.134513 
943.191024  	0.135102 
945.119840  	0.137578 
947.048656  	0.142247 
948.977472  	0.149505 
950.906288  	0.158675 
952.835104  	0.169988 
954.763920  	0.182860 
956.692736  	0.195906 
958.621552  	0.208066 
960.550368  	0.217312 
962.479184  	0.223086 
964.408000  	0.224289 
966.336816  	0.220739 
968.265632  	0.212564 
970.194448  	0.201242 
972.123264  	0.187452 
974.052080  	0.172839 
975.980896  	0.158511 
977.909712  	0.144821 
979.838528  	0.132678 
981.767344  	0.122721 
983.696160  	0.115152 
985.624976  	0.110107 
987.553792  	0.108094 
989.482608  	0.108927 
991.411424  	0.112376 
993.340240  	0.117857 
995.269056  	0.124241 
997.197872  	0.131052 
999.126688  	0.137974 
1001.055504  	0.145352 
1002.984320  	0.152619 
1004.913136  	0.159612 
1006.841952  	0.166509 
1008.770768  	0.173098 
1010.699584  	0.178517 
1012.628400  	0.182532 
1014.557216  	0.185269 
1016.486032  	0.186737 
1018.414848  	0.187066 
1020.343664  	0.187057 
1022.272480  	0.187004 
1024.201296  	0.186596 
1026.130112  	0.185759 
1028.058928  	0.186223 
1029.987744  	0.188061 
1031.916560  	0.190582 
1033.845376  	0.194071 
1035.774192  	0.198884 
1037.703008  	0.205173 
1039.631824  	0.214486 
1041.560640  	0.226910 
1043.489456  	0.242584 
1045.418272  	0.260506 
1047.347088  	0.278431 
1049.275904  	0.292345 
1051.204720  	0.300998 
1053.133536  	0.303760 
1055.062352  	0.302523 
1056.991168  	0.299046 
1058.919984  	0.296466 
1060.848800  	0.294410 
1062.777616  	0.292669 
1064.706432  	0.290018 
1066.635248  	0.287092 
1068.564064  	0.282814 
1070.492880  	0.276634 
1072.421696  	0.269866 
1074.350512  	0.265706 
1076.279328  	0.265439 
1078.208144  	0.269630 
1080.136960  	0.275817 
1082.065776  	0.281128 
1083.994592  	0.282582 
1085.923408  	0.279436 
1087.852224  	0.271854 
1089.781040  	0.262192 
1091.709856  	0.250065 
1093.638672  	0.236588 
1095.567488  	0.222026 
1097.496304  	0.207438 
1099.425120  	0.192981 
1101.353936  	0.179108 
1103.282752  	0.166014 
1105.211568  	0.153708 
1107.140384  	0.142625 
1109.069200  	0.132759 
1110.998016  	0.123898 
1112.926832  	0.115948 
1114.855648  	0.108581 
1116.784464  	0.101377 
1118.713280  	0.094539 
1120.642096  	0.088223 
1122.570912  	0.082243 
1124.499728  	0.076685 
1126.428544  	0.071845 
1128.357360  	0.067465 
1130.286176  	0.063817 
1132.214992  	0.061014 
1134.143808  	0.058856 
1136.072624  	0.056939 
1138.001440  	0.055173 
1139.930256  	0.053632 
1141.859072  	0.052026 
1143.787888  	0.050157 
1145.716704  	0.048591 
1147.645520  	0.047288 
1149.574336  	0.046640 
1151.503152  	0.046001 
1153.431968  	0.045603 
1155.360784  	0.045751 
1157.289600  	0.046748 
1159.218416  	0.048000 
1161.147232  	0.049502 
1163.076048  	0.051261 
1165.004864  	0.053071 
1166.933680  	0.054655 
1168.862496  	0.056531 
1170.791312  	0.058773 
1172.720128  	0.061403 
1174.648944  	0.064091 
1176.577760  	0.066678 
1178.506576  	0.069625 
1180.435392  	0.072800 
1182.364208  	0.075821 
1184.293024  	0.079357 
1186.221840  	0.083585 
1188.150656  	0.088250 
1190.079472  	0.093399 
1192.008288  	0.099661 
1193.937104  	0.106868 
1195.865920  	0.114877 
1197.794736  	0.123653 
1199.723552  	0.133212 
1201.652368  	0.142837 
1203.581184  	0.151946 
1205.510000  	0.160667 
1207.438816  	0.168505 
1209.367632  	0.175542 
1211.296448  	0.181450 
1213.225264  	0.186076 
1215.154080  	0.188916 
1217.082896  	0.190624 
1219.011712  	0.191089 
1220.940528  	0.190760 
1222.869344  	0.189427 
1224.798160  	0.187781 
1226.726976  	0.185066 
1228.655792  	0.181731 
1230.584608  	0.177758 
1232.513424  	0.173115 
1234.442240  	0.167999 
1236.371056  	0.162573 
1238.299872  	0.156457 
1240.228688  	0.149627 
1242.157504  	0.142626 
1244.086320  	0.135806 
1246.015136  	0.128784 
1247.943952  	0.122090 
1249.872768  	0.115523 
1251.801584  	0.109268 
1253.730400  	0.103103 
1255.659216  	0.096975 
1257.588032  	0.091369 
1259.516848  	0.086319 
1261.445664  	0.081361 
1263.374480  	0.076796 
1265.303296  	0.072953 
1267.232112  	0.069951 
1269.160928  	0.067872 
1271.089744  	0.066493 
1273.018560  	0.065643 
1274.947376  	0.065600 
1276.876192  	0.066366 
1278.805008  	0.067122 
1280.733824  	0.067017 
1282.662640  	0.065493 
1284.591456  	0.063530 
1286.520272  	0.062041 
1288.449088  	0.061174 
1290.377904  	0.060768 
1292.306720  	0.061438 
1294.235536  	0.062150 
1296.164352  	0.062113 
1298.093168  	0.060329 
1300.021984  	0.057757 
1301.950800  	0.055027 
1303.879616  	0.052184 
1305.808432  	0.049110 
1307.737248  	0.045962 
1309.666064  	0.042756 
1311.594880  	0.040700 
1313.523696  	0.039243 
1315.452512  	0.038020 
1317.381328  	0.037742 
1319.310144  	0.037834 
1321.238960  	0.037620 
1323.167776  	0.037922 
1325.096592  	0.038528 
1327.025408  	0.038970 
1328.954224  	0.038963 
1330.883040  	0.038339 
1332.811856  	0.037103 
1334.740672  	0.036348 
1336.669488  	0.036890 
1338.598304  	0.038434 
1340.527120  	0.037615 
1342.455936  	0.034796 
1344.384752  	0.034009 
1346.313568  	0.034414 
1348.242384  	0.035209 
1350.171200  	0.036214 
1352.100016  	0.037509 
1354.028832  	0.039470 
1355.957648  	0.041401 
1357.886464  	0.043206 
1359.815280  	0.045698 
1361.744096  	0.049533 
1363.672912  	0.051602 
1365.601728  	0.051452 
1367.530544  	0.053207 
1369.459360  	0.055036 
1371.388176  	0.055736 
1373.316992  	0.056790 
1375.245808  	0.055468 
1377.174624  	0.052323 
1379.103440  	0.049714 
1381.032256  	0.046852 
1382.961072  	0.044515 
1384.889888  	0.043493 
1386.818704  	0.043842 
1388.747520  	0.041620 
1390.676336  	0.038742 
1392.605152  	0.037543 
1394.533968  	0.038254 
1396.462784  	0.038727 
1398.391600  	0.038422 
1400.320416  	0.037255 
1402.249232  	0.036483 
1404.178048  	0.037978 
1406.106864  	0.038632 
1408.035680  	0.039030 
1409.964496  	0.040727 
1411.893312  	0.042784 
1413.822128  	0.044663 
1415.750944  	0.048002 
1417.679760  	0.051826 
1419.608576  	0.052787 
1421.537392  	0.050800 
1423.466208  	0.050570 
1425.395024  	0.048539 
1427.323840  	0.046035 
1429.252656  	0.044697 
1431.181472  	0.042968 
1433.110288  	0.041861 
1435.039104  	0.042840 
1436.967920  	0.044725 
1438.896736  	0.043992 
1440.825552  	0.043919 
1442.754368  	0.044446 
1444.683184  	0.044687 
1446.612000  	0.045678 
1448.540816  	0.046238 
1450.469632  	0.045919 
1452.398448  	0.046555 
1454.327264  	0.047907 
1456.256080  	0.051367 
1458.184896  	0.051991 
1460.113712  	0.047565 
1462.042528  	0.045387 
1463.971344  	0.045766 
1465.900160  	0.046304 
1467.828976  	0.045903 
1469.757792  	0.047278 
1471.686608  	0.052567 
1473.615424  	0.060004 
1475.544240  	0.062950 
1477.473056  	0.065963 
1479.401872  	0.068232 
1481.330688  	0.071866 
1483.259504  	0.073921 
1485.188320  	0.075862 
1487.117136  	0.078660 
1489.045952  	0.081707 
1490.974768  	0.078864 
1492.903584  	0.073724 
1494.832400  	0.070587 
1496.761216  	0.067231 
1498.690032  	0.061325 
1500.618848  	0.055680 
1502.547664  	0.050838 
1504.476480  	0.048477 
1506.405296  	0.051699 
1508.334112  	0.050998 
1510.262928  	0.044976 
1512.191744  	0.040949 
1514.120560  	0.039887 
1516.049376  	0.042519 
1517.978192  	0.043569 
1519.907008  	0.044419 
1521.835824  	0.049357 
1523.764640  	0.050536 
1525.693456  	0.053184 
1527.622272  	0.054636 
1529.551088  	0.053304 
1531.479904  	0.052419 
1533.408720  	0.051846 
1535.337536  	0.047568 
1537.266352  	0.045045 
1539.195168  	0.045502 
1541.123984  	0.044605 
1543.052800  	0.042298 
1544.981616  	0.039648 
1546.910432  	0.035439 
1548.839248  	0.035160 
1550.768064  	0.036121 
1552.696880  	0.035217 
1554.625696  	0.036848 
1556.554512  	0.037672 
1558.483328  	0.042917 
1560.412144  	0.044341 
1562.340960  	0.042915 
1564.269776  	0.044700 
1566.198592  	0.048322 
1568.127408  	0.051680 
1570.056224  	0.058281 
1571.985040  	0.061220 
1573.913856  	0.063873 
1575.842672  	0.068174 
1577.771488  	0.070911 
1579.700304  	0.069207 
1581.629120  	0.068270 
1583.557936  	0.067621 
1585.486752  	0.068413 
1587.415568  	0.070291 
1589.344384  	0.074272 
1591.273200  	0.079275 
1593.202016  	0.085730 
1595.130832  	0.092679 
1597.059648  	0.099560 
1598.988464  	0.105353 
1600.917280  	0.111428 
1602.846096  	0.115977 
1604.774912  	0.118966 
1606.703728  	0.120220 
1608.632544  	0.120782 
1610.561360  	0.119101 
1612.490176  	0.117376 
1614.418992  	0.115869 
1616.347808  	0.117137 
1618.276624  	0.118244 
1620.205440  	0.119644 
1622.134256  	0.122880 
1624.063072  	0.129576 
1625.991888  	0.133984 
1627.920704  	0.141007 
1629.849520  	0.148174 
1631.778336  	0.154771 
1633.707152  	0.160973 
1635.635968  	0.172882 
1637.564784  	0.181383 
1639.493600  	0.183890 
1641.422416  	0.186894 
1643.351232  	0.189828 
1645.280048  	0.192134 
1647.208864  	0.197789 
1649.137680  	0.195999 
1651.066496  	0.193305 
1652.995312  	0.194939 
1654.924128  	0.195343 
1656.852944  	0.189992 
1658.781760  	0.186582 
1660.710576  	0.183974 
1662.639392  	0.181851 
1664.568208  	0.177098 
1666.497024  	0.172850 
1668.425840  	0.169589 
1670.354656  	0.165015 
1672.283472  	0.159080 
1674.212288  	0.155150 
1676.141104  	0.151409 
1678.069920  	0.147970 
1679.998736  	0.146941 
1681.927552  	0.145804 
1683.856368  	0.146250 
1685.785184  	0.144555 
1687.714000  	0.141954 
1689.642816  	0.140970 
1691.571632  	0.138592 
1693.500448  	0.137004 
1695.429264  	0.137622 
1697.358080  	0.138616 
1699.286896  	0.136397 
1701.215712  	0.135187 
1703.144528  	0.131933 
1705.073344  	0.129863 
1707.002160  	0.125486 
1708.930976  	0.120233 
1710.859792  	0.114971 
1712.788608  	0.109950 
1714.717424  	0.104668 
1716.646240  	0.097561 
1718.575056  	0.084535 
1720.503872  	0.072669 
1722.432688  	0.064011 
1724.361504  	0.054489 
1726.290320  	0.046222 
1728.219136  	0.040440 
1730.147952  	0.036183 
1732.076768  	0.032352 
1734.005584  	0.029299 
1735.934400  	0.022600 
1737.863216  	0.019755 
1739.792032  	0.017379 
1741.720848  	0.015463 
1743.649664  	0.014839 
1745.578480  	0.013505 
1747.507296  	0.013037 
1749.436112  	0.013281 
1751.364928  	0.011301 
1753.293744  	0.008139 
1755.222560  	0.006788 
1757.151376  	0.007420 
1759.080192  	0.006404 
1761.009008  	0.006242 
1762.937824  	0.005243 
1764.866640  	0.003974 
1766.795456  	0.004316 
1768.724272  	0.005122 
1770.653088  	0.004802 
1772.581904  	0.005631 
1774.510720  	0.004421 
1776.439536  	0.003345 
1778.368352  	0.002436 
1780.297168  	0.002944 
1782.225984  	0.002156 
1784.154800  	0.001938 
1786.083616  	0.001231 
1788.012432  	0.000691 
1789.941248  	0.001855 
1791.870064  	0.003640 
1793.798880  	0.002350 
1795.727696  	0.001642 
1797.656512  	0.000717 
1799.585328  	0.000822 
1801.514144  	0.001433 
1803.442960  	0.000526 
1805.371776  	-0.000509 
1807.300592  	-0.000510 
1809.229408  	-0.000575 
1811.158224  	-0.000351 
1813.087040  	-0.001181 
1815.015856  	-0.001862 
1816.944672  	-0.001430 
1818.873488  	-0.001222 
1820.802304  	-0.001483 
1822.731120  	-0.000900 
1824.659936  	-0.000484 
1826.588752  	-0.000684 
1828.517568  	-0.000561 
1830.446384  	0.000057 
1832.375200  	-0.001366 
1834.304016  	-0.001726 
1836.232832  	-0.001477 
1838.161648  	-0.001123 
1840.090464  	-0.001592 
1842.019280  	-0.001165 
1843.948096  	-0.000068 
1845.876912  	-0.000081 
1847.805728  	-0.001272 
1849.734544  	-0.002172 
1851.663360  	-0.002587 
1853.592176  	-0.002070 
1855.520992  	-0.002169 
1857.449808  	-0.002090 
1859.378624  	-0.002424 
1861.307440  	-0.002290 
1863.236256  	-0.002714 
1865.165072  	-0.002269 
1867.093888  	-0.001092 
1869.022704  	0.000293 
1870.951520  	-0.001171 
1872.880336  	-0.002380 
1874.809152  	-0.003175 
1876.737968  	-0.003342 
1878.666784  	-0.003314 
1880.595600  	-0.003388 
1882.524416  	-0.003449 
1884.453232  	-0.002876 
1886.382048  	-0.002954 
1888.310864  	-0.002089 
1890.239680  	-0.001921 
1892.168496  	-0.002437 
1894.097312  	-0.002543 
1896.026128  	-0.002599 
1897.954944  	-0.003235 
1899.883760  	-0.003263 
1901.812576  	-0.003308 
1903.741392  	-0.003141 
1905.670208  	-0.003275 
1907.599024  	-0.002903 
1909.527840  	-0.002656 
1911.456656  	-0.002387 
1913.385472  	-0.002561 
1915.314288  	-0.002560 
1917.243104  	-0.002463 
1919.171920  	-0.002244 
1921.100736  	-0.002541 
1923.029552  	-0.002045 
1924.958368  	-0.003633 
1926.887184  	-0.003944 
1928.816000  	-0.004397 
1930.744816  	-0.003865 
1932.673632  	-0.003589 
1934.602448  	-0.003144 
1936.531264  	-0.003633 
1938.460080  	-0.003090 
1940.388896  	-0.002541 
1942.317712  	-0.001621 
1944.246528  	-0.002878 
1946.175344  	-0.002627 
1948.104160  	-0.002907 
1950.032976  	-0.003052 
1951.961792  	-0.003372 
1953.890608  	-0.003863 
1955.819424  	-0.005037 
1957.748240  	-0.005156 
1959.677056  	-0.005381 
1961.605872  	-0.004572 
1963.534688  	-0.004490 
1965.463504  	-0.003577 
1967.392320  	-0.003987 
1969.321136  	-0.003629 
1971.249952  	-0.004756 
1973.178768  	-0.005170 
1975.107584  	-0.004134 
1977.036400  	-0.001769 
1978.965216  	-0.001949 
1980.894032  	-0.002981 
1982.822848  	-0.003545 
1984.751664  	-0.002392 
1986.680480  	-0.002452 
1988.609296  	-0.002049 
1990.538112  	-0.001382 
1992.466928  	-0.000083 
1994.395744  	-0.002260 
1996.324560  	-0.003177 
1998.253376  	-0.003337 
2000.182192  	-0.003892 
2002.111008  	-0.004331 
2004.039824  	-0.002751 
2005.968640  	-0.002572 
2007.897456  	-0.002245 
2009.826272  	-0.001746 
2011.755088  	-0.001172 
2013.683904  	-0.002604 
2015.612720  	-0.002293 
2017.541536  	-0.001891 
2019.470352  	-0.001655 
2021.399168  	-0.003509 
2023.327984  	-0.003145 
2025.256800  	-0.002929 
2027.185616  	-0.002107 
2029.114432  	-0.002496 
2031.043248  	-0.002958 
2032.972064  	-0.002480 
2034.900880  	-0.000807 
2036.829696  	-0.001022 
2038.758512  	-0.001120 
2040.687328  	-0.002324 
2042.616144  	-0.001694 
2044.544960  	-0.001302 
2046.473776  	-0.001276 
2048.402592  	-0.001122 
2050.331408  	-0.000843 
2052.260224  	-0.001249 
2054.189040  	-0.001349 
2056.117856  	-0.001953 
2058.046672  	-0.001942 
2059.975488  	-0.001809 
2061.904304  	-0.001262 
2063.833120  	-0.001305 
2065.761936  	-0.000725 
2067.690752  	-0.000947 
2069.619568  	-0.000764 
2071.548384  	-0.001004 
2073.477200  	-0.001001 
2075.406016  	-0.000837 
2077.334832  	-0.000438 
2079.263648  	-0.000255 
2081.192464  	-0.000246 
2083.121280  	-0.000836 
2085.050096  	-0.000928 
2086.978912  	-0.000914 
2088.907728  	-0.000276 
2090.836544  	-0.000171 
2092.765360  	-0.000341 
2094.694176  	-0.000371 
2096.622992  	0.000097 
2098.551808  	0.000011 
2100.480624  	-0.000013 
2102.409440  	-0.000289 
2104.338256  	-0.000196 
2106.267072  	-0.000448 
2108.195888  	-0.000238 
2110.124704  	-0.000049 
2112.053520  	0.000024 
2113.982336  	-0.000262 
2115.911152  	-0.000344 
2117.839968  	-0.000714 
2119.768784  	-0.000668 
2121.697600  	-0.000563 
2123.626416  	-0.000549 
2125.555232  	-0.001013 
2127.484048  	-0.000990 
2129.412864  	-0.000756 
2131.341680  	-0.000390 
2133.270496  	-0.000438 
2135.199312  	0.000115 
2137.128128  	0.000676 
2139.056944  	0.001430 
2140.985760  	0.001358 
2142.914576  	0.001285 
2144.843392  	0.000536 
2146.772208  	0.001063 
2148.701024  	0.001269 
2150.629840  	0.000985 
2152.558656  	0.000149 
2154.487472  	0.000419 
2156.416288  	0.001240 
2158.345104  	0.004643 
2160.273920  	0.006709 
2162.202736  	0.005653 
2164.131552  	0.003829 
2166.060368  	0.003877 
2167.989184  	0.002632 
2169.918000  	0.001744 
2171.846816  	0.001665 
2173.775632  	0.002120 
2175.704448  	0.002267 
2177.633264  	0.002504 
2179.562080  	0.001463 
2181.490896  	0.002306 
2183.419712  	0.002847 
2185.348528  	0.002402 
2187.277344  	0.001854 
2189.206160  	0.002195 
2191.134976  	0.002035 
2193.063792  	0.001555 
2194.992608  	0.001097 
2196.921424  	0.001146 
2198.850240  	0.000509 
2200.779056  	0.000409 
2202.707872  	0.000475 
2204.636688  	0.001404 
2206.565504  	0.001056 
2208.494320  	0.000214 
2210.423136  	-0.000445 
2212.351952  	0.000039 
2214.280768  	0.000047 
2216.209584  	0.000424 
2218.138400  	0.000094 
2220.067216  	-0.000336 
2221.996032  	-0.000364 
2223.924848  	0.000029 
2225.853664  	-0.000162 
2227.782480  	0.000034 
2229.711296  	-0.000635 
2231.640112  	-0.000902 
2233.568928  	-0.000997 
2235.497744  	-0.000600 
2237.426560  	-0.000563 
2239.355376  	-0.000472 
2241.284192  	-0.000977 
2243.213008  	-0.001303 
2245.141824  	-0.001267 
2247.070640  	-0.000987 
2248.999456  	-0.000814 
2250.928272  	-0.000729 
2252.857088  	-0.001088 
2254.785904  	-0.000955 
2256.714720  	-0.000725 
2258.643536  	-0.000224 
2260.572352  	0.000063 
2262.501168  	-0.000046 
2264.429984  	-0.000232 
2266.358800  	-0.000047 
2268.287616  	-0.000510 
2270.216432  	-0.000801 
2272.145248  	-0.000558 
2274.074064  	-0.000122 
2276.002880  	-0.000382 
2277.931696  	-0.000304 
2279.860512  	-0.000024 
2281.789328  	0.000037 
2283.718144  	-0.000305 
2285.646960  	0.000135 
2287.575776  	0.000249 
2289.504592  	0.000391 
2291.433408  	0.000532 
2293.362224  	0.000680 
2295.291040  	0.000680 
2297.219856  	0.001007 
2299.148672  	0.001232 
2301.077488  	0.001554 
2303.006304  	0.002043 
2304.935120  	0.002479 
2306.863936  	0.002560 
2308.792752  	0.002698 
2310.721568  	0.002808 
2312.650384  	0.002730 
2314.579200  	0.002109 
2316.508016  	0.002017 
2318.436832  	0.002298 
2320.365648  	0.002572 
2322.294464  	0.002273 
2324.223280  	0.001282 
2326.152096  	-0.000443 
2328.080912  	-0.001456 
2330.009728  	-0.001929 
2331.938544  	-0.002626 
2333.867360  	-0.003432 
2335.796176  	-0.003909 
2337.724992  	-0.004343 
2339.653808  	-0.004529 
2341.582624  	-0.004167 
2343.511440  	-0.003104 
2345.440256  	-0.001499 
2347.369072  	-0.000183 
2349.297888  	-0.000162 
2351.226704  	-0.001633 
2353.155520  	-0.003606 
2355.084336  	-0.004591 
2357.013152  	-0.005117 
2358.941968  	-0.005285 
2360.870784  	-0.005758 
2362.799600  	-0.005415 
2364.728416  	-0.004099 
2366.657232  	-0.003388 
2368.586048  	-0.002714 
2370.514864  	-0.001163 
2372.443680  	-0.000212 
2374.372496  	0.000661 
2376.301312  	0.001495 
2378.230128  	0.001908 
2380.158944  	0.001513 
2382.087760  	0.000891 
2384.016576  	0.000087 
2385.945392  	-0.000429 
2387.874208  	-0.000660 
2389.803024  	-0.000976 
2391.731840  	-0.001387 
2393.660656  	-0.001545 
2395.589472  	-0.001394 
2397.518288  	-0.001301 
2399.447104  	-0.001385 
2401.375920  	-0.001385 
2403.304736  	-0.001589 
2405.233552  	-0.001672 
2407.162368  	-0.001605 
2409.091184  	-0.001489 
2411.020000  	-0.001515 
2412.948816  	-0.001582 
2414.877632  	-0.001490 
2416.806448  	-0.001260 
2418.735264  	-0.001172 
2420.664080  	-0.001116 
2422.592896  	-0.001261 
2424.521712  	-0.001144 
2426.450528  	-0.000969 
2428.379344  	-0.001027 
2430.308160  	-0.000934 
2432.236976  	-0.000798 
2434.165792  	-0.000635 
2436.094608  	-0.000407 
2438.023424  	-0.000430 
2439.952240  	-0.000499 
2441.881056  	-0.000525 
2443.809872  	-0.000438 
2445.738688  	-0.000290 
2447.667504  	0.000047 
2449.596320  	0.000091 
2451.525136  	-0.000094 
2453.453952  	-0.000167 
2455.382768  	-0.000071 
2457.311584  	-0.000100 
2459.240400  	-0.000169 
2461.169216  	-0.000126 
2463.098032  	0.000047 
2465.026848  	0.000079 
2466.955664  	0.000086 
2468.884480  	-0.000123 
2470.813296  	-0.000219 
2472.742112  	-0.000022 
2474.670928  	0.000160 
2476.599744  	0.000384 
2478.528560  	0.000667 
2480.457376  	0.000659 
2482.386192  	0.000706 
2484.315008  	0.000734 
2486.243824  	0.000893 
2488.172640  	0.001021 
2490.101456  	0.001145 
2492.030272  	0.001231 
2493.959088  	0.001114 
2495.887904  	0.000966 
2497.816720  	0.001240 
2499.745536  	0.001512 
2501.674352  	0.001608 
2503.603168  	0.001574 
2505.531984  	0.001587 
2507.460800  	0.001581 
2509.389616  	0.001613 
2511.318432  	0.001691 
2513.247248  	0.001817 
2515.176064  	0.001910 
2517.104880  	0.001935 
2519.033696  	0.001800 
2520.962512  	0.001882 
2522.891328  	0.001937 
2524.820144  	0.002146 
2526.748960  	0.002374 
2528.677776  	0.002442 
2530.606592  	0.002506 
2532.535408  	0.002822 
2534.464224  	0.002760 
2536.393040  	0.002628 
2538.321856  	0.002721 
2540.250672  	0.002681 
2542.179488  	0.002768 
2544.108304  	0.003004 
2546.037120  	0.003119 
2547.965936  	0.003293 
2549.894752  	0.003495 
2551.823568  	0.003646 
2553.752384  	0.003684 
2555.681200  	0.003603 
2557.610016  	0.003546 
2559.538832  	0.003654 
2561.467648  	0.004015 
2563.396464  	0.004326 
2565.325280  	0.004312 
2567.254096  	0.004355 
2569.182912  	0.004289 
2571.111728  	0.004205 
2573.040544  	0.004296 
2574.969360  	0.004498 
2576.898176  	0.004679 
2578.826992  	0.004822 
2580.755808  	0.004789 
2582.684624  	0.004904 
2584.613440  	0.005055 
2586.542256  	0.005295 
2588.471072  	0.005348 
2590.399888  	0.005397 
2592.328704  	0.005689 
2594.257520  	0.005796 
2596.186336  	0.005552 
2598.115152  	0.005650 
2600.043968  	0.005802 
2601.972784  	0.005863 
2603.901600  	0.006013 
2605.830416  	0.006004 
2607.759232  	0.006010 
2609.688048  	0.006159 
2611.616864  	0.006343 
2613.545680  	0.006530 
2615.474496  	0.006672 
2617.403312  	0.006879 
2619.332128  	0.006875 
2621.260944  	0.006844 
2623.189760  	0.006981 
2625.118576  	0.007181 
2627.047392  	0.007187 
2628.976208  	0.007397 
2630.905024  	0.007598 
2632.833840  	0.007667 
2634.762656  	0.007801 
2636.691472  	0.007971 
2638.620288  	0.008056 
2640.549104  	0.008208 
2642.477920  	0.008344 
2644.406736  	0.008416 
2646.335552  	0.008502 
2648.264368  	0.008718 
2650.193184  	0.008961 
2652.122000  	0.009094 
2654.050816  	0.009146 
2655.979632  	0.009275 
2657.908448  	0.009425 
2659.837264  	0.009557 
2661.766080  	0.009720 
2663.694896  	0.009831 
2665.623712  	0.009997 
2667.552528  	0.010216 
2669.481344  	0.010242 
2671.410160  	0.010324 
2673.338976  	0.010581 
2675.267792  	0.010797 
2677.196608  	0.010936 
2679.125424  	0.011047 
2681.054240  	0.011142 
2682.983056  	0.011319 
2684.911872  	0.011397 
2686.840688  	0.011430 
2688.769504  	0.011648 
2690.698320  	0.011938 
2692.627136  	0.011951 
2694.555952  	0.012013 
2696.484768  	0.012166 
2698.413584  	0.012299 
2700.342400  	0.012325 
2702.271216  	0.012517 
2704.200032  	0.012667 
2706.128848  	0.012834 
2708.057664  	0.013062 
2709.986480  	0.013163 
2711.915296  	0.013274 
2713.844112  	0.013442 
2715.772928  	0.013603 
2717.701744  	0.013771 
2719.630560  	0.014027 
2721.559376  	0.014207 
2723.488192  	0.014244 
2725.417008  	0.014404 
2727.345824  	0.014662 
2729.274640  	0.014983 
2731.203456  	0.015056 
2733.132272  	0.015114 
2735.061088  	0.015238 
2736.989904  	0.015419 
2738.918720  	0.015586 
2740.847536  	0.015659 
2742.776352  	0.015815 
2744.705168  	0.016019 
2746.633984  	0.016119 
2748.562800  	0.016301 
2750.491616  	0.016367 
2752.420432  	0.016328 
2754.349248  	0.016308 
2756.278064  	0.016315 
2758.206880  	0.016331 
2760.135696  	0.016402 
2762.064512  	0.016397 
2763.993328  	0.016423 
2765.922144  	0.016568 
2767.850960  	0.016659 
2769.779776  	0.016570 
2771.708592  	0.016591 
2773.637408  	0.016609 
2775.566224  	0.016567 
2777.495040  	0.016538 
2779.423856  	0.016527 
2781.352672  	0.016586 
2783.281488  	0.016764 
2785.210304  	0.016754 
2787.139120  	0.016727 
2789.067936  	0.016714 
2790.996752  	0.016673 
2792.925568  	0.016686 
2794.854384  	0.016716 
2796.783200  	0.016746 
2798.712016  	0.016704 
2800.640832  	0.016752 
2802.569648  	0.017005 
2804.498464  	0.017067 
2806.427280  	0.017006 
2808.356096  	0.017060 
2810.284912  	0.017019 
2812.213728  	0.016875 
2814.142544  	0.016977 
2816.071360  	0.017029 
2818.000176  	0.017114 
2819.928992  	0.017201 
2821.857808  	0.017235 
2823.786624  	0.017173 
2825.715440  	0.017177 
2827.644256  	0.017220 
2829.573072  	0.017192 
2831.501888  	0.017156 
2833.430704  	0.017160 
2835.359520  	0.017175 
2837.288336  	0.017116 
2839.217152  	0.017011 
2841.145968  	0.016939 
2843.074784  	0.016901 
2845.003600  	0.016920 
2846.932416  	0.016913 
2848.861232  	0.017074 
2850.790048  	0.017174 
2852.718864  	0.017204 
2854.647680  	0.017194 
2856.576496  	0.017344 
2858.505312  	0.017440 
2860.434128  	0.017479 
2862.362944  	0.017436 
2864.291760  	0.017440 
2866.220576  	0.017510 
2868.149392  	0.017677 
2870.078208  	0.017825 
2872.007024  	0.018149 
2873.935840  	0.018504 
2875.864656  	0.018825 
2877.793472  	0.019101 
2879.722288  	0.019572 
2881.651104  	0.020042 
2883.579920  	0.020417 
2885.508736  	0.020725 
2887.437552  	0.020980 
2889.366368  	0.021096 
2891.295184  	0.021203 
2893.224000  	0.021266 
2895.152816  	0.021371 
2897.081632  	0.021464 
2899.010448  	0.021138 
2900.939264  	0.020768 
2902.868080  	0.021052 
2904.796896  	0.021551 
2906.725712  	0.021843 
2908.654528  	0.022031 
2910.583344  	0.022424 
2912.512160  	0.022793 
2914.440976  	0.023260 
2916.369792  	0.023841 
2918.298608  	0.024323 
2920.227424  	0.024828 
2922.156240  	0.025364 
2924.085056  	0.025996 
2926.013872  	0.026563 
2927.942688  	0.027216 
2929.871504  	0.027938 
2931.800320  	0.028623 
2933.729136  	0.029506 
2935.657952  	0.030177 
2937.586768  	0.030651 
2939.515584  	0.031065 
2941.444400  	0.031450 
2943.373216  	0.031914 
2945.302032  	0.032401 
2947.230848  	0.032651 
2949.159664  	0.032668 
2951.088480  	0.032680 
2953.017296  	0.032575 
2954.946112  	0.032351 
2956.874928  	0.032224 
2958.803744  	0.032039 
2960.732560  	0.031902 
2962.661376  	0.031689 
2964.590192  	0.031421 
2966.519008  	0.031191 
2968.447824  	0.030801 
2970.376640  	0.030542 
2972.305456  	0.030361 
2974.234272  	0.030391 
2976.163088  	0.030378 
2978.091904  	0.030234 
2980.020720  	0.030053 
2981.949536  	0.029996 
2983.878352  	0.029834 
2985.807168  	0.029691 
2987.735984  	0.029680 
2989.664800  	0.029724 
2991.593616  	0.030288 
2993.522432  	0.030712 
2995.451248  	0.030827 
2997.380064  	0.031222 
2999.308880  	0.031805 
3001.237696  	0.032302 
3003.166512  	0.032852 
3005.095328  	0.033330 
3007.024144  	0.033867 
3008.952960  	0.034598 
3010.881776  	0.035298 
3012.810592  	0.035891 
3014.739408  	0.036352 
3016.668224  	0.036893 
3018.597040  	0.037418 
3020.525856  	0.037890 
3022.454672  	0.038389 
3024.383488  	0.039097 
3026.312304  	0.039860 
3028.241120  	0.040348 
3030.169936  	0.041050 
3032.098752  	0.041813 
3034.027568  	0.042157 
3035.956384  	0.042575 
3037.885200  	0.043190 
3039.814016  	0.043871 
3041.742832  	0.044212 
3043.671648  	0.044755 
3045.600464  	0.045481 
3047.529280  	0.046164 
3049.458096  	0.046835 
3051.386912  	0.047349 
3053.315728  	0.047912 
3055.244544  	0.048660 
3057.173360  	0.049421 
3059.102176  	0.050140 
3061.030992  	0.050857 
3062.959808  	0.051566 
3064.888624  	0.052547 
3066.817440  	0.053499 
3068.746256  	0.054226 
3070.675072  	0.055042 
3072.603888  	0.056011 
3074.532704  	0.056849 
3076.461520  	0.057602 
3078.390336  	0.058599 
3080.319152  	0.059649 
3082.247968  	0.060346 
3084.176784  	0.061099 
3086.105600  	0.062065 
3088.034416  	0.063053 
3089.963232  	0.063724 
3091.892048  	0.064442 
3093.820864  	0.065310 
3095.749680  	0.066508 
3097.678496  	0.067562 
3099.607312  	0.068532 
3101.536128  	0.069601 
3103.464944  	0.070325 
3105.393760  	0.070962 
3107.322576  	0.071960 
3109.251392  	0.072926 
3111.180208  	0.073660 
3113.109024  	0.074268 
3115.037840  	0.075032 
3116.966656  	0.075896 
3118.895472  	0.076763 
3120.824288  	0.077615 
3122.753104  	0.078463 
3124.681920  	0.079032 
3126.610736  	0.079663 
3128.539552  	0.080195 
3130.468368  	0.080714 
3132.397184  	0.081700 
3134.326000  	0.082495 
3136.254816  	0.083029 
3138.183632  	0.083624 
3140.112448  	0.084170 
3142.041264  	0.085103 
3143.970080  	0.086004 
3145.898896  	0.086519 
3147.827712  	0.087128 
3149.756528  	0.087996 
3151.685344  	0.088646 
3153.614160  	0.089239 
3155.542976  	0.089984 
3157.471792  	0.090817 
3159.400608  	0.091545 
3161.329424  	0.092169 
3163.258240  	0.092915 
3165.187056  	0.093656 
3167.115872  	0.094145 
3169.044688  	0.094761 
3170.973504  	0.095298 
3172.902320  	0.095713 
3174.831136  	0.096090 
3176.759952  	0.096670 
3178.688768  	0.097361 
3180.617584  	0.097504 
3182.546400  	0.097591 
3184.475216  	0.098080 
3186.404032  	0.098544 
3188.332848  	0.098710 
3190.261664  	0.098863 
3192.190480  	0.099113 
3194.119296  	0.099303 
3196.048112  	0.099256 
3197.976928  	0.099540 
3199.905744  	0.099519 
3201.834560  	0.099330 
3203.763376  	0.099168 
3205.692192  	0.098920 
3207.621008  	0.098885 
3209.549824  	0.099269 
3211.478640  	0.099364 
3213.407456  	0.099099 
3215.336272  	0.099005 
3217.265088  	0.098906 
3219.193904  	0.099077 
3221.122720  	0.099024 
3223.051536  	0.098620 
3224.980352  	0.098214 
3226.909168  	0.098009 
3228.837984  	0.097920 
3230.766800  	0.097836 
3232.695616  	0.097978 
3234.624432  	0.098069 
3236.553248  	0.098059 
3238.482064  	0.098077 
3240.410880  	0.097958 
3242.339696  	0.097898 
3244.268512  	0.098100 
3246.197328  	0.098279 
3248.126144  	0.098382 
3250.054960  	0.098704 
3251.983776  	0.098826 
3253.912592  	0.099088 
3255.841408  	0.099519 
3257.770224  	0.099600 
3259.699040  	0.099800 
3261.627856  	0.100100 
3263.556672  	0.100120 
3265.485488  	0.100202 
3267.414304  	0.100450 
3269.343120  	0.100827 
3271.271936  	0.101089 
3273.200752  	0.101185 
3275.129568  	0.101226 
3277.058384  	0.101537 
3278.987200  	0.101748 
3280.916016  	0.101820 
3282.844832  	0.101933 
3284.773648  	0.102089 
3286.702464  	0.102138 
3288.631280  	0.102515 
3290.560096  	0.102718 
3292.488912  	0.102802 
3294.417728  	0.102990 
3296.346544  	0.103326 
3298.275360  	0.103746 
3300.204176  	0.103911 
3302.132992  	0.103858 
3304.061808  	0.104298 
3305.990624  	0.104753 
3307.919440  	0.105261 
3309.848256  	0.105518 
3311.777072  	0.105695 
3313.705888  	0.105968 
3315.634704  	0.106288 
3317.563520  	0.106620 
3319.492336  	0.106903 
3321.421152  	0.107064 
3323.349968  	0.107280 
3325.278784  	0.107561 
3327.207600  	0.107646 
3329.136416  	0.107594 
3331.065232  	0.107709 
3332.994048  	0.107714 
3334.922864  	0.107772 
3336.851680  	0.107844 
3338.780496  	0.107630 
3340.709312  	0.107212 
3342.638128  	0.107094 
3344.566944  	0.106768 
3346.495760  	0.106393 
3348.424576  	0.106290 
3350.353392  	0.106163 
3352.282208  	0.105576 
3354.211024  	0.105394 
3356.139840  	0.105342 
3358.068656  	0.104969 
3359.997472  	0.104456 
3361.926288  	0.103961 
3363.855104  	0.103616 
3365.783920  	0.103489 
3367.712736  	0.103057 
3369.641552  	0.102601 
3371.570368  	0.102004 
3373.499184  	0.101716 
3375.428000  	0.101630 
3377.356816  	0.101310 
3379.285632  	0.100887 
3381.214448  	0.100491 
3383.143264  	0.100337 
3385.072080  	0.100250 
3387.000896  	0.099579 
3388.929712  	0.098851 
3390.858528  	0.098352 
3392.787344  	0.098501 
3394.716160  	0.098271 
3396.644976  	0.097793 
3398.573792  	0.096955 
3400.502608  	0.095946 
3402.431424  	0.095445 
3404.360240  	0.095002 
3406.289056  	0.094235 
3408.217872  	0.093854 
3410.146688  	0.093458 
3412.075504  	0.092788 
3414.004320  	0.092235 
3415.933136  	0.091842 
3417.861952  	0.091360 
3419.790768  	0.091178 
3421.719584  	0.090853 
3423.648400  	0.089882 
3425.577216  	0.088872 
3427.506032  	0.088146 
3429.434848  	0.087528 
3431.363664  	0.087285 
3433.292480  	0.086801 
3435.221296  	0.085985 
3437.150112  	0.085176 
3439.078928  	0.084641 
3441.007744  	0.083908 
3442.936560  	0.083372 
3444.865376  	0.082569 
3446.794192  	0.082791 
3448.723008  	0.082333 
3450.651824  	0.080815 
3452.580640  	0.079790 
3454.509456  	0.078912 
3456.438272  	0.077973 
3458.367088  	0.077311 
3460.295904  	0.076785 
3462.224720  	0.076050 
3464.153536  	0.074923 
3466.082352  	0.073921 
3468.011168  	0.073245 
3469.939984  	0.072590 
3471.868800  	0.071682 
3473.797616  	0.070667 
3475.726432  	0.069743 
3477.655248  	0.068673 
3479.584064  	0.067964 
3481.512880  	0.067807 
3483.441696  	0.066963 
3485.370512  	0.065309 
3487.299328  	0.064524 
3489.228144  	0.063687 
3491.156960  	0.062415 
3493.085776  	0.061619 
3495.014592  	0.061072 
3496.943408  	0.060293 
3498.872224  	0.059131 
3500.801040  	0.059060 
3502.729856  	0.059440 
3504.658672  	0.058450 
3506.587488  	0.056514 
3508.516304  	0.056025 
3510.445120  	0.055781 
3512.373936  	0.054354 
3514.302752  	0.053211 
3516.231568  	0.052536 
3518.160384  	0.051697 
3520.089200  	0.050678 
3522.018016  	0.050607 
3523.946832  	0.051253 
3525.875648  	0.050364 
3527.804464  	0.049378 
3529.733280  	0.048206 
3531.662096  	0.046661 
3533.590912  	0.045273 
3535.519728  	0.045071 
3537.448544  	0.044624 
3539.377360  	0.043073 
3541.306176  	0.042142 
3543.234992  	0.042573 
3545.163808  	0.043817 
3547.092624  	0.043258 
3549.021440  	0.040585 
3550.950256  	0.039210 
3552.879072  	0.039422 
3554.807888  	0.038075 
3556.736704  	0.036440 
3558.665520  	0.036040 
3560.594336  	0.036092 
3562.523152  	0.035402 
3564.451968  	0.035694 
3566.380784  	0.038595 
3568.309600  	0.038285 
3570.238416  	0.033645 
3572.167232  	0.030872 
3574.096048  	0.029956 
3576.024864  	0.029290 
3577.953680  	0.028502 
3579.882496  	0.027945 
3581.811312  	0.026887 
3583.740128  	0.025988 
3585.668944  	0.026737 
3587.597760  	0.029084 
3589.526576  	0.026537 
3591.455392  	0.023195 
3593.384208  	0.023078 
3595.313024  	0.023430 
3597.241840  	0.022046 
3599.170656  	0.020601 
3601.099472  	0.019882 
3603.028288  	0.018217 
3604.957104  	0.016902 
3606.885920  	0.017708 
3608.814736  	0.018515 
3610.743552  	0.016654 
3612.672368  	0.016316 
3614.601184  	0.015734 
3616.530000  	0.013740 
3618.458816  	0.014182 
3620.387632  	0.013776 
3622.316448  	0.010512 
3624.245264  	0.008422 
3626.174080  	0.007980 
3628.102896  	0.009925 
3630.031712  	0.011383 
3631.960528  	0.007346 
3633.889344  	0.005500 
3635.818160  	0.003979 
3637.746976  	0.002654 
3639.675792  	0.002018 
3641.604608  	0.001567 
3643.533424  	0.000755 
3645.462240  	0.000341 
3647.391056  	0.003198 
3649.319872  	0.005339 
3651.248688  	0.002811 
3653.177504  	-0.001804 
3655.106320  	-0.003442 
3657.035136  	-0.003236 
3658.963952  	-0.004794 
3660.892768  	-0.005815 
3662.821584  	-0.006820 
3664.750400  	-0.007680 
3666.679216  	-0.007960 
3668.608032  	-0.006893 
3670.536848  	-0.004587 
3672.465664  	-0.006326 
3674.394480  	-0.006456 
3676.323296  	-0.004014 
3678.252112  	-0.006325 
3680.180928  	-0.008064 
3682.109744  	-0.009542 
3684.038560  	-0.010057 
3685.967376  	-0.010508 
3687.896192  	-0.009150 
3689.825008  	-0.006899 
3691.753824  	-0.007905 
3693.682640  	-0.009888 
3695.611456  	-0.010754 
3697.540272  	-0.010855 
3699.469088  	-0.011492 
3701.397904  	-0.010621 
3703.326720  	-0.010298 
3705.255536  	-0.010941 
3707.184352  	-0.010799 
3709.113168  	-0.009503 
3711.041984  	-0.007190 
3712.970800  	-0.007233 
3714.899616  	-0.009423 
3716.828432  	-0.010836 
3718.757248  	-0.010554 
3720.686064  	-0.010164 
3722.614880  	-0.009260 
3724.543696  	-0.008936 
3726.472512  	-0.008547 
3728.401328  	-0.009879 
3730.330144  	-0.011449 
3732.258960  	-0.010291 
3734.187776  	-0.006755 
3736.116592  	-0.004168 
3738.045408  	-0.007253 
3739.974224  	-0.009032 
3741.903040  	-0.009690 
3743.831856  	-0.008654 
3745.760672  	-0.006955 
3747.689488  	-0.009052 
3749.618304  	-0.007954 
3751.547120  	-0.005618 
3753.475936  	-0.007299 
3755.404752  	-0.009631 
3757.333568  	-0.009845 
3759.262384  	-0.009253 
3761.191200  	-0.010001 
3763.120016  	-0.011138 
3765.048832  	-0.010252 
3766.977648  	-0.010128 
3768.906464  	-0.010235 
3770.835280  	-0.009796 
3772.764096  	-0.011158 
3774.692912  	-0.011991 
3776.621728  	-0.012067 
3778.550544  	-0.011169 
3780.479360  	-0.010586 
3782.408176  	-0.011414 
3784.336992  	-0.010917 
3786.265808  	-0.010822 
3788.194624  	-0.011568 
3790.123440  	-0.011970 
3792.052256  	-0.012250 
3793.981072  	-0.012474 
3795.909888  	-0.010960 
3797.838704  	-0.009763 
3799.767520  	-0.010402 
3801.696336  	-0.008435 
3803.625152  	-0.009532 
3805.553968  	-0.011183 
3807.482784  	-0.010082 
3809.411600  	-0.011040 
3811.340416  	-0.012058 
3813.269232  	-0.012319 
3815.198048  	-0.010908 
3817.126864  	-0.009362 
3819.055680  	-0.010259 
3820.984496  	-0.008287 
3822.913312  	-0.008533 
3824.842128  	-0.010620 
3826.770944  	-0.010522 
3828.699760  	-0.011141 
3830.628576  	-0.011440 
3832.557392  	-0.011053 
3834.486208  	-0.011174 
3836.415024  	-0.010422 
3838.343840  	-0.008605 
3840.272656  	-0.007784 
3842.201472  	-0.009055 
3844.130288  	-0.009689 
3846.059104  	-0.010940 
3847.987920  	-0.011811 
3849.916736  	-0.011472 
3851.845552  	-0.009739 
3853.774368  	-0.005128 
3855.703184  	-0.006652 
3857.632000  	-0.008981 
3859.560816  	-0.010629 
3861.489632  	-0.010428 
3863.418448  	-0.008946 
3865.347264  	-0.008069 
3867.276080  	-0.010015 
3869.204896  	-0.008778 
3871.133712  	-0.007043 
3873.062528  	-0.008919 
3874.991344  	-0.009311 
3876.920160  	-0.011376 
3878.848976  	-0.011162 
3880.777792  	-0.008426 
3882.706608  	-0.008955 
3884.635424  	-0.009382 
3886.564240  	-0.009320 
3888.493056  	-0.011679 
3890.421872  	-0.011117 
3892.350688  	-0.009443 
3894.279504  	-0.010380 
3896.208320  	-0.011560 
3898.137136  	-0.010778 
3900.065952  	-0.008592 
3901.994768  	-0.007634 
3903.923584  	-0.007109 
3905.852400  	-0.008205 
3907.781216  	-0.010879 
3909.710032  	-0.012345 
3911.638848  	-0.012555 
3913.567664  	-0.012381 
3915.496480  	-0.011188 
3917.425296  	-0.009390 
3919.354112  	-0.009681 
3921.282928  	-0.010445 
3923.211744  	-0.010311 
3925.140560  	-0.009627 
3927.069376  	-0.010953 
3928.998192  	-0.011034 
3930.927008  	-0.009691 
3932.855824  	-0.009301 
3934.784640  	-0.010724 
3936.713456  	-0.011587 
3938.642272  	-0.011802 
3940.571088  	-0.011771 
3942.499904  	-0.010187 
3944.428720  	-0.010182 
3946.357536  	-0.011156 
3948.286352  	-0.010321 
3950.215168  	-0.010608 
3952.143984  	-0.011592 
3954.072800  	-0.012036 
3956.001616  	-0.011789 
3957.930432  	-0.011491 
3959.859248  	-0.011372 
3961.788064  	-0.011235 
3963.716880  	-0.011576 
3965.645696  	-0.012227 
3967.574512  	-0.012327 
3969.503328  	-0.012098 
3971.432144  	-0.011950 
3973.360960  	-0.011596 
3975.289776  	-0.011187 
3977.218592  	-0.011362 
3979.147408  	-0.011744 
3981.076224  	-0.011724 
3983.005040  	-0.011833 
3984.933856  	-0.011932 
3986.862672  	-0.011848 
3988.791488  	-0.011796 
3990.720304  	-0.011450 
3992.649120  	-0.011551 
3994.577936  	-0.011653 
3996.506752  	-0.011801 
3998.435568  	-0.012103 
4000.364384  	-0.012045 