##TITLE=No Description
##DATA TYPE=INFRARED SPECTRUM
##XUNITS=1/CM
##YUNITS=Abs
399.264912  	0.602738 
401.193728  	0.584219 
403.122544  	0.563975 
405.051360  	0.551029 
406.980176  	0.552687 
408.908992  	0.551724 
410.837808  	0.559466 
412.766624  	0.546773 
414.695440  	0.541725 
416.624256  	0.541558 
418.553072  	0.542225 
420.481888  	0.535438 
422.410704  	0.540725 
424.339520  	0.540015 
426.268336  	0.535133 
428.197152  	0.526965 
430.125968  	0.530459 
432.054784  	0.526557 
433.983600  	0.528426 
435.912416  	0.528266 
437.841232  	0.525402 
439.770048  	0.522237 
441.698864  	0.525677 
443.627680  	0.521953 
445.556496  	0.519758 
447.485312  	0.520894 
449.414128  	0.526220 
451.342944  	0.522622 
453.271760  	0.518535 
455.200576  	0.515277 
457.129392  	0.524462 
459.058208  	0.524958 
460.987024  	0.523992 
462.915840  	0.523779 
464.844656  	0.525883 
466.773472  	0.525075 
468.702288  	0.521619 
470.631104  	0.519142 
472.559920  	0.528449 
474.488736  	0.523813 
476.417552  	0.527472 
478.346368  	0.530044 
480.275184  	0.527895 
482.204000  	0.524264 
484.132816  	0.523955 
486.061632  	0.523563 
487.990448  	0.524365 
489.919264  	0.526462 
491.848080  	0.526962 
493.776896  	0.522488 
495.705712  	0.522444 
497.634528  	0.517735 
499.563344  	0.515891 
501.492160  	0.515442 
503.420976  	0.516217 
505.349792  	0.512526 
507.278608  	0.514959 
509.207424  	0.515274 
511.136240  	0.517458 
513.065056  	0.519382 
514.993872  	0.522322 
516.922688  	0.524104 
518.851504  	0.525707 
520.780320  	0.524733 
522.709136  	0.525264 
524.637952  	0.526212 
526.566768  	0.523890 
528.495584  	0.518795 
530.424400  	0.516141 
532.353216  	0.511350 
534.282032  	0.505907 
536.210848  	0.497347 
538.139664  	0.489362 
540.068480  	0.482770 
541.997296  	0.479076 
543.926112  	0.475176 
545.854928  	0.472173 
547.783744  	0.467576 
549.712560  	0.464113 
551.641376  	0.460204 
553.570192  	0.457365 
555.499008  	0.453751 
557.427824  	0.450611 
559.356640  	0.445496 
561.285456  	0.442178 
563.214272  	0.438491 
565.143088  	0.434468 
567.071904  	0.430445 
569.000720  	0.428056 
570.929536  	0.424219 
572.858352  	0.420591 
574.787168  	0.417688 
576.715984  	0.414769 
578.644800  	0.410317 
580.573616  	0.405924 
582.502432  	0.399884 
584.431248  	0.394571 
586.360064  	0.390199 
588.288880  	0.387919 
590.217696  	0.385849 
592.146512  	0.384280 
594.075328  	0.382388 
596.004144  	0.380576 
597.932960  	0.378151 
599.861776  	0.376673 
601.790592  	0.375111 
603.719408  	0.374588 
605.648224  	0.373889 
607.577040  	0.373344 
609.505856  	0.371697 
611.434672  	0.369952 
613.363488  	0.368234 
615.292304  	0.367497 
617.221120  	0.366455 
619.149936  	0.365531 
621.078752  	0.363774 
623.007568  	0.362940 
624.936384  	0.361807 
626.865200  	0.361616 
628.794016  	0.361256 
630.722832  	0.361362 
632.651648  	0.361423 
634.580464  	0.362010 
636.509280  	0.363058 
638.438096  	0.363688 
640.366912  	0.363771 
642.295728  	0.362611 
644.224544  	0.359490 
646.153360  	0.355354 
648.082176  	0.350588 
650.010992  	0.346797 
651.939808  	0.343200 
653.868624  	0.339603 
655.797440  	0.335150 
657.726256  	0.331102 
659.655072  	0.326465 
661.583888  	0.320964 
663.512704  	0.316045 
665.441520  	0.311835 
667.370336  	0.307091 
669.299152  	0.301943 
671.227968  	0.297905 
673.156784  	0.294206 
675.085600  	0.291524 
677.014416  	0.289278 
678.943232  	0.287361 
680.872048  	0.285999 
682.800864  	0.284609 
684.729680  	0.283287 
686.658496  	0.281563 
688.587312  	0.280214 
690.516128  	0.279328 
692.444944  	0.278612 
694.373760  	0.277288 
696.302576  	0.276289 
698.231392  	0.274544 
700.160208  	0.272258 
702.089024  	0.269822 
704.017840  	0.267385 
705.946656  	0.264367 
707.875472  	0.261623 
709.804288  	0.259660 
711.733104  	0.258415 
713.661920  	0.256899 
715.590736  	0.255539 
717.519552  	0.255797 
719.448368  	0.257153 
721.377184  	0.258955 
723.306000  	0.261027 
725.234816  	0.262221 
727.163632  	0.261172 
729.092448  	0.258413 
731.021264  	0.254560 
732.950080  	0.249949 
734.878896  	0.245797 
736.807712  	0.242346 
738.736528  	0.239850 
740.665344  	0.237747 
742.594160  	0.236186 
744.522976  	0.235027 
746.451792  	0.233850 
748.380608  	0.232636 
750.309424  	0.231580 
752.238240  	0.230503 
754.167056  	0.229815 
756.095872  	0.229240 
758.024688  	0.227975 
759.953504  	0.227480 
761.882320  	0.229858 
763.811136  	0.232015 
765.739952  	0.230661 
767.668768  	0.227633 
769.597584  	0.225582 
771.526400  	0.225473 
773.455216  	0.228439 
775.384032  	0.234417 
777.312848  	0.242585 
779.241664  	0.248802 
781.170480  	0.248684 
783.099296  	0.242975 
785.028112  	0.235769 
786.956928  	0.228778 
788.885744  	0.223012 
790.814560  	0.218870 
792.743376  	0.216830 
794.672192  	0.216003 
796.601008  	0.215119 
798.529824  	0.211737 
800.458640  	0.206330 
802.387456  	0.202150 
804.316272  	0.200463 
806.245088  	0.200026 
808.173904  	0.199745 
810.102720  	0.199958 
812.031536  	0.200782 
813.960352  	0.201784 
815.889168  	0.202972 
817.817984  	0.204683 
819.746800  	0.206336 
821.675616  	0.207937 
823.604432  	0.209387 
825.533248  	0.210439 
827.462064  	0.211079 
829.390880  	0.211116 
831.319696  	0.210794 
833.248512  	0.209643 
835.177328  	0.207294 
837.106144  	0.203959 
839.034960  	0.200153 
840.963776  	0.195353 
842.892592  	0.190461 
844.821408  	0.185390 
846.750224  	0.180682 
848.679040  	0.177216 
850.607856  	0.174769 
852.536672  	0.173089 
854.465488  	0.171863 
856.394304  	0.170833 
858.323120  	0.169471 
860.251936  	0.167766 
862.180752  	0.166163 
864.109568  	0.163905 
866.038384  	0.161252 
867.967200  	0.159041 
869.896016  	0.157396 
871.824832  	0.156431 
873.753648  	0.156782 
875.682464  	0.158158 
877.611280  	0.160642 
879.540096  	0.163778 
881.468912  	0.167015 
883.397728  	0.170337 
885.326544  	0.172782 
887.255360  	0.173999 
889.184176  	0.173991 
891.112992  	0.172879 
893.041808  	0.170641 
894.970624  	0.167087 
896.899440  	0.162140 
898.828256  	0.156201 
900.757072  	0.150633 
902.685888  	0.146058 
904.614704  	0.143466 
906.543520  	0.143536 
908.472336  	0.146148 
910.401152  	0.150186 
912.329968  	0.154935 
914.258784  	0.159599 
916.187600  	0.164123 
918.116416  	0.168065 
920.045232  	0.170888 
921.974048  	0.173002 
923.902864  	0.174672 
925.831680  	0.176043 
927.760496  	0.177546 
929.689312  	0.179373 
931.618128  	0.181580 
933.546944  	0.183273 
935.475760  	0.184319 
937.404576  	0.184679 
939.333392  	0.184312 
941.262208  	0.184511 
943.191024  	0.187034 
945.119840  	0.192649 
947.048656  	0.201745 
948.977472  	0.214476 
950.906288  	0.229997 
952.835104  	0.247923 
954.763920  	0.267213 
956.692736  	0.285809 
958.621552  	0.301839 
960.550368  	0.312347 
962.479184  	0.316768 
964.408000  	0.314262 
966.336816  	0.305778 
968.265632  	0.291710 
970.194448  	0.273932 
972.123264  	0.254113 
974.052080  	0.234135 
975.980896  	0.214824 
977.909712  	0.196908 
979.838528  	0.181507 
981.767344  	0.169249 
983.696160  	0.160242 
985.624976  	0.155172 
987.553792  	0.154533 
989.482608  	0.158163 
991.411424  	0.165467 
993.340240  	0.175577 
995.269056  	0.187105 
997.197872  	0.199164 
999.126688  	0.211132 
1001.055504  	0.223391 
1002.984320  	0.235206 
1004.913136  	0.246525 
1006.841952  	0.256919 
1008.770768  	0.266180 
1010.699584  	0.273106 
1012.628400  	0.277618 
1014.557216  	0.280210 
1016.486032  	0.280904 
1018.414848  	0.280241 
1020.343664  	0.279475 
1022.272480  	0.278658 
1024.201296  	0.277742 
1026.130112  	0.276762 
1028.058928  	0.277595 
1029.987744  	0.280389 
1031.916560  	0.284939 
1033.845376  	0.291162 
1035.774192  	0.299300 
1037.703008  	0.309475 
1039.631824  	0.323449 
1041.560640  	0.341551 
1043.489456  	0.363306 
1045.418272  	0.386216 
1047.347088  	0.406917 
1049.275904  	0.420218 
1051.204720  	0.425172 
1053.133536  	0.422886 
1055.062352  	0.417124 
1056.991168  	0.409624 
1058.919984  	0.402780 
1060.848800  	0.396467 
1062.777616  	0.391128 
1064.706432  	0.384321 
1066.635248  	0.376406 
1068.564064  	0.366927 
1070.492880  	0.357056 
1072.421696  	0.347848 
1074.350512  	0.342293 
1076.279328  	0.340741 
1078.208144  	0.343847 
1080.136960  	0.348289 
1082.065776  	0.350364 
1083.994592  	0.347447 
1085.923408  	0.339812 
1087.852224  	0.327923 
1089.781040  	0.314541 
1091.709856  	0.299344 
1093.638672  	0.282991 
1095.567488  	0.265713 
1097.496304  	0.248569 
1099.425120  	0.231752 
1101.353936  	0.215627 
1103.282752  	0.200533 
1105.211568  	0.186589 
1107.140384  	0.173890 
1109.069200  	0.162223 
1110.998016  	0.151649 
1112.926832  	0.142093 
1114.855648  	0.133532 
1116.784464  	0.125351 
1118.713280  	0.117245 
1120.642096  	0.109462 
1122.570912  	0.102212 
1124.499728  	0.095754 
1126.428544  	0.090147 
1128.357360  	0.084936 
1130.286176  	0.080415 
1132.214992  	0.076899 
1134.143808  	0.074494 
1136.072624  	0.072230 
1138.001440  	0.070016 
1139.930256  	0.067950 
1141.859072  	0.065981 
1143.787888  	0.063771 
1145.716704  	0.061762 
1147.645520  	0.060070 
1149.574336  	0.059051 
1151.503152  	0.058368 
1153.431968  	0.058470 
1155.360784  	0.058994 
1157.289600  	0.060537 
1159.218416  	0.062735 
1161.147232  	0.065429 
1163.076048  	0.068221 
1165.004864  	0.071072 
1166.933680  	0.073994 
1168.862496  	0.077314 
1170.791312  	0.080872 
1172.720128  	0.084720 
1174.648944  	0.088816 
1176.577760  	0.092987 
1178.506576  	0.097360 
1180.435392  	0.102121 
1182.364208  	0.106815 
1184.293024  	0.111882 
1186.221840  	0.117976 
1188.150656  	0.124974 
1190.079472  	0.132788 
1192.008288  	0.141946 
1193.937104  	0.152390 
1195.865920  	0.163997 
1197.794736  	0.176530 
1199.723552  	0.189782 
1201.652368  	0.202840 
1203.581184  	0.214981 
1205.510000  	0.226105 
1207.438816  	0.235570 
1209.367632  	0.243507 
1211.296448  	0.249544 
1213.225264  	0.253739 
1215.154080  	0.255678 
1217.082896  	0.255931 
1219.011712  	0.254768 
1220.940528  	0.252983 
1222.869344  	0.250178 
1224.798160  	0.246759 
1226.726976  	0.242078 
1228.655792  	0.236676 
1230.584608  	0.230609 
1232.513424  	0.223902 
1234.442240  	0.216635 
1236.371056  	0.209166 
1238.299872  	0.201039 
1240.228688  	0.192070 
1242.157504  	0.183093 
1244.086320  	0.174457 
1246.015136  	0.165642 
1247.943952  	0.157099 
1249.872768  	0.148689 
1251.801584  	0.140543 
1253.730400  	0.132907 
1255.659216  	0.125698 
1257.588032  	0.118679 
1259.516848  	0.112183 
1261.445664  	0.105973 
1263.374480  	0.100265 
1265.303296  	0.095601 
1267.232112  	0.091991 
1269.160928  	0.089579 
1271.089744  	0.087983 
1273.018560  	0.087321 
1274.947376  	0.087727 
1276.876192  	0.088700 
1278.805008  	0.089326 
1280.733824  	0.088776 
1282.662640  	0.086655 
1284.591456  	0.084172 
1286.520272  	0.082189 
1288.449088  	0.081090 
1290.377904  	0.080958 
1292.306720  	0.081835 
1294.235536  	0.082348 
1296.164352  	0.081745 
1298.093168  	0.079249 
1300.021984  	0.075928 
1301.950800  	0.072295 
1303.879616  	0.068545 
1305.808432  	0.064634 
1307.737248  	0.060729 
1309.666064  	0.056953 
1311.594880  	0.054365 
1313.523696  	0.052419 
1315.452512  	0.050960 
1317.381328  	0.050690 
1319.310144  	0.051093 
1321.238960  	0.051454 
1323.167776  	0.052399 
1325.096592  	0.053375 
1327.025408  	0.053901 
1328.954224  	0.053873 
1330.883040  	0.053207 
1332.811856  	0.051814 
1334.740672  	0.050834 
1336.669488  	0.050866 
1338.598304  	0.051751 
1340.527120  	0.050827 
1342.455936  	0.048586 
1344.384752  	0.048016 
1346.313568  	0.048603 
1348.242384  	0.049737 
1350.171200  	0.051404 
1352.100016  	0.053557 
1354.028832  	0.056345 
1355.957648  	0.059129 
1357.886464  	0.061857 
1359.815280  	0.065021 
1361.744096  	0.069130 
1363.672912  	0.071901 
1365.601728  	0.072847 
1367.530544  	0.074928 
1369.459360  	0.076957 
1371.388176  	0.077665 
1373.316992  	0.077868 
1375.245808  	0.075528 
1377.174624  	0.071782 
1379.103440  	0.068340 
1381.032256  	0.064812 
1382.961072  	0.061777 
1384.889888  	0.060088 
1386.818704  	0.059194 
1388.747520  	0.056499 
1390.676336  	0.053626 
1392.605152  	0.052035 
1394.533968  	0.051815 
1396.462784  	0.052201 
1398.391600  	0.052201 
1400.320416  	0.051738 
1402.249232  	0.052008 
1404.178048  	0.053855 
1406.106864  	0.055184 
1408.035680  	0.056595 
1409.964496  	0.058981 
1411.893312  	0.061737 
1413.822128  	0.064420 
1415.750944  	0.068045 
1417.679760  	0.071169 
1419.608576  	0.071742 
1421.537392  	0.070461 
1423.466208  	0.069768 
1425.395024  	0.067014 
1427.323840  	0.064095 
1429.252656  	0.061643 
1431.181472  	0.059283 
1433.110288  	0.058222 
1435.039104  	0.059080 
1436.967920  	0.060462 
1438.896736  	0.060773 
1440.825552  	0.061349 
1442.754368  	0.061953 
1444.683184  	0.062067 
1446.612000  	0.062675 
1448.540816  	0.062767 
1450.469632  	0.062965 
1452.398448  	0.063704 
1454.327264  	0.065069 
1456.256080  	0.067137 
1458.184896  	0.067050 
1460.113712  	0.064486 
1462.042528  	0.063584 
1463.971344  	0.064006 
1465.900160  	0.065125 
1467.828976  	0.066346 
1469.757792  	0.069239 
1471.686608  	0.075355 
1473.615424  	0.085171 
1475.544240  	0.090805 
1477.473056  	0.096468 
1479.401872  	0.100218 
1481.330688  	0.104209 
1483.259504  	0.106388 
1485.188320  	0.107940 
1487.117136  	0.109263 
1489.045952  	0.110218 
1490.974768  	0.106094 
1492.903584  	0.100837 
1494.832400  	0.096334 
1496.761216  	0.090344 
1498.690032  	0.082542 
1500.618848  	0.075728 
1502.547664  	0.070052 
1504.476480  	0.066519 
1506.405296  	0.065290 
1508.334112  	0.062834 
1510.262928  	0.058500 
1512.191744  	0.054994 
1514.120560  	0.054054 
1516.049376  	0.055987 
1517.978192  	0.057512 
1519.907008  	0.059296 
1521.835824  	0.064246 
1523.764640  	0.067566 
1525.693456  	0.071290 
1527.622272  	0.073628 
1529.551088  	0.073025 
1531.479904  	0.071853 
1533.408720  	0.069546 
1535.337536  	0.065051 
1537.266352  	0.062360 
1539.195168  	0.059930 
1541.123984  	0.055873 
1543.052800  	0.054165 
1544.981616  	0.051643 
1546.910432  	0.048598 
1548.839248  	0.048530 
1550.768064  	0.049423 
1552.696880  	0.049073 
1554.625696  	0.051157 
1556.554512  	0.052727 
1558.483328  	0.056949 
1560.412144  	0.061076 
1562.340960  	0.062994 
1564.269776  	0.066621 
1566.198592  	0.072836 
1568.127408  	0.077864 
1570.056224  	0.087027 
1571.985040  	0.093002 
1573.913856  	0.097094 
1575.842672  	0.101491 
1577.771488  	0.105285 
1579.700304  	0.104020 
1581.629120  	0.102907 
1583.557936  	0.102212 
1585.486752  	0.103717 
1587.415568  	0.107083 
1589.344384  	0.113315 
1591.273200  	0.120985 
1593.202016  	0.130444 
1595.130832  	0.140255 
1597.059648  	0.149876 
1598.988464  	0.157402 
1600.917280  	0.164453 
1602.846096  	0.168966 
1604.774912  	0.171585 
1606.703728  	0.171566 
1608.632544  	0.170744 
1610.561360  	0.167967 
1612.490176  	0.165825 
1614.418992  	0.163536 
1616.347808  	0.164422 
1618.276624  	0.167404 
1620.205440  	0.170384 
1622.134256  	0.174561 
1624.063072  	0.184419 
1625.991888  	0.191457 
1627.920704  	0.200880 
1629.849520  	0.210977 
1631.778336  	0.219248 
1633.707152  	0.225352 
1635.635968  	0.237085 
1637.564784  	0.246913 
1639.493600  	0.249254 
1641.422416  	0.251146 
1643.351232  	0.252525 
1645.280048  	0.251874 
1647.208864  	0.254252 
1649.137680  	0.251934 
1651.066496  	0.247270 
1652.995312  	0.243998 
1654.924128  	0.243784 
1656.852944  	0.237606 
1658.781760  	0.232325 
1660.710576  	0.227564 
1662.639392  	0.223022 
1664.568208  	0.216876 
1666.497024  	0.211468 
1668.425840  	0.206003 
1670.354656  	0.199641 
1672.283472  	0.193554 
1674.212288  	0.188716 
1676.141104  	0.184480 
1678.069920  	0.181166 
1679.998736  	0.179447 
1681.927552  	0.177588 
1683.856368  	0.175954 
1685.785184  	0.175080 
1687.714000  	0.172693 
1689.642816  	0.171083 
1691.571632  	0.168304 
1693.500448  	0.165922 
1695.429264  	0.164231 
1697.358080  	0.163352 
1699.286896  	0.159613 
1701.215712  	0.155799 
1703.144528  	0.152489 
1705.073344  	0.148327 
1707.002160  	0.142087 
1708.930976  	0.135815 
1710.859792  	0.128940 
1712.788608  	0.122215 
1714.717424  	0.114717 
1716.646240  	0.104640 
1718.575056  	0.089572 
1720.503872  	0.078481 
1722.432688  	0.069846 
1724.361504  	0.059375 
1726.290320  	0.050669 
1728.219136  	0.044112 
1730.147952  	0.038823 
1732.076768  	0.034317 
1734.005584  	0.029383 
1735.934400  	0.023203 
1737.863216  	0.021431 
1739.792032  	0.018208 
1741.720848  	0.016376 
1743.649664  	0.015562 
1745.578480  	0.014352 
1747.507296  	0.013469 
1749.436112  	0.013089 
1751.364928  	0.010803 
1753.293744  	0.008672 
1755.222560  	0.007884 
1757.151376  	0.008039 
1759.080192  	0.007098 
1761.009008  	0.006820 
1762.937824  	0.005496 
1764.866640  	0.004941 
1766.795456  	0.005198 
1768.724272  	0.005551 
1770.653088  	0.004846 
1772.581904  	0.004532 
1774.510720  	0.003956 
1776.439536  	0.003656 
1778.368352  	0.002997 
1780.297168  	0.003109 
1782.225984  	0.002235 
1784.154800  	0.002139 
1786.083616  	0.001418 
1788.012432  	0.001328 
1789.941248  	0.002297 
1791.870064  	0.002994 
1793.798880  	0.001541 
1795.727696  	0.001554 
1797.656512  	0.000686 
1799.585328  	0.000597 
1801.514144  	0.001031 
1803.442960  	0.000576 
1805.371776  	-0.000198 
1807.300592  	-0.000090 
1809.229408  	-0.000244 
1811.158224  	-0.000305 
1813.087040  	-0.001138 
1815.015856  	-0.001471 
1816.944672  	-0.001310 
1818.873488  	-0.001157 
1820.802304  	-0.001255 
1822.731120  	-0.000639 
1824.659936  	-0.000729 
1826.588752  	-0.000898 
1828.517568  	-0.000924 
1830.446384  	-0.000901 
1832.375200  	-0.001618 
1834.304016  	-0.001501 
1836.232832  	-0.001603 
1838.161648  	-0.001358 
1840.090464  	-0.001631 
1842.019280  	-0.001118 
1843.948096  	-0.001026 
1845.876912  	-0.001001 
1847.805728  	-0.001509 
1849.734544  	-0.002084 
1851.663360  	-0.002513 
1853.592176  	-0.002279 
1855.520992  	-0.002440 
1857.449808  	-0.002327 
1859.378624  	-0.002837 
1861.307440  	-0.002797 
1863.236256  	-0.002865 
1865.165072  	-0.002176 
1867.093888  	-0.001580 
1869.022704  	-0.001157 
1870.951520  	-0.002269 
1872.880336  	-0.002578 
1874.809152  	-0.003008 
1876.737968  	-0.003073 
1878.666784  	-0.003350 
1880.595600  	-0.003270 
1882.524416  	-0.003302 
1884.453232  	-0.002828 
1886.382048  	-0.003187 
1888.310864  	-0.002584 
1890.239680  	-0.002587 
1892.168496  	-0.002367 
1894.097312  	-0.002411 
1896.026128  	-0.002756 
1897.954944  	-0.003223 
1899.883760  	-0.002923 
1901.812576  	-0.003037 
1903.741392  	-0.002978 
1905.670208  	-0.003421 
1907.599024  	-0.003215 
1909.527840  	-0.003369 
1911.456656  	-0.002924 
1913.385472  	-0.002926 
1915.314288  	-0.002573 
1917.243104  	-0.002522 
1919.171920  	-0.002394 
1921.100736  	-0.002350 
1923.029552  	-0.002203 
1924.958368  	-0.003854 
1926.887184  	-0.004008 
1928.816000  	-0.004242 
1930.744816  	-0.003730 
1932.673632  	-0.003914 
1934.602448  	-0.003516 
1936.531264  	-0.003857 
1938.460080  	-0.003548 
1940.388896  	-0.003163 
1942.317712  	-0.002353 
1944.246528  	-0.003574 
1946.175344  	-0.003431 
1948.104160  	-0.003525 
1950.032976  	-0.002901 
1951.961792  	-0.003895 
1953.890608  	-0.004671 
1955.819424  	-0.005622 
1957.748240  	-0.005460 
1959.677056  	-0.005596 
1961.605872  	-0.004267 
1963.534688  	-0.004464 
1965.463504  	-0.003305 
1967.392320  	-0.003553 
1969.321136  	-0.004215 
1971.249952  	-0.005923 
1973.178768  	-0.005075 
1975.107584  	-0.004554 
1977.036400  	-0.002663 
1978.965216  	-0.002928 
1980.894032  	-0.003220 
1982.822848  	-0.004295 
1984.751664  	-0.003772 
1986.680480  	-0.003575 
1988.609296  	-0.001967 
1990.538112  	-0.001497 
1992.466928  	-0.000900 
1994.395744  	-0.002363 
1996.324560  	-0.002504 
1998.253376  	-0.003190 
2000.182192  	-0.003393 
2002.111008  	-0.004226 
2004.039824  	-0.003335 
2005.968640  	-0.003402 
2007.897456  	-0.001986 
2009.826272  	-0.001893 
2011.755088  	-0.001830 
2013.683904  	-0.002770 
2015.612720  	-0.002494 
2017.541536  	-0.002236 
2019.470352  	-0.001504 
2021.399168  	-0.002608 
2023.327984  	-0.001679 
2025.256800  	-0.002308 
2027.185616  	-0.001284 
2029.114432  	-0.001002 
2031.043248  	-0.001015 
2032.972064  	-0.001739 
2034.900880  	-0.000203 
2036.829696  	-0.000961 
2038.758512  	-0.000731 
2040.687328  	-0.000925 
2042.616144  	-0.001695 
2044.544960  	-0.002655 
2046.473776  	-0.002054 
2048.402592  	-0.001367 
2050.331408  	-0.000511 
2052.260224  	-0.000879 
2054.189040  	-0.000918 
2056.117856  	-0.001345 
2058.046672  	-0.000745 
2059.975488  	-0.000886 
2061.904304  	-0.000271 
2063.833120  	-0.000369 
2065.761936  	-0.000255 
2067.690752  	-0.000426 
2069.619568  	0.000001 
2071.548384  	-0.000349 
2073.477200  	-0.000223 
2075.406016  	-0.000260 
2077.334832  	-0.000197 
2079.263648  	-0.000049 
2081.192464  	0.000483 
2083.121280  	0.000140 
2085.050096  	0.000136 
2086.978912  	0.000014 
2088.907728  	0.000972 
2090.836544  	0.001046 
2092.765360  	0.000710 
2094.694176  	0.000601 
2096.622992  	0.001506 
2098.551808  	0.001402 
2100.480624  	0.001182 
2102.409440  	0.000879 
2104.338256  	0.001163 
2106.267072  	0.000900 
2108.195888  	0.000691 
2110.124704  	0.000549 
2112.053520  	0.001251 
2113.982336  	0.001518 
2115.911152  	0.001492 
2117.839968  	0.001109 
2119.768784  	0.000855 
2121.697600  	0.000629 
2123.626416  	0.000593 
2125.555232  	0.000159 
2127.484048  	-0.000134 
2129.412864  	-0.000332 
2131.341680  	0.000860 
2133.270496  	0.001539 
2135.199312  	0.001346 
2137.128128  	0.001288 
2139.056944  	0.002055 
2140.985760  	0.002105 
2142.914576  	0.002832 
2144.843392  	0.001871 
2146.772208  	0.001577 
2148.701024  	0.001489 
2150.629840  	0.001356 
2152.558656  	0.001912 
2154.487472  	0.002437 
2156.416288  	0.002470 
2158.345104  	0.004890 
2160.273920  	0.006116 
2162.202736  	0.005859 
2164.131552  	0.003945 
2166.060368  	0.004355 
2167.989184  	0.004352 
2169.918000  	0.003304 
2171.846816  	0.002760 
2173.775632  	0.003610 
2175.704448  	0.003398 
2177.633264  	0.003532 
2179.562080  	0.002529 
2181.490896  	0.002798 
2183.419712  	0.002979 
2185.348528  	0.002761 
2187.277344  	0.001739 
2189.206160  	0.002291 
2191.134976  	0.002034 
2193.063792  	0.001847 
2194.992608  	0.000900 
2196.921424  	0.000978 
2198.850240  	0.001333 
2200.779056  	0.001333 
2202.707872  	0.001147 
2204.636688  	0.001823 
2206.565504  	0.001160 
2208.494320  	0.000389 
2210.423136  	0.000162 
2212.351952  	0.000582 
2214.280768  	0.000280 
2216.209584  	0.000546 
2218.138400  	-0.000135 
2220.067216  	-0.000232 
2221.996032  	-0.000115 
2223.924848  	0.000444 
2225.853664  	0.000570 
2227.782480  	0.000657 
2229.711296  	-0.000336 
2231.640112  	-0.000214 
2233.568928  	-0.000541 
2235.497744  	-0.000775 
2237.426560  	-0.000512 
2239.355376  	-0.000103 
2241.284192  	-0.000686 
2243.213008  	-0.000697 
2245.141824  	-0.000565 
2247.070640  	-0.000759 
2248.999456  	-0.000930 
2250.928272  	-0.000907 
2252.857088  	-0.001086 
2254.785904  	-0.000471 
2256.714720  	-0.000189 
2258.643536  	-0.000037 
2260.572352  	0.000024 
2262.501168  	0.000041 
2264.429984  	0.000106 
2266.358800  	0.000352 
2268.287616  	-0.000053 
2270.216432  	-0.000043 
2272.145248  	0.000054 
2274.074064  	0.000354 
2276.002880  	0.000041 
2277.931696  	0.000278 
2279.860512  	0.000444 
2281.789328  	0.000492 
2283.718144  	0.000371 
2285.646960  	0.000659 
2287.575776  	0.000737 
2289.504592  	0.000828 
2291.433408  	0.000811 
2293.362224  	0.001068 
2295.291040  	0.000892 
2297.219856  	0.001184 
2299.148672  	0.001525 
2301.077488  	0.001800 
2303.006304  	0.002279 
2304.935120  	0.002800 
2306.863936  	0.002895 
2308.792752  	0.003038 
2310.721568  	0.002830 
2312.650384  	0.002310 
2314.579200  	0.001725 
2316.508016  	0.001917 
2318.436832  	0.002077 
2320.365648  	0.002132 
2322.294464  	0.001871 
2324.223280  	0.000866 
2326.152096  	-0.000609 
2328.080912  	-0.001680 
2330.009728  	-0.002143 
2331.938544  	-0.002610 
2333.867360  	-0.003410 
2335.796176  	-0.003775 
2337.724992  	-0.004412 
2339.653808  	-0.004740 
2341.582624  	-0.004412 
2343.511440  	-0.003543 
2345.440256  	-0.002654 
2347.369072  	-0.001233 
2349.297888  	-0.000389 
2351.226704  	-0.001367 
2353.155520  	-0.003511 
2355.084336  	-0.004902 
2357.013152  	-0.005664 
2358.941968  	-0.005904 
2360.870784  	-0.006118 
2362.799600  	-0.006071 
2364.728416  	-0.005512 
2366.657232  	-0.004642 
2368.586048  	-0.003776 
2370.514864  	-0.002604 
2372.443680  	-0.001628 
2374.372496  	-0.000359 
2376.301312  	0.000510 
2378.230128  	0.000961 
2380.158944  	0.000988 
2382.087760  	0.000867 
2384.016576  	0.000183 
2385.945392  	-0.000342 
2387.874208  	-0.000514 
2389.803024  	-0.000670 
2391.731840  	-0.000973 
2393.660656  	-0.000963 
2395.589472  	-0.000933 
2397.518288  	-0.000921 
2399.447104  	-0.000967 
2401.375920  	-0.001055 
2403.304736  	-0.001335 
2405.233552  	-0.001298 
2407.162368  	-0.001222 
2409.091184  	-0.001240 
2411.020000  	-0.001423 
2412.948816  	-0.001404 
2414.877632  	-0.001241 
2416.806448  	-0.000875 
2418.735264  	-0.000883 
2420.664080  	-0.000974 
2422.592896  	-0.001121 
2424.521712  	-0.001101 
2426.450528  	-0.001079 
2428.379344  	-0.000851 
2430.308160  	-0.000687 
2432.236976  	-0.000482 
2434.165792  	-0.000272 
2436.094608  	-0.000136 
2438.023424  	-0.000089 
2439.952240  	-0.000112 
2441.881056  	-0.000189 
2443.809872  	-0.000089 
2445.738688  	0.000002 
2447.667504  	0.000107 
2449.596320  	0.000148 
2451.525136  	0.000264 
2453.453952  	0.000433 
2455.382768  	0.000545 
2457.311584  	0.000340 
2459.240400  	0.000033 
2461.169216  	0.000046 
2463.098032  	0.000426 
2465.026848  	0.000319 
2466.955664  	0.000127 
2468.884480  	0.000086 
2470.813296  	0.000140 
2472.742112  	0.000272 
2474.670928  	0.000669 
2476.599744  	0.000959 
2478.528560  	0.001203 
2480.457376  	0.001185 
2482.386192  	0.001197 
2484.315008  	0.001057 
2486.243824  	0.001167 
2488.172640  	0.001597 
2490.101456  	0.001821 
2492.030272  	0.001819 
2493.959088  	0.001818 
2495.887904  	0.001581 
2497.816720  	0.001913 
2499.745536  	0.002125 
2501.674352  	0.001946 
2503.603168  	0.001834 
2505.531984  	0.002121 
2507.460800  	0.002153 
2509.389616  	0.002032 
2511.318432  	0.001981 
2513.247248  	0.002304 
2515.176064  	0.002507 
2517.104880  	0.002430 
2519.033696  	0.002260 
2520.962512  	0.002500 
2522.891328  	0.002592 
2524.820144  	0.002764 
2526.748960  	0.002870 
2528.677776  	0.002863 
2530.606592  	0.002651 
2532.535408  	0.002842 
2534.464224  	0.002958 
2536.393040  	0.003073 
2538.321856  	0.003314 
2540.250672  	0.003458 
2542.179488  	0.003593 
2544.108304  	0.003757 
2546.037120  	0.003927 
2547.965936  	0.004177 
2549.894752  	0.004150 
2551.823568  	0.004297 
2553.752384  	0.004448 
2555.681200  	0.004391 
2557.610016  	0.004332 
2559.538832  	0.004418 
2561.467648  	0.004800 
2563.396464  	0.005290 
2565.325280  	0.005172 
2567.254096  	0.004881 
2569.182912  	0.005118 
2571.111728  	0.005352 
2573.040544  	0.005272 
2574.969360  	0.005474 
2576.898176  	0.005738 
2578.826992  	0.005773 
2580.755808  	0.005621 
2582.684624  	0.005976 
2584.613440  	0.006358 
2586.542256  	0.006543 
2588.471072  	0.006424 
2590.399888  	0.006375 
2592.328704  	0.006624 
2594.257520  	0.006840 
2596.186336  	0.006664 
2598.115152  	0.006730 
2600.043968  	0.007027 
2601.972784  	0.007218 
2603.901600  	0.007422 
2605.830416  	0.007564 
2607.759232  	0.007500 
2609.688048  	0.007527 
2611.616864  	0.007667 
2613.545680  	0.007846 
2615.474496  	0.008067 
2617.403312  	0.008298 
2619.332128  	0.008347 
2621.260944  	0.008476 
2623.189760  	0.008745 
2625.118576  	0.009043 
2627.047392  	0.009093 
2628.976208  	0.009182 
2630.905024  	0.009399 
2632.833840  	0.009497 
2634.762656  	0.009574 
2636.691472  	0.009855 
2638.620288  	0.010182 
2640.549104  	0.010472 
2642.477920  	0.010611 
2644.406736  	0.010693 
2646.335552  	0.010807 
2648.264368  	0.010970 
2650.193184  	0.011159 
2652.122000  	0.011458 
2654.050816  	0.011689 
2655.979632  	0.011812 
2657.908448  	0.011979 
2659.837264  	0.012236 
2661.766080  	0.012458 
2663.694896  	0.012634 
2665.623712  	0.012823 
2667.552528  	0.013070 
2669.481344  	0.013163 
2671.410160  	0.013237 
2673.338976  	0.013425 
2675.267792  	0.013655 
2677.196608  	0.013913 
2679.125424  	0.014259 
2681.054240  	0.014473 
2682.983056  	0.014613 
2684.911872  	0.014680 
2686.840688  	0.014773 
2688.769504  	0.015002 
2690.698320  	0.015219 
2692.627136  	0.015275 
2694.555952  	0.015391 
2696.484768  	0.015657 
2698.413584  	0.015813 
2700.342400  	0.015853 
2702.271216  	0.016102 
2704.200032  	0.016363 
2706.128848  	0.016587 
2708.057664  	0.016780 
2709.986480  	0.016900 
2711.915296  	0.017029 
2713.844112  	0.017261 
2715.772928  	0.017492 
2717.701744  	0.017617 
2719.630560  	0.017857 
2721.559376  	0.018135 
2723.488192  	0.018263 
2725.417008  	0.018456 
2727.345824  	0.018689 
2729.274640  	0.019139 
2731.203456  	0.019411 
2733.132272  	0.019490 
2735.061088  	0.019632 
2736.989904  	0.019835 
2738.918720  	0.020038 
2740.847536  	0.020232 
2742.776352  	0.020402 
2744.705168  	0.020551 
2746.633984  	0.020726 
2748.562800  	0.020970 
2750.491616  	0.021079 
2752.420432  	0.021046 
2754.349248  	0.020998 
2756.278064  	0.021085 
2758.206880  	0.021202 
2760.135696  	0.021178 
2762.064512  	0.021112 
2763.993328  	0.021188 
2765.922144  	0.021352 
2767.850960  	0.021494 
2769.779776  	0.021418 
2771.708592  	0.021369 
2773.637408  	0.021403 
2775.566224  	0.021508 
2777.495040  	0.021594 
2779.423856  	0.021637 
2781.352672  	0.021752 
2783.281488  	0.021831 
2785.210304  	0.021838 
2787.139120  	0.021926 
2789.067936  	0.021929 
2790.996752  	0.022011 
2792.925568  	0.022081 
2794.854384  	0.022068 
2796.783200  	0.022084 
2798.712016  	0.022164 
2800.640832  	0.022305 
2802.569648  	0.022416 
2804.498464  	0.022496 
2806.427280  	0.022699 
2808.356096  	0.022894 
2810.284912  	0.022931 
2812.213728  	0.022893 
2814.142544  	0.022938 
2816.071360  	0.022949 
2818.000176  	0.023104 
2819.928992  	0.023273 
2821.857808  	0.023245 
2823.786624  	0.023163 
2825.715440  	0.023239 
2827.644256  	0.023256 
2829.573072  	0.023222 
2831.501888  	0.023165 
2833.430704  	0.023109 
2835.359520  	0.023046 
2837.288336  	0.023024 
2839.217152  	0.023037 
2841.145968  	0.022914 
2843.074784  	0.022743 
2845.003600  	0.022887 
2846.932416  	0.022909 
2848.861232  	0.022948 
2850.790048  	0.022949 
2852.718864  	0.023076 
2854.647680  	0.023250 
2856.576496  	0.023408 
2858.505312  	0.023514 
2860.434128  	0.023678 
2862.362944  	0.023822 
2864.291760  	0.023965 
2866.220576  	0.024166 
2868.149392  	0.024434 
2870.078208  	0.024807 
2872.007024  	0.025250 
2873.935840  	0.025695 
2875.864656  	0.026187 
2877.793472  	0.026701 
2879.722288  	0.027411 
2881.651104  	0.028200 
2883.579920  	0.028793 
2885.508736  	0.029155 
2887.437552  	0.029573 
2889.366368  	0.029834 
2891.295184  	0.030001 
2893.224000  	0.030026 
2895.152816  	0.030035 
2897.081632  	0.030090 
2899.010448  	0.029881 
2900.939264  	0.029618 
2902.868080  	0.029883 
2904.796896  	0.030370 
2906.725712  	0.030670 
2908.654528  	0.030980 
2910.583344  	0.031414 
2912.512160  	0.031893 
2914.440976  	0.032537 
2916.369792  	0.033246 
2918.298608  	0.033886 
2920.227424  	0.034552 
2922.156240  	0.035345 
2924.085056  	0.036111 
2926.013872  	0.036818 
2927.942688  	0.037784 
2929.871504  	0.038895 
2931.800320  	0.039818 
2933.729136  	0.040741 
2935.657952  	0.041664 
2937.586768  	0.042448 
2939.515584  	0.043026 
2941.444400  	0.043483 
2943.373216  	0.043938 
2945.302032  	0.044394 
2947.230848  	0.044753 
2949.159664  	0.044827 
2951.088480  	0.044634 
2953.017296  	0.044617 
2954.946112  	0.044462 
2956.874928  	0.044136 
2958.803744  	0.043891 
2960.732560  	0.043718 
2962.661376  	0.043550 
2964.590192  	0.043304 
2966.519008  	0.042946 
2968.447824  	0.042542 
2970.376640  	0.042245 
2972.305456  	0.041986 
2974.234272  	0.041959 
2976.163088  	0.042028 
2978.091904  	0.041920 
2980.020720  	0.041860 
2981.949536  	0.041877 
2983.878352  	0.041739 
2985.807168  	0.041533 
2987.735984  	0.041617 
2989.664800  	0.041860 
2991.593616  	0.042415 
2993.522432  	0.042825 
2995.451248  	0.043095 
2997.380064  	0.043514 
2999.308880  	0.044165 
3001.237696  	0.044892 
3003.166512  	0.045584 
3005.095328  	0.046134 
3007.024144  	0.046743 
3008.952960  	0.047496 
3010.881776  	0.048228 
3012.810592  	0.048911 
3014.739408  	0.049549 
3016.668224  	0.050099 
3018.597040  	0.050772 
3020.525856  	0.051502 
3022.454672  	0.052099 
3024.383488  	0.052675 
3026.312304  	0.053519 
3028.241120  	0.054333 
3030.169936  	0.055033 
3032.098752  	0.055801 
3034.027568  	0.056394 
3035.956384  	0.057022 
3037.885200  	0.057719 
3039.814016  	0.058451 
3041.742832  	0.059133 
3043.671648  	0.059961 
3045.600464  	0.060720 
3047.529280  	0.061391 
3049.458096  	0.062253 
3051.386912  	0.062984 
3053.315728  	0.063697 
3055.244544  	0.064613 
3057.173360  	0.065612 
3059.102176  	0.066591 
3061.030992  	0.067556 
3062.959808  	0.068442 
3064.888624  	0.069632 
3066.817440  	0.070834 
3068.746256  	0.071852 
3070.675072  	0.072656 
3072.603888  	0.073690 
3074.532704  	0.074782 
3076.461520  	0.075801 
3078.390336  	0.076830 
3080.319152  	0.077955 
3082.247968  	0.078929 
3084.176784  	0.079835 
3086.105600  	0.080720 
3088.034416  	0.081722 
3089.963232  	0.082613 
3091.892048  	0.083566 
3093.820864  	0.084713 
3095.749680  	0.085986 
3097.678496  	0.087130 
3099.607312  	0.088300 
3101.536128  	0.089609 
3103.464944  	0.090529 
3105.393760  	0.091294 
3107.322576  	0.092224 
3109.251392  	0.093229 
3111.180208  	0.094013 
3113.109024  	0.094762 
3115.037840  	0.095739 
3116.966656  	0.096728 
3118.895472  	0.097462 
3120.824288  	0.098330 
3122.753104  	0.099166 
3124.681920  	0.099730 
3126.610736  	0.100348 
3128.539552  	0.101095 
3130.468368  	0.101793 
3132.397184  	0.102555 
3134.326000  	0.103307 
3136.254816  	0.104016 
3138.183632  	0.104796 
3140.112448  	0.105344 
3142.041264  	0.105968 
3143.970080  	0.106824 
3145.898896  	0.107633 
3147.827712  	0.108317 
3149.756528  	0.109093 
3151.685344  	0.109849 
3153.614160  	0.110433 
3155.542976  	0.110956 
3157.471792  	0.111807 
3159.400608  	0.112581 
3161.329424  	0.113208 
3163.258240  	0.113898 
3165.187056  	0.114510 
3167.115872  	0.115039 
3169.044688  	0.115806 
3170.973504  	0.116314 
3172.902320  	0.116568 
3174.831136  	0.116909 
3176.759952  	0.117410 
3178.688768  	0.117831 
3180.617584  	0.118148 
3182.546400  	0.118624 
3184.475216  	0.118810 
3186.404032  	0.119016 
3188.332848  	0.119419 
3190.261664  	0.119464 
3192.190480  	0.119408 
3194.119296  	0.119379 
3196.048112  	0.119236 
3197.976928  	0.119341 
3199.905744  	0.119492 
3201.834560  	0.119530 
3203.763376  	0.119296 
3205.692192  	0.118896 
3207.621008  	0.118837 
3209.549824  	0.119019 
3211.478640  	0.118956 
3213.407456  	0.118548 
3215.336272  	0.118441 
3217.265088  	0.118256 
3219.193904  	0.118108 
3221.122720  	0.118143 
3223.051536  	0.117809 
3224.980352  	0.117420 
3226.909168  	0.117297 
3228.837984  	0.117074 
3230.766800  	0.116795 
3232.695616  	0.117027 
3234.624432  	0.117020 
3236.553248  	0.116775 
3238.482064  	0.116714 
3240.410880  	0.116520 
3242.339696  	0.116462 
3244.268512  	0.116472 
3246.197328  	0.116636 
3248.126144  	0.116699 
3250.054960  	0.116864 
3251.983776  	0.117026 
3253.912592  	0.117260 
3255.841408  	0.117506 
3257.770224  	0.117716 
3259.699040  	0.118177 
3261.627856  	0.118489 
3263.556672  	0.118290 
3265.485488  	0.118425 
3267.414304  	0.118678 
3269.343120  	0.118921 
3271.271936  	0.119265 
3273.200752  	0.119441 
3275.129568  	0.119318 
3277.058384  	0.119351 
3278.987200  	0.119572 
3280.916016  	0.119846 
3282.844832  	0.119876 
3284.773648  	0.120068 
3286.702464  	0.120411 
3288.631280  	0.120774 
3290.560096  	0.121029 
3292.488912  	0.121034 
3294.417728  	0.121071 
3296.346544  	0.121427 
3298.275360  	0.121792 
3300.204176  	0.121983 
3302.132992  	0.122045 
3304.061808  	0.122279 
3305.990624  	0.122707 
3307.919440  	0.123348 
3309.848256  	0.123732 
3311.777072  	0.123810 
3313.705888  	0.124135 
3315.634704  	0.124411 
3317.563520  	0.124521 
3319.492336  	0.124806 
3321.421152  	0.125096 
3323.349968  	0.125195 
3325.278784  	0.125172 
3327.207600  	0.125254 
3329.136416  	0.125318 
3331.065232  	0.125449 
3332.994048  	0.125173 
3334.922864  	0.125159 
3336.851680  	0.125186 
3338.780496  	0.124942 
3340.709312  	0.124677 
3342.638128  	0.124521 
3344.566944  	0.124301 
3346.495760  	0.124006 
3348.424576  	0.123746 
3350.353392  	0.123393 
3352.282208  	0.122779 
3354.211024  	0.122166 
3356.139840  	0.121927 
3358.068656  	0.121649 
3359.997472  	0.121119 
3361.926288  	0.120583 
3363.855104  	0.120148 
3365.783920  	0.119936 
3367.712736  	0.119311 
3369.641552  	0.118625 
3371.570368  	0.118129 
3373.499184  	0.117707 
3375.428000  	0.117295 
3377.356816  	0.116935 
3379.285632  	0.116496 
3381.214448  	0.115903 
3383.143264  	0.115344 
3385.072080  	0.114953 
3387.000896  	0.114313 
3388.929712  	0.113771 
3390.858528  	0.113459 
3392.787344  	0.113219 
3394.716160  	0.112626 
3396.644976  	0.112072 
3398.573792  	0.111466 
3400.502608  	0.110636 
3402.431424  	0.109826 
3404.360240  	0.109054 
3406.289056  	0.108169 
3408.217872  	0.107531 
3410.146688  	0.106969 
3412.075504  	0.106239 
3414.004320  	0.105652 
3415.933136  	0.105091 
3417.861952  	0.104581 
3419.790768  	0.104313 
3421.719584  	0.103681 
3423.648400  	0.102544 
3425.577216  	0.101495 
3427.506032  	0.100754 
3429.434848  	0.100059 
3431.363664  	0.099785 
3433.292480  	0.099205 
3435.221296  	0.098294 
3437.150112  	0.097259 
3439.078928  	0.096347 
3441.007744  	0.095437 
3442.936560  	0.094925 
3444.865376  	0.094065 
3446.794192  	0.093698 
3448.723008  	0.093184 
3450.651824  	0.091935 
3452.580640  	0.090830 
3454.509456  	0.089913 
3456.438272  	0.088893 
3458.367088  	0.088064 
3460.295904  	0.087409 
3462.224720  	0.086593 
3464.153536  	0.085433 
3466.082352  	0.084259 
3468.011168  	0.083353 
3469.939984  	0.082414 
3471.868800  	0.081190 
3473.797616  	0.079919 
3475.726432  	0.078920 
3477.655248  	0.077912 
3479.584064  	0.077082 
3481.512880  	0.076602 
3483.441696  	0.075643 
3485.370512  	0.074261 
3487.299328  	0.073233 
3489.228144  	0.072252 
3491.156960  	0.071066 
3493.085776  	0.070158 
3495.014592  	0.069282 
3496.943408  	0.068173 
3498.872224  	0.066956 
3500.801040  	0.066603 
3502.729856  	0.066507 
3504.658672  	0.065479 
3506.587488  	0.063804 
3508.516304  	0.063172 
3510.445120  	0.062666 
3512.373936  	0.061248 
3514.302752  	0.060123 
3516.231568  	0.059419 
3518.160384  	0.058582 
3520.089200  	0.057636 
3522.018016  	0.057151 
3523.946832  	0.057189 
3525.875648  	0.056227 
3527.804464  	0.055045 
3529.733280  	0.053979 
3531.662096  	0.052681 
3533.590912  	0.051431 
3535.519728  	0.050989 
3537.448544  	0.050312 
3539.377360  	0.049016 
3541.306176  	0.048135 
3543.234992  	0.048264 
3545.163808  	0.048806 
3547.092624  	0.047784 
3549.021440  	0.045493 
3550.950256  	0.044246 
3552.879072  	0.043985 
3554.807888  	0.042728 
3556.736704  	0.041422 
3558.665520  	0.041114 
3560.594336  	0.040824 
3562.523152  	0.039936 
3564.451968  	0.039818 
3566.380784  	0.041110 
3568.309600  	0.040359 
3570.238416  	0.037172 
3572.167232  	0.035121 
3574.096048  	0.034036 
3576.024864  	0.032968 
3577.953680  	0.032119 
3579.882496  	0.031515 
3581.811312  	0.030690 
3583.740128  	0.030183 
3585.668944  	0.030308 
3587.597760  	0.030892 
3589.526576  	0.028836 
3591.455392  	0.026252 
3593.384208  	0.025775 
3595.313024  	0.025413 
3597.241840  	0.023828 
3599.170656  	0.022416 
3601.099472  	0.021575 
3603.028288  	0.020237 
3604.957104  	0.019058 
3606.885920  	0.018996 
3608.814736  	0.018950 
3610.743552  	0.017423 
3612.672368  	0.016530 
3614.601184  	0.015897 
3616.530000  	0.014763 
3618.458816  	0.014102 
3620.387632  	0.012759 
3622.316448  	0.010600 
3624.245264  	0.009219 
3626.174080  	0.008775 
3628.102896  	0.008798 
3630.031712  	0.008580 
3631.960528  	0.006450 
3633.889344  	0.004840 
3635.818160  	0.003799 
3637.746976  	0.002632 
3639.675792  	0.001805 
3641.604608  	0.001154 
3643.533424  	0.000443 
3645.462240  	0.000079 
3647.391056  	0.001016 
3649.319872  	0.001004 
3651.248688  	-0.000735 
3653.177504  	-0.003175 
3655.106320  	-0.004676 
3657.035136  	-0.005308 
3658.963952  	-0.006230 
3660.892768  	-0.007144 
3662.821584  	-0.008127 
3664.750400  	-0.008748 
3666.679216  	-0.008796 
3668.608032  	-0.008622 
3670.536848  	-0.008210 
3672.465664  	-0.008701 
3674.394480  	-0.009346 
3676.323296  	-0.009744 
3678.252112  	-0.010338 
3680.180928  	-0.011007 
3682.109744  	-0.011527 
3684.038560  	-0.011853 
3685.967376  	-0.012158 
3687.896192  	-0.011949 
3689.825008  	-0.011460 
3691.753824  	-0.011880 
3693.682640  	-0.012613 
3695.611456  	-0.012980 
3697.540272  	-0.013026 
3699.469088  	-0.013463 
3701.397904  	-0.013315 
3703.326720  	-0.013048 
3705.255536  	-0.013030 
3707.184352  	-0.012815 
3709.113168  	-0.012586 
3711.041984  	-0.012068 
3712.970800  	-0.011979 
3714.899616  	-0.012632 
3716.828432  	-0.013400 
3718.757248  	-0.013309 
3720.686064  	-0.012955 
3722.614880  	-0.012491 
3724.543696  	-0.012081 
3726.472512  	-0.011960 
3728.401328  	-0.012861 
3730.330144  	-0.013820 
3732.258960  	-0.013809 
3734.187776  	-0.011850 
3736.116592  	-0.010506 
3738.045408  	-0.011668 
3739.974224  	-0.012029 
3741.903040  	-0.012165 
3743.831856  	-0.012990 
3745.760672  	-0.012293 
3747.689488  	-0.012336 
3749.618304  	-0.011894 
3751.547120  	-0.011553 
3753.475936  	-0.012437 
3755.404752  	-0.013057 
3757.333568  	-0.013105 
3759.262384  	-0.012863 
3761.191200  	-0.013188 
3763.120016  	-0.013790 
3765.048832  	-0.013624 
3766.977648  	-0.013151 
3768.906464  	-0.013213 
3770.835280  	-0.013385 
3772.764096  	-0.013813 
3774.692912  	-0.014108 
3776.621728  	-0.014043 
3778.550544  	-0.013824 
3780.479360  	-0.013734 
3782.408176  	-0.013935 
3784.336992  	-0.013842 
3786.265808  	-0.013774 
3788.194624  	-0.014075 
3790.123440  	-0.014198 
3792.052256  	-0.014329 
3793.981072  	-0.014548 
3795.909888  	-0.013978 
3797.838704  	-0.012893 
3799.767520  	-0.013103 
3801.696336  	-0.012775 
3803.625152  	-0.013147 
3805.553968  	-0.014044 
3807.482784  	-0.013893 
3809.411600  	-0.013830 
3811.340416  	-0.014133 
3813.269232  	-0.014100 
3815.198048  	-0.013606 
3817.126864  	-0.012675 
3819.055680  	-0.012867 
3820.984496  	-0.012821 
3822.913312  	-0.012681 
3824.842128  	-0.013486 
3826.770944  	-0.013726 
3828.699760  	-0.013725 
3830.628576  	-0.013871 
3832.557392  	-0.013849 
3834.486208  	-0.013925 
3836.415024  	-0.013731 
3838.343840  	-0.012849 
3840.272656  	-0.012135 
3842.201472  	-0.012692 
3844.130288  	-0.013052 
3846.059104  	-0.013632 
3847.987920  	-0.013943 
3849.916736  	-0.013625 
3851.845552  	-0.012990 
3853.774368  	-0.011585 
3855.703184  	-0.011695 
3857.632000  	-0.012566 
3859.560816  	-0.013333 
3861.489632  	-0.013163 
3863.418448  	-0.012551 
3865.347264  	-0.012067 
3867.276080  	-0.012625 
3869.204896  	-0.012373 
3871.133712  	-0.011720 
3873.062528  	-0.012645 
3874.991344  	-0.013085 
3876.920160  	-0.013842 
3878.848976  	-0.013672 
3880.777792  	-0.012335 
3882.706608  	-0.012109 
3884.635424  	-0.012607 
3886.564240  	-0.013078 
3888.493056  	-0.013997 
3890.421872  	-0.013793 
3892.350688  	-0.012909 
3894.279504  	-0.013219 
3896.208320  	-0.013835 
3898.137136  	-0.013489 
3900.065952  	-0.012169 
3901.994768  	-0.011580 
3903.923584  	-0.011610 
3905.852400  	-0.012287 
3907.781216  	-0.013847 
3909.710032  	-0.014815 
3911.638848  	-0.014939 
3913.567664  	-0.014628 
3915.496480  	-0.013740 
3917.425296  	-0.012739 
3919.354112  	-0.012949 
3921.282928  	-0.013206 
3923.211744  	-0.012998 
3925.140560  	-0.012915 
3927.069376  	-0.013651 
3928.998192  	-0.013557 
3930.927008  	-0.012860 
3932.855824  	-0.012800 
3934.784640  	-0.013667 
3936.713456  	-0.014243 
3938.642272  	-0.014368 
3940.571088  	-0.013979 
3942.499904  	-0.012885 
3944.428720  	-0.013148 
3946.357536  	-0.013829 
3948.286352  	-0.013271 
3950.215168  	-0.013484 
3952.143984  	-0.014269 
3954.072800  	-0.014663 
3956.001616  	-0.014562 
3957.930432  	-0.014220 
3959.859248  	-0.013790 
3961.788064  	-0.013648 
3963.716880  	-0.014088 
3965.645696  	-0.014600 
3967.574512  	-0.014818 
3969.503328  	-0.014819 
3971.432144  	-0.014483 
3973.360960  	-0.014025 
3975.289776  	-0.013759 
3977.218592  	-0.014077 
3979.147408  	-0.014415 
3981.076224  	-0.014433 
3983.005040  	-0.014537 
3984.933856  	-0.014539 
3986.862672  	-0.014264 
3988.791488  	-0.014215 
3990.720304  	-0.014027 
3992.649120  	-0.014132 
3994.577936  	-0.014342 
3996.506752  	-0.014433 
3998.435568  	-0.014557 
4000.364384  	-0.014564 