##TITLE=No Description
##DATA TYPE=INFRARED SPECTRUM
##XUNITS=1/CM
##YUNITS=Abs
399.264912  	0.542599 
401.193728  	0.540110 
403.122544  	0.537335 
405.051360  	0.542943 
406.980176  	0.558122 
408.908992  	0.547734 
410.837808  	0.535016 
412.766624  	0.525040 
414.695440  	0.524698 
416.624256  	0.521745 
418.553072  	0.529594 
420.481888  	0.525194 
422.410704  	0.520166 
424.339520  	0.523253 
426.268336  	0.522981 
428.197152  	0.513761 
430.125968  	0.507072 
432.054784  	0.500504 
433.983600  	0.506505 
435.912416  	0.501020 
437.841232  	0.493035 
439.770048  	0.488880 
441.698864  	0.491744 
443.627680  	0.484079 
445.556496  	0.481265 
447.485312  	0.481643 
449.414128  	0.484520 
451.342944  	0.487130 
453.271760  	0.487005 
455.200576  	0.478784 
457.129392  	0.484170 
459.058208  	0.484171 
460.987024  	0.480013 
462.915840  	0.481488 
464.844656  	0.483073 
466.773472  	0.479597 
468.702288  	0.475282 
470.631104  	0.468945 
472.559920  	0.474426 
474.488736  	0.473560 
476.417552  	0.470793 
478.346368  	0.467551 
480.275184  	0.469511 
482.204000  	0.469796 
484.132816  	0.470875 
486.061632  	0.467843 
487.990448  	0.465259 
489.919264  	0.460566 
491.848080  	0.460698 
493.776896  	0.461136 
495.705712  	0.460479 
497.634528  	0.458259 
499.563344  	0.455101 
501.492160  	0.451250 
503.420976  	0.455638 
505.349792  	0.453677 
507.278608  	0.452536 
509.207424  	0.451744 
511.136240  	0.454926 
513.065056  	0.456550 
514.993872  	0.458937 
516.922688  	0.457884 
518.851504  	0.458383 
520.780320  	0.456681 
522.709136  	0.455189 
524.637952  	0.453983 
526.566768  	0.454821 
528.495584  	0.451962 
530.424400  	0.449202 
532.353216  	0.445158 
534.282032  	0.440946 
536.210848  	0.435887 
538.139664  	0.432245 
540.068480  	0.427658 
541.997296  	0.425035 
543.926112  	0.422668 
545.854928  	0.420875 
547.783744  	0.417774 
549.712560  	0.416236 
551.641376  	0.412926 
553.570192  	0.410682 
555.499008  	0.406966 
557.427824  	0.403996 
559.356640  	0.400673 
561.285456  	0.397821 
563.214272  	0.394479 
565.143088  	0.392060 
567.071904  	0.389854 
569.000720  	0.388443 
570.929536  	0.385584 
572.858352  	0.383244 
574.787168  	0.380939 
576.715984  	0.378500 
578.644800  	0.375713 
580.573616  	0.372511 
582.502432  	0.367661 
584.431248  	0.364843 
586.360064  	0.361816 
588.288880  	0.359003 
590.217696  	0.356915 
592.146512  	0.356438 
594.075328  	0.353530 
596.004144  	0.350813 
597.932960  	0.348542 
599.861776  	0.347469 
601.790592  	0.345944 
603.719408  	0.344548 
605.648224  	0.343092 
607.577040  	0.341511 
609.505856  	0.339587 
611.434672  	0.338428 
613.363488  	0.337161 
615.292304  	0.336570 
617.221120  	0.334575 
619.149936  	0.333215 
621.078752  	0.331624 
623.007568  	0.330044 
624.936384  	0.327280 
626.865200  	0.325696 
628.794016  	0.325043 
630.722832  	0.324653 
632.651648  	0.324115 
634.580464  	0.323952 
636.509280  	0.323413 
638.438096  	0.322376 
640.366912  	0.321106 
642.295728  	0.319350 
644.224544  	0.316779 
646.153360  	0.314522 
648.082176  	0.311434 
650.010992  	0.308819 
651.939808  	0.305933 
653.868624  	0.302885 
655.797440  	0.299260 
657.726256  	0.296464 
659.655072  	0.293503 
661.583888  	0.290046 
663.512704  	0.286324 
665.441520  	0.283199 
667.370336  	0.280345 
669.299152  	0.277885 
671.227968  	0.273388 
673.156784  	0.269720 
675.085600  	0.267293 
677.014416  	0.264733 
678.943232  	0.262545 
680.872048  	0.261002 
682.800864  	0.259325 
684.729680  	0.257733 
686.658496  	0.256015 
688.587312  	0.254788 
690.516128  	0.253263 
692.444944  	0.252040 
694.373760  	0.250145 
696.302576  	0.248430 
698.231392  	0.246290 
700.160208  	0.244012 
702.089024  	0.241332 
704.017840  	0.239123 
705.946656  	0.237066 
707.875472  	0.234817 
709.804288  	0.232903 
711.733104  	0.231446 
713.661920  	0.229722 
715.590736  	0.228379 
717.519552  	0.227477 
719.448368  	0.226960 
721.377184  	0.226258 
723.306000  	0.226135 
725.234816  	0.226301 
727.163632  	0.225229 
729.092448  	0.222828 
731.021264  	0.220211 
732.950080  	0.217428 
734.878896  	0.214594 
736.807712  	0.211577 
738.736528  	0.209344 
740.665344  	0.207796 
742.594160  	0.206489 
744.522976  	0.204664 
746.451792  	0.203137 
748.380608  	0.201557 
750.309424  	0.200208 
752.238240  	0.198827 
754.167056  	0.197653 
756.095872  	0.196655 
758.024688  	0.195427 
759.953504  	0.194282 
761.882320  	0.194371 
763.811136  	0.194520 
765.739952  	0.193153 
767.668768  	0.190504 
769.597584  	0.188195 
771.526400  	0.186789 
773.455216  	0.186864 
775.384032  	0.188785 
777.312848  	0.192060 
779.241664  	0.194402 
781.170480  	0.193763 
783.099296  	0.190180 
785.028112  	0.185570 
786.956928  	0.180932 
788.885744  	0.177069 
790.814560  	0.174064 
792.743376  	0.172110 
794.672192  	0.170956 
796.601008  	0.169879 
798.529824  	0.167173 
800.458640  	0.163487 
802.387456  	0.160122 
804.316272  	0.158102 
806.245088  	0.156907 
808.173904  	0.155860 
810.102720  	0.154994 
812.031536  	0.154347 
813.960352  	0.153779 
815.889168  	0.153275 
817.817984  	0.153120 
819.746800  	0.153195 
821.675616  	0.153030 
823.604432  	0.152880 
825.533248  	0.152665 
827.462064  	0.152272 
829.390880  	0.151265 
831.319696  	0.150579 
833.248512  	0.149340 
835.177328  	0.147345 
837.106144  	0.145005 
839.034960  	0.142515 
840.963776  	0.139339 
842.892592  	0.136221 
844.821408  	0.133388 
846.750224  	0.130706 
848.679040  	0.128204 
850.607856  	0.126064 
852.536672  	0.124476 
854.465488  	0.123169 
856.394304  	0.121970 
858.323120  	0.120634 
860.251936  	0.119161 
862.180752  	0.117516 
864.109568  	0.115426 
866.038384  	0.113418 
867.967200  	0.111586 
869.896016  	0.109970 
871.824832  	0.109030 
873.753648  	0.108706 
875.682464  	0.108582 
877.611280  	0.109146 
879.540096  	0.110227 
881.468912  	0.111495 
883.397728  	0.113039 
885.326544  	0.114209 
887.255360  	0.114609 
889.184176  	0.114363 
891.112992  	0.113508 
893.041808  	0.112255 
894.970624  	0.110328 
896.899440  	0.107324 
898.828256  	0.103781 
900.757072  	0.100399 
902.685888  	0.097508 
904.614704  	0.095413 
906.543520  	0.094532 
908.472336  	0.095164 
910.401152  	0.096356 
912.329968  	0.098003 
914.258784  	0.099797 
916.187600  	0.101581 
918.116416  	0.103082 
920.045232  	0.103882 
921.974048  	0.104374 
923.902864  	0.104754 
925.831680  	0.104967 
927.760496  	0.105332 
929.689312  	0.105684 
931.618128  	0.106268 
933.546944  	0.106832 
935.475760  	0.106911 
937.404576  	0.106414 
939.333392  	0.105669 
941.262208  	0.105191 
943.191024  	0.105612 
945.119840  	0.107381 
947.048656  	0.110601 
948.977472  	0.115532 
950.906288  	0.121830 
952.835104  	0.129499 
954.763920  	0.138178 
956.692736  	0.147112 
958.621552  	0.155298 
960.550368  	0.161744 
962.479184  	0.165937 
964.408000  	0.166848 
966.336816  	0.164471 
968.265632  	0.158966 
970.194448  	0.151017 
972.123264  	0.141219 
974.052080  	0.130561 
975.980896  	0.119647 
977.909712  	0.109446 
979.838528  	0.100425 
981.767344  	0.092718 
983.696160  	0.086812 
985.624976  	0.082897 
987.553792  	0.081111 
989.482608  	0.081301 
991.411424  	0.083509 
993.340240  	0.087394 
995.269056  	0.091936 
997.197872  	0.096804 
999.126688  	0.101822 
1001.055504  	0.107166 
1002.984320  	0.112166 
1004.913136  	0.117106 
1006.841952  	0.122096 
1008.770768  	0.126662 
1010.699584  	0.130451 
1012.628400  	0.133451 
1014.557216  	0.135472 
1016.486032  	0.136561 
1018.414848  	0.136899 
1020.343664  	0.137002 
1022.272480  	0.136795 
1024.201296  	0.136319 
1026.130112  	0.135620 
1028.058928  	0.135570 
1029.987744  	0.136733 
1031.916560  	0.138382 
1033.845376  	0.140349 
1035.774192  	0.143281 
1037.703008  	0.147176 
1039.631824  	0.153014 
1041.560640  	0.161174 
1043.489456  	0.171699 
1045.418272  	0.183985 
1047.347088  	0.196973 
1049.275904  	0.208121 
1051.204720  	0.215885 
1053.133536  	0.220098 
1055.062352  	0.221283 
1056.991168  	0.220224 
1058.919984  	0.219341 
1060.848800  	0.218532 
1062.777616  	0.217826 
1064.706432  	0.216121 
1066.635248  	0.214080 
1068.564064  	0.211049 
1070.492880  	0.206852 
1072.421696  	0.202186 
1074.350512  	0.198919 
1076.279328  	0.198140 
1078.208144  	0.200668 
1080.136960  	0.205056 
1082.065776  	0.209288 
1083.994592  	0.211400 
1085.923408  	0.210544 
1087.852224  	0.206345 
1089.781040  	0.200380 
1091.709856  	0.192852 
1093.638672  	0.183707 
1095.567488  	0.172994 
1097.496304  	0.162009 
1099.425120  	0.151036 
1101.353936  	0.140285 
1103.282752  	0.129798 
1105.211568  	0.120135 
1107.140384  	0.111418 
1109.069200  	0.103247 
1110.998016  	0.095899 
1112.926832  	0.089146 
1114.855648  	0.083027 
1116.784464  	0.077379 
1118.713280  	0.072005 
1120.642096  	0.066808 
1122.570912  	0.062038 
1124.499728  	0.057531 
1126.428544  	0.053531 
1128.357360  	0.050016 
1130.286176  	0.047077 
1132.214992  	0.044641 
1134.143808  	0.042786 
1136.072624  	0.041021 
1138.001440  	0.039401 
1139.930256  	0.038176 
1141.859072  	0.036791 
1143.787888  	0.035152 
1145.716704  	0.033872 
1147.645520  	0.032899 
1149.574336  	0.032291 
1151.503152  	0.031610 
1153.431968  	0.031288 
1155.360784  	0.031281 
1157.289600  	0.032006 
1159.218416  	0.032834 
1161.147232  	0.033928 
1163.076048  	0.035183 
1165.004864  	0.036432 
1166.933680  	0.037550 
1168.862496  	0.038801 
1170.791312  	0.040268 
1172.720128  	0.042151 
1174.648944  	0.044056 
1176.577760  	0.045672 
1178.506576  	0.047719 
1180.435392  	0.050216 
1182.364208  	0.052427 
1184.293024  	0.054887 
1186.221840  	0.057938 
1188.150656  	0.061203 
1190.079472  	0.064846 
1192.008288  	0.069374 
1193.937104  	0.074532 
1195.865920  	0.080183 
1197.794736  	0.086559 
1199.723552  	0.093710 
1201.652368  	0.100643 
1203.581184  	0.107035 
1205.510000  	0.113477 
1207.438816  	0.119515 
1209.367632  	0.124890 
1211.296448  	0.129601 
1213.225264  	0.133245 
1215.154080  	0.135764 
1217.082896  	0.137491 
1219.011712  	0.138320 
1220.940528  	0.138476 
1222.869344  	0.137925 
1224.798160  	0.137281 
1226.726976  	0.135752 
1228.655792  	0.133557 
1230.584608  	0.131068 
1232.513424  	0.127984 
1234.442240  	0.124238 
1236.371056  	0.120379 
1238.299872  	0.116091 
1240.228688  	0.110924 
1242.157504  	0.105698 
1244.086320  	0.100714 
1246.015136  	0.095408 
1247.943952  	0.090130 
1249.872768  	0.084903 
1251.801584  	0.080036 
1253.730400  	0.075256 
1255.659216  	0.070409 
1257.588032  	0.066010 
1259.516848  	0.061966 
1261.445664  	0.057950 
1263.374480  	0.054236 
1265.303296  	0.051188 
1267.232112  	0.048806 
1269.160928  	0.047165 
1271.089744  	0.045953 
1273.018560  	0.045139 
1274.947376  	0.045052 
1276.876192  	0.045616 
1278.805008  	0.046066 
1280.733824  	0.045767 
1282.662640  	0.044413 
1284.591456  	0.042858 
1286.520272  	0.041774 
1288.449088  	0.041045 
1290.377904  	0.040526 
1292.306720  	0.040833 
1294.235536  	0.041243 
1296.164352  	0.041162 
1298.093168  	0.039780 
1300.021984  	0.037874 
1301.950800  	0.035751 
1303.879616  	0.033539 
1305.808432  	0.031231 
1307.737248  	0.028932 
1309.666064  	0.026643 
1311.594880  	0.025419 
1313.523696  	0.024470 
1315.452512  	0.023465 
1317.381328  	0.023408 
1319.310144  	0.023461 
1321.238960  	0.023080 
1323.167776  	0.023213 
1325.096592  	0.023651 
1327.025408  	0.023902 
1328.954224  	0.023787 
1330.883040  	0.023284 
1332.811856  	0.022350 
1334.740672  	0.021950 
1336.669488  	0.022806 
1338.598304  	0.024479 
1340.527120  	0.023429 
1342.455936  	0.020539 
1344.384752  	0.019772 
1346.313568  	0.020070 
1348.242384  	0.020634 
1350.171200  	0.021475 
1352.100016  	0.022528 
1354.028832  	0.024068 
1355.957648  	0.025623 
1357.886464  	0.027110 
1359.815280  	0.029243 
1361.744096  	0.032587 
1363.672912  	0.033743 
1365.601728  	0.033066 
1367.530544  	0.034380 
1369.459360  	0.035669 
1371.388176  	0.036087 
1373.316992  	0.037259 
1375.245808  	0.036129 
1377.174624  	0.033351 
1379.103440  	0.031249 
1381.032256  	0.028958 
1382.961072  	0.027026 
1384.889888  	0.026479 
1386.818704  	0.027091 
1388.747520  	0.024988 
1390.676336  	0.022572 
1392.605152  	0.021957 
1394.533968  	0.022950 
1396.462784  	0.023509 
1398.391600  	0.023184 
1400.320416  	0.021588 
1402.249232  	0.020937 
1404.178048  	0.022413 
1406.106864  	0.022800 
1408.035680  	0.023051 
1409.964496  	0.024641 
1411.893312  	0.026202 
1413.822128  	0.027613 
1415.750944  	0.030800 
1417.679760  	0.034332 
1419.608576  	0.034278 
1421.537392  	0.032343 
1423.466208  	0.032389 
1425.395024  	0.030425 
1427.323840  	0.028564 
1429.252656  	0.027821 
1431.181472  	0.026413 
1433.110288  	0.025615 
1435.039104  	0.026729 
1436.967920  	0.027606 
1438.896736  	0.026399 
1440.825552  	0.026280 
1442.754368  	0.026582 
1444.683184  	0.026712 
1446.612000  	0.027732 
1448.540816  	0.027998 
1450.469632  	0.027542 
1452.398448  	0.028234 
1454.327264  	0.029942 
1456.256080  	0.033556 
1458.184896  	0.033123 
1460.113712  	0.029065 
1462.042528  	0.027468 
1463.971344  	0.027989 
1465.900160  	0.028292 
1467.828976  	0.028193 
1469.757792  	0.029913 
1471.686608  	0.034935 
1473.615424  	0.040453 
1475.544240  	0.042215 
1477.473056  	0.043944 
1479.401872  	0.045500 
1481.330688  	0.048194 
1483.259504  	0.049427 
1485.188320  	0.051052 
1487.117136  	0.053669 
1489.045952  	0.056360 
1490.974768  	0.053285 
1492.903584  	0.048754 
1494.832400  	0.046698 
1496.761216  	0.044567 
1498.690032  	0.040059 
1500.618848  	0.035738 
1502.547664  	0.032345 
1504.476480  	0.031290 
1506.405296  	0.035339 
1508.334112  	0.034701 
1510.262928  	0.028933 
1512.191744  	0.025121 
1514.120560  	0.024530 
1516.049376  	0.027181 
1517.978192  	0.027627 
1519.907008  	0.028612 
1521.835824  	0.032094 
1523.764640  	0.032473 
1525.693456  	0.034634 
1527.622272  	0.035332 
1529.551088  	0.033956 
1531.479904  	0.033788 
1533.408720  	0.033883 
1535.337536  	0.030473 
1537.266352  	0.029236 
1539.195168  	0.030536 
1541.123984  	0.029495 
1543.052800  	0.027301 
1544.981616  	0.024664 
1546.910432  	0.020667 
1548.839248  	0.020902 
1550.768064  	0.021594 
1552.696880  	0.020728 
1554.625696  	0.022188 
1556.554512  	0.023460 
1558.483328  	0.027689 
1560.412144  	0.026311 
1562.340960  	0.025417 
1564.269776  	0.027075 
1566.198592  	0.029898 
1568.127408  	0.032746 
1570.056224  	0.037398 
1571.985040  	0.039213 
1573.913856  	0.041617 
1575.842672  	0.045052 
1577.771488  	0.046456 
1579.700304  	0.044905 
1581.629120  	0.044111 
1583.557936  	0.043577 
1585.486752  	0.044114 
1587.415568  	0.045492 
1589.344384  	0.048421 
1591.273200  	0.052012 
1593.202016  	0.056837 
1595.130832  	0.062061 
1597.059648  	0.066908 
1598.988464  	0.071093 
1600.917280  	0.075665 
1602.846096  	0.079029 
1604.774912  	0.081077 
1606.703728  	0.082042 
1608.632544  	0.082401 
1610.561360  	0.081058 
1612.490176  	0.079752 
1614.418992  	0.078809 
1616.347808  	0.079917 
1618.276624  	0.080685 
1620.205440  	0.081873 
1622.134256  	0.084655 
1624.063072  	0.089663 
1625.991888  	0.092941 
1627.920704  	0.098412 
1629.849520  	0.103656 
1631.778336  	0.108703 
1633.707152  	0.113679 
1635.635968  	0.123506 
1637.564784  	0.130184 
1639.493600  	0.131990 
1641.422416  	0.134621 
1643.351232  	0.137521 
1645.280048  	0.140200 
1647.208864  	0.145684 
1649.137680  	0.144131 
1651.066496  	0.141762 
1652.995312  	0.144034 
1654.924128  	0.144844 
1656.852944  	0.139878 
1658.781760  	0.137164 
1660.710576  	0.135585 
1662.639392  	0.134443 
1664.568208  	0.130762 
1666.497024  	0.127559 
1668.425840  	0.125612 
1670.354656  	0.122768 
1672.283472  	0.118356 
1674.212288  	0.115284 
1676.141104  	0.112485 
1678.069920  	0.110227 
1679.998736  	0.110324 
1681.927552  	0.109842 
1683.856368  	0.110381 
1685.785184  	0.108642 
1687.714000  	0.106500 
1689.642816  	0.105645 
1691.571632  	0.103364 
1693.500448  	0.102015 
1695.429264  	0.102932 
1697.358080  	0.104141 
1699.286896  	0.101987 
1701.215712  	0.100792 
1703.144528  	0.098108 
1705.073344  	0.096214 
1707.002160  	0.092263 
1708.930976  	0.087760 
1710.859792  	0.083605 
1712.788608  	0.080010 
1714.717424  	0.076502 
1716.646240  	0.071183 
1718.575056  	0.060311 
1720.503872  	0.050792 
1722.432688  	0.044281 
1724.361504  	0.036897 
1726.290320  	0.030341 
1728.219136  	0.026127 
1730.147952  	0.023319 
1732.076768  	0.020728 
1734.005584  	0.017576 
1735.934400  	0.011798 
1737.863216  	0.010170 
1739.792032  	0.008065 
1741.720848  	0.006546 
1743.649664  	0.006467 
1745.578480  	0.005555 
1747.507296  	0.005326 
1749.436112  	0.005475 
1751.364928  	0.003394 
1753.293744  	0.000373 
1755.222560  	-0.000280 
1757.151376  	0.000356 
1759.080192  	-0.000579 
1761.009008  	-0.000683 
1762.937824  	-0.001851 
1764.866640  	-0.002832 
1766.795456  	-0.002149 
1768.724272  	-0.001230 
1770.653088  	-0.001259 
1772.581904  	-0.001258 
1774.510720  	-0.002366 
1776.439536  	-0.003067 
1778.368352  	-0.003543 
1780.297168  	-0.003166 
1782.225984  	-0.004215 
1784.154800  	-0.004352 
1786.083616  	-0.005029 
1788.012432  	-0.005209 
1789.941248  	-0.003609 
1791.870064  	-0.002232 
1793.798880  	-0.003946 
1795.727696  	-0.004313 
1797.656512  	-0.005030 
1799.585328  	-0.004878 
1801.514144  	-0.004465 
1803.442960  	-0.005498 
1805.371776  	-0.006332 
1807.300592  	-0.006088 
1809.229408  	-0.005829 
1811.158224  	-0.005776 
1813.087040  	-0.006905 
1815.015856  	-0.007634 
1816.944672  	-0.007148 
1818.873488  	-0.006656 
1820.802304  	-0.006721 
1822.731120  	-0.006227 
1824.659936  	-0.005914 
1826.588752  	-0.006105 
1828.517568  	-0.005890 
1830.446384  	-0.005884 
1832.375200  	-0.007180 
1834.304016  	-0.007341 
1836.232832  	-0.007100 
1838.161648  	-0.006844 
1840.090464  	-0.007268 
1842.019280  	-0.006517 
1843.948096  	-0.005772 
1845.876912  	-0.006075 
1847.805728  	-0.006971 
1849.734544  	-0.007714 
1851.663360  	-0.008130 
1853.592176  	-0.007988 
1855.520992  	-0.007981 
1857.449808  	-0.007761 
1859.378624  	-0.008085 
1861.307440  	-0.008033 
1863.236256  	-0.008346 
1865.165072  	-0.007700 
1867.093888  	-0.006227 
1869.022704  	-0.005096 
1870.951520  	-0.006864 
1872.880336  	-0.008103 
1874.809152  	-0.008711 
1876.737968  	-0.008746 
1878.666784  	-0.008848 
1880.595600  	-0.009013 
1882.524416  	-0.008986 
1884.453232  	-0.008454 
1886.382048  	-0.008761 
1888.310864  	-0.008167 
1890.239680  	-0.008177 
1892.168496  	-0.008188 
1894.097312  	-0.007824 
1896.026128  	-0.008158 
1897.954944  	-0.008916 
1899.883760  	-0.008913 
1901.812576  	-0.008963 
1903.741392  	-0.008794 
1905.670208  	-0.008829 
1907.599024  	-0.008503 
1909.527840  	-0.008460 
1911.456656  	-0.008487 
1913.385472  	-0.008771 
1915.314288  	-0.008328 
1917.243104  	-0.007829 
1919.171920  	-0.007845 
1921.100736  	-0.007675 
1923.029552  	-0.007345 
1924.958368  	-0.009119 
1926.887184  	-0.009578 
1928.816000  	-0.009740 
1930.744816  	-0.009597 
1932.673632  	-0.009406 
1934.602448  	-0.008958 
1936.531264  	-0.009553 
1938.460080  	-0.009269 
1940.388896  	-0.008329 
1942.317712  	-0.006994 
1944.246528  	-0.008447 
1946.175344  	-0.009062 
1948.104160  	-0.009222 
1950.032976  	-0.008990 
1951.961792  	-0.009396 
1953.890608  	-0.009440 
1955.819424  	-0.009796 
1957.748240  	-0.009584 
1959.677056  	-0.009783 
1961.605872  	-0.009315 
1963.534688  	-0.009967 
1965.463504  	-0.008811 
1967.392320  	-0.008697 
1969.321136  	-0.009635 
1971.249952  	-0.011158 
1973.178768  	-0.011025 
1975.107584  	-0.009357 
1977.036400  	-0.008039 
1978.965216  	-0.008810 
1980.894032  	-0.009292 
1982.822848  	-0.009589 
1984.751664  	-0.008912 
1986.680480  	-0.007805 
1988.609296  	-0.006853 
1990.538112  	-0.007635 
1992.466928  	-0.007861 
1994.395744  	-0.009065 
1996.324560  	-0.009030 
1998.253376  	-0.009326 
2000.182192  	-0.009923 
2002.111008  	-0.010434 
2004.039824  	-0.009137 
2005.968640  	-0.008447 
2007.897456  	-0.008257 
2009.826272  	-0.008548 
2011.755088  	-0.008558 
2013.683904  	-0.009028 
2015.612720  	-0.008646 
2017.541536  	-0.008491 
2019.470352  	-0.008161 
2021.399168  	-0.009117 
2023.327984  	-0.009361 
2025.256800  	-0.009091 
2027.185616  	-0.008115 
2029.114432  	-0.008733 
2031.043248  	-0.008557 
2032.972064  	-0.008240 
2034.900880  	-0.007460 
2036.829696  	-0.008026 
2038.758512  	-0.007432 
2040.687328  	-0.007800 
2042.616144  	-0.007565 
2044.544960  	-0.007457 
2046.473776  	-0.007233 
2048.402592  	-0.006932 
2050.331408  	-0.007175 
2052.260224  	-0.007556 
2054.189040  	-0.007371 
2056.117856  	-0.007967 
2058.046672  	-0.008054 
2059.975488  	-0.007794 
2061.904304  	-0.007088 
2063.833120  	-0.006985 
2065.761936  	-0.006763 
2067.690752  	-0.007179 
2069.619568  	-0.007234 
2071.548384  	-0.007845 
2073.477200  	-0.007622 
2075.406016  	-0.006991 
2077.334832  	-0.006675 
2079.263648  	-0.006383 
2081.192464  	-0.006210 
2083.121280  	-0.006854 
2085.050096  	-0.007091 
2086.978912  	-0.007261 
2088.907728  	-0.006788 
2090.836544  	-0.006740 
2092.765360  	-0.006962 
2094.694176  	-0.006922 
2096.622992  	-0.006672 
2098.551808  	-0.007090 
2100.480624  	-0.007095 
2102.409440  	-0.006994 
2104.338256  	-0.006383 
2106.267072  	-0.006305 
2108.195888  	-0.006409 
2110.124704  	-0.006624 
2112.053520  	-0.006753 
2113.982336  	-0.006564 
2115.911152  	-0.006667 
2117.839968  	-0.007013 
2119.768784  	-0.006799 
2121.697600  	-0.006504 
2123.626416  	-0.006304 
2125.555232  	-0.006896 
2127.484048  	-0.007504 
2129.412864  	-0.007234 
2131.341680  	-0.006257 
2133.270496  	-0.006300 
2135.199312  	-0.006294 
2137.128128  	-0.005756 
2139.056944  	-0.005402 
2140.985760  	-0.005954 
2142.914576  	-0.006011 
2144.843392  	-0.006816 
2146.772208  	-0.006571 
2148.701024  	-0.006100 
2150.629840  	-0.005816 
2152.558656  	-0.005771 
2154.487472  	-0.005772 
2156.416288  	-0.006254 
2158.345104  	-0.004705 
2160.273920  	-0.002632 
2162.202736  	-0.002594 
2164.131552  	-0.003972 
2166.060368  	-0.003401 
2167.989184  	-0.004427 
2169.918000  	-0.005422 
2171.846816  	-0.004827 
2173.775632  	-0.004707 
2175.704448  	-0.005642 
2177.633264  	-0.004726 
2179.562080  	-0.005595 
2181.490896  	-0.005585 
2183.419712  	-0.004744 
2185.348528  	-0.005224 
2187.277344  	-0.005825 
2189.206160  	-0.005474 
2191.134976  	-0.005492 
2193.063792  	-0.005953 
2194.992608  	-0.006250 
2196.921424  	-0.006217 
2198.850240  	-0.006668 
2200.779056  	-0.007132 
2202.707872  	-0.007056 
2204.636688  	-0.006531 
2206.565504  	-0.006861 
2208.494320  	-0.007198 
2210.423136  	-0.007226 
2212.351952  	-0.006604 
2214.280768  	-0.006968 
2216.209584  	-0.007095 
2218.138400  	-0.008123 
2220.067216  	-0.008589 
2221.996032  	-0.008521 
2223.924848  	-0.007467 
2225.853664  	-0.006719 
2227.782480  	-0.006504 
2229.711296  	-0.007460 
2231.640112  	-0.007613 
2233.568928  	-0.007975 
2235.497744  	-0.007818 
2237.426560  	-0.007703 
2239.355376  	-0.007674 
2241.284192  	-0.008100 
2243.213008  	-0.008205 
2245.141824  	-0.007957 
2247.070640  	-0.007817 
2248.999456  	-0.007805 
2250.928272  	-0.007457 
2252.857088  	-0.007692 
2254.785904  	-0.007576 
2256.714720  	-0.007341 
2258.643536  	-0.007384 
2260.572352  	-0.007316 
2262.501168  	-0.007064 
2264.429984  	-0.006751 
2266.358800  	-0.006800 
2268.287616  	-0.007312 
2270.216432  	-0.007483 
2272.145248  	-0.007388 
2274.074064  	-0.006856 
2276.002880  	-0.006710 
2277.931696  	-0.006495 
2279.860512  	-0.006699 
2281.789328  	-0.006911 
2283.718144  	-0.006928 
2285.646960  	-0.006560 
2287.575776  	-0.006592 
2289.504592  	-0.006675 
2291.433408  	-0.006580 
2293.362224  	-0.006043 
2295.291040  	-0.005880 
2297.219856  	-0.005716 
2299.148672  	-0.005614 
2301.077488  	-0.005365 
2303.006304  	-0.004796 
2304.935120  	-0.004291 
2306.863936  	-0.004173 
2308.792752  	-0.003853 
2310.721568  	-0.003716 
2312.650384  	-0.004195 
2314.579200  	-0.004939 
2316.508016  	-0.004632 
2318.436832  	-0.004173 
2320.365648  	-0.004029 
2322.294464  	-0.004153 
2324.223280  	-0.005007 
2326.152096  	-0.006695 
2328.080912  	-0.007991 
2330.009728  	-0.008355 
2331.938544  	-0.008810 
2333.867360  	-0.009797 
2335.796176  	-0.010345 
2337.724992  	-0.010892 
2339.653808  	-0.011234 
2341.582624  	-0.010911 
2343.511440  	-0.009771 
2345.440256  	-0.008404 
2347.369072  	-0.006980 
2349.297888  	-0.006230 
2351.226704  	-0.007344 
2353.155520  	-0.009348 
2355.084336  	-0.010494 
2357.013152  	-0.011194 
2358.941968  	-0.011627 
2360.870784  	-0.012202 
2362.799600  	-0.011945 
2364.728416  	-0.010941 
2366.657232  	-0.010147 
2368.586048  	-0.009356 
2370.514864  	-0.007959 
2372.443680  	-0.007055 
2374.372496  	-0.006164 
2376.301312  	-0.005474 
2378.230128  	-0.005118 
2380.158944  	-0.005272 
2382.087760  	-0.005873 
2384.016576  	-0.006615 
2385.945392  	-0.007084 
2387.874208  	-0.007507 
2389.803024  	-0.007887 
2391.731840  	-0.008182 
2393.660656  	-0.008101 
2395.589472  	-0.007997 
2397.518288  	-0.007994 
2399.447104  	-0.008080 
2401.375920  	-0.008088 
2403.304736  	-0.008414 
2405.233552  	-0.008511 
2407.162368  	-0.008403 
2409.091184  	-0.008297 
2411.020000  	-0.008360 
2412.948816  	-0.008407 
2414.877632  	-0.008352 
2416.806448  	-0.008056 
2418.735264  	-0.008030 
2420.664080  	-0.008005 
2422.592896  	-0.007991 
2424.521712  	-0.007964 
2426.450528  	-0.007965 
2428.379344  	-0.007909 
2430.308160  	-0.007788 
2432.236976  	-0.007775 
2434.165792  	-0.007634 
2436.094608  	-0.007436 
2438.023424  	-0.007582 
2439.952240  	-0.007652 
2441.881056  	-0.007596 
2443.809872  	-0.007677 
2445.738688  	-0.007758 
2447.667504  	-0.007627 
2449.596320  	-0.007420 
2451.525136  	-0.007291 
2453.453952  	-0.007338 
2455.382768  	-0.007210 
2457.311584  	-0.007248 
2459.240400  	-0.007472 
2461.169216  	-0.007376 
2463.098032  	-0.007215 
2465.026848  	-0.007253 
2466.955664  	-0.007106 
2468.884480  	-0.007351 
2470.813296  	-0.007627 
2472.742112  	-0.007462 
2474.670928  	-0.007142 
2476.599744  	-0.007008 
2478.528560  	-0.006871 
2480.457376  	-0.006629 
2482.386192  	-0.006502 
2484.315008  	-0.006622 
2486.243824  	-0.006651 
2488.172640  	-0.006476 
2490.101456  	-0.006272 
2492.030272  	-0.006165 
2493.959088  	-0.006302 
2495.887904  	-0.006645 
2497.816720  	-0.006318 
2499.745536  	-0.006056 
2501.674352  	-0.006145 
2503.603168  	-0.006182 
2505.531984  	-0.006214 
2507.460800  	-0.006327 
2509.389616  	-0.006428 
2511.318432  	-0.006454 
2513.247248  	-0.006211 
2515.176064  	-0.006025 
2517.104880  	-0.006083 
2519.033696  	-0.006270 
2520.962512  	-0.006007 
2522.891328  	-0.005916 
2524.820144  	-0.005787 
2526.748960  	-0.005886 
2528.677776  	-0.005872 
2530.606592  	-0.005755 
2532.535408  	-0.005472 
2534.464224  	-0.005453 
2536.393040  	-0.005578 
2538.321856  	-0.005536 
2540.250672  	-0.005345 
2542.179488  	-0.005285 
2544.108304  	-0.005270 
2546.037120  	-0.005268 
2547.965936  	-0.005109 
2549.894752  	-0.004973 
2551.823568  	-0.004848 
2553.752384  	-0.004900 
2555.681200  	-0.005009 
2557.610016  	-0.004952 
2559.538832  	-0.004808 
2561.467648  	-0.004805 
2563.396464  	-0.004827 
2565.325280  	-0.004788 
2567.254096  	-0.004713 
2569.182912  	-0.004651 
2571.111728  	-0.004502 
2573.040544  	-0.004413 
2574.969360  	-0.004318 
2576.898176  	-0.004236 
2578.826992  	-0.004306 
2580.755808  	-0.004432 
2582.684624  	-0.004209 
2584.613440  	-0.004048 
2586.542256  	-0.004028 
2588.471072  	-0.004021 
2590.399888  	-0.003931 
2592.328704  	-0.003825 
2594.257520  	-0.003676 
2596.186336  	-0.003727 
2598.115152  	-0.003789 
2600.043968  	-0.003508 
2601.972784  	-0.003431 
2603.901600  	-0.003424 
2605.830416  	-0.003420 
2607.759232  	-0.003397 
2609.688048  	-0.003231 
2611.616864  	-0.003120 
2613.545680  	-0.003009 
2615.474496  	-0.002917 
2617.403312  	-0.002772 
2619.332128  	-0.002693 
2621.260944  	-0.002674 
2623.189760  	-0.002567 
2625.118576  	-0.002413 
2627.047392  	-0.002386 
2628.976208  	-0.002246 
2630.905024  	-0.002137 
2632.833840  	-0.002094 
2634.762656  	-0.002113 
2636.691472  	-0.001959 
2638.620288  	-0.001824 
2640.549104  	-0.001821 
2642.477920  	-0.001707 
2644.406736  	-0.001589 
2646.335552  	-0.001564 
2648.264368  	-0.001463 
2650.193184  	-0.001270 
2652.122000  	-0.001122 
2654.050816  	-0.001041 
2655.979632  	-0.000982 
2657.908448  	-0.000929 
2659.837264  	-0.000859 
2661.766080  	-0.000759 
2663.694896  	-0.000690 
2665.623712  	-0.000614 
2667.552528  	-0.000458 
2669.481344  	-0.000347 
2671.410160  	-0.000343 
2673.338976  	-0.000281 
2675.267792  	-0.000108 
2677.196608  	0.000080 
2679.125424  	0.000160 
2681.054240  	0.000343 
2682.983056  	0.000501 
2684.911872  	0.000456 
2686.840688  	0.000493 
2688.769504  	0.000597 
2690.698320  	0.000683 
2692.627136  	0.000682 
2694.555952  	0.000741 
2696.484768  	0.000846 
2698.413584  	0.000993 
2700.342400  	0.001021 
2702.271216  	0.001112 
2704.200032  	0.001206 
2706.128848  	0.001368 
2708.057664  	0.001465 
2709.986480  	0.001474 
2711.915296  	0.001663 
2713.844112  	0.001882 
2715.772928  	0.001887 
2717.701744  	0.001931 
2719.630560  	0.002198 
2721.559376  	0.002373 
2723.488192  	0.002391 
2725.417008  	0.002519 
2727.345824  	0.002702 
2729.274640  	0.002883 
2731.203456  	0.002892 
2733.132272  	0.002906 
2735.061088  	0.003077 
2736.989904  	0.003116 
2738.918720  	0.003228 
2740.847536  	0.003379 
2742.776352  	0.003499 
2744.705168  	0.003570 
2746.633984  	0.003580 
2748.562800  	0.003768 
2750.491616  	0.003768 
2752.420432  	0.003687 
2754.349248  	0.003659 
2756.278064  	0.003674 
2758.206880  	0.003631 
2760.135696  	0.003642 
2762.064512  	0.003673 
2763.993328  	0.003710 
2765.922144  	0.003759 
2767.850960  	0.003803 
2769.779776  	0.003760 
2771.708592  	0.003812 
2773.637408  	0.003825 
2775.566224  	0.003840 
2777.495040  	0.003833 
2779.423856  	0.003849 
2781.352672  	0.004032 
2783.281488  	0.004118 
2785.210304  	0.004076 
2787.139120  	0.004150 
2789.067936  	0.004162 
2790.996752  	0.004165 
2792.925568  	0.004125 
2794.854384  	0.004068 
2796.783200  	0.004090 
2798.712016  	0.004119 
2800.640832  	0.004154 
2802.569648  	0.004318 
2804.498464  	0.004344 
2806.427280  	0.004306 
2808.356096  	0.004481 
2810.284912  	0.004536 
2812.213728  	0.004398 
2814.142544  	0.004486 
2816.071360  	0.004516 
2818.000176  	0.004565 
2819.928992  	0.004594 
2821.857808  	0.004516 
2823.786624  	0.004430 
2825.715440  	0.004455 
2827.644256  	0.004429 
2829.573072  	0.004407 
2831.501888  	0.004449 
2833.430704  	0.004456 
2835.359520  	0.004409 
2837.288336  	0.004311 
2839.217152  	0.004287 
2841.145968  	0.004265 
2843.074784  	0.004102 
2845.003600  	0.004118 
2846.932416  	0.004210 
2848.861232  	0.004317 
2850.790048  	0.004256 
2852.718864  	0.004216 
2854.647680  	0.004288 
2856.576496  	0.004375 
2858.505312  	0.004406 
2860.434128  	0.004412 
2862.362944  	0.004377 
2864.291760  	0.004300 
2866.220576  	0.004327 
2868.149392  	0.004363 
2870.078208  	0.004380 
2872.007024  	0.004530 
2873.935840  	0.004762 
2875.864656  	0.005066 
2877.793472  	0.005346 
2879.722288  	0.005649 
2881.651104  	0.005903 
2883.579920  	0.006126 
2885.508736  	0.006311 
2887.437552  	0.006519 
2889.366368  	0.006519 
2891.295184  	0.006536 
2893.224000  	0.006638 
2895.152816  	0.006781 
2897.081632  	0.006859 
2899.010448  	0.006476 
2900.939264  	0.006130 
2902.868080  	0.006373 
2904.796896  	0.006729 
2906.725712  	0.006895 
2908.654528  	0.007146 
2910.583344  	0.007420 
2912.512160  	0.007673 
2914.440976  	0.007985 
2916.369792  	0.008408 
2918.298608  	0.008772 
2920.227424  	0.009085 
2922.156240  	0.009476 
2924.085056  	0.009865 
2926.013872  	0.010167 
2927.942688  	0.010696 
2929.871504  	0.011348 
2931.800320  	0.011854 
2933.729136  	0.012377 
2935.657952  	0.012845 
2937.586768  	0.013245 
2939.515584  	0.013628 
2941.444400  	0.013902 
2943.373216  	0.014158 
2945.302032  	0.014493 
2947.230848  	0.014632 
2949.159664  	0.014499 
2951.088480  	0.014443 
2953.017296  	0.014441 
2954.946112  	0.014299 
2956.874928  	0.014143 
2958.803744  	0.013988 
2960.732560  	0.013834 
2962.661376  	0.013670 
2964.590192  	0.013450 
2966.519008  	0.013133 
2968.447824  	0.012795 
2970.376640  	0.012585 
2972.305456  	0.012394 
2974.234272  	0.012489 
2976.163088  	0.012433 
2978.091904  	0.012234 
2980.020720  	0.012225 
2981.949536  	0.012218 
2983.878352  	0.012020 
2985.807168  	0.011781 
2987.735984  	0.011822 
2989.664800  	0.011990 
2991.593616  	0.012382 
2993.522432  	0.012741 
2995.451248  	0.012924 
2997.380064  	0.013132 
2999.308880  	0.013493 
3001.237696  	0.013961 
3003.166512  	0.014450 
3005.095328  	0.014861 
3007.024144  	0.015197 
3008.952960  	0.015661 
3010.881776  	0.016268 
3012.810592  	0.016815 
3014.739408  	0.017208 
3016.668224  	0.017448 
3018.597040  	0.017767 
3020.525856  	0.018247 
3022.454672  	0.018785 
3024.383488  	0.019307 
3026.312304  	0.019751 
3028.241120  	0.020044 
3030.169936  	0.020559 
3032.098752  	0.021052 
3034.027568  	0.021211 
3035.956384  	0.021588 
3037.885200  	0.022052 
3039.814016  	0.022527 
3041.742832  	0.022875 
3043.671648  	0.023201 
3045.600464  	0.023546 
3047.529280  	0.023890 
3049.458096  	0.024245 
3051.386912  	0.024483 
3053.315728  	0.024973 
3055.244544  	0.025623 
3057.173360  	0.026138 
3059.102176  	0.026716 
3061.030992  	0.027358 
3062.959808  	0.027912 
3064.888624  	0.028438 
3066.817440  	0.028921 
3068.746256  	0.029424 
3070.675072  	0.030022 
3072.603888  	0.030612 
3074.532704  	0.031226 
3076.461520  	0.031859 
3078.390336  	0.032324 
3080.319152  	0.032881 
3082.247968  	0.033482 
3084.176784  	0.034054 
3086.105600  	0.034710 
3088.034416  	0.035404 
3089.963232  	0.035757 
3091.892048  	0.036209 
3093.820864  	0.036741 
3095.749680  	0.037571 
3097.678496  	0.038456 
3099.607312  	0.039094 
3101.536128  	0.039778 
3103.464944  	0.040312 
3105.393760  	0.040761 
3107.322576  	0.041371 
3109.251392  	0.042033 
3111.180208  	0.042508 
3113.109024  	0.043009 
3115.037840  	0.043725 
3116.966656  	0.044459 
3118.895472  	0.044949 
3120.824288  	0.045389 
3122.753104  	0.046039 
3124.681920  	0.046413 
3126.610736  	0.046689 
3128.539552  	0.047088 
3130.468368  	0.047575 
3132.397184  	0.048240 
3134.326000  	0.048650 
3136.254816  	0.048964 
3138.183632  	0.049627 
3140.112448  	0.050037 
3142.041264  	0.050505 
3143.970080  	0.051117 
3145.898896  	0.051651 
3147.827712  	0.052070 
3149.756528  	0.052691 
3151.685344  	0.053136 
3153.614160  	0.053635 
3155.542976  	0.054059 
3157.471792  	0.054576 
3159.400608  	0.055185 
3161.329424  	0.055743 
3163.258240  	0.056213 
3165.187056  	0.056621 
3167.115872  	0.056855 
3169.044688  	0.057355 
3170.973504  	0.057854 
3172.902320  	0.058240 
3174.831136  	0.058682 
3176.759952  	0.059220 
3178.688768  	0.059620 
3180.617584  	0.059760 
3182.546400  	0.059896 
3184.475216  	0.060226 
3186.404032  	0.060543 
3188.332848  	0.060634 
3190.261664  	0.060628 
3192.190480  	0.060823 
3194.119296  	0.061137 
3196.048112  	0.061316 
3197.976928  	0.061557 
3199.905744  	0.061521 
3201.834560  	0.061398 
3203.763376  	0.061333 
3205.692192  	0.061249 
3207.621008  	0.061424 
3209.549824  	0.061560 
3211.478640  	0.061621 
3213.407456  	0.061516 
3215.336272  	0.061436 
3217.265088  	0.061421 
3219.193904  	0.061584 
3221.122720  	0.061573 
3223.051536  	0.061214 
3224.980352  	0.060908 
3226.909168  	0.060861 
3228.837984  	0.060879 
3230.766800  	0.060688 
3232.695616  	0.060692 
3234.624432  	0.060734 
3236.553248  	0.060912 
3238.482064  	0.061045 
3240.410880  	0.060870 
3242.339696  	0.060794 
3244.268512  	0.060883 
3246.197328  	0.061063 
3248.126144  	0.061075 
3250.054960  	0.061119 
3251.983776  	0.061302 
3253.912592  	0.061626 
3255.841408  	0.061731 
3257.770224  	0.061762 
3259.699040  	0.061987 
3261.627856  	0.062251 
3263.556672  	0.062371 
3265.485488  	0.062625 
3267.414304  	0.062682 
3269.343120  	0.062746 
3271.271936  	0.063028 
3273.200752  	0.063287 
3275.129568  	0.063427 
3277.058384  	0.063521 
3278.987200  	0.063542 
3280.916016  	0.063659 
3282.844832  	0.063870 
3284.773648  	0.064033 
3286.702464  	0.064199 
3288.631280  	0.064584 
3290.560096  	0.064669 
3292.488912  	0.064777 
3294.417728  	0.064984 
3296.346544  	0.065304 
3298.275360  	0.065516 
3300.204176  	0.065561 
3302.132992  	0.065532 
3304.061808  	0.065828 
3305.990624  	0.066179 
3307.919440  	0.066616 
3309.848256  	0.067034 
3311.777072  	0.067192 
3313.705888  	0.067219 
3315.634704  	0.067419 
3317.563520  	0.067770 
3319.492336  	0.067982 
3321.421152  	0.068206 
3323.349968  	0.068433 
3325.278784  	0.068609 
3327.207600  	0.068756 
3329.136416  	0.068825 
3331.065232  	0.068924 
3332.994048  	0.068868 
3334.922864  	0.068989 
3336.851680  	0.069394 
3338.780496  	0.069379 
3340.709312  	0.069041 
3342.638128  	0.068890 
3344.566944  	0.068710 
3346.495760  	0.068433 
3348.424576  	0.068388 
3350.353392  	0.068397 
3352.282208  	0.068125 
3354.211024  	0.067765 
3356.139840  	0.067613 
3358.068656  	0.067474 
3359.997472  	0.067271 
3361.926288  	0.066965 
3363.855104  	0.066635 
3365.783920  	0.066498 
3367.712736  	0.066257 
3369.641552  	0.065914 
3371.570368  	0.065490 
3373.499184  	0.065368 
3375.428000  	0.065168 
3377.356816  	0.064984 
3379.285632  	0.064843 
3381.214448  	0.064481 
3383.143264  	0.064193 
3385.072080  	0.064042 
3387.000896  	0.063565 
3388.929712  	0.063221 
3390.858528  	0.062934 
3392.787344  	0.063081 
3394.716160  	0.062817 
3396.644976  	0.062500 
3398.573792  	0.061965 
3400.502608  	0.061243 
3402.431424  	0.060886 
3404.360240  	0.060461 
3406.289056  	0.059910 
3408.217872  	0.059522 
3410.146688  	0.059301 
3412.075504  	0.059027 
3414.004320  	0.058716 
3415.933136  	0.058372 
3417.861952  	0.057936 
3419.790768  	0.057968 
3421.719584  	0.057875 
3423.648400  	0.057017 
3425.577216  	0.056150 
3427.506032  	0.055773 
3429.434848  	0.055390 
3431.363664  	0.055166 
3433.292480  	0.054753 
3435.221296  	0.054198 
3437.150112  	0.053538 
3439.078928  	0.052905 
3441.007744  	0.052533 
3442.936560  	0.052615 
3444.865376  	0.052031 
3446.794192  	0.052100 
3448.723008  	0.051715 
3450.651824  	0.050414 
3452.580640  	0.049710 
3454.509456  	0.049220 
3456.438272  	0.048672 
3458.367088  	0.048239 
3460.295904  	0.047850 
3462.224720  	0.047447 
3464.153536  	0.046543 
3466.082352  	0.045828 
3468.011168  	0.045416 
3469.939984  	0.044528 
3471.868800  	0.043683 
3473.797616  	0.043078 
3475.726432  	0.042523 
3477.655248  	0.041745 
3479.584064  	0.041330 
3481.512880  	0.041300 
3483.441696  	0.040567 
3485.370512  	0.039275 
3487.299328  	0.038782 
3489.228144  	0.038217 
3491.156960  	0.037173 
3493.085776  	0.036650 
3495.014592  	0.036383 
3496.943408  	0.035848 
3498.872224  	0.035057 
3500.801040  	0.035184 
3502.729856  	0.035640 
3504.658672  	0.034685 
3506.587488  	0.032999 
3508.516304  	0.032682 
3510.445120  	0.032406 
3512.373936  	0.031331 
3514.302752  	0.030536 
3516.231568  	0.029879 
3518.160384  	0.029374 
3520.089200  	0.028887 
3522.018016  	0.029077 
3523.946832  	0.029667 
3525.875648  	0.028904 
3527.804464  	0.028297 
3529.733280  	0.027619 
3531.662096  	0.026288 
3533.590912  	0.025075 
3535.519728  	0.024900 
3537.448544  	0.024297 
3539.377360  	0.023141 
3541.306176  	0.022776 
3543.234992  	0.023285 
3545.163808  	0.024542 
3547.092624  	0.023996 
3549.021440  	0.021660 
3550.950256  	0.020862 
3552.879072  	0.021105 
3554.807888  	0.019574 
3556.736704  	0.018302 
3558.665520  	0.018360 
3560.594336  	0.018625 
3562.523152  	0.018331 
3564.451968  	0.019151 
3566.380784  	0.021698 
3568.309600  	0.020882 
3570.238416  	0.016824 
3572.167232  	0.014699 
3574.096048  	0.014032 
3576.024864  	0.013532 
3577.953680  	0.013028 
3579.882496  	0.012676 
3581.811312  	0.011886 
3583.740128  	0.011484 
3585.668944  	0.012600 
3587.597760  	0.014256 
3589.526576  	0.011623 
3591.455392  	0.009187 
3593.384208  	0.009483 
3595.313024  	0.009645 
3597.241840  	0.008312 
3599.170656  	0.007087 
3601.099472  	0.006403 
3603.028288  	0.005166 
3604.957104  	0.004532 
3606.885920  	0.005724 
3608.814736  	0.006001 
3610.743552  	0.004514 
3612.672368  	0.004691 
3614.601184  	0.004367 
3616.530000  	0.003047 
3618.458816  	0.003071 
3620.387632  	0.001856 
3622.316448  	-0.000565 
3624.245264  	-0.001607 
3626.174080  	-0.001168 
3628.102896  	0.000392 
3630.031712  	0.000036 
3631.960528  	-0.002749 
3633.889344  	-0.004211 
3635.818160  	-0.005389 
3637.746976  	-0.006332 
3639.675792  	-0.006941 
3641.604608  	-0.007009 
3643.533424  	-0.007058 
3645.462240  	-0.006489 
3647.391056  	-0.003895 
3649.319872  	-0.003451 
3651.248688  	-0.006919 
3653.177504  	-0.009961 
3655.106320  	-0.010584 
3657.035136  	-0.010983 
3658.963952  	-0.012383 
3660.892768  	-0.013010 
3662.821584  	-0.013536 
3664.750400  	-0.013867 
3666.679216  	-0.013184 
3668.608032  	-0.011648 
3670.536848  	-0.011068 
3672.465664  	-0.012263 
3674.394480  	-0.011669 
3676.323296  	-0.011657 
3678.252112  	-0.013306 
3680.180928  	-0.014711 
3682.109744  	-0.015557 
3684.038560  	-0.015508 
3685.967376  	-0.015062 
3687.896192  	-0.013716 
3689.825008  	-0.012982 
3691.753824  	-0.014533 
3693.682640  	-0.015835 
3695.611456  	-0.016146 
3697.540272  	-0.016201 
3699.469088  	-0.016335 
3701.397904  	-0.015899 
3703.326720  	-0.015873 
3705.255536  	-0.015975 
3707.184352  	-0.015418 
3709.113168  	-0.014125 
3711.041984  	-0.012728 
3712.970800  	-0.013730 
3714.899616  	-0.015274 
3716.828432  	-0.015700 
3718.757248  	-0.015055 
3720.686064  	-0.014672 
3722.614880  	-0.014311 
3724.543696  	-0.013914 
3726.472512  	-0.013655 
3728.401328  	-0.014784 
3730.330144  	-0.015490 
3732.258960  	-0.014222 
3734.187776  	-0.010914 
3736.116592  	-0.009730 
3738.045408  	-0.012677 
3739.974224  	-0.013773 
3741.903040  	-0.013567 
3743.831856  	-0.013368 
3745.760672  	-0.013136 
3747.689488  	-0.013020 
3749.618304  	-0.011968 
3751.547120  	-0.011838 
3753.475936  	-0.013707 
3755.404752  	-0.014620 
3757.333568  	-0.014576 
3759.262384  	-0.014581 
3761.191200  	-0.015677 
3763.120016  	-0.016058 
3765.048832  	-0.015240 
3766.977648  	-0.014894 
3768.906464  	-0.014861 
3770.835280  	-0.015384 
3772.764096  	-0.016591 
3774.692912  	-0.017035 
3776.621728  	-0.016493 
3778.550544  	-0.015692 
3780.479360  	-0.015953 
3782.408176  	-0.016368 
3784.336992  	-0.016133 
3786.265808  	-0.016355 
3788.194624  	-0.016912 
3790.123440  	-0.016966 
3792.052256  	-0.016952 
3793.981072  	-0.016684 
3795.909888  	-0.015412 
3797.838704  	-0.014444 
3799.767520  	-0.014134 
3801.696336  	-0.013578 
3803.625152  	-0.014988 
3805.553968  	-0.015864 
3807.482784  	-0.015972 
3809.411600  	-0.016358 
3811.340416  	-0.016500 
3813.269232  	-0.016087 
3815.198048  	-0.014957 
3817.126864  	-0.014498 
3819.055680  	-0.014213 
3820.984496  	-0.013561 
3822.913312  	-0.014754 
3824.842128  	-0.015656 
3826.770944  	-0.015785 
3828.699760  	-0.016054 
3830.628576  	-0.015896 
3832.557392  	-0.015604 
3834.486208  	-0.015381 
3836.415024  	-0.014664 
3838.343840  	-0.013595 
3840.272656  	-0.013171 
3842.201472  	-0.014131 
3844.130288  	-0.015061 
3846.059104  	-0.016245 
3847.987920  	-0.016361 
3849.916736  	-0.015121 
3851.845552  	-0.013008 
3853.774368  	-0.012060 
3855.703184  	-0.013802 
3857.632000  	-0.014871 
3859.560816  	-0.015637 
3861.489632  	-0.014931 
3863.418448  	-0.013619 
3865.347264  	-0.013385 
3867.276080  	-0.014299 
3869.204896  	-0.013330 
3871.133712  	-0.013128 
3873.062528  	-0.014210 
3874.991344  	-0.015260 
3876.920160  	-0.016572 
3878.848976  	-0.015639 
3880.777792  	-0.013736 
3882.706608  	-0.013894 
3884.635424  	-0.014114 
3886.564240  	-0.015157 
3888.493056  	-0.016347 
3890.421872  	-0.015642 
3892.350688  	-0.015200 
3894.279504  	-0.016067 
3896.208320  	-0.016278 
3898.137136  	-0.014833 
3900.065952  	-0.013001 
3901.994768  	-0.012723 
3903.923584  	-0.013176 
3905.852400  	-0.014634 
3907.781216  	-0.016632 
3909.710032  	-0.017619 
3911.638848  	-0.017659 
3913.567664  	-0.017240 
3915.496480  	-0.015951 
3917.425296  	-0.014773 
3919.354112  	-0.015169 
3921.282928  	-0.015552 
3923.211744  	-0.014987 
3925.140560  	-0.014847 
3927.069376  	-0.016016 
3928.998192  	-0.015768 
3930.927008  	-0.014854 
3932.855824  	-0.015136 
3934.784640  	-0.016495 
3936.713456  	-0.016933 
3938.642272  	-0.016872 
3940.571088  	-0.016462 
3942.499904  	-0.015243 
3944.428720  	-0.015687 
3946.357536  	-0.016030 
3948.286352  	-0.015212 
3950.215168  	-0.016070 
3952.143984  	-0.017156 
3954.072800  	-0.017323 
3956.001616  	-0.017115 
3957.930432  	-0.016862 
3959.859248  	-0.016642 
3961.788064  	-0.016458 
3963.716880  	-0.016829 
3965.645696  	-0.017407 
3967.574512  	-0.017561 
3969.503328  	-0.017476 
3971.432144  	-0.017408 
3973.360960  	-0.016939 
3975.289776  	-0.016440 
3977.218592  	-0.016780 
3979.147408  	-0.017226 
3981.076224  	-0.017225 
3983.005040  	-0.017316 
3984.933856  	-0.017241 
3986.862672  	-0.017130 
3988.791488  	-0.017080 
3990.720304  	-0.016863 
3992.649120  	-0.016994 
3994.577936  	-0.017204 
3996.506752  	-0.017392 
3998.435568  	-0.017495 
4000.364384  	-0.017419 