##TITLE=No Description
##DATA TYPE=INFRARED SPECTRUM
##XUNITS=1/CM
##YUNITS=Abs
399.264912  	0.565387 
401.193728  	0.549585 
403.122544  	0.546888 
405.051360  	0.543660 
406.980176  	0.546767 
408.908992  	0.539748 
410.837808  	0.545295 
412.766624  	0.533702 
414.695440  	0.533981 
416.624256  	0.540558 
418.553072  	0.546781 
420.481888  	0.534978 
422.410704  	0.534859 
424.339520  	0.536018 
426.268336  	0.533568 
428.197152  	0.520584 
430.125968  	0.516381 
432.054784  	0.513236 
433.983600  	0.517946 
435.912416  	0.515367 
437.841232  	0.516064 
439.770048  	0.513446 
441.698864  	0.511275 
443.627680  	0.505458 
445.556496  	0.509516 
447.485312  	0.512435 
449.414128  	0.514210 
451.342944  	0.508983 
453.271760  	0.509904 
455.200576  	0.513209 
457.129392  	0.523839 
459.058208  	0.522538 
460.987024  	0.521909 
462.915840  	0.520704 
464.844656  	0.518487 
466.773472  	0.511099 
468.702288  	0.510257 
470.631104  	0.513955 
472.559920  	0.522892 
474.488736  	0.515755 
476.417552  	0.514323 
478.346368  	0.513306 
480.275184  	0.512880 
482.204000  	0.511860 
484.132816  	0.514454 
486.061632  	0.511618 
487.990448  	0.510762 
489.919264  	0.512866 
491.848080  	0.512383 
493.776896  	0.507695 
495.705712  	0.507245 
497.634528  	0.503442 
499.563344  	0.503751 
501.492160  	0.502653 
503.420976  	0.501964 
505.349792  	0.499185 
507.278608  	0.500280 
509.207424  	0.500525 
511.136240  	0.501943 
513.065056  	0.501625 
514.993872  	0.507396 
516.922688  	0.512998 
518.851504  	0.518440 
520.780320  	0.517704 
522.709136  	0.518041 
524.637952  	0.516045 
526.566768  	0.512570 
528.495584  	0.508213 
530.424400  	0.505184 
532.353216  	0.498055 
534.282032  	0.491150 
536.210848  	0.484534 
538.139664  	0.479545 
540.068480  	0.472683 
541.997296  	0.467520 
543.926112  	0.463710 
545.854928  	0.461222 
547.783744  	0.457713 
549.712560  	0.455112 
551.641376  	0.449774 
553.570192  	0.447523 
555.499008  	0.444052 
557.427824  	0.440023 
559.356640  	0.435939 
561.285456  	0.433902 
563.214272  	0.429401 
565.143088  	0.425302 
567.071904  	0.422157 
569.000720  	0.419547 
570.929536  	0.415094 
572.858352  	0.412420 
574.787168  	0.410351 
576.715984  	0.407789 
578.644800  	0.403312 
580.573616  	0.398552 
582.502432  	0.392158 
584.431248  	0.386978 
586.360064  	0.381910 
588.288880  	0.379112 
590.217696  	0.377200 
592.146512  	0.375956 
594.075328  	0.373906 
596.004144  	0.371867 
597.932960  	0.369231 
599.861776  	0.367921 
601.790592  	0.367211 
603.719408  	0.367564 
605.648224  	0.366577 
607.577040  	0.365577 
609.505856  	0.364231 
611.434672  	0.363600 
613.363488  	0.362133 
615.292304  	0.360912 
617.221120  	0.359370 
619.149936  	0.358470 
621.078752  	0.357312 
623.007568  	0.356617 
624.936384  	0.356223 
626.865200  	0.355868 
628.794016  	0.355157 
630.722832  	0.354857 
632.651648  	0.355284 
634.580464  	0.356071 
636.509280  	0.356994 
638.438096  	0.358047 
640.366912  	0.357581 
642.295728  	0.355937 
644.224544  	0.353649 
646.153360  	0.350391 
648.082176  	0.345522 
650.010992  	0.341179 
651.939808  	0.337382 
653.868624  	0.334209 
655.797440  	0.330157 
657.726256  	0.325729 
659.655072  	0.321155 
661.583888  	0.316521 
663.512704  	0.311804 
665.441520  	0.307113 
667.370336  	0.301868 
669.299152  	0.297893 
671.227968  	0.293301 
673.156784  	0.289036 
675.085600  	0.285872 
677.014416  	0.283240 
678.943232  	0.281270 
680.872048  	0.280457 
682.800864  	0.279136 
684.729680  	0.277356 
686.658496  	0.276014 
688.587312  	0.275448 
690.516128  	0.274336 
692.444944  	0.273899 
694.373760  	0.273273 
696.302576  	0.272262 
698.231392  	0.270216 
700.160208  	0.267841 
702.089024  	0.265006 
704.017840  	0.262474 
705.946656  	0.260130 
707.875472  	0.257783 
709.804288  	0.255892 
711.733104  	0.254213 
713.661920  	0.252350 
715.590736  	0.251457 
717.519552  	0.252026 
719.448368  	0.253531 
721.377184  	0.255356 
723.306000  	0.257088 
725.234816  	0.258278 
727.163632  	0.257802 
729.092448  	0.254864 
731.021264  	0.250554 
732.950080  	0.245985 
734.878896  	0.241939 
736.807712  	0.238382 
738.736528  	0.235690 
740.665344  	0.233620 
742.594160  	0.232254 
744.522976  	0.230827 
746.451792  	0.229653 
748.380608  	0.228488 
750.309424  	0.227206 
752.238240  	0.226470 
754.167056  	0.226469 
756.095872  	0.226124 
758.024688  	0.224896 
759.953504  	0.224689 
761.882320  	0.226914 
763.811136  	0.228738 
765.739952  	0.226942 
767.668768  	0.222809 
769.597584  	0.219970 
771.526400  	0.220008 
773.455216  	0.223424 
775.384032  	0.229923 
777.312848  	0.238424 
779.241664  	0.244030 
781.170480  	0.243002 
783.099296  	0.236230 
785.028112  	0.228547 
786.956928  	0.221824 
788.885744  	0.216484 
790.814560  	0.212180 
792.743376  	0.210269 
794.672192  	0.209865 
796.601008  	0.208947 
798.529824  	0.205523 
800.458640  	0.200483 
802.387456  	0.196440 
804.316272  	0.194764 
806.245088  	0.194255 
808.173904  	0.194060 
810.102720  	0.194296 
812.031536  	0.194953 
813.960352  	0.196015 
815.889168  	0.197552 
817.817984  	0.199439 
819.746800  	0.201559 
821.675616  	0.203505 
823.604432  	0.205362 
825.533248  	0.206721 
827.462064  	0.207759 
829.390880  	0.207983 
831.319696  	0.207936 
833.248512  	0.206936 
835.177328  	0.205051 
837.106144  	0.201604 
839.034960  	0.197536 
840.963776  	0.192695 
842.892592  	0.187355 
844.821408  	0.182237 
846.750224  	0.177935 
848.679040  	0.174463 
850.607856  	0.171600 
852.536672  	0.169900 
854.465488  	0.168970 
856.394304  	0.168400 
858.323120  	0.167246 
860.251936  	0.165428 
862.180752  	0.163625 
864.109568  	0.161672 
866.038384  	0.159674 
867.967200  	0.157390 
869.896016  	0.156059 
871.824832  	0.155471 
873.753648  	0.156278 
875.682464  	0.157939 
877.611280  	0.160557 
879.540096  	0.163913 
881.468912  	0.167837 
883.397728  	0.171841 
885.326544  	0.174662 
887.255360  	0.176409 
889.184176  	0.176851 
891.112992  	0.175907 
893.041808  	0.173874 
894.970624  	0.170525 
896.899440  	0.165517 
898.828256  	0.159209 
900.757072  	0.153179 
902.685888  	0.148310 
904.614704  	0.145752 
906.543520  	0.145984 
908.472336  	0.148846 
910.401152  	0.152938 
912.329968  	0.157461 
914.258784  	0.161826 
916.187600  	0.165965 
918.116416  	0.169526 
920.045232  	0.172167 
921.974048  	0.174099 
923.902864  	0.175718 
925.831680  	0.177334 
927.760496  	0.179367 
929.689312  	0.181520 
931.618128  	0.183843 
933.546944  	0.185395 
935.475760  	0.186127 
937.404576  	0.185963 
939.333392  	0.185215 
941.262208  	0.184911 
943.191024  	0.186621 
945.119840  	0.191673 
947.048656  	0.200480 
948.977472  	0.213466 
950.906288  	0.229852 
952.835104  	0.249017 
954.763920  	0.269854 
956.692736  	0.289563 
958.621552  	0.306306 
960.550368  	0.316838 
962.479184  	0.321190 
964.408000  	0.318164 
966.336816  	0.308895 
968.265632  	0.293998 
970.194448  	0.275634 
972.123264  	0.255083 
974.052080  	0.234349 
975.980896  	0.214577 
977.909712  	0.196492 
979.838528  	0.180850 
981.767344  	0.167961 
983.696160  	0.158631 
985.624976  	0.153176 
987.553792  	0.151905 
989.482608  	0.154891 
991.411424  	0.161649 
993.340240  	0.171124 
995.269056  	0.181799 
997.197872  	0.193307 
999.126688  	0.204898 
1001.055504  	0.216757 
1002.984320  	0.227833 
1004.913136  	0.238992 
1006.841952  	0.249752 
1008.770768  	0.259366 
1010.699584  	0.266516 
1012.628400  	0.271505 
1014.557216  	0.274366 
1016.486032  	0.275142 
1018.414848  	0.274504 
1020.343664  	0.273649 
1022.272480  	0.272769 
1024.201296  	0.271831 
1026.130112  	0.271256 
1028.058928  	0.272534 
1029.987744  	0.275844 
1031.916560  	0.280833 
1033.845376  	0.287151 
1035.774192  	0.295708 
1037.703008  	0.306633 
1039.631824  	0.321561 
1041.560640  	0.340461 
1043.489456  	0.363164 
1045.418272  	0.385719 
1047.347088  	0.404499 
1049.275904  	0.414218 
1051.204720  	0.415447 
1053.133536  	0.409582 
1055.062352  	0.400760 
1056.991168  	0.391568 
1058.919984  	0.384537 
1060.848800  	0.378492 
1062.777616  	0.373589 
1064.706432  	0.368201 
1066.635248  	0.362422 
1068.564064  	0.354666 
1070.492880  	0.345381 
1072.421696  	0.336550 
1074.350512  	0.332000 
1076.279328  	0.331874 
1078.208144  	0.336202 
1080.136960  	0.341853 
1082.065776  	0.344962 
1083.994592  	0.341873 
1085.923408  	0.333800 
1087.852224  	0.321141 
1089.781040  	0.307089 
1091.709856  	0.291458 
1093.638672  	0.274952 
1095.567488  	0.257485 
1097.496304  	0.240130 
1099.425120  	0.223442 
1101.353936  	0.207913 
1103.282752  	0.193339 
1105.211568  	0.179590 
1107.140384  	0.167174 
1109.069200  	0.156320 
1110.998016  	0.146501 
1112.926832  	0.137605 
1114.855648  	0.129407 
1116.784464  	0.121405 
1118.713280  	0.113441 
1120.642096  	0.105911 
1122.570912  	0.098954 
1124.499728  	0.092686 
1126.428544  	0.087227 
1128.357360  	0.082589 
1130.286176  	0.078685 
1132.214992  	0.075615 
1134.143808  	0.073350 
1136.072624  	0.071554 
1138.001440  	0.069692 
1139.930256  	0.067931 
1141.859072  	0.066222 
1143.787888  	0.064420 
1145.716704  	0.062554 
1147.645520  	0.060866 
1149.574336  	0.059996 
1151.503152  	0.059443 
1153.431968  	0.059549 
1155.360784  	0.060064 
1157.289600  	0.061634 
1159.218416  	0.063840 
1161.147232  	0.066535 
1163.076048  	0.069545 
1165.004864  	0.072566 
1166.933680  	0.075293 
1168.862496  	0.078129 
1170.791312  	0.081358 
1172.720128  	0.085179 
1174.648944  	0.089622 
1176.577760  	0.093832 
1178.506576  	0.098219 
1180.435392  	0.102780 
1182.364208  	0.107319 
1184.293024  	0.112410 
1186.221840  	0.118267 
1188.150656  	0.125055 
1190.079472  	0.132714 
1192.008288  	0.141865 
1193.937104  	0.152206 
1195.865920  	0.163510 
1197.794736  	0.175725 
1199.723552  	0.188656 
1201.652368  	0.201209 
1203.581184  	0.212733 
1205.510000  	0.223635 
1207.438816  	0.232495 
1209.367632  	0.239659 
1211.296448  	0.244812 
1213.225264  	0.248476 
1215.154080  	0.250090 
1217.082896  	0.250250 
1219.011712  	0.248579 
1220.940528  	0.246235 
1222.869344  	0.243019 
1224.798160  	0.239345 
1226.726976  	0.234661 
1228.655792  	0.229261 
1230.584608  	0.223208 
1232.513424  	0.216719 
1234.442240  	0.209727 
1236.371056  	0.202328 
1238.299872  	0.194428 
1240.228688  	0.185924 
1242.157504  	0.177226 
1244.086320  	0.168835 
1246.015136  	0.160462 
1247.943952  	0.152474 
1249.872768  	0.144604 
1251.801584  	0.137267 
1253.730400  	0.130106 
1255.659216  	0.122962 
1257.588032  	0.116208 
1259.516848  	0.110225 
1261.445664  	0.104507 
1263.374480  	0.099283 
1265.303296  	0.094808 
1267.232112  	0.091326 
1269.160928  	0.088927 
1271.089744  	0.087477 
1273.018560  	0.086967 
1274.947376  	0.087281 
1276.876192  	0.088273 
1278.805008  	0.089001 
1280.733824  	0.088774 
1282.662640  	0.086989 
1284.591456  	0.084644 
1286.520272  	0.082745 
1288.449088  	0.081833 
1290.377904  	0.081913 
1292.306720  	0.083049 
1294.235536  	0.084055 
1296.164352  	0.083841 
1298.093168  	0.081663 
1300.021984  	0.078432 
1301.950800  	0.074941 
1303.879616  	0.071157 
1305.808432  	0.067178 
1307.737248  	0.063030 
1309.666064  	0.058944 
1311.594880  	0.056003 
1313.523696  	0.054050 
1315.452512  	0.052508 
1317.381328  	0.052025 
1319.310144  	0.052388 
1321.238960  	0.052757 
1323.167776  	0.053600 
1325.096592  	0.054635 
1327.025408  	0.055223 
1328.954224  	0.055076 
1330.883040  	0.054232 
1332.811856  	0.052805 
1334.740672  	0.051607 
1336.669488  	0.051546 
1338.598304  	0.052598 
1340.527120  	0.052371 
1342.455936  	0.050195 
1344.384752  	0.049589 
1346.313568  	0.050064 
1348.242384  	0.051078 
1350.171200  	0.052617 
1352.100016  	0.054491 
1354.028832  	0.056887 
1355.957648  	0.059532 
1357.886464  	0.061816 
1359.815280  	0.064305 
1361.744096  	0.068148 
1363.672912  	0.071806 
1365.601728  	0.072777 
1367.530544  	0.074769 
1369.459360  	0.077215 
1371.388176  	0.077888 
1373.316992  	0.078216 
1375.245808  	0.077161 
1377.174624  	0.073455 
1379.103440  	0.069992 
1381.032256  	0.066519 
1382.961072  	0.063732 
1384.889888  	0.061813 
1386.818704  	0.061437 
1388.747520  	0.059554 
1390.676336  	0.056151 
1392.605152  	0.053717 
1394.533968  	0.053958 
1396.462784  	0.054670 
1398.391600  	0.054358 
1400.320416  	0.054466 
1402.249232  	0.053708 
1404.178048  	0.055098 
1406.106864  	0.056697 
1408.035680  	0.057493 
1409.964496  	0.059365 
1411.893312  	0.062029 
1413.822128  	0.064256 
1415.750944  	0.067133 
1417.679760  	0.070252 
1419.608576  	0.073155 
1421.537392  	0.071721 
1423.466208  	0.070566 
1425.395024  	0.068628 
1427.323840  	0.065081 
1429.252656  	0.062732 
1431.181472  	0.060790 
1433.110288  	0.059164 
1435.039104  	0.059142 
1436.967920  	0.063090 
1438.896736  	0.064103 
1440.825552  	0.063938 
1442.754368  	0.064626 
1444.683184  	0.064647 
1446.612000  	0.065182 
1448.540816  	0.066360 
1450.469632  	0.066214 
1452.398448  	0.066357 
1454.327264  	0.066396 
1456.256080  	0.068112 
1458.184896  	0.071656 
1460.113712  	0.068306 
1462.042528  	0.065269 
1463.971344  	0.064885 
1465.900160  	0.066753 
1467.828976  	0.066667 
1469.757792  	0.067300 
1471.686608  	0.072298 
1473.615424  	0.083399 
1475.544240  	0.088489 
1477.473056  	0.093828 
1479.401872  	0.096824 
1481.330688  	0.101175 
1483.259504  	0.103867 
1485.188320  	0.105133 
1487.117136  	0.106735 
1489.045952  	0.109182 
1490.974768  	0.107726 
1492.903584  	0.101839 
1494.832400  	0.095919 
1496.761216  	0.090953 
1498.690032  	0.084184 
1500.618848  	0.077223 
1502.547664  	0.070274 
1504.476480  	0.064734 
1506.405296  	0.065407 
1508.334112  	0.067349 
1510.262928  	0.061228 
1512.191744  	0.057221 
1514.120560  	0.055439 
1516.049376  	0.057069 
1517.978192  	0.059478 
1519.907008  	0.059617 
1521.835824  	0.066829 
1523.764640  	0.070309 
1525.693456  	0.073225 
1527.622272  	0.075873 
1529.551088  	0.074565 
1531.479904  	0.071814 
1533.408720  	0.070268 
1535.337536  	0.065996 
1537.266352  	0.060520 
1539.195168  	0.058261 
1541.123984  	0.058806 
1543.052800  	0.056828 
1544.981616  	0.054613 
1546.910432  	0.051106 
1548.839248  	0.049993 
1550.768064  	0.051588 
1552.696880  	0.050426 
1554.625696  	0.052112 
1556.554512  	0.051698 
1558.483328  	0.056747 
1560.412144  	0.066614 
1562.340960  	0.064686 
1564.269776  	0.066602 
1566.198592  	0.071971 
1568.127408  	0.075379 
1570.056224  	0.085484 
1571.985040  	0.090633 
1573.913856  	0.092484 
1575.842672  	0.097863 
1577.771488  	0.103912 
1579.700304  	0.101486 
1581.629120  	0.100154 
1583.557936  	0.099530 
1585.486752  	0.100914 
1587.415568  	0.103775 
1589.344384  	0.109469 
1591.273200  	0.116495 
1593.202016  	0.125163 
1595.130832  	0.134503 
1597.059648  	0.143707 
1598.988464  	0.150680 
1600.917280  	0.157589 
1602.846096  	0.162520 
1604.774912  	0.165412 
1606.703728  	0.165535 
1608.632544  	0.165370 
1610.561360  	0.162978 
1612.490176  	0.160519 
1614.418992  	0.156940 
1616.347808  	0.158594 
1618.276624  	0.162622 
1620.205440  	0.163164 
1622.134256  	0.165859 
1624.063072  	0.175961 
1625.991888  	0.181290 
1627.920704  	0.189709 
1629.849520  	0.199047 
1631.778336  	0.205157 
1633.707152  	0.209201 
1635.635968  	0.221567 
1637.564784  	0.232917 
1639.493600  	0.233426 
1641.422416  	0.234384 
1643.351232  	0.234590 
1645.280048  	0.233465 
1647.208864  	0.239263 
1649.137680  	0.237309 
1651.066496  	0.229513 
1652.995312  	0.229920 
1654.924128  	0.234400 
1656.852944  	0.226081 
1658.781760  	0.220312 
1660.710576  	0.215506 
1662.639392  	0.212495 
1664.568208  	0.207756 
1666.497024  	0.200600 
1668.425840  	0.195145 
1670.354656  	0.191432 
1672.283472  	0.185132 
1674.212288  	0.179189 
1676.141104  	0.176601 
1678.069920  	0.171995 
1679.998736  	0.169464 
1681.927552  	0.166199 
1683.856368  	0.166294 
1685.785184  	0.169015 
1687.714000  	0.164618 
1689.642816  	0.163165 
1691.571632  	0.160802 
1693.500448  	0.157117 
1695.429264  	0.156520 
1697.358080  	0.158319 
1699.286896  	0.154483 
1701.215712  	0.156326 
1703.144528  	0.151426 
1705.073344  	0.147757 
1707.002160  	0.144089 
1708.930976  	0.137957 
1710.859792  	0.131252 
1712.788608  	0.123967 
1714.717424  	0.116255 
1716.646240  	0.107393 
1718.575056  	0.095769 
1720.503872  	0.083624 
1722.432688  	0.073409 
1724.361504  	0.063024 
1726.290320  	0.053803 
1728.219136  	0.046548 
1730.147952  	0.041078 
1732.076768  	0.035453 
1734.005584  	0.032671 
1735.934400  	0.028067 
1737.863216  	0.023766 
1739.792032  	0.021386 
1741.720848  	0.019724 
1743.649664  	0.018713 
1745.578480  	0.017114 
1747.507296  	0.015843 
1749.436112  	0.016031 
1751.364928  	0.015166 
1753.293744  	0.012697 
1755.222560  	0.010638 
1757.151376  	0.011507 
1759.080192  	0.010222 
1761.009008  	0.009704 
1762.937824  	0.009683 
1764.866640  	0.008175 
1766.795456  	0.007548 
1768.724272  	0.008245 
1770.653088  	0.007009 
1772.581904  	0.008637 
1774.510720  	0.008432 
1776.439536  	0.007204 
1778.368352  	0.005929 
1780.297168  	0.006318 
1782.225984  	0.005799 
1784.154800  	0.005450 
1786.083616  	0.005178 
1788.012432  	0.004340 
1789.941248  	0.004300 
1791.870064  	0.006028 
1793.798880  	0.006097 
1795.727696  	0.005130 
1797.656512  	0.003941 
1799.585328  	0.003954 
1801.514144  	0.004951 
1803.442960  	0.004220 
1805.371776  	0.003029 
1807.300592  	0.002741 
1809.229408  	0.002632 
1811.158224  	0.003128 
1813.087040  	0.002732 
1815.015856  	0.001875 
1816.944672  	0.002106 
1818.873488  	0.002407 
1820.802304  	0.002155 
1822.731120  	0.002278 
1824.659936  	0.002686 
1826.588752  	0.002760 
1828.517568  	0.002011 
1830.446384  	0.003322 
1832.375200  	0.002485 
1834.304016  	0.001721 
1836.232832  	0.001797 
1838.161648  	0.002230 
1840.090464  	0.001734 
1842.019280  	0.001348 
1843.948096  	0.002437 
1845.876912  	0.003210 
1847.805728  	0.002164 
1849.734544  	0.001644 
1851.663360  	0.001087 
1853.592176  	0.001331 
1855.520992  	0.001143 
1857.449808  	0.001377 
1859.378624  	0.000979 
1861.307440  	0.001079 
1863.236256  	0.000609 
1865.165072  	0.000516 
1867.093888  	0.001141 
1869.022704  	0.003371 
1870.951520  	0.002829 
1872.880336  	0.001416 
1874.809152  	0.000750 
1876.737968  	0.000729 
1878.666784  	0.000600 
1880.595600  	0.000393 
1882.524416  	0.000444 
1884.453232  	0.000921 
1886.382048  	0.000576 
1888.310864  	0.001107 
1890.239680  	0.001652 
1892.168496  	0.001290 
1894.097312  	0.001021 
1896.026128  	0.001206 
1897.954944  	0.000558 
1899.883760  	0.000559 
1901.812576  	0.000407 
1903.741392  	0.000651 
1905.670208  	0.000246 
1907.599024  	0.000222 
1909.527840  	0.000732 
1911.456656  	0.001234 
1913.385472  	0.000833 
1915.314288  	0.000786 
1917.243104  	0.001191 
1919.171920  	0.002204 
1921.100736  	0.001357 
1923.029552  	0.001558 
1924.958368  	0.000285 
1926.887184  	-0.000218 
1928.816000  	-0.000462 
1930.744816  	0.000016 
1932.673632  	0.000285 
1934.602448  	0.000591 
1936.531264  	-0.000019 
1938.460080  	0.000014 
1940.388896  	0.000129 
1942.317712  	0.001479 
1944.246528  	0.000418 
1946.175344  	-0.000393 
1948.104160  	-0.000354 
1950.032976  	0.000132 
1951.961792  	-0.000521 
1953.890608  	-0.000728 
1955.819424  	-0.001406 
1957.748240  	-0.001705 
1959.677056  	-0.002277 
1961.605872  	-0.001648 
1963.534688  	-0.001807 
1965.463504  	-0.001158 
1967.392320  	-0.000422 
1969.321136  	0.000060 
1971.249952  	-0.001652 
1973.178768  	-0.001926 
1975.107584  	-0.000916 
1977.036400  	0.000799 
1978.965216  	0.000793 
1980.894032  	0.000392 
1982.822848  	-0.000124 
1984.751664  	0.000792 
1986.680480  	0.000867 
1988.609296  	0.001023 
1990.538112  	0.000743 
1992.466928  	0.002149 
1994.395744  	0.000904 
1996.324560  	-0.000047 
1998.253376  	-0.000537 
2000.182192  	-0.000727 
2002.111008  	-0.001476 
2004.039824  	-0.001160 
2005.968640  	-0.001353 
2007.897456  	-0.000387 
2009.826272  	0.000205 
2011.755088  	0.000887 
2013.683904  	-0.000129 
2015.612720  	-0.000094 
2017.541536  	0.001400 
2019.470352  	0.002615 
2021.399168  	0.001070 
2023.327984  	0.000890 
2025.256800  	0.001148 
2027.185616  	0.001831 
2029.114432  	0.001486 
2031.043248  	0.002267 
2032.972064  	0.002244 
2034.900880  	0.002748 
2036.829696  	0.002675 
2038.758512  	0.003048 
2040.687328  	0.002227 
2042.616144  	0.002549 
2044.544960  	0.001822 
2046.473776  	0.002280 
2048.402592  	0.003986 
2050.331408  	0.004240 
2052.260224  	0.002806 
2054.189040  	0.003047 
2056.117856  	0.002665 
2058.046672  	0.002138 
2059.975488  	0.002248 
2061.904304  	0.002908 
2063.833120  	0.003019 
2065.761936  	0.003432 
2067.690752  	0.003441 
2069.619568  	0.003609 
2071.548384  	0.003113 
2073.477200  	0.003429 
2075.406016  	0.003676 
2077.334832  	0.004120 
2079.263648  	0.004247 
2081.192464  	0.004394 
2083.121280  	0.003813 
2085.050096  	0.003636 
2086.978912  	0.003506 
2088.907728  	0.003590 
2090.836544  	0.003505 
2092.765360  	0.003786 
2094.694176  	0.004011 
2096.622992  	0.004468 
2098.551808  	0.004285 
2100.480624  	0.004634 
2102.409440  	0.004457 
2104.338256  	0.004505 
2106.267072  	0.004345 
2108.195888  	0.004662 
2110.124704  	0.004754 
2112.053520  	0.004988 
2113.982336  	0.005064 
2115.911152  	0.004578 
2117.839968  	0.003773 
2119.768784  	0.003821 
2121.697600  	0.003736 
2123.626416  	0.003741 
2125.555232  	0.003442 
2127.484048  	0.003437 
2129.412864  	0.003616 
2131.341680  	0.003721 
2133.270496  	0.003923 
2135.199312  	0.004313 
2137.128128  	0.004035 
2139.056944  	0.004757 
2140.985760  	0.005394 
2142.914576  	0.005704 
2144.843392  	0.004672 
2146.772208  	0.004635 
2148.701024  	0.004453 
2150.629840  	0.004333 
2152.558656  	0.004394 
2154.487472  	0.005288 
2156.416288  	0.004920 
2158.345104  	0.007419 
2160.273920  	0.010788 
2162.202736  	0.009563 
2164.131552  	0.006780 
2166.060368  	0.007282 
2167.989184  	0.007114 
2169.918000  	0.006363 
2171.846816  	0.005774 
2173.775632  	0.006305 
2175.704448  	0.006289 
2177.633264  	0.006363 
2179.562080  	0.005549 
2181.490896  	0.006668 
2183.419712  	0.007785 
2185.348528  	0.007483 
2187.277344  	0.006367 
2189.206160  	0.006482 
2191.134976  	0.006429 
2193.063792  	0.005737 
2194.992608  	0.005363 
2196.921424  	0.005961 
2198.850240  	0.005242 
2200.779056  	0.004497 
2202.707872  	0.004321 
2204.636688  	0.005213 
2206.565504  	0.005139 
2208.494320  	0.004499 
2210.423136  	0.004223 
2212.351952  	0.004705 
2214.280768  	0.004675 
2216.209584  	0.004508 
2218.138400  	0.003409 
2220.067216  	0.003031 
2221.996032  	0.003403 
2223.924848  	0.004320 
2225.853664  	0.004006 
2227.782480  	0.003888 
2229.711296  	0.003432 
2231.640112  	0.003709 
2233.568928  	0.003765 
2235.497744  	0.003869 
2237.426560  	0.004312 
2239.355376  	0.004609 
2241.284192  	0.003775 
2243.213008  	0.003751 
2245.141824  	0.003343 
2247.070640  	0.003179 
2248.999456  	0.003453 
2250.928272  	0.003665 
2252.857088  	0.003375 
2254.785904  	0.003744 
2256.714720  	0.003913 
2258.643536  	0.003934 
2260.572352  	0.003994 
2262.501168  	0.004136 
2264.429984  	0.004066 
2266.358800  	0.004338 
2268.287616  	0.004232 
2270.216432  	0.003874 
2272.145248  	0.003944 
2274.074064  	0.004410 
2276.002880  	0.004379 
2277.931696  	0.004536 
2279.860512  	0.004463 
2281.789328  	0.004609 
2283.718144  	0.004659 
2285.646960  	0.005079 
2287.575776  	0.005127 
2289.504592  	0.005033 
2291.433408  	0.004931 
2293.362224  	0.005156 
2295.291040  	0.005110 
2297.219856  	0.005253 
2299.148672  	0.005533 
2301.077488  	0.005749 
2303.006304  	0.006106 
2304.935120  	0.006633 
2306.863936  	0.006652 
2308.792752  	0.006559 
2310.721568  	0.006476 
2312.650384  	0.006253 
2314.579200  	0.005931 
2316.508016  	0.006161 
2318.436832  	0.006120 
2320.365648  	0.006072 
2322.294464  	0.006022 
2324.223280  	0.005282 
2326.152096  	0.003427 
2328.080912  	0.002228 
2330.009728  	0.001952 
2331.938544  	0.001853 
2333.867360  	0.000994 
2335.796176  	0.000222 
2337.724992  	-0.000378 
2339.653808  	-0.000550 
2341.582624  	0.000155 
2343.511440  	0.001834 
2345.440256  	0.003710 
2347.369072  	0.004574 
2349.297888  	0.003376 
2351.226704  	0.001409 
2353.155520  	-0.000364 
2355.084336  	-0.001232 
2357.013152  	-0.001468 
2358.941968  	-0.001428 
2360.870784  	-0.001659 
2362.799600  	-0.001258 
2364.728416  	-0.000419 
2366.657232  	0.000531 
2368.586048  	0.001471 
2370.514864  	0.002965 
2372.443680  	0.004351 
2374.372496  	0.005509 
2376.301312  	0.006057 
2378.230128  	0.006398 
2380.158944  	0.006371 
2382.087760  	0.005855 
2384.016576  	0.005105 
2385.945392  	0.004536 
2387.874208  	0.004333 
2389.803024  	0.004035 
2391.731840  	0.003583 
2393.660656  	0.003668 
2395.589472  	0.003783 
2397.518288  	0.003672 
2399.447104  	0.003571 
2401.375920  	0.003717 
2403.304736  	0.003531 
2405.233552  	0.003449 
2407.162368  	0.003566 
2409.091184  	0.003714 
2411.020000  	0.003684 
2412.948816  	0.003693 
2414.877632  	0.003752 
2416.806448  	0.003941 
2418.735264  	0.004037 
2420.664080  	0.004192 
2422.592896  	0.004065 
2424.521712  	0.003951 
2426.450528  	0.004004 
2428.379344  	0.004261 
2430.308160  	0.004375 
2432.236976  	0.004435 
2434.165792  	0.004683 
2436.094608  	0.004966 
2438.023424  	0.005022 
2439.952240  	0.005141 
2441.881056  	0.005180 
2443.809872  	0.005039 
2445.738688  	0.004926 
2447.667504  	0.004980 
2449.596320  	0.005345 
2451.525136  	0.005649 
2453.453952  	0.005557 
2455.382768  	0.005478 
2457.311584  	0.005297 
2459.240400  	0.005194 
2461.169216  	0.005369 
2463.098032  	0.005560 
2465.026848  	0.005375 
2466.955664  	0.005310 
2468.884480  	0.005260 
2470.813296  	0.005285 
2472.742112  	0.005556 
2474.670928  	0.005702 
2476.599744  	0.005982 
2478.528560  	0.006198 
2480.457376  	0.006195 
2482.386192  	0.006310 
2484.315008  	0.006181 
2486.243824  	0.006303 
2488.172640  	0.006721 
2490.101456  	0.006905 
2492.030272  	0.006762 
2493.959088  	0.006613 
2495.887904  	0.006557 
2497.816720  	0.006951 
2499.745536  	0.007285 
2501.674352  	0.007199 
2503.603168  	0.007046 
2505.531984  	0.007204 
2507.460800  	0.007356 
2509.389616  	0.007290 
2511.318432  	0.007348 
2513.247248  	0.007622 
2515.176064  	0.007798 
2517.104880  	0.007776 
2519.033696  	0.007692 
2520.962512  	0.007883 
2522.891328  	0.007986 
2524.820144  	0.008140 
2526.748960  	0.008198 
2528.677776  	0.008371 
2530.606592  	0.008480 
2532.535408  	0.008523 
2534.464224  	0.008407 
2536.393040  	0.008286 
2538.321856  	0.008385 
2540.250672  	0.008690 
2542.179488  	0.008921 
2544.108304  	0.009107 
2546.037120  	0.009329 
2547.965936  	0.009513 
2549.894752  	0.009592 
2551.823568  	0.009716 
2553.752384  	0.009694 
2555.681200  	0.009688 
2557.610016  	0.009802 
2559.538832  	0.009872 
2561.467648  	0.010010 
2563.396464  	0.010353 
2565.325280  	0.010542 
2567.254096  	0.010503 
2569.182912  	0.010556 
2571.111728  	0.010717 
2573.040544  	0.010726 
2574.969360  	0.010948 
2576.898176  	0.011288 
2578.826992  	0.011393 
2580.755808  	0.011350 
2582.684624  	0.011625 
2584.613440  	0.011841 
2586.542256  	0.012066 
2588.471072  	0.012078 
2590.399888  	0.012074 
2592.328704  	0.012179 
2594.257520  	0.012399 
2596.186336  	0.012400 
2598.115152  	0.012638 
2600.043968  	0.012949 
2601.972784  	0.012878 
2603.901600  	0.012990 
2605.830416  	0.012986 
2607.759232  	0.013078 
2609.688048  	0.013226 
2611.616864  	0.013404 
2613.545680  	0.013653 
2615.474496  	0.013832 
2617.403312  	0.014065 
2619.332128  	0.014248 
2621.260944  	0.014260 
2623.189760  	0.014218 
2625.118576  	0.014581 
2627.047392  	0.014842 
2628.976208  	0.015019 
2630.905024  	0.015245 
2632.833840  	0.015451 
2634.762656  	0.015575 
2636.691472  	0.015759 
2638.620288  	0.015938 
2640.549104  	0.016222 
2642.477920  	0.016524 
2644.406736  	0.016564 
2646.335552  	0.016617 
2648.264368  	0.016837 
2650.193184  	0.017164 
2652.122000  	0.017381 
2654.050816  	0.017568 
2655.979632  	0.017822 
2657.908448  	0.017965 
2659.837264  	0.018115 
2661.766080  	0.018241 
2663.694896  	0.018369 
2665.623712  	0.018508 
2667.552528  	0.018714 
2669.481344  	0.018818 
2671.410160  	0.018910 
2673.338976  	0.019166 
2675.267792  	0.019456 
2677.196608  	0.019711 
2679.125424  	0.019950 
2681.054240  	0.020083 
2682.983056  	0.020344 
2684.911872  	0.020521 
2686.840688  	0.020571 
2688.769504  	0.020759 
2690.698320  	0.021046 
2692.627136  	0.021184 
2694.555952  	0.021263 
2696.484768  	0.021383 
2698.413584  	0.021581 
2700.342400  	0.021716 
2702.271216  	0.021974 
2704.200032  	0.022236 
2706.128848  	0.022413 
2708.057664  	0.022589 
2709.986480  	0.022756 
2711.915296  	0.022925 
2713.844112  	0.023157 
2715.772928  	0.023335 
2717.701744  	0.023425 
2719.630560  	0.023624 
2721.559376  	0.023834 
2723.488192  	0.023977 
2725.417008  	0.024232 
2727.345824  	0.024489 
2729.274640  	0.024829 
2731.203456  	0.024998 
2733.132272  	0.025095 
2735.061088  	0.025315 
2736.989904  	0.025411 
2738.918720  	0.025599 
2740.847536  	0.025858 
2742.776352  	0.026120 
2744.705168  	0.026311 
2746.633984  	0.026412 
2748.562800  	0.026646 
2750.491616  	0.026751 
2752.420432  	0.026748 
2754.349248  	0.026754 
2756.278064  	0.026795 
2758.206880  	0.026795 
2760.135696  	0.026840 
2762.064512  	0.026898 
2763.993328  	0.026989 
2765.922144  	0.027066 
2767.850960  	0.027050 
2769.779776  	0.026940 
2771.708592  	0.026890 
2773.637408  	0.026884 
2775.566224  	0.026936 
2777.495040  	0.026936 
2779.423856  	0.026871 
2781.352672  	0.026906 
2783.281488  	0.026931 
2785.210304  	0.026873 
2787.139120  	0.026931 
2789.067936  	0.026944 
2790.996752  	0.026966 
2792.925568  	0.027024 
2794.854384  	0.026989 
2796.783200  	0.027116 
2798.712016  	0.027157 
2800.640832  	0.027124 
2802.569648  	0.027240 
2804.498464  	0.027262 
2806.427280  	0.027319 
2808.356096  	0.027449 
2810.284912  	0.027416 
2812.213728  	0.027336 
2814.142544  	0.027480 
2816.071360  	0.027537 
2818.000176  	0.027611 
2819.928992  	0.027681 
2821.857808  	0.027582 
2823.786624  	0.027455 
2825.715440  	0.027498 
2827.644256  	0.027564 
2829.573072  	0.027525 
2831.501888  	0.027533 
2833.430704  	0.027605 
2835.359520  	0.027522 
2837.288336  	0.027337 
2839.217152  	0.027249 
2841.145968  	0.027189 
2843.074784  	0.027126 
2845.003600  	0.027152 
2846.932416  	0.027184 
2848.861232  	0.027384 
2850.790048  	0.027492 
2852.718864  	0.027597 
2854.647680  	0.027696 
2856.576496  	0.027819 
2858.505312  	0.027960 
2860.434128  	0.028164 
2862.362944  	0.028327 
2864.291760  	0.028451 
2866.220576  	0.028671 
2868.149392  	0.028825 
2870.078208  	0.028973 
2872.007024  	0.029421 
2873.935840  	0.029982 
2875.864656  	0.030464 
2877.793472  	0.030935 
2879.722288  	0.031564 
2881.651104  	0.032155 
2883.579920  	0.032600 
2885.508736  	0.033071 
2887.437552  	0.033431 
2889.366368  	0.033540 
2891.295184  	0.033623 
2893.224000  	0.033663 
2895.152816  	0.033797 
2897.081632  	0.033936 
2899.010448  	0.033751 
2900.939264  	0.033451 
2902.868080  	0.033725 
2904.796896  	0.034159 
2906.725712  	0.034414 
2908.654528  	0.034814 
2910.583344  	0.035275 
2912.512160  	0.035687 
2914.440976  	0.036308 
2916.369792  	0.037063 
2918.298608  	0.037691 
2920.227424  	0.038291 
2922.156240  	0.038875 
2924.085056  	0.039657 
2926.013872  	0.040390 
2927.942688  	0.041328 
2929.871504  	0.042421 
2931.800320  	0.043279 
2933.729136  	0.044137 
2935.657952  	0.044966 
2937.586768  	0.045796 
2939.515584  	0.046477 
2941.444400  	0.046935 
2943.373216  	0.047378 
2945.302032  	0.047938 
2947.230848  	0.048227 
2949.159664  	0.048197 
2951.088480  	0.047963 
2953.017296  	0.047871 
2954.946112  	0.047732 
2956.874928  	0.047633 
2958.803744  	0.047505 
2960.732560  	0.047304 
2962.661376  	0.047184 
2964.590192  	0.046951 
2966.519008  	0.046638 
2968.447824  	0.046333 
2970.376640  	0.046122 
2972.305456  	0.045862 
2974.234272  	0.045859 
2976.163088  	0.045878 
2978.091904  	0.045758 
2980.020720  	0.045668 
2981.949536  	0.045597 
2983.878352  	0.045632 
2985.807168  	0.045519 
2987.735984  	0.045518 
2989.664800  	0.045715 
2991.593616  	0.046216 
2993.522432  	0.046685 
2995.451248  	0.047059 
2997.380064  	0.047386 
2999.308880  	0.047851 
3001.237696  	0.048474 
3003.166512  	0.049040 
3005.095328  	0.049526 
3007.024144  	0.050134 
3008.952960  	0.050985 
3010.881776  	0.051690 
3012.810592  	0.052411 
3014.739408  	0.053181 
3016.668224  	0.053835 
3018.597040  	0.054499 
3020.525856  	0.055176 
3022.454672  	0.055802 
3024.383488  	0.056452 
3026.312304  	0.057226 
3028.241120  	0.057814 
3030.169936  	0.058375 
3032.098752  	0.059342 
3034.027568  	0.060020 
3035.956384  	0.060730 
3037.885200  	0.061439 
3039.814016  	0.062286 
3041.742832  	0.063162 
3043.671648  	0.063952 
3045.600464  	0.064585 
3047.529280  	0.065163 
3049.458096  	0.065985 
3051.386912  	0.066736 
3053.315728  	0.067535 
3055.244544  	0.068442 
3057.173360  	0.069430 
3059.102176  	0.070326 
3061.030992  	0.071316 
3062.959808  	0.072111 
3064.888624  	0.073195 
3066.817440  	0.074567 
3068.746256  	0.075522 
3070.675072  	0.076344 
3072.603888  	0.077441 
3074.532704  	0.078492 
3076.461520  	0.079511 
3078.390336  	0.080568 
3080.319152  	0.081697 
3082.247968  	0.082591 
3084.176784  	0.083459 
3086.105600  	0.084427 
3088.034416  	0.085497 
3089.963232  	0.086375 
3091.892048  	0.087264 
3093.820864  	0.088220 
3095.749680  	0.089540 
3097.678496  	0.090858 
3099.607312  	0.091786 
3101.536128  	0.093093 
3103.464944  	0.094141 
3105.393760  	0.094864 
3107.322576  	0.095685 
3109.251392  	0.096636 
3111.180208  	0.097563 
3113.109024  	0.098137 
3115.037840  	0.098956 
3116.966656  	0.099968 
3118.895472  	0.100838 
3120.824288  	0.101469 
3122.753104  	0.102197 
3124.681920  	0.102849 
3126.610736  	0.103450 
3128.539552  	0.104124 
3130.468368  	0.104590 
3132.397184  	0.105348 
3134.326000  	0.106357 
3136.254816  	0.107089 
3138.183632  	0.107689 
3140.112448  	0.108137 
3142.041264  	0.108837 
3143.970080  	0.109705 
3145.898896  	0.110428 
3147.827712  	0.111161 
3149.756528  	0.111934 
3151.685344  	0.112437 
3153.614160  	0.112945 
3155.542976  	0.113512 
3157.471792  	0.114325 
3159.400608  	0.115269 
3161.329424  	0.115984 
3163.258240  	0.116586 
3165.187056  	0.117106 
3167.115872  	0.117571 
3169.044688  	0.118101 
3170.973504  	0.118553 
3172.902320  	0.118773 
3174.831136  	0.119045 
3176.759952  	0.119447 
3178.688768  	0.119978 
3180.617584  	0.120350 
3182.546400  	0.120657 
3184.475216  	0.120758 
3186.404032  	0.121047 
3188.332848  	0.121108 
3190.261664  	0.120868 
3192.190480  	0.120923 
3194.119296  	0.120977 
3196.048112  	0.120819 
3197.976928  	0.121068 
3199.905744  	0.121193 
3201.834560  	0.121061 
3203.763376  	0.120735 
3205.692192  	0.120153 
3207.621008  	0.119899 
3209.549824  	0.120098 
3211.478640  	0.120074 
3213.407456  	0.119918 
3215.336272  	0.120102 
3217.265088  	0.119742 
3219.193904  	0.119636 
3221.122720  	0.119679 
3223.051536  	0.119248 
3224.980352  	0.118824 
3226.909168  	0.118551 
3228.837984  	0.118239 
3230.766800  	0.118066 
3232.695616  	0.118219 
3234.624432  	0.118224 
3236.553248  	0.118262 
3238.482064  	0.118418 
3240.410880  	0.118342 
3242.339696  	0.118318 
3244.268512  	0.118498 
3246.197328  	0.118607 
3248.126144  	0.118474 
3250.054960  	0.118710 
3251.983776  	0.119144 
3253.912592  	0.119631 
3255.841408  	0.119802 
3257.770224  	0.119769 
3259.699040  	0.119949 
3261.627856  	0.120274 
3263.556672  	0.120250 
3265.485488  	0.120359 
3267.414304  	0.120533 
3269.343120  	0.120677 
3271.271936  	0.120714 
3273.200752  	0.121012 
3275.129568  	0.121397 
3277.058384  	0.121570 
3278.987200  	0.121598 
3280.916016  	0.121713 
3282.844832  	0.121848 
3284.773648  	0.122058 
3286.702464  	0.122185 
3288.631280  	0.122504 
3290.560096  	0.122642 
3292.488912  	0.122662 
3294.417728  	0.122761 
3296.346544  	0.123157 
3298.275360  	0.123464 
3300.204176  	0.123460 
3302.132992  	0.123463 
3304.061808  	0.123943 
3305.990624  	0.124314 
3307.919440  	0.124707 
3309.848256  	0.125142 
3311.777072  	0.125220 
3313.705888  	0.125537 
3315.634704  	0.125801 
3317.563520  	0.125872 
3319.492336  	0.126017 
3321.421152  	0.126285 
3323.349968  	0.126369 
3325.278784  	0.126343 
3327.207600  	0.126527 
3329.136416  	0.126546 
3331.065232  	0.126453 
3332.994048  	0.126328 
3334.922864  	0.126302 
3336.851680  	0.126364 
3338.780496  	0.126227 
3340.709312  	0.125739 
3342.638128  	0.125533 
3344.566944  	0.125225 
3346.495760  	0.124893 
3348.424576  	0.124686 
3350.353392  	0.124422 
3352.282208  	0.123774 
3354.211024  	0.123205 
3356.139840  	0.122989 
3358.068656  	0.122671 
3359.997472  	0.122195 
3361.926288  	0.121889 
3363.855104  	0.121462 
3365.783920  	0.121050 
3367.712736  	0.120514 
3369.641552  	0.119995 
3371.570368  	0.119442 
3373.499184  	0.119104 
3375.428000  	0.118877 
3377.356816  	0.118569 
3379.285632  	0.118195 
3381.214448  	0.117545 
3383.143264  	0.116947 
3385.072080  	0.116863 
3387.000896  	0.116382 
3388.929712  	0.115714 
3390.858528  	0.115052 
3392.787344  	0.115082 
3394.716160  	0.114546 
3396.644976  	0.113945 
3398.573792  	0.113539 
3400.502608  	0.112637 
3402.431424  	0.111948 
3404.360240  	0.111198 
3406.289056  	0.110440 
3408.217872  	0.109976 
3410.146688  	0.109221 
3412.075504  	0.108413 
3414.004320  	0.108015 
3415.933136  	0.107469 
3417.861952  	0.106609 
3419.790768  	0.106446 
3421.719584  	0.106530 
3423.648400  	0.105345 
3425.577216  	0.103874 
3427.506032  	0.103182 
3429.434848  	0.102611 
3431.363664  	0.102286 
3433.292480  	0.101730 
3435.221296  	0.100938 
3437.150112  	0.099944 
3439.078928  	0.099046 
3441.007744  	0.098269 
3442.936560  	0.097904 
3444.865376  	0.096853 
3446.794192  	0.096788 
3448.723008  	0.096699 
3450.651824  	0.094880 
3452.580640  	0.093631 
3454.509456  	0.092838 
3456.438272  	0.092002 
3458.367088  	0.091142 
3460.295904  	0.090358 
3462.224720  	0.089825 
3464.153536  	0.088865 
3466.082352  	0.087633 
3468.011168  	0.086866 
3469.939984  	0.085923 
3471.868800  	0.084592 
3473.797616  	0.083332 
3475.726432  	0.082598 
3477.655248  	0.081361 
3479.584064  	0.080099 
3481.512880  	0.079962 
3483.441696  	0.079470 
3485.370512  	0.077756 
3487.299328  	0.076772 
3489.228144  	0.075747 
3491.156960  	0.074408 
3493.085776  	0.073604 
3495.014592  	0.073011 
3496.943408  	0.072425 
3498.872224  	0.071006 
3500.801040  	0.069958 
3502.729856  	0.070191 
3504.658672  	0.070013 
3506.587488  	0.068067 
3508.516304  	0.067152 
3510.445120  	0.067248 
3512.373936  	0.065872 
3514.302752  	0.064362 
3516.231568  	0.063150 
3518.160384  	0.062202 
3520.089200  	0.061247 
3522.018016  	0.060625 
3523.946832  	0.061037 
3525.875648  	0.060053 
3527.804464  	0.059371 
3529.733280  	0.058770 
3531.662096  	0.057161 
3533.590912  	0.055502 
3535.519728  	0.055036 
3537.448544  	0.054833 
3539.377360  	0.053234 
3541.306176  	0.051751 
3543.234992  	0.051182 
3545.163808  	0.052134 
3547.092624  	0.052611 
3549.021440  	0.050328 
3550.950256  	0.048263 
3552.879072  	0.048847 
3554.807888  	0.047644 
3556.736704  	0.045420 
3558.665520  	0.044706 
3560.594336  	0.044626 
3562.523152  	0.043233 
3564.451968  	0.041918 
3566.380784  	0.044812 
3568.309600  	0.047563 
3570.238416  	0.043023 
3572.167232  	0.039421 
3574.096048  	0.038266 
3576.024864  	0.037640 
3577.953680  	0.036740 
3579.882496  	0.035972 
3581.811312  	0.034796 
3583.740128  	0.033047 
3585.668944  	0.032004 
3587.597760  	0.035387 
3589.526576  	0.035042 
3591.455392  	0.030467 
3593.384208  	0.029218 
3595.313024  	0.030002 
3597.241840  	0.028831 
3599.170656  	0.026694 
3601.099472  	0.026349 
3603.028288  	0.025186 
3604.957104  	0.022787 
3606.885920  	0.022427 
3608.814736  	0.024038 
3610.743552  	0.022167 
3612.672368  	0.021250 
3614.601184  	0.021581 
3616.530000  	0.018491 
3618.458816  	0.018483 
3620.387632  	0.020105 
3622.316448  	0.017110 
3624.245264  	0.013602 
3626.174080  	0.010947 
3628.102896  	0.012165 
3630.031712  	0.018091 
3631.960528  	0.013307 
3633.889344  	0.010783 
3635.818160  	0.009394 
3637.746976  	0.007628 
3639.675792  	0.006649 
3641.604608  	0.005755 
3643.533424  	0.004416 
3645.462240  	0.001725 
3647.391056  	0.003077 
3649.319872  	0.007521 
3651.248688  	0.008817 
3653.177504  	0.002802 
3655.106320  	-0.000480 
3657.035136  	0.001806 
3658.963952  	0.000156 
3660.892768  	-0.001839 
3662.821584  	-0.002822 
3664.750400  	-0.003959 
3666.679216  	-0.005709 
3668.608032  	-0.006082 
3670.536848  	-0.001446 
3672.465664  	-0.003968 
3674.394480  	-0.006301 
3676.323296  	0.000543 
3678.252112  	-0.001935 
3680.180928  	-0.003867 
3682.109744  	-0.005771 
3684.038560  	-0.007270 
3685.967376  	-0.009096 
3687.896192  	-0.008471 
3689.825008  	-0.004000 
3691.753824  	-0.003294 
3693.682640  	-0.005546 
3695.611456  	-0.007241 
3697.540272  	-0.007628 
3699.469088  	-0.009065 
3701.397904  	-0.007730 
3703.326720  	-0.006367 
3705.255536  	-0.007951 
3707.184352  	-0.009423 
3709.113168  	-0.009475 
3711.041984  	-0.006093 
3712.970800  	-0.003119 
3714.899616  	-0.005548 
3716.828432  	-0.008162 
3718.757248  	-0.008404 
3720.686064  	-0.008362 
3722.614880  	-0.007252 
3724.543696  	-0.006910 
3726.472512  	-0.005880 
3728.401328  	-0.007089 
3730.330144  	-0.010585 
3732.258960  	-0.010121 
3734.187776  	-0.006938 
3736.116592  	-0.001795 
3738.045408  	-0.003469 
3739.974224  	-0.006810 
3741.903040  	-0.009954 
3743.831856  	-0.009368 
3745.760672  	-0.003831 
3747.689488  	-0.008197 
3749.618304  	-0.007487 
3751.547120  	-0.002441 
3753.475936  	-0.002636 
3755.404752  	-0.006714 
3757.333568  	-0.007959 
3759.262384  	-0.006400 
3761.191200  	-0.005790 
3763.120016  	-0.008714 
3765.048832  	-0.008395 
3766.977648  	-0.007728 
3768.906464  	-0.008253 
3770.835280  	-0.006021 
3772.764096  	-0.007277 
3774.692912  	-0.008873 
3776.621728  	-0.009800 
3778.550544  	-0.008953 
3780.479360  	-0.006406 
3782.408176  	-0.008004 
3784.336992  	-0.008174 
3786.265808  	-0.007297 
3788.194624  	-0.008243 
3790.123440  	-0.008776 
3792.052256  	-0.009025 
3793.981072  	-0.010275 
3795.909888  	-0.009210 
3797.838704  	-0.007623 
3799.767520  	-0.010159 
3801.696336  	-0.005830 
3803.625152  	-0.005558 
3805.553968  	-0.009442 
3807.482784  	-0.006148 
3809.411600  	-0.006469 
3811.340416  	-0.008942 
3813.269232  	-0.010952 
3815.198048  	-0.010076 
3817.126864  	-0.006272 
3819.055680  	-0.009249 
3820.984496  	-0.006061 
3822.913312  	-0.003574 
3824.842128  	-0.007878 
3826.770944  	-0.007809 
3828.699760  	-0.008113 
3830.628576  	-0.009201 
3832.557392  	-0.008410 
3834.486208  	-0.009446 
3836.415024  	-0.009619 
3838.343840  	-0.006580 
3840.272656  	-0.004462 
3842.201472  	-0.005793 
3844.130288  	-0.005931 
3846.059104  	-0.007264 
3847.987920  	-0.009543 
3849.916736  	-0.011187 
3851.845552  	-0.011512 
3853.774368  	-0.002118 
3855.703184  	-0.001343 
3857.632000  	-0.005424 
3859.560816  	-0.008603 
3861.489632  	-0.009293 
3863.418448  	-0.007814 
3865.347264  	-0.005344 
3867.276080  	-0.008208 
3869.204896  	-0.008198 
3871.133712  	-0.003925 
3873.062528  	-0.006557 
3874.991344  	-0.005556 
3876.920160  	-0.008385 
3878.848976  	-0.010128 
3880.777792  	-0.006253 
3882.706608  	-0.006479 
3884.635424  	-0.007893 
3886.564240  	-0.005146 
3888.493056  	-0.008582 
3890.421872  	-0.009590 
3892.350688  	-0.006144 
3894.279504  	-0.006817 
3896.208320  	-0.009484 
3898.137136  	-0.009702 
3900.065952  	-0.007028 
3901.994768  	-0.006101 
3903.923584  	-0.004414 
3905.852400  	-0.003770 
3907.781216  	-0.006843 
3909.710032  	-0.008869 
3911.638848  	-0.009176 
3913.567664  	-0.009436 
3915.496480  	-0.009150 
3917.425296  	-0.006856 
3919.354112  	-0.006649 
3921.282928  	-0.007434 
3923.211744  	-0.007797 
3925.140560  	-0.006386 
3927.069376  	-0.007548 
3928.998192  	-0.008599 
3930.927008  	-0.007349 
3932.855824  	-0.006127 
3934.784640  	-0.007136 
3936.713456  	-0.008330 
3938.642272  	-0.008679 
3940.571088  	-0.009057 
3942.499904  	-0.007309 
3944.428720  	-0.006804 
3946.357536  	-0.008362 
3948.286352  	-0.007532 
3950.215168  	-0.007164 
3952.143984  	-0.008161 
3954.072800  	-0.008737 
3956.001616  	-0.008564 
3957.930432  	-0.008153 
3959.859248  	-0.008015 
3961.788064  	-0.007776 
3963.716880  	-0.007996 
3965.645696  	-0.008738 
3967.574512  	-0.008969 
3969.503328  	-0.008806 
3971.432144  	-0.008496 
3973.360960  	-0.008069 
3975.289776  	-0.007514 
3977.218592  	-0.007738 
3979.147408  	-0.008253 
3981.076224  	-0.008397 
3983.005040  	-0.008466 
3984.933856  	-0.008431 
3986.862672  	-0.008225 
3988.791488  	-0.008342 
3990.720304  	-0.008129 
3992.649120  	-0.008305 
3994.577936  	-0.008282 
3996.506752  	-0.008192 
3998.435568  	-0.008352 
4000.364384  	-0.008411 