##TITLE=No Description
##DATA TYPE=INFRARED SPECTRUM
##XUNITS=1/CM
##YUNITS=Abs
399.264912  	0.343025 
401.193728  	0.337357 
403.122544  	0.338244 
405.051360  	0.329217 
406.980176  	0.328902 
408.908992  	0.325424 
410.837808  	0.322017 
412.766624  	0.317141 
414.695440  	0.316586 
416.624256  	0.320130 
418.553072  	0.332934 
420.481888  	0.322695 
422.410704  	0.315611 
424.339520  	0.313280 
426.268336  	0.307358 
428.197152  	0.305206 
430.125968  	0.306757 
432.054784  	0.302499 
433.983600  	0.302071 
435.912416  	0.301268 
437.841232  	0.295574 
439.770048  	0.293300 
441.698864  	0.293560 
443.627680  	0.290235 
445.556496  	0.292790 
447.485312  	0.290951 
449.414128  	0.290014 
451.342944  	0.292611 
453.271760  	0.291437 
455.200576  	0.285748 
457.129392  	0.288034 
459.058208  	0.283934 
460.987024  	0.282200 
462.915840  	0.281129 
464.844656  	0.278881 
466.773472  	0.278168 
468.702288  	0.278120 
470.631104  	0.278961 
472.559920  	0.283102 
474.488736  	0.278924 
476.417552  	0.275350 
478.346368  	0.271717 
480.275184  	0.272439 
482.204000  	0.274776 
484.132816  	0.276100 
486.061632  	0.274843 
487.990448  	0.273208 
489.919264  	0.274469 
491.848080  	0.275786 
493.776896  	0.274405 
495.705712  	0.271332 
497.634528  	0.268160 
499.563344  	0.269069 
501.492160  	0.269100 
503.420976  	0.269425 
505.349792  	0.267895 
507.278608  	0.267490 
509.207424  	0.264716 
511.136240  	0.265080 
513.065056  	0.265652 
514.993872  	0.268002 
516.922688  	0.270704 
518.851504  	0.271803 
520.780320  	0.268637 
522.709136  	0.266955 
524.637952  	0.266340 
526.566768  	0.265146 
528.495584  	0.262893 
530.424400  	0.261760 
532.353216  	0.260033 
534.282032  	0.257387 
536.210848  	0.255025 
538.139664  	0.252278 
540.068480  	0.249093 
541.997296  	0.247795 
543.926112  	0.245779 
545.854928  	0.244947 
547.783744  	0.242780 
549.712560  	0.241251 
551.641376  	0.239314 
553.570192  	0.238381 
555.499008  	0.235774 
557.427824  	0.234282 
559.356640  	0.231892 
561.285456  	0.230317 
563.214272  	0.229049 
565.143088  	0.227039 
567.071904  	0.225248 
569.000720  	0.224247 
570.929536  	0.222674 
572.858352  	0.220776 
574.787168  	0.219837 
576.715984  	0.219182 
578.644800  	0.216606 
580.573616  	0.213947 
582.502432  	0.211156 
584.431248  	0.208982 
586.360064  	0.206377 
588.288880  	0.204444 
590.217696  	0.203343 
592.146512  	0.203547 
594.075328  	0.201682 
596.004144  	0.199862 
597.932960  	0.198259 
599.861776  	0.198347 
601.790592  	0.196976 
603.719408  	0.195872 
605.648224  	0.195285 
607.577040  	0.194320 
609.505856  	0.193433 
611.434672  	0.192997 
613.363488  	0.191915 
615.292304  	0.191315 
617.221120  	0.190774 
619.149936  	0.189514 
621.078752  	0.188358 
623.007568  	0.187753 
624.936384  	0.187437 
626.865200  	0.186897 
628.794016  	0.186071 
630.722832  	0.185600 
632.651648  	0.185367 
634.580464  	0.185328 
636.509280  	0.185005 
638.438096  	0.184852 
640.366912  	0.184367 
642.295728  	0.183149 
644.224544  	0.181729 
646.153360  	0.180219 
648.082176  	0.177965 
650.010992  	0.176227 
651.939808  	0.174478 
653.868624  	0.172703 
655.797440  	0.170619 
657.726256  	0.168486 
659.655072  	0.166640 
661.583888  	0.164386 
663.512704  	0.161941 
665.441520  	0.159218 
667.370336  	0.157555 
669.299152  	0.158823 
671.227968  	0.154662 
673.156784  	0.151535 
675.085600  	0.150069 
677.014416  	0.148450 
678.943232  	0.146896 
680.872048  	0.146336 
682.800864  	0.146034 
684.729680  	0.145017 
686.658496  	0.143771 
688.587312  	0.143449 
690.516128  	0.142774 
692.444944  	0.142450 
694.373760  	0.141513 
696.302576  	0.140521 
698.231392  	0.139216 
700.160208  	0.137861 
702.089024  	0.136305 
704.017840  	0.134552 
705.946656  	0.133009 
707.875472  	0.131721 
709.804288  	0.130602 
711.733104  	0.129510 
713.661920  	0.128728 
715.590736  	0.128110 
717.519552  	0.127996 
719.448368  	0.127982 
721.377184  	0.127843 
723.306000  	0.127962 
725.234816  	0.128595 
727.163632  	0.128333 
729.092448  	0.126687 
731.021264  	0.124860 
732.950080  	0.122966 
734.878896  	0.121184 
736.807712  	0.119446 
738.736528  	0.118114 
740.665344  	0.117358 
742.594160  	0.116669 
744.522976  	0.115559 
746.451792  	0.114495 
748.380608  	0.113642 
750.309424  	0.112887 
752.238240  	0.111901 
754.167056  	0.111240 
756.095872  	0.111006 
758.024688  	0.110391 
759.953504  	0.109981 
761.882320  	0.110553 
763.811136  	0.110928 
765.739952  	0.109896 
767.668768  	0.108330 
769.597584  	0.107091 
771.526400  	0.106589 
773.455216  	0.107115 
775.384032  	0.108996 
777.312848  	0.111803 
779.241664  	0.114177 
781.170480  	0.113837 
783.099296  	0.111008 
785.028112  	0.108261 
786.956928  	0.105386 
788.885744  	0.102716 
790.814560  	0.100609 
792.743376  	0.099619 
794.672192  	0.099510 
796.601008  	0.099102 
798.529824  	0.097138 
800.458640  	0.094501 
802.387456  	0.092615 
804.316272  	0.091588 
806.245088  	0.090863 
808.173904  	0.090241 
810.102720  	0.089846 
812.031536  	0.089408 
813.960352  	0.089243 
815.889168  	0.089547 
817.817984  	0.089830 
819.746800  	0.090107 
821.675616  	0.090304 
823.604432  	0.090356 
825.533248  	0.090432 
827.462064  	0.090536 
829.390880  	0.090177 
831.319696  	0.089826 
833.248512  	0.089071 
835.177328  	0.088057 
837.106144  	0.086805 
839.034960  	0.085249 
840.963776  	0.083106 
842.892592  	0.080866 
844.821408  	0.078684 
846.750224  	0.076698 
848.679040  	0.075136 
850.607856  	0.073910 
852.536672  	0.072963 
854.465488  	0.072257 
856.394304  	0.071646 
858.323120  	0.070707 
860.251936  	0.069532 
862.180752  	0.068543 
864.109568  	0.067337 
866.038384  	0.065897 
867.967200  	0.064407 
869.896016  	0.063168 
871.824832  	0.062368 
873.753648  	0.062567 
875.682464  	0.062881 
877.611280  	0.063528 
879.540096  	0.064594 
881.468912  	0.065632 
883.397728  	0.066729 
885.326544  	0.067843 
887.255360  	0.068522 
889.184176  	0.068552 
891.112992  	0.068195 
893.041808  	0.067464 
894.970624  	0.066419 
896.899440  	0.064379 
898.828256  	0.061853 
900.757072  	0.059432 
902.685888  	0.057537 
904.614704  	0.056463 
906.543520  	0.056189 
908.472336  	0.056977 
910.401152  	0.058430 
912.329968  	0.060207 
914.258784  	0.061720 
916.187600  	0.063200 
918.116416  	0.064549 
920.045232  	0.065590 
921.974048  	0.066176 
923.902864  	0.066570 
925.831680  	0.066859 
927.760496  	0.067249 
929.689312  	0.067902 
931.618128  	0.068595 
933.546944  	0.069072 
935.475760  	0.069277 
937.404576  	0.069178 
939.333392  	0.068837 
941.262208  	0.068735 
943.191024  	0.069462 
945.119840  	0.071161 
947.048656  	0.074117 
948.977472  	0.078461 
950.906288  	0.083753 
952.835104  	0.089930 
954.763920  	0.096707 
956.692736  	0.103375 
958.621552  	0.109411 
960.550368  	0.113751 
962.479184  	0.116287 
964.408000  	0.116310 
966.336816  	0.114085 
968.265632  	0.109810 
970.194448  	0.103912 
972.123264  	0.096736 
974.052080  	0.089139 
975.980896  	0.081552 
977.909712  	0.074204 
979.838528  	0.067749 
981.767344  	0.062391 
983.696160  	0.058340 
985.624976  	0.055729 
987.553792  	0.054966 
989.482608  	0.055579 
991.411424  	0.057618 
993.340240  	0.060797 
995.269056  	0.064415 
997.197872  	0.068417 
999.126688  	0.072416 
1001.055504  	0.076643 
1002.984320  	0.080454 
1004.913136  	0.084143 
1006.841952  	0.087721 
1008.770768  	0.090925 
1010.699584  	0.093354 
1012.628400  	0.095206 
1014.557216  	0.096622 
1016.486032  	0.097330 
1018.414848  	0.097433 
1020.343664  	0.097138 
1022.272480  	0.096987 
1024.201296  	0.096739 
1026.130112  	0.096116 
1028.058928  	0.096036 
1029.987744  	0.096921 
1031.916560  	0.098123 
1033.845376  	0.099660 
1035.774192  	0.101804 
1037.703008  	0.104469 
1039.631824  	0.108732 
1041.560640  	0.114476 
1043.489456  	0.121544 
1045.418272  	0.129273 
1047.347088  	0.136936 
1049.275904  	0.142434 
1051.204720  	0.145304 
1053.133536  	0.145893 
1055.062352  	0.144886 
1056.991168  	0.143048 
1058.919984  	0.141808 
1060.848800  	0.140784 
1062.777616  	0.139456 
1064.706432  	0.137612 
1066.635248  	0.135607 
1068.564064  	0.133532 
1070.492880  	0.130632 
1072.421696  	0.127435 
1074.350512  	0.125530 
1076.279328  	0.125084 
1078.208144  	0.126743 
1080.136960  	0.129338 
1082.065776  	0.131328 
1083.994592  	0.131576 
1085.923408  	0.130158 
1087.852224  	0.126848 
1089.781040  	0.122638 
1091.709856  	0.117350 
1093.638672  	0.111200 
1095.567488  	0.104483 
1097.496304  	0.097719 
1099.425120  	0.090694 
1101.353936  	0.083802 
1103.282752  	0.077319 
1105.211568  	0.071151 
1107.140384  	0.065619 
1109.069200  	0.060566 
1110.998016  	0.055938 
1112.926832  	0.051760 
1114.855648  	0.047960 
1116.784464  	0.044129 
1118.713280  	0.040468 
1120.642096  	0.037051 
1122.570912  	0.033997 
1124.499728  	0.031195 
1126.428544  	0.028668 
1128.357360  	0.026310 
1130.286176  	0.024268 
1132.214992  	0.022671 
1134.143808  	0.021687 
1136.072624  	0.020766 
1138.001440  	0.019744 
1139.930256  	0.018797 
1141.859072  	0.017916 
1143.787888  	0.017040 
1145.716704  	0.016241 
1147.645520  	0.015310 
1149.574336  	0.014884 
1151.503152  	0.014557 
1153.431968  	0.014322 
1155.360784  	0.014251 
1157.289600  	0.014884 
1159.218416  	0.015774 
1161.147232  	0.016761 
1163.076048  	0.018034 
1165.004864  	0.019165 
1166.933680  	0.020154 
1168.862496  	0.021329 
1170.791312  	0.022723 
1172.720128  	0.024443 
1174.648944  	0.026114 
1176.577760  	0.027430 
1178.506576  	0.029226 
1180.435392  	0.031221 
1182.364208  	0.032997 
1184.293024  	0.035033 
1186.221840  	0.037563 
1188.150656  	0.040155 
1190.079472  	0.042963 
1192.008288  	0.046569 
1193.937104  	0.050569 
1195.865920  	0.054892 
1197.794736  	0.059465 
1199.723552  	0.064469 
1201.652368  	0.069169 
1203.581184  	0.073389 
1205.510000  	0.077721 
1207.438816  	0.081690 
1209.367632  	0.085069 
1211.296448  	0.087736 
1213.225264  	0.089740 
1215.154080  	0.090723 
1217.082896  	0.091230 
1219.011712  	0.091196 
1220.940528  	0.090672 
1222.869344  	0.089878 
1224.798160  	0.089006 
1226.726976  	0.087570 
1228.655792  	0.085931 
1230.584608  	0.084217 
1232.513424  	0.081978 
1234.442240  	0.079373 
1236.371056  	0.076769 
1238.299872  	0.073871 
1240.228688  	0.070259 
1242.157504  	0.066806 
1244.086320  	0.063783 
1246.015136  	0.060373 
1247.943952  	0.056878 
1249.872768  	0.053304 
1251.801584  	0.050056 
1253.730400  	0.047086 
1255.659216  	0.044122 
1257.588032  	0.041276 
1259.516848  	0.038809 
1261.445664  	0.036301 
1263.374480  	0.033795 
1265.303296  	0.031877 
1267.232112  	0.030458 
1269.160928  	0.029448 
1271.089744  	0.028725 
1273.018560  	0.028103 
1274.947376  	0.027987 
1276.876192  	0.028388 
1278.805008  	0.028593 
1280.733824  	0.028394 
1282.662640  	0.027460 
1284.591456  	0.026540 
1286.520272  	0.026028 
1288.449088  	0.025621 
1290.377904  	0.025148 
1292.306720  	0.025325 
1294.235536  	0.025633 
1296.164352  	0.025682 
1298.093168  	0.024712 
1300.021984  	0.023243 
1301.950800  	0.021659 
1303.879616  	0.020068 
1305.808432  	0.018523 
1307.737248  	0.017018 
1309.666064  	0.015335 
1311.594880  	0.014643 
1313.523696  	0.014329 
1315.452512  	0.013637 
1317.381328  	0.013723 
1319.310144  	0.013891 
1321.238960  	0.013273 
1323.167776  	0.013041 
1325.096592  	0.013180 
1327.025408  	0.013348 
1328.954224  	0.013393 
1330.883040  	0.013040 
1332.811856  	0.012318 
1334.740672  	0.012198 
1336.669488  	0.013551 
1338.598304  	0.016026 
1340.527120  	0.015349 
1342.455936  	0.011767 
1344.384752  	0.010585 
1346.313568  	0.010754 
1348.242384  	0.011323 
1350.171200  	0.011999 
1352.100016  	0.012790 
1354.028832  	0.014204 
1355.957648  	0.015465 
1357.886464  	0.016464 
1359.815280  	0.018283 
1361.744096  	0.021716 
1363.672912  	0.022740 
1365.601728  	0.020914 
1367.530544  	0.021598 
1369.459360  	0.022623 
1371.388176  	0.022663 
1373.316992  	0.024100 
1375.245808  	0.023519 
1377.174624  	0.020602 
1379.103440  	0.018900 
1381.032256  	0.016896 
1382.961072  	0.015213 
1384.889888  	0.015038 
1386.818704  	0.016667 
1388.747520  	0.015001 
1390.676336  	0.012396 
1392.605152  	0.011934 
1394.533968  	0.013918 
1396.462784  	0.014978 
1398.391600  	0.014560 
1400.320416  	0.012748 
1402.249232  	0.011311 
1404.178048  	0.012855 
1406.106864  	0.013283 
1408.035680  	0.012914 
1409.964496  	0.014115 
1411.893312  	0.015415 
1413.822128  	0.016264 
1415.750944  	0.019057 
1417.679760  	0.022857 
1419.608576  	0.023615 
1421.537392  	0.020880 
1423.466208  	0.020746 
1425.395024  	0.019189 
1427.323840  	0.017022 
1429.252656  	0.016988 
1431.181472  	0.016229 
1433.110288  	0.015303 
1435.039104  	0.016304 
1436.967920  	0.018193 
1438.896736  	0.016240 
1440.825552  	0.015342 
1442.754368  	0.015434 
1444.683184  	0.015477 
1446.612000  	0.016749 
1448.540816  	0.017600 
1450.469632  	0.016855 
1452.398448  	0.017376 
1454.327264  	0.018926 
1456.256080  	0.023644 
1458.184896  	0.025244 
1460.113712  	0.019711 
1462.042528  	0.016695 
1463.971344  	0.017463 
1465.900160  	0.018384 
1467.828976  	0.017548 
1469.757792  	0.018419 
1471.686608  	0.023812 
1473.615424  	0.030156 
1475.544240  	0.030420 
1477.473056  	0.030550 
1479.401872  	0.030491 
1481.330688  	0.032619 
1483.259504  	0.033199 
1485.188320  	0.034075 
1487.117136  	0.036898 
1489.045952  	0.040579 
1490.974768  	0.038457 
1492.903584  	0.032645 
1494.832400  	0.030351 
1496.761216  	0.030392 
1498.690032  	0.027519 
1500.618848  	0.023719 
1502.547664  	0.020453 
1504.476480  	0.019537 
1506.405296  	0.026779 
1508.334112  	0.028718 
1510.262928  	0.021137 
1512.191744  	0.016705 
1514.120560  	0.015944 
1516.049376  	0.019293 
1517.978192  	0.019942 
1519.907008  	0.020049 
1521.835824  	0.024375 
1523.764640  	0.023368 
1525.693456  	0.024568 
1527.622272  	0.024893 
1529.551088  	0.022564 
1531.479904  	0.021948 
1533.408720  	0.023640 
1535.337536  	0.020656 
1537.266352  	0.018397 
1539.195168  	0.021134 
1541.123984  	0.023441 
1543.052800  	0.020941 
1544.981616  	0.017934 
1546.910432  	0.012727 
1548.839248  	0.012666 
1550.768064  	0.013819 
1552.696880  	0.012615 
1554.625696  	0.014466 
1556.554512  	0.015355 
1558.483328  	0.021109 
1560.412144  	0.020944 
1562.340960  	0.017037 
1564.269776  	0.017591 
1566.198592  	0.019667 
1568.127408  	0.021717 
1570.056224  	0.026919 
1571.985040  	0.027066 
1573.913856  	0.027377 
1575.842672  	0.031453 
1577.771488  	0.033826 
1579.700304  	0.030720 
1581.629120  	0.029615 
1583.557936  	0.029263 
1585.486752  	0.029749 
1587.415568  	0.030887 
1589.344384  	0.033352 
1591.273200  	0.035964 
1593.202016  	0.039380 
1595.130832  	0.043246 
1597.059648  	0.046373 
1598.988464  	0.048586 
1600.917280  	0.051562 
1602.846096  	0.053908 
1604.774912  	0.054940 
1606.703728  	0.055139 
1608.632544  	0.055796 
1610.561360  	0.054782 
1612.490176  	0.053231 
1614.418992  	0.051592 
1616.347808  	0.054578 
1618.276624  	0.056973 
1620.205440  	0.055354 
1622.134256  	0.056828 
1624.063072  	0.062325 
1625.991888  	0.063175 
1627.920704  	0.066910 
1629.849520  	0.070233 
1631.778336  	0.071233 
1633.707152  	0.072346 
1635.635968  	0.082655 
1637.564784  	0.089350 
1639.493600  	0.086057 
1641.422416  	0.085553 
1643.351232  	0.084806 
1645.280048  	0.085319 
1647.208864  	0.094580 
1649.137680  	0.091652 
1651.066496  	0.083260 
1652.995312  	0.089580 
1654.924128  	0.095863 
1656.852944  	0.086390 
1658.781760  	0.081833 
1660.710576  	0.079813 
1662.639392  	0.080823 
1664.568208  	0.079030 
1666.497024  	0.074514 
1668.425840  	0.074087 
1670.354656  	0.075730 
1672.283472  	0.071702 
1674.212288  	0.068348 
1676.141104  	0.069218 
1678.069920  	0.066175 
1679.998736  	0.066248 
1681.927552  	0.064998 
1683.856368  	0.068186 
1685.785184  	0.069636 
1687.714000  	0.064692 
1689.642816  	0.063527 
1691.571632  	0.060837 
1693.500448  	0.057896 
1695.429264  	0.060268 
1697.358080  	0.063750 
1699.286896  	0.060445 
1701.215712  	0.062574 
1703.144528  	0.058075 
1705.073344  	0.056423 
1707.002160  	0.054298 
1708.930976  	0.050048 
1710.859792  	0.046926 
1712.788608  	0.044629 
1714.717424  	0.043843 
1716.646240  	0.042163 
1718.575056  	0.035737 
1720.503872  	0.027412 
1722.432688  	0.022353 
1724.361504  	0.017877 
1726.290320  	0.013500 
1728.219136  	0.011372 
1730.147952  	0.010869 
1732.076768  	0.009826 
1734.005584  	0.008707 
1735.934400  	0.003752 
1737.863216  	0.001895 
1739.792032  	0.000991 
1741.720848  	0.000059 
1743.649664  	0.000589 
1745.578480  	-0.000024 
1747.507296  	0.000583 
1749.436112  	0.001236 
1751.364928  	-0.001025 
1753.293744  	-0.004583 
1755.222560  	-0.005211 
1757.151376  	-0.004138 
1759.080192  	-0.004974 
1761.009008  	-0.004911 
1762.937824  	-0.005936 
1764.866640  	-0.007302 
1766.795456  	-0.006224 
1768.724272  	-0.005015 
1770.653088  	-0.004795 
1772.581904  	-0.004270 
1774.510720  	-0.005643 
1776.439536  	-0.006804 
1778.368352  	-0.007423 
1780.297168  	-0.006825 
1782.225984  	-0.007800 
1784.154800  	-0.007904 
1786.083616  	-0.008489 
1788.012432  	-0.008878 
1789.941248  	-0.006891 
1791.870064  	-0.005065 
1793.798880  	-0.006869 
1795.727696  	-0.007481 
1797.656512  	-0.008237 
1799.585328  	-0.008099 
1801.514144  	-0.007465 
1803.442960  	-0.008702 
1805.371776  	-0.009640 
1807.300592  	-0.009405 
1809.229408  	-0.009045 
1811.158224  	-0.008682 
1813.087040  	-0.009880 
1815.015856  	-0.010764 
1816.944672  	-0.010154 
1818.873488  	-0.010059 
1820.802304  	-0.010135 
1822.731120  	-0.009397 
1824.659936  	-0.008636 
1826.588752  	-0.009058 
1828.517568  	-0.008630 
1830.446384  	-0.008429 
1832.375200  	-0.010079 
1834.304016  	-0.010324 
1836.232832  	-0.010034 
1838.161648  	-0.009951 
1840.090464  	-0.010513 
1842.019280  	-0.009747 
1843.948096  	-0.008372 
1845.876912  	-0.008571 
1847.805728  	-0.009580 
1849.734544  	-0.010755 
1851.663360  	-0.011380 
1853.592176  	-0.011042 
1855.520992  	-0.011041 
1857.449808  	-0.010928 
1859.378624  	-0.011115 
1861.307440  	-0.011075 
1863.236256  	-0.011500 
1865.165072  	-0.010831 
1867.093888  	-0.008833 
1869.022704  	-0.007746 
1870.951520  	-0.009872 
1872.880336  	-0.011122 
1874.809152  	-0.011610 
1876.737968  	-0.011805 
1878.666784  	-0.011918 
1880.595600  	-0.012146 
1882.524416  	-0.012058 
1884.453232  	-0.011410 
1886.382048  	-0.011480 
1888.310864  	-0.010582 
1890.239680  	-0.010540 
1892.168496  	-0.011329 
1894.097312  	-0.010857 
1896.026128  	-0.011083 
1897.954944  	-0.011922 
1899.883760  	-0.011992 
1901.812576  	-0.011965 
1903.741392  	-0.011857 
1905.670208  	-0.012023 
1907.599024  	-0.011787 
1909.527840  	-0.011361 
1911.456656  	-0.011390 
1913.385472  	-0.011595 
1915.314288  	-0.011301 
1917.243104  	-0.010720 
1919.171920  	-0.010555 
1921.100736  	-0.010580 
1923.029552  	-0.010432 
1924.958368  	-0.012242 
1926.887184  	-0.012652 
1928.816000  	-0.013078 
1930.744816  	-0.013130 
1932.673632  	-0.012655 
1934.602448  	-0.011940 
1936.531264  	-0.012433 
1938.460080  	-0.012539 
1940.388896  	-0.011207 
1942.317712  	-0.009514 
1944.246528  	-0.011219 
1946.175344  	-0.012237 
1948.104160  	-0.012414 
1950.032976  	-0.012132 
1951.961792  	-0.012528 
1953.890608  	-0.012760 
1955.819424  	-0.013148 
1957.748240  	-0.013426 
1959.677056  	-0.013865 
1961.605872  	-0.013026 
1963.534688  	-0.012339 
1965.463504  	-0.011347 
1967.392320  	-0.011660 
1969.321136  	-0.012538 
1971.249952  	-0.013263 
1973.178768  	-0.012704 
1975.107584  	-0.012393 
1977.036400  	-0.012579 
1978.965216  	-0.012468 
1980.894032  	-0.012211 
1982.822848  	-0.012387 
1984.751664  	-0.012026 
1986.680480  	-0.011465 
1988.609296  	-0.010885 
1990.538112  	-0.010509 
1992.466928  	-0.009373 
1994.395744  	-0.011390 
1996.324560  	-0.012457 
1998.253376  	-0.011867 
2000.182192  	-0.011775 
2002.111008  	-0.012227 
2004.039824  	-0.011869 
2005.968640  	-0.012782 
2007.897456  	-0.012108 
2009.826272  	-0.011173 
2011.755088  	-0.010792 
2013.683904  	-0.011405 
2015.612720  	-0.011368 
2017.541536  	-0.010946 
2019.470352  	-0.011373 
2021.399168  	-0.012985 
2023.327984  	-0.012788 
2025.256800  	-0.011868 
2027.185616  	-0.010633 
2029.114432  	-0.010905 
2031.043248  	-0.012019 
2032.972064  	-0.013049 
2034.900880  	-0.011724 
2036.829696  	-0.010911 
2038.758512  	-0.010522 
2040.687328  	-0.011193 
2042.616144  	-0.011633 
2044.544960  	-0.012295 
2046.473776  	-0.011527 
2048.402592  	-0.010302 
2050.331408  	-0.010108 
2052.260224  	-0.010531 
2054.189040  	-0.010538 
2056.117856  	-0.010906 
2058.046672  	-0.010522 
2059.975488  	-0.010580 
2061.904304  	-0.010519 
2063.833120  	-0.010083 
2065.761936  	-0.009711 
2067.690752  	-0.010277 
2069.619568  	-0.010833 
2071.548384  	-0.011146 
2073.477200  	-0.010469 
2075.406016  	-0.010211 
2077.334832  	-0.010481 
2079.263648  	-0.010374 
2081.192464  	-0.009922 
2083.121280  	-0.010168 
2085.050096  	-0.010684 
2086.978912  	-0.010886 
2088.907728  	-0.010221 
2090.836544  	-0.009965 
2092.765360  	-0.010152 
2094.694176  	-0.009983 
2096.622992  	-0.009772 
2098.551808  	-0.009990 
2100.480624  	-0.010251 
2102.409440  	-0.010291 
2104.338256  	-0.010018 
2106.267072  	-0.010273 
2108.195888  	-0.010089 
2110.124704  	-0.009973 
2112.053520  	-0.009840 
2113.982336  	-0.009982 
2115.911152  	-0.010283 
2117.839968  	-0.010407 
2119.768784  	-0.010411 
2121.697600  	-0.010558 
2123.626416  	-0.010433 
2125.555232  	-0.010656 
2127.484048  	-0.010736 
2129.412864  	-0.010255 
2131.341680  	-0.009850 
2133.270496  	-0.009928 
2135.199312  	-0.010095 
2137.128128  	-0.010316 
2139.056944  	-0.009455 
2140.985760  	-0.008970 
2142.914576  	-0.008535 
2144.843392  	-0.009425 
2146.772208  	-0.009906 
2148.701024  	-0.009841 
2150.629840  	-0.010208 
2152.558656  	-0.010152 
2154.487472  	-0.008905 
2156.416288  	-0.009497 
2158.345104  	-0.008421 
2160.273920  	-0.005686 
2162.202736  	-0.006160 
2164.131552  	-0.007533 
2166.060368  	-0.007627 
2167.989184  	-0.008602 
2169.918000  	-0.008866 
2171.846816  	-0.008545 
2173.775632  	-0.008138 
2175.704448  	-0.008196 
2177.633264  	-0.008399 
2179.562080  	-0.008559 
2181.490896  	-0.007385 
2183.419712  	-0.006841 
2185.348528  	-0.008030 
2187.277344  	-0.008799 
2189.206160  	-0.008731 
2191.134976  	-0.008801 
2193.063792  	-0.009072 
2194.992608  	-0.009212 
2196.921424  	-0.009411 
2198.850240  	-0.010494 
2200.779056  	-0.011004 
2202.707872  	-0.010905 
2204.636688  	-0.010222 
2206.565504  	-0.009714 
2208.494320  	-0.009843 
2210.423136  	-0.010493 
2212.351952  	-0.010187 
2214.280768  	-0.009907 
2216.209584  	-0.010123 
2218.138400  	-0.010734 
2220.067216  	-0.011326 
2221.996032  	-0.011421 
2223.924848  	-0.010788 
2225.853664  	-0.010248 
2227.782480  	-0.009655 
2229.711296  	-0.010413 
2231.640112  	-0.011135 
2233.568928  	-0.011545 
2235.497744  	-0.011125 
2237.426560  	-0.010809 
2239.355376  	-0.010621 
2241.284192  	-0.010996 
2243.213008  	-0.011221 
2245.141824  	-0.011171 
2247.070640  	-0.011352 
2248.999456  	-0.011547 
2250.928272  	-0.011223 
2252.857088  	-0.011160 
2254.785904  	-0.010962 
2256.714720  	-0.010411 
2258.643536  	-0.010462 
2260.572352  	-0.010301 
2262.501168  	-0.010024 
2264.429984  	-0.009924 
2266.358800  	-0.010035 
2268.287616  	-0.010679 
2270.216432  	-0.011095 
2272.145248  	-0.010936 
2274.074064  	-0.010262 
2276.002880  	-0.010179 
2277.931696  	-0.010318 
2279.860512  	-0.010305 
2281.789328  	-0.010180 
2283.718144  	-0.010432 
2285.646960  	-0.010257 
2287.575776  	-0.010071 
2289.504592  	-0.009949 
2291.433408  	-0.009773 
2293.362224  	-0.009219 
2295.291040  	-0.008956 
2297.219856  	-0.008782 
2299.148672  	-0.008601 
2301.077488  	-0.008260 
2303.006304  	-0.007795 
2304.935120  	-0.007285 
2306.863936  	-0.006923 
2308.792752  	-0.006546 
2310.721568  	-0.006553 
2312.650384  	-0.006991 
2314.579200  	-0.007563 
2316.508016  	-0.007308 
2318.436832  	-0.006879 
2320.365648  	-0.006787 
2322.294464  	-0.007422 
2324.223280  	-0.008779 
2326.152096  	-0.010007 
2328.080912  	-0.010953 
2330.009728  	-0.011622 
2331.938544  	-0.012141 
2333.867360  	-0.012984 
2335.796176  	-0.013580 
2337.724992  	-0.014182 
2339.653808  	-0.014560 
2341.582624  	-0.014219 
2343.511440  	-0.013006 
2345.440256  	-0.011429 
2347.369072  	-0.010043 
2349.297888  	-0.009458 
2351.226704  	-0.010551 
2353.155520  	-0.012742 
2355.084336  	-0.013917 
2357.013152  	-0.014525 
2358.941968  	-0.015008 
2360.870784  	-0.015628 
2362.799600  	-0.015540 
2364.728416  	-0.014374 
2366.657232  	-0.013460 
2368.586048  	-0.012579 
2370.514864  	-0.011450 
2372.443680  	-0.010389 
2374.372496  	-0.009138 
2376.301312  	-0.008269 
2378.230128  	-0.007917 
2380.158944  	-0.008259 
2382.087760  	-0.008886 
2384.016576  	-0.009729 
2385.945392  	-0.010500 
2387.874208  	-0.010934 
2389.803024  	-0.011225 
2391.731840  	-0.011578 
2393.660656  	-0.011789 
2395.589472  	-0.011746 
2397.518288  	-0.011614 
2399.447104  	-0.011513 
2401.375920  	-0.011446 
2403.304736  	-0.011690 
2405.233552  	-0.011801 
2407.162368  	-0.011697 
2409.091184  	-0.011654 
2411.020000  	-0.011823 
2412.948816  	-0.012074 
2414.877632  	-0.012145 
2416.806448  	-0.012010 
2418.735264  	-0.011782 
2420.664080  	-0.011739 
2422.592896  	-0.011758 
2424.521712  	-0.011630 
2426.450528  	-0.011715 
2428.379344  	-0.011716 
2430.308160  	-0.011529 
2432.236976  	-0.011530 
2434.165792  	-0.011502 
2436.094608  	-0.011250 
2438.023424  	-0.011100 
2439.952240  	-0.011297 
2441.881056  	-0.011432 
2443.809872  	-0.011471 
2445.738688  	-0.011476 
2447.667504  	-0.011257 
2449.596320  	-0.010902 
2451.525136  	-0.010900 
2453.453952  	-0.011124 
2455.382768  	-0.011083 
2457.311584  	-0.011043 
2459.240400  	-0.011296 
2461.169216  	-0.011297 
2463.098032  	-0.011152 
2465.026848  	-0.011164 
2466.955664  	-0.011307 
2468.884480  	-0.011553 
2470.813296  	-0.011501 
2472.742112  	-0.011197 
2474.670928  	-0.011012 
2476.599744  	-0.010985 
2478.528560  	-0.010797 
2480.457376  	-0.010627 
2482.386192  	-0.010564 
2484.315008  	-0.010754 
2486.243824  	-0.010813 
2488.172640  	-0.010572 
2490.101456  	-0.010442 
2492.030272  	-0.010375 
2493.959088  	-0.010393 
2495.887904  	-0.010554 
2497.816720  	-0.010407 
2499.745536  	-0.010346 
2501.674352  	-0.010451 
2503.603168  	-0.010565 
2505.531984  	-0.010481 
2507.460800  	-0.010426 
2509.389616  	-0.010486 
2511.318432  	-0.010518 
2513.247248  	-0.010449 
2515.176064  	-0.010385 
2517.104880  	-0.010444 
2519.033696  	-0.010643 
2520.962512  	-0.010614 
2522.891328  	-0.010621 
2524.820144  	-0.010301 
2526.748960  	-0.010079 
2528.677776  	-0.010097 
2530.606592  	-0.010082 
2532.535408  	-0.010036 
2534.464224  	-0.010305 
2536.393040  	-0.010414 
2538.321856  	-0.010183 
2540.250672  	-0.010015 
2542.179488  	-0.009909 
2544.108304  	-0.009855 
2546.037120  	-0.009808 
2547.965936  	-0.009518 
2549.894752  	-0.009432 
2551.823568  	-0.009359 
2553.752384  	-0.009348 
2555.681200  	-0.009589 
2557.610016  	-0.009760 
2559.538832  	-0.009641 
2561.467648  	-0.009235 
2563.396464  	-0.009146 
2565.325280  	-0.009325 
2567.254096  	-0.009434 
2569.182912  	-0.009563 
2571.111728  	-0.009472 
2573.040544  	-0.009341 
2574.969360  	-0.009141 
2576.898176  	-0.009061 
2578.826992  	-0.009194 
2580.755808  	-0.009287 
2582.684624  	-0.009113 
2584.613440  	-0.008921 
2586.542256  	-0.008816 
2588.471072  	-0.008937 
2590.399888  	-0.009012 
2592.328704  	-0.008878 
2594.257520  	-0.008720 
2596.186336  	-0.008872 
2598.115152  	-0.008819 
2600.043968  	-0.008505 
2601.972784  	-0.008490 
2603.901600  	-0.008484 
2605.830416  	-0.008530 
2607.759232  	-0.008619 
2609.688048  	-0.008542 
2611.616864  	-0.008331 
2613.545680  	-0.008365 
2615.474496  	-0.008357 
2617.403312  	-0.008071 
2619.332128  	-0.008059 
2621.260944  	-0.008195 
2623.189760  	-0.008164 
2625.118576  	-0.007947 
2627.047392  	-0.007807 
2628.976208  	-0.007737 
2630.905024  	-0.007656 
2632.833840  	-0.007616 
2634.762656  	-0.007615 
2636.691472  	-0.007468 
2638.620288  	-0.007467 
2640.549104  	-0.007466 
2642.477920  	-0.007348 
2644.406736  	-0.007371 
2646.335552  	-0.007380 
2648.264368  	-0.007312 
2650.193184  	-0.007195 
2652.122000  	-0.007110 
2654.050816  	-0.007046 
2655.979632  	-0.006996 
2657.908448  	-0.006903 
2659.837264  	-0.006809 
2661.766080  	-0.006803 
2663.694896  	-0.006796 
2665.623712  	-0.006654 
2667.552528  	-0.006552 
2669.481344  	-0.006615 
2671.410160  	-0.006623 
2673.338976  	-0.006542 
2675.267792  	-0.006352 
2677.196608  	-0.006230 
2679.125424  	-0.006147 
2681.054240  	-0.006145 
2682.983056  	-0.006094 
2684.911872  	-0.006030 
2686.840688  	-0.006009 
2688.769504  	-0.005970 
2690.698320  	-0.005885 
2692.627136  	-0.005830 
2694.555952  	-0.005780 
2696.484768  	-0.005735 
2698.413584  	-0.005681 
2700.342400  	-0.005627 
2702.271216  	-0.005526 
2704.200032  	-0.005499 
2706.128848  	-0.005452 
2708.057664  	-0.005448 
2709.986480  	-0.005420 
2711.915296  	-0.005265 
2713.844112  	-0.005143 
2715.772928  	-0.005085 
2717.701744  	-0.005073 
2719.630560  	-0.004914 
2721.559376  	-0.004822 
2723.488192  	-0.004763 
2725.417008  	-0.004639 
2727.345824  	-0.004595 
2729.274640  	-0.004488 
2731.203456  	-0.004458 
2733.132272  	-0.004399 
2735.061088  	-0.004331 
2736.989904  	-0.004422 
2738.918720  	-0.004348 
2740.847536  	-0.004201 
2742.776352  	-0.004132 
2744.705168  	-0.004076 
2746.633984  	-0.004003 
2748.562800  	-0.003876 
2750.491616  	-0.003855 
2752.420432  	-0.003947 
2754.349248  	-0.004078 
2756.278064  	-0.004093 
2758.206880  	-0.004103 
2760.135696  	-0.004076 
2762.064512  	-0.004048 
2763.993328  	-0.004055 
2765.922144  	-0.003996 
2767.850960  	-0.003917 
2769.779776  	-0.003965 
2771.708592  	-0.003921 
2773.637408  	-0.003871 
2775.566224  	-0.003841 
2777.495040  	-0.003890 
2779.423856  	-0.003960 
2781.352672  	-0.003876 
2783.281488  	-0.003807 
2785.210304  	-0.003824 
2787.139120  	-0.003741 
2789.067936  	-0.003712 
2790.996752  	-0.003663 
2792.925568  	-0.003685 
2794.854384  	-0.003766 
2796.783200  	-0.003760 
2798.712016  	-0.003767 
2800.640832  	-0.003779 
2802.569648  	-0.003728 
2804.498464  	-0.003688 
2806.427280  	-0.003598 
2808.356096  	-0.003443 
2810.284912  	-0.003440 
2812.213728  	-0.003497 
2814.142544  	-0.003529 
2816.071360  	-0.003613 
2818.000176  	-0.003643 
2819.928992  	-0.003627 
2821.857808  	-0.003668 
2823.786624  	-0.003796 
2825.715440  	-0.003706 
2827.644256  	-0.003600 
2829.573072  	-0.003684 
2831.501888  	-0.003605 
2833.430704  	-0.003539 
2835.359520  	-0.003710 
2837.288336  	-0.003821 
2839.217152  	-0.003780 
2841.145968  	-0.003903 
2843.074784  	-0.004001 
2845.003600  	-0.004006 
2846.932416  	-0.004060 
2848.861232  	-0.003947 
2850.790048  	-0.004031 
2852.718864  	-0.004145 
2854.647680  	-0.004173 
2856.576496  	-0.004189 
2858.505312  	-0.004195 
2860.434128  	-0.004248 
2862.362944  	-0.004368 
2864.291760  	-0.004371 
2866.220576  	-0.004327 
2868.149392  	-0.004334 
2870.078208  	-0.004311 
2872.007024  	-0.004188 
2873.935840  	-0.004047 
2875.864656  	-0.003962 
2877.793472  	-0.003875 
2879.722288  	-0.003639 
2881.651104  	-0.003449 
2883.579920  	-0.003356 
2885.508736  	-0.003254 
2887.437552  	-0.003218 
2889.366368  	-0.003188 
2891.295184  	-0.003029 
2893.224000  	-0.002994 
2895.152816  	-0.002974 
2897.081632  	-0.003012 
2899.010448  	-0.003327 
2900.939264  	-0.003575 
2902.868080  	-0.003336 
2904.796896  	-0.003011 
2906.725712  	-0.002850 
2908.654528  	-0.002685 
2910.583344  	-0.002507 
2912.512160  	-0.002407 
2914.440976  	-0.002130 
2916.369792  	-0.001626 
2918.298608  	-0.001329 
2920.227424  	-0.001113 
2922.156240  	-0.000871 
2924.085056  	-0.000570 
2926.013872  	-0.000348 
2927.942688  	0.000047 
2929.871504  	0.000580 
2931.800320  	0.000938 
2933.729136  	0.001221 
2935.657952  	0.001506 
2937.586768  	0.001838 
2939.515584  	0.002060 
2941.444400  	0.002204 
2943.373216  	0.002259 
2945.302032  	0.002419 
2947.230848  	0.002658 
2949.159664  	0.002695 
2951.088480  	0.002519 
2953.017296  	0.002399 
2954.946112  	0.002223 
2956.874928  	0.002016 
2958.803744  	0.001861 
2960.732560  	0.001781 
2962.661376  	0.001595 
2964.590192  	0.001436 
2966.519008  	0.001259 
2968.447824  	0.001024 
2970.376640  	0.000859 
2972.305456  	0.000691 
2974.234272  	0.000881 
2976.163088  	0.000902 
2978.091904  	0.000748 
2980.020720  	0.000666 
2981.949536  	0.000699 
2983.878352  	0.000714 
2985.807168  	0.000573 
2987.735984  	0.000419 
2989.664800  	0.000502 
2991.593616  	0.001037 
2993.522432  	0.001433 
2995.451248  	0.001570 
2997.380064  	0.001762 
2999.308880  	0.002134 
3001.237696  	0.002584 
3003.166512  	0.003073 
3005.095328  	0.003307 
3007.024144  	0.003453 
3008.952960  	0.003889 
3010.881776  	0.004475 
3012.810592  	0.004991 
3014.739408  	0.005328 
3016.668224  	0.005454 
3018.597040  	0.005612 
3020.525856  	0.005999 
3022.454672  	0.006334 
3024.383488  	0.006704 
3026.312304  	0.007187 
3028.241120  	0.007423 
3030.169936  	0.007738 
3032.098752  	0.008272 
3034.027568  	0.008568 
3035.956384  	0.008797 
3037.885200  	0.008956 
3039.814016  	0.009205 
3041.742832  	0.009481 
3043.671648  	0.009706 
3045.600464  	0.009883 
3047.529280  	0.010257 
3049.458096  	0.010708 
3051.386912  	0.010892 
3053.315728  	0.011023 
3055.244544  	0.011356 
3057.173360  	0.011813 
3059.102176  	0.012209 
3061.030992  	0.012487 
3062.959808  	0.012746 
3064.888624  	0.013282 
3066.817440  	0.013827 
3068.746256  	0.014146 
3070.675072  	0.014282 
3072.603888  	0.014667 
3074.532704  	0.015088 
3076.461520  	0.015506 
3078.390336  	0.015979 
3080.319152  	0.016366 
3082.247968  	0.016616 
3084.176784  	0.016956 
3086.105600  	0.017325 
3088.034416  	0.017806 
3089.963232  	0.017985 
3091.892048  	0.018124 
3093.820864  	0.018503 
3095.749680  	0.019159 
3097.678496  	0.019613 
3099.607312  	0.020051 
3101.536128  	0.020690 
3103.464944  	0.020841 
3105.393760  	0.020938 
3107.322576  	0.021389 
3109.251392  	0.021724 
3111.180208  	0.021832 
3113.109024  	0.021936 
3115.037840  	0.022341 
3116.966656  	0.022957 
3118.895472  	0.023253 
3120.824288  	0.023471 
3122.753104  	0.023951 
3124.681920  	0.024125 
3126.610736  	0.024262 
3128.539552  	0.024409 
3130.468368  	0.024532 
3132.397184  	0.024913 
3134.326000  	0.025142 
3136.254816  	0.025226 
3138.183632  	0.025518 
3140.112448  	0.025722 
3142.041264  	0.026017 
3143.970080  	0.026525 
3145.898896  	0.026788 
3147.827712  	0.026897 
3149.756528  	0.027239 
3151.685344  	0.027530 
3153.614160  	0.027601 
3155.542976  	0.027907 
3157.471792  	0.028237 
3159.400608  	0.028385 
3161.329424  	0.028605 
3163.258240  	0.028982 
3165.187056  	0.029091 
3167.115872  	0.029143 
3169.044688  	0.029385 
3170.973504  	0.029795 
3172.902320  	0.029851 
3174.831136  	0.029753 
3176.759952  	0.029982 
3178.688768  	0.030414 
3180.617584  	0.030382 
3182.546400  	0.030335 
3184.475216  	0.030345 
3186.404032  	0.030433 
3188.332848  	0.030413 
3190.261664  	0.030293 
3192.190480  	0.030315 
3194.119296  	0.030453 
3196.048112  	0.030578 
3197.976928  	0.030900 
3199.905744  	0.030770 
3201.834560  	0.030470 
3203.763376  	0.030408 
3205.692192  	0.030268 
3207.621008  	0.030352 
3209.549824  	0.030564 
3211.478640  	0.030494 
3213.407456  	0.030297 
3215.336272  	0.030300 
3217.265088  	0.030150 
3219.193904  	0.030360 
3221.122720  	0.030406 
3223.051536  	0.029971 
3224.980352  	0.029709 
3226.909168  	0.029680 
3228.837984  	0.029576 
3230.766800  	0.029366 
3232.695616  	0.029398 
3234.624432  	0.029400 
3236.553248  	0.029491 
3238.482064  	0.029496 
3240.410880  	0.029259 
3242.339696  	0.029186 
3244.268512  	0.029483 
3246.197328  	0.029481 
3248.126144  	0.029161 
3250.054960  	0.029381 
3251.983776  	0.029515 
3253.912592  	0.029772 
3255.841408  	0.029933 
3257.770224  	0.029849 
3259.699040  	0.029917 
3261.627856  	0.030001 
3263.556672  	0.029871 
3265.485488  	0.030134 
3267.414304  	0.030117 
3269.343120  	0.029910 
3271.271936  	0.030134 
3273.200752  	0.030472 
3275.129568  	0.030484 
3277.058384  	0.030480 
3278.987200  	0.030521 
3280.916016  	0.030455 
3282.844832  	0.030413 
3284.773648  	0.030525 
3286.702464  	0.030556 
3288.631280  	0.030684 
3290.560096  	0.030733 
3292.488912  	0.030799 
3294.417728  	0.030938 
3296.346544  	0.030956 
3298.275360  	0.031068 
3300.204176  	0.031198 
3302.132992  	0.031053 
3304.061808  	0.031141 
3305.990624  	0.031273 
3307.919440  	0.031552 
3309.848256  	0.031836 
3311.777072  	0.031804 
3313.705888  	0.031823 
3315.634704  	0.031830 
3317.563520  	0.031977 
3319.492336  	0.032094 
3321.421152  	0.032105 
3323.349968  	0.032216 
3325.278784  	0.032283 
3327.207600  	0.032356 
3329.136416  	0.032115 
3331.065232  	0.031944 
3332.994048  	0.032047 
3334.922864  	0.032252 
3336.851680  	0.032379 
3338.780496  	0.032171 
3340.709312  	0.031827 
3342.638128  	0.031900 
3344.566944  	0.031854 
3346.495760  	0.031622 
3348.424576  	0.031474 
3350.353392  	0.031426 
3352.282208  	0.031153 
3354.211024  	0.030911 
3356.139840  	0.030736 
3358.068656  	0.030534 
3359.997472  	0.030456 
3361.926288  	0.030278 
3363.855104  	0.029984 
3365.783920  	0.030029 
3367.712736  	0.029839 
3369.641552  	0.029494 
3371.570368  	0.029127 
3373.499184  	0.029119 
3375.428000  	0.029201 
3377.356816  	0.029080 
3379.285632  	0.028869 
3381.214448  	0.028545 
3383.143264  	0.028388 
3385.072080  	0.028436 
3387.000896  	0.028080 
3388.929712  	0.027714 
3390.858528  	0.027522 
3392.787344  	0.027965 
3394.716160  	0.027739 
3396.644976  	0.027383 
3398.573792  	0.027060 
3400.502608  	0.026450 
3402.431424  	0.026144 
3404.360240  	0.025844 
3406.289056  	0.025251 
3408.217872  	0.025132 
3410.146688  	0.025111 
3412.075504  	0.024815 
3414.004320  	0.024627 
3415.933136  	0.024339 
3417.861952  	0.024062 
3419.790768  	0.024570 
3421.719584  	0.024838 
3423.648400  	0.024049 
3425.577216  	0.023216 
3427.506032  	0.022900 
3429.434848  	0.022679 
3431.363664  	0.022665 
3433.292480  	0.022342 
3435.221296  	0.021910 
3437.150112  	0.021624 
3439.078928  	0.021392 
3441.007744  	0.021226 
3442.936560  	0.021263 
3444.865376  	0.020765 
3446.794192  	0.021513 
3448.723008  	0.021362 
3450.651824  	0.019865 
3452.580640  	0.019383 
3454.509456  	0.019171 
3456.438272  	0.018888 
3458.367088  	0.018587 
3460.295904  	0.018424 
3462.224720  	0.018431 
3464.153536  	0.017724 
3466.082352  	0.017091 
3468.011168  	0.017008 
3469.939984  	0.016523 
3471.868800  	0.015928 
3473.797616  	0.015510 
3475.726432  	0.015332 
3477.655248  	0.014593 
3479.584064  	0.014429 
3481.512880  	0.015126 
3483.441696  	0.014824 
3485.370512  	0.013582 
3487.299328  	0.013347 
3489.228144  	0.013019 
3491.156960  	0.012116 
3493.085776  	0.011751 
3495.014592  	0.011832 
3496.943408  	0.011575 
3498.872224  	0.010965 
3500.801040  	0.011394 
3502.729856  	0.012470 
3504.658672  	0.011886 
3506.587488  	0.010220 
3508.516304  	0.010383 
3510.445120  	0.010669 
3512.373936  	0.009321 
3514.302752  	0.008511 
3516.231568  	0.008086 
3518.160384  	0.007874 
3520.089200  	0.007486 
3522.018016  	0.008207 
3523.946832  	0.009795 
3525.875648  	0.009157 
3527.804464  	0.008395 
3529.733280  	0.007495 
3531.662096  	0.006189 
3533.590912  	0.005042 
3535.519728  	0.005437 
3537.448544  	0.005587 
3539.377360  	0.004320 
3541.306176  	0.003926 
3543.234992  	0.004971 
3545.163808  	0.007027 
3547.092624  	0.007002 
3549.021440  	0.004510 
3550.950256  	0.003610 
3552.879072  	0.004584 
3554.807888  	0.003168 
3556.736704  	0.001622 
3558.665520  	0.001877 
3560.594336  	0.002605 
3562.523152  	0.002302 
3564.451968  	0.003366 
3566.380784  	0.007782 
3568.309600  	0.007846 
3570.238416  	0.002528 
3572.167232  	-0.000219 
3574.096048  	-0.000742 
3576.024864  	-0.000880 
3577.953680  	-0.001247 
3579.882496  	-0.001318 
3581.811312  	-0.001892 
3583.740128  	-0.002120 
3585.668944  	-0.000506 
3587.597760  	0.002749 
3589.526576  	0.000279 
3591.455392  	-0.003108 
3593.384208  	-0.002759 
3595.313024  	-0.001908 
3597.241840  	-0.003095 
3599.170656  	-0.004082 
3601.099472  	-0.004252 
3603.028288  	-0.005640 
3604.957104  	-0.006457 
3606.885920  	-0.004493 
3608.814736  	-0.003116 
3610.743552  	-0.004708 
3612.672368  	-0.004317 
3614.601184  	-0.004237 
3616.530000  	-0.005772 
3618.458816  	-0.005112 
3620.387632  	-0.005848 
3622.316448  	-0.008799 
3624.245264  	-0.010212 
3626.174080  	-0.009414 
3628.102896  	-0.006502 
3630.031712  	-0.005664 
3631.960528  	-0.009813 
3633.889344  	-0.011218 
3635.818160  	-0.012249 
3637.746976  	-0.013191 
3639.675792  	-0.013656 
3641.604608  	-0.013573 
3643.533424  	-0.013557 
3645.462240  	-0.012559 
3647.391056  	-0.008537 
3649.319872  	-0.006857 
3651.248688  	-0.010418 
3653.177504  	-0.014571 
3655.106320  	-0.015501 
3657.035136  	-0.015524 
3658.963952  	-0.016975 
3660.892768  	-0.017922 
3662.821584  	-0.018718 
3664.750400  	-0.018868 
3666.679216  	-0.017966 
3668.608032  	-0.015527 
3670.536848  	-0.014046 
3672.465664  	-0.015693 
3674.394480  	-0.014752 
3676.323296  	-0.013862 
3678.252112  	-0.016546 
3680.180928  	-0.017897 
3682.109744  	-0.019042 
3684.038560  	-0.019185 
3685.967376  	-0.018714 
3687.896192  	-0.016744 
3689.825008  	-0.015187 
3691.753824  	-0.016737 
3693.682640  	-0.018654 
3695.611456  	-0.019241 
3697.540272  	-0.019273 
3699.469088  	-0.019314 
3701.397904  	-0.018387 
3703.326720  	-0.018634 
3705.255536  	-0.019120 
3707.184352  	-0.018386 
3709.113168  	-0.016735 
3711.041984  	-0.014348 
3712.970800  	-0.015243 
3714.899616  	-0.017712 
3716.828432  	-0.018798 
3718.757248  	-0.018072 
3720.686064  	-0.017358 
3722.614880  	-0.016389 
3724.543696  	-0.015974 
3726.472512  	-0.015792 
3728.401328  	-0.017435 
3730.330144  	-0.018130 
3732.258960  	-0.016210 
3734.187776  	-0.012198 
3736.116592  	-0.010604 
3738.045408  	-0.014387 
3739.974224  	-0.015706 
3741.903040  	-0.015717 
3743.831856  	-0.015334 
3745.760672  	-0.014341 
3747.689488  	-0.014714 
3749.618304  	-0.013478 
3751.547120  	-0.012807 
3753.475936  	-0.015536 
3755.404752  	-0.017201 
3757.333568  	-0.017010 
3759.262384  	-0.016731 
3761.191200  	-0.018127 
3763.120016  	-0.018909 
3765.048832  	-0.017794 
3766.977648  	-0.017608 
3768.906464  	-0.017799 
3770.835280  	-0.018331 
3772.764096  	-0.019688 
3774.692912  	-0.020099 
3776.621728  	-0.019711 
3778.550544  	-0.018554 
3780.479360  	-0.018452 
3782.408176  	-0.019254 
3784.336992  	-0.018910 
3786.265808  	-0.019240 
3788.194624  	-0.019938 
3790.123440  	-0.020093 
3792.052256  	-0.020270 
3793.981072  	-0.019985 
3795.909888  	-0.018180 
3797.838704  	-0.016739 
3799.767520  	-0.016463 
3801.696336  	-0.015458 
3803.625152  	-0.017296 
3805.553968  	-0.018460 
3807.482784  	-0.018367 
3809.411600  	-0.019377 
3811.340416  	-0.019930 
3813.269232  	-0.019545 
3815.198048  	-0.017857 
3817.126864  	-0.016695 
3819.055680  	-0.016424 
3820.984496  	-0.015187 
3822.913312  	-0.016836 
3824.842128  	-0.018092 
3826.770944  	-0.017991 
3828.699760  	-0.018663 
3830.628576  	-0.018754 
3832.557392  	-0.018217 
3834.486208  	-0.017820 
3836.415024  	-0.016725 
3838.343840  	-0.015197 
3840.272656  	-0.014920 
3842.201472  	-0.016563 
3844.130288  	-0.017693 
3846.059104  	-0.018987 
3847.987920  	-0.019137 
3849.916736  	-0.017710 
3851.845552  	-0.015252 
3853.774368  	-0.013298 
3855.703184  	-0.015527 
3857.632000  	-0.017151 
3859.560816  	-0.018488 
3861.489632  	-0.017783 
3863.418448  	-0.016037 
3865.347264  	-0.015500 
3867.276080  	-0.016844 
3869.204896  	-0.015442 
3871.133712  	-0.014823 
3873.062528  	-0.016551 
3874.991344  	-0.017712 
3876.920160  	-0.019440 
3878.848976  	-0.018388 
3880.777792  	-0.015998 
3882.706608  	-0.016526 
3884.635424  	-0.016823 
3886.564240  	-0.017752 
3888.493056  	-0.019565 
3890.421872  	-0.018526 
3892.350688  	-0.017462 
3894.279504  	-0.018820 
3896.208320  	-0.019487 
3898.137136  	-0.017897 
3900.065952  	-0.015492 
3901.994768  	-0.014526 
3903.923584  	-0.014710 
3905.852400  	-0.016809 
3907.781216  	-0.019644 
3909.710032  	-0.021037 
3911.638848  	-0.021285 
3913.567664  	-0.020840 
3915.496480  	-0.019040 
3917.425296  	-0.017382 
3919.354112  	-0.018001 
3921.282928  	-0.018658 
3923.211744  	-0.017993 
3925.140560  	-0.017591 
3927.069376  	-0.019237 
3928.998192  	-0.019024 
3930.927008  	-0.017654 
3932.855824  	-0.017728 
3934.784640  	-0.019427 
3936.713456  	-0.020253 
3938.642272  	-0.020387 
3940.571088  	-0.019938 
3942.499904  	-0.018222 
3944.428720  	-0.018639 
3946.357536  	-0.019240 
3948.286352  	-0.018163 
3950.215168  	-0.018750 
3952.143984  	-0.020265 
3954.072800  	-0.020806 
3956.001616  	-0.020529 
3957.930432  	-0.020092 
3959.859248  	-0.019854 
3961.788064  	-0.019702 
3963.716880  	-0.020321 
3965.645696  	-0.021075 
3967.574512  	-0.021116 
3969.503328  	-0.020888 
3971.432144  	-0.020720 
3973.360960  	-0.020305 
3975.289776  	-0.019861 
3977.218592  	-0.020220 
3979.147408  	-0.020924 
3981.076224  	-0.021090 
3983.005040  	-0.021112 
3984.933856  	-0.021023 
3986.862672  	-0.020777 
3988.791488  	-0.020669 
3990.720304  	-0.020576 
3992.649120  	-0.020710 
3994.577936  	-0.020764 
3996.506752  	-0.020976 
3998.435568  	-0.021166 
4000.364384  	-0.021073 