##TITLE=No Description
##DATA TYPE=INFRARED SPECTRUM
##XUNITS=1/CM
##YUNITS=Abs
399.264912  	0.516362 
401.193728  	0.502338 
403.122544  	0.512743 
405.051360  	0.508883 
406.980176  	0.508706 
408.908992  	0.509296 
410.837808  	0.510162 
412.766624  	0.507817 
414.695440  	0.506598 
416.624256  	0.498576 
418.553072  	0.509289 
420.481888  	0.504988 
422.410704  	0.500027 
424.339520  	0.489317 
426.268336  	0.487450 
428.197152  	0.489059 
430.125968  	0.486151 
432.054784  	0.473483 
433.983600  	0.472328 
435.912416  	0.473130 
437.841232  	0.468993 
439.770048  	0.464004 
441.698864  	0.468947 
443.627680  	0.469503 
445.556496  	0.470766 
447.485312  	0.465520 
449.414128  	0.460289 
451.342944  	0.455750 
453.271760  	0.458086 
455.200576  	0.457884 
457.129392  	0.464879 
459.058208  	0.464736 
460.987024  	0.461300 
462.915840  	0.460955 
464.844656  	0.460757 
466.773472  	0.449180 
468.702288  	0.445542 
470.631104  	0.449379 
472.559920  	0.451647 
474.488736  	0.448965 
476.417552  	0.452599 
478.346368  	0.450113 
480.275184  	0.448930 
482.204000  	0.449925 
484.132816  	0.451664 
486.061632  	0.449700 
487.990448  	0.446352 
489.919264  	0.442655 
491.848080  	0.442572 
493.776896  	0.443048 
495.705712  	0.442143 
497.634528  	0.437372 
499.563344  	0.437693 
501.492160  	0.435658 
503.420976  	0.434784 
505.349792  	0.433143 
507.278608  	0.435076 
509.207424  	0.432733 
511.136240  	0.432619 
513.065056  	0.433163 
514.993872  	0.435342 
516.922688  	0.436798 
518.851504  	0.436704 
520.780320  	0.434857 
522.709136  	0.434668 
524.637952  	0.433416 
526.566768  	0.432818 
528.495584  	0.430574 
530.424400  	0.427489 
532.353216  	0.424143 
534.282032  	0.422174 
536.210848  	0.417296 
538.139664  	0.410669 
540.068480  	0.405348 
541.997296  	0.403384 
543.926112  	0.400924 
545.854928  	0.399639 
547.783744  	0.395469 
549.712560  	0.393254 
551.641376  	0.390296 
553.570192  	0.388553 
555.499008  	0.385457 
557.427824  	0.383914 
559.356640  	0.379945 
561.285456  	0.376997 
563.214272  	0.374574 
565.143088  	0.372280 
567.071904  	0.369184 
569.000720  	0.367249 
570.929536  	0.365253 
572.858352  	0.363099 
574.787168  	0.360770 
576.715984  	0.358410 
578.644800  	0.354544 
580.573616  	0.350503 
582.502432  	0.345941 
584.431248  	0.343728 
586.360064  	0.341383 
588.288880  	0.338237 
590.217696  	0.335807 
592.146512  	0.334984 
594.075328  	0.332215 
596.004144  	0.329982 
597.932960  	0.328528 
599.861776  	0.328774 
601.790592  	0.327149 
603.719408  	0.325078 
605.648224  	0.323389 
607.577040  	0.322531 
609.505856  	0.320607 
611.434672  	0.319843 
613.363488  	0.318626 
615.292304  	0.317774 
617.221120  	0.316068 
619.149936  	0.314691 
621.078752  	0.313009 
623.007568  	0.311843 
624.936384  	0.311188 
626.865200  	0.310251 
628.794016  	0.308634 
630.722832  	0.308003 
632.651648  	0.307679 
634.580464  	0.307696 
636.509280  	0.307366 
638.438096  	0.307414 
640.366912  	0.306710 
642.295728  	0.305176 
644.224544  	0.302983 
646.153360  	0.300627 
648.082176  	0.296671 
650.010992  	0.293711 
651.939808  	0.291047 
653.868624  	0.288402 
655.797440  	0.284551 
657.726256  	0.281718 
659.655072  	0.278711 
661.583888  	0.275433 
663.512704  	0.272148 
665.441520  	0.268582 
667.370336  	0.265105 
669.299152  	0.262970 
671.227968  	0.258554 
673.156784  	0.254654 
675.085600  	0.252465 
677.014416  	0.250519 
678.943232  	0.248574 
680.872048  	0.247082 
682.800864  	0.245550 
684.729680  	0.244067 
686.658496  	0.242341 
688.587312  	0.241415 
690.516128  	0.240196 
692.444944  	0.239261 
694.373760  	0.237836 
696.302576  	0.236818 
698.231392  	0.234794 
700.160208  	0.232550 
702.089024  	0.229946 
704.017840  	0.227799 
705.946656  	0.225609 
707.875472  	0.223291 
709.804288  	0.221356 
711.733104  	0.219526 
713.661920  	0.217907 
715.590736  	0.216526 
717.519552  	0.215831 
719.448368  	0.216345 
721.377184  	0.216887 
723.306000  	0.216979 
725.234816  	0.216923 
727.163632  	0.215944 
729.092448  	0.214044 
731.021264  	0.211326 
732.950080  	0.208262 
734.878896  	0.205442 
736.807712  	0.202800 
738.736528  	0.200965 
740.665344  	0.199507 
742.594160  	0.198165 
744.522976  	0.196591 
746.451792  	0.195198 
748.380608  	0.193792 
750.309424  	0.192583 
752.238240  	0.191202 
754.167056  	0.190393 
756.095872  	0.189754 
758.024688  	0.188520 
759.953504  	0.187909 
761.882320  	0.188405 
763.811136  	0.188821 
765.739952  	0.187285 
767.668768  	0.184517 
769.597584  	0.182173 
771.526400  	0.181326 
773.455216  	0.182209 
775.384032  	0.184725 
777.312848  	0.188885 
779.241664  	0.192139 
781.170480  	0.191717 
783.099296  	0.187670 
785.028112  	0.182739 
786.956928  	0.177967 
788.885744  	0.174148 
790.814560  	0.171068 
792.743376  	0.169093 
794.672192  	0.168153 
796.601008  	0.167202 
798.529824  	0.164601 
800.458640  	0.161023 
802.387456  	0.158059 
804.316272  	0.156063 
806.245088  	0.154880 
808.173904  	0.153855 
810.102720  	0.153226 
812.031536  	0.152872 
813.960352  	0.152676 
815.889168  	0.153127 
817.817984  	0.153708 
819.746800  	0.154008 
821.675616  	0.154286 
823.604432  	0.154546 
825.533248  	0.154393 
827.462064  	0.154482 
829.390880  	0.153922 
831.319696  	0.153415 
833.248512  	0.152398 
835.177328  	0.150617 
837.106144  	0.148236 
839.034960  	0.145656 
840.963776  	0.142587 
842.892592  	0.139176 
844.821408  	0.135866 
846.750224  	0.133051 
848.679040  	0.130568 
850.607856  	0.128310 
852.536672  	0.126859 
854.465488  	0.125713 
856.394304  	0.124759 
858.323120  	0.123457 
860.251936  	0.121845 
862.180752  	0.120601 
864.109568  	0.118640 
866.038384  	0.116443 
867.967200  	0.114595 
869.896016  	0.113063 
871.824832  	0.112096 
873.753648  	0.112038 
875.682464  	0.112290 
877.611280  	0.113311 
879.540096  	0.114892 
881.468912  	0.116502 
883.397728  	0.118277 
885.326544  	0.119859 
887.255360  	0.120772 
889.184176  	0.120636 
891.112992  	0.120078 
893.041808  	0.118946 
894.970624  	0.116779 
896.899440  	0.113354 
898.828256  	0.109431 
900.757072  	0.105635 
902.685888  	0.102371 
904.614704  	0.100317 
906.543520  	0.099688 
908.472336  	0.100554 
910.401152  	0.102235 
912.329968  	0.104514 
914.258784  	0.106775 
916.187600  	0.108962 
918.116416  	0.110768 
920.045232  	0.112180 
921.974048  	0.113101 
923.902864  	0.113542 
925.831680  	0.113941 
927.760496  	0.114586 
929.689312  	0.115187 
931.618128  	0.116212 
933.546944  	0.116970 
935.475760  	0.117082 
937.404576  	0.116854 
939.333392  	0.116183 
941.262208  	0.115811 
943.191024  	0.116591 
945.119840  	0.118889 
947.048656  	0.122958 
948.977472  	0.129195 
950.906288  	0.137072 
952.835104  	0.146509 
954.763920  	0.157242 
956.692736  	0.167952 
958.621552  	0.178052 
960.550368  	0.185743 
962.479184  	0.190360 
964.408000  	0.191117 
966.336816  	0.188292 
968.265632  	0.181647 
970.194448  	0.172120 
972.123264  	0.160782 
974.052080  	0.148669 
975.980896  	0.136529 
977.909712  	0.124908 
979.838528  	0.114670 
981.767344  	0.106134 
983.696160  	0.099538 
985.624976  	0.095163 
987.553792  	0.093569 
989.482608  	0.094393 
991.411424  	0.097440 
993.340240  	0.102211 
995.269056  	0.107787 
997.197872  	0.113923 
999.126688  	0.120220 
1001.055504  	0.126678 
1002.984320  	0.132818 
1004.913136  	0.139055 
1006.841952  	0.144881 
1008.770768  	0.150172 
1010.699584  	0.154560 
1012.628400  	0.157918 
1014.557216  	0.160314 
1016.486032  	0.161347 
1018.414848  	0.161717 
1020.343664  	0.161655 
1022.272480  	0.161399 
1024.201296  	0.161050 
1026.130112  	0.160523 
1028.058928  	0.160703 
1029.987744  	0.162026 
1031.916560  	0.164023 
1033.845376  	0.166581 
1035.774192  	0.170401 
1037.703008  	0.175334 
1039.631824  	0.182754 
1041.560640  	0.192475 
1043.489456  	0.204972 
1045.418272  	0.219112 
1047.347088  	0.233601 
1049.275904  	0.245011 
1051.204720  	0.252217 
1053.133536  	0.255275 
1055.062352  	0.255024 
1056.991168  	0.252853 
1058.919984  	0.250863 
1060.848800  	0.249403 
1062.777616  	0.247842 
1064.706432  	0.245340 
1066.635248  	0.242409 
1068.564064  	0.238501 
1070.492880  	0.233411 
1072.421696  	0.228064 
1074.350512  	0.224690 
1076.279328  	0.224044 
1078.208144  	0.226970 
1080.136960  	0.231400 
1082.065776  	0.235278 
1083.994592  	0.236047 
1085.923408  	0.233464 
1087.852224  	0.227544 
1089.781040  	0.220056 
1091.709856  	0.210907 
1093.638672  	0.200284 
1095.567488  	0.188364 
1097.496304  	0.176242 
1099.425120  	0.164218 
1101.353936  	0.152688 
1103.282752  	0.141768 
1105.211568  	0.131449 
1107.140384  	0.122095 
1109.069200  	0.113506 
1110.998016  	0.105730 
1112.926832  	0.098759 
1114.855648  	0.092555 
1116.784464  	0.086368 
1118.713280  	0.080370 
1120.642096  	0.074865 
1122.570912  	0.069734 
1124.499728  	0.064832 
1126.428544  	0.060527 
1128.357360  	0.056782 
1130.286176  	0.053626 
1132.214992  	0.051086 
1134.143808  	0.049281 
1136.072624  	0.047595 
1138.001440  	0.045799 
1139.930256  	0.044300 
1141.859072  	0.042897 
1143.787888  	0.041256 
1145.716704  	0.039902 
1147.645520  	0.038735 
1149.574336  	0.037964 
1151.503152  	0.037228 
1153.431968  	0.037014 
1155.360784  	0.037180 
1157.289600  	0.037935 
1159.218416  	0.039067 
1161.147232  	0.040457 
1163.076048  	0.042091 
1165.004864  	0.043691 
1166.933680  	0.045192 
1168.862496  	0.046816 
1170.791312  	0.048706 
1172.720128  	0.050992 
1174.648944  	0.053395 
1176.577760  	0.055653 
1178.506576  	0.058273 
1180.435392  	0.061082 
1182.364208  	0.063703 
1184.293024  	0.066665 
1186.221840  	0.070256 
1188.150656  	0.074232 
1190.079472  	0.078688 
1192.008288  	0.084272 
1193.937104  	0.090606 
1195.865920  	0.097526 
1197.794736  	0.104815 
1199.723552  	0.112838 
1201.652368  	0.120991 
1203.581184  	0.128835 
1205.510000  	0.136391 
1207.438816  	0.142904 
1209.367632  	0.148756 
1211.296448  	0.153650 
1213.225264  	0.157446 
1215.154080  	0.159867 
1217.082896  	0.161332 
1219.011712  	0.161405 
1220.940528  	0.161063 
1222.869344  	0.160393 
1224.798160  	0.159084 
1226.726976  	0.156815 
1228.655792  	0.153864 
1230.584608  	0.150505 
1232.513424  	0.146758 
1234.442240  	0.142516 
1236.371056  	0.137915 
1238.299872  	0.132819 
1240.228688  	0.126989 
1242.157504  	0.121103 
1244.086320  	0.115550 
1246.015136  	0.109622 
1247.943952  	0.103808 
1249.872768  	0.097989 
1251.801584  	0.092632 
1253.730400  	0.087435 
1255.659216  	0.082220 
1257.588032  	0.077304 
1259.516848  	0.072971 
1261.445664  	0.068809 
1263.374480  	0.064815 
1265.303296  	0.061484 
1267.232112  	0.058910 
1269.160928  	0.057154 
1271.089744  	0.055898 
1273.018560  	0.055128 
1274.947376  	0.055183 
1276.876192  	0.055913 
1278.805008  	0.056409 
1280.733824  	0.056147 
1282.662640  	0.054737 
1284.591456  	0.053015 
1286.520272  	0.051694 
1288.449088  	0.050876 
1290.377904  	0.050442 
1292.306720  	0.050798 
1294.235536  	0.051353 
1296.164352  	0.051269 
1298.093168  	0.049736 
1300.021984  	0.047449 
1301.950800  	0.044943 
1303.879616  	0.042435 
1305.808432  	0.039855 
1307.737248  	0.037269 
1309.666064  	0.034620 
1311.594880  	0.033063 
1313.523696  	0.031939 
1315.452512  	0.030893 
1317.381328  	0.030754 
1319.310144  	0.030848 
1321.238960  	0.030649 
1323.167776  	0.030998 
1325.096592  	0.031524 
1327.025408  	0.031783 
1328.954224  	0.031690 
1330.883040  	0.031183 
1332.811856  	0.030067 
1334.740672  	0.029392 
1336.669488  	0.030021 
1338.598304  	0.031654 
1340.527120  	0.030837 
1342.455936  	0.028028 
1344.384752  	0.027202 
1346.313568  	0.027521 
1348.242384  	0.028280 
1350.171200  	0.029295 
1352.100016  	0.030570 
1354.028832  	0.032433 
1355.957648  	0.034209 
1357.886464  	0.035803 
1359.815280  	0.037986 
1361.744096  	0.041524 
1363.672912  	0.043369 
1365.601728  	0.042898 
1367.530544  	0.044191 
1369.459360  	0.045801 
1371.388176  	0.046267 
1373.316992  	0.047256 
1375.245808  	0.046198 
1377.174624  	0.043136 
1379.103440  	0.040755 
1381.032256  	0.038064 
1382.961072  	0.035871 
1384.889888  	0.035052 
1386.818704  	0.035591 
1388.747520  	0.033578 
1390.676336  	0.030810 
1392.605152  	0.029757 
1394.533968  	0.030692 
1396.462784  	0.031341 
1398.391600  	0.030960 
1400.320416  	0.029709 
1402.249232  	0.028931 
1404.178048  	0.030460 
1406.106864  	0.031292 
1408.035680  	0.031704 
1409.964496  	0.033317 
1411.893312  	0.035173 
1413.822128  	0.036779 
1415.750944  	0.039758 
1417.679760  	0.043171 
1419.608576  	0.044013 
1421.537392  	0.042235 
1423.466208  	0.041972 
1425.395024  	0.040127 
1427.323840  	0.037734 
1429.252656  	0.036572 
1431.181472  	0.035083 
1433.110288  	0.034115 
1435.039104  	0.034903 
1436.967920  	0.036530 
1438.896736  	0.035793 
1440.825552  	0.035598 
1442.754368  	0.035941 
1444.683184  	0.036024 
1446.612000  	0.036912 
1448.540816  	0.037374 
1450.469632  	0.037050 
1452.398448  	0.037565 
1454.327264  	0.038787 
1456.256080  	0.041983 
1458.184896  	0.042837 
1460.113712  	0.038839 
1462.042528  	0.036772 
1463.971344  	0.037247 
1465.900160  	0.038022 
1467.828976  	0.037816 
1469.757792  	0.039211 
1471.686608  	0.044350 
1473.615424  	0.051477 
1475.544240  	0.053945 
1477.473056  	0.056346 
1479.401872  	0.057955 
1481.330688  	0.060820 
1483.259504  	0.062361 
1485.188320  	0.063826 
1487.117136  	0.066149 
1489.045952  	0.068796 
1490.974768  	0.066238 
1492.903584  	0.061277 
1494.832400  	0.058271 
1496.761216  	0.055771 
1498.690032  	0.050884 
1500.618848  	0.045907 
1502.547664  	0.041614 
1504.476480  	0.039262 
1506.405296  	0.042566 
1508.334112  	0.043328 
1510.262928  	0.037343 
1512.191744  	0.033431 
1514.120560  	0.032560 
1516.049376  	0.034983 
1517.978192  	0.035822 
1519.907008  	0.036496 
1521.835824  	0.041059 
1523.764640  	0.042084 
1525.693456  	0.044259 
1527.622272  	0.045487 
1529.551088  	0.044030 
1531.479904  	0.043257 
1533.408720  	0.043226 
1535.337536  	0.039736 
1537.266352  	0.037299 
1539.195168  	0.037714 
1541.123984  	0.037455 
1543.052800  	0.035495 
1544.981616  	0.032809 
1546.910432  	0.028617 
1548.839248  	0.028426 
1550.768064  	0.029437 
1552.696880  	0.028496 
1554.625696  	0.030019 
1556.554512  	0.030744 
1558.483328  	0.035420 
1560.412144  	0.037165 
1562.340960  	0.035565 
1564.269776  	0.037057 
1566.198592  	0.040462 
1568.127408  	0.043366 
1570.056224  	0.049512 
1571.985040  	0.052014 
1573.913856  	0.053982 
1575.842672  	0.057979 
1577.771488  	0.060746 
1579.700304  	0.058657 
1581.629120  	0.057567 
1583.557936  	0.056959 
1585.486752  	0.057742 
1587.415568  	0.059522 
1589.344384  	0.063113 
1591.273200  	0.067513 
1593.202016  	0.073166 
1595.130832  	0.079234 
1597.059648  	0.084993 
1598.988464  	0.089694 
1600.917280  	0.094767 
1602.846096  	0.098471 
1604.774912  	0.100735 
1606.703728  	0.101495 
1608.632544  	0.101909 
1610.561360  	0.100381 
1612.490176  	0.098829 
1614.418992  	0.097176 
1616.347808  	0.098685 
1618.276624  	0.100773 
1620.205440  	0.101464 
1622.134256  	0.104039 
1624.063072  	0.110610 
1625.991888  	0.114149 
1627.920704  	0.120271 
1629.849520  	0.126695 
1631.778336  	0.131641 
1633.707152  	0.135897 
1635.635968  	0.146907 
1637.564784  	0.155744 
1639.493600  	0.156691 
1641.422416  	0.158505 
1643.351232  	0.160138 
1645.280048  	0.161422 
1647.208864  	0.168096 
1649.137680  	0.166630 
1651.066496  	0.161450 
1652.995312  	0.163460 
1654.924128  	0.167124 
1656.852944  	0.160469 
1658.781760  	0.156620 
1660.710576  	0.153875 
1662.639392  	0.152450 
1664.568208  	0.148956 
1666.497024  	0.144307 
1668.425840  	0.141447 
1670.354656  	0.139148 
1672.283472  	0.134428 
1674.212288  	0.130382 
1676.141104  	0.128199 
1678.069920  	0.125338 
1679.998736  	0.124819 
1681.927552  	0.123407 
1683.856368  	0.123880 
1685.785184  	0.124245 
1687.714000  	0.120955 
1689.642816  	0.119778 
1691.571632  	0.117402 
1693.500448  	0.115131 
1695.429264  	0.115752 
1697.358080  	0.117190 
1699.286896  	0.113789 
1701.215712  	0.113645 
1703.144528  	0.110117 
1705.073344  	0.107496 
1707.002160  	0.103878 
1708.930976  	0.098959 
1710.859792  	0.094266 
1712.788608  	0.089847 
1714.717424  	0.085516 
1716.646240  	0.079539 
1718.575056  	0.068902 
1720.503872  	0.058821 
1722.432688  	0.051528 
1724.361504  	0.043675 
1726.290320  	0.036630 
1728.219136  	0.031840 
1730.147952  	0.028609 
1732.076768  	0.025357 
1734.005584  	0.022089 
1735.934400  	0.016488 
1737.863216  	0.014283 
1739.792032  	0.012165 
1741.720848  	0.010645 
1743.649664  	0.010308 
1745.578480  	0.009198 
1747.507296  	0.008878 
1749.436112  	0.008971 
1751.364928  	0.006876 
1753.293744  	0.003912 
1755.222560  	0.002898 
1757.151376  	0.003577 
1759.080192  	0.002696 
1761.009008  	0.002527 
1762.937824  	0.001403 
1764.866640  	0.000284 
1766.795456  	0.000757 
1768.724272  	0.001587 
1770.653088  	0.001351 
1772.581904  	0.001784 
1774.510720  	0.000721 
1776.439536  	-0.000054 
1778.368352  	-0.000733 
1780.297168  	-0.000354 
1782.225984  	-0.001296 
1784.154800  	-0.001513 
1786.083616  	-0.002102 
1788.012432  	-0.002433 
1789.941248  	-0.001125 
1791.870064  	0.000185 
1793.798880  	-0.001153 
1795.727696  	-0.001530 
1797.656512  	-0.002335 
1799.585328  	-0.002209 
1801.514144  	-0.001700 
1803.442960  	-0.002732 
1805.371776  	-0.003599 
1807.300592  	-0.003477 
1809.229408  	-0.003488 
1811.158224  	-0.003179 
1813.087040  	-0.003955 
1815.015856  	-0.004711 
1816.944672  	-0.004348 
1818.873488  	-0.004018 
1820.802304  	-0.004090 
1822.731120  	-0.003541 
1824.659936  	-0.003193 
1826.588752  	-0.003484 
1828.517568  	-0.003477 
1830.446384  	-0.003252 
1832.375200  	-0.004425 
1834.304016  	-0.004707 
1836.232832  	-0.004516 
1838.161648  	-0.004165 
1840.090464  	-0.004586 
1842.019280  	-0.004062 
1843.948096  	-0.003348 
1845.876912  	-0.003554 
1847.805728  	-0.004408 
1849.734544  	-0.005220 
1851.663360  	-0.005599 
1853.592176  	-0.005386 
1855.520992  	-0.005589 
1857.449808  	-0.005405 
1859.378624  	-0.005529 
1861.307440  	-0.005451 
1863.236256  	-0.005730 
1865.165072  	-0.005204 
1867.093888  	-0.004130 
1869.022704  	-0.003018 
1870.951520  	-0.004347 
1872.880336  	-0.005421 
1874.809152  	-0.005907 
1876.737968  	-0.006096 
1878.666784  	-0.006285 
1880.595600  	-0.006463 
1882.524416  	-0.006484 
1884.453232  	-0.005978 
1886.382048  	-0.005999 
1888.310864  	-0.005196 
1890.239680  	-0.005220 
1892.168496  	-0.005802 
1894.097312  	-0.005721 
1896.026128  	-0.005862 
1897.954944  	-0.006362 
1899.883760  	-0.006106 
1901.812576  	-0.006087 
1903.741392  	-0.005983 
1905.670208  	-0.006353 
1907.599024  	-0.006270 
1909.527840  	-0.005977 
1911.456656  	-0.005731 
1913.385472  	-0.005853 
1915.314288  	-0.005584 
1917.243104  	-0.005543 
1919.171920  	-0.005450 
1921.100736  	-0.005426 
1923.029552  	-0.005388 
1924.958368  	-0.007183 
1926.887184  	-0.007359 
1928.816000  	-0.007505 
1930.744816  	-0.007244 
1932.673632  	-0.007108 
1934.602448  	-0.006868 
1936.531264  	-0.007167 
1938.460080  	-0.007062 
1940.388896  	-0.006225 
1942.317712  	-0.004799 
1944.246528  	-0.006399 
1946.175344  	-0.006455 
1948.104160  	-0.006504 
1950.032976  	-0.006564 
1951.961792  	-0.007033 
1953.890608  	-0.006862 
1955.819424  	-0.007645 
1957.748240  	-0.007635 
1959.677056  	-0.007851 
1961.605872  	-0.007559 
1963.534688  	-0.007674 
1965.463504  	-0.006806 
1967.392320  	-0.006770 
1969.321136  	-0.007419 
1971.249952  	-0.009067 
1973.178768  	-0.008684 
1975.107584  	-0.007634 
1977.036400  	-0.006074 
1978.965216  	-0.006244 
1980.894032  	-0.006342 
1982.822848  	-0.007076 
1984.751664  	-0.007047 
1986.680480  	-0.006968 
1988.609296  	-0.006020 
1990.538112  	-0.005166 
1992.466928  	-0.004181 
1994.395744  	-0.005966 
1996.324560  	-0.006303 
1998.253376  	-0.006341 
2000.182192  	-0.006795 
2002.111008  	-0.007558 
2004.039824  	-0.006856 
2005.968640  	-0.007146 
2007.897456  	-0.006635 
2009.826272  	-0.006213 
2011.755088  	-0.006393 
2013.683904  	-0.007218 
2015.612720  	-0.006411 
2017.541536  	-0.005862 
2019.470352  	-0.005439 
2021.399168  	-0.006671 
2023.327984  	-0.006628 
2025.256800  	-0.006642 
2027.185616  	-0.004945 
2029.114432  	-0.004117 
2031.043248  	-0.004758 
2032.972064  	-0.005590 
2034.900880  	-0.004556 
2036.829696  	-0.004381 
2038.758512  	-0.004378 
2040.687328  	-0.005538 
2042.616144  	-0.005471 
2044.544960  	-0.005448 
2046.473776  	-0.005224 
2048.402592  	-0.004729 
2050.331408  	-0.004128 
2052.260224  	-0.004315 
2054.189040  	-0.004227 
2056.117856  	-0.005334 
2058.046672  	-0.005592 
2059.975488  	-0.005207 
2061.904304  	-0.004444 
2063.833120  	-0.004527 
2065.761936  	-0.004337 
2067.690752  	-0.004581 
2069.619568  	-0.004634 
2071.548384  	-0.005066 
2073.477200  	-0.004698 
2075.406016  	-0.004639 
2077.334832  	-0.004041 
2079.263648  	-0.003509 
2081.192464  	-0.003302 
2083.121280  	-0.003967 
2085.050096  	-0.003924 
2086.978912  	-0.004036 
2088.907728  	-0.003640 
2090.836544  	-0.003359 
2092.765360  	-0.003711 
2094.694176  	-0.004072 
2096.622992  	-0.003568 
2098.551808  	-0.003479 
2100.480624  	-0.003149 
2102.409440  	-0.003281 
2104.338256  	-0.003597 
2106.267072  	-0.004090 
2108.195888  	-0.003687 
2110.124704  	-0.003577 
2112.053520  	-0.003370 
2113.982336  	-0.003036 
2115.911152  	-0.003138 
2117.839968  	-0.003969 
2119.768784  	-0.003806 
2121.697600  	-0.003607 
2123.626416  	-0.003709 
2125.555232  	-0.004026 
2127.484048  	-0.003784 
2129.412864  	-0.003811 
2131.341680  	-0.004051 
2133.270496  	-0.003781 
2135.199312  	-0.003345 
2137.128128  	-0.003623 
2139.056944  	-0.002553 
2140.985760  	-0.002327 
2142.914576  	-0.002663 
2144.843392  	-0.003770 
2146.772208  	-0.003356 
2148.701024  	-0.003696 
2150.629840  	-0.004534 
2152.558656  	-0.004497 
2154.487472  	-0.003628 
2156.416288  	-0.003774 
2158.345104  	-0.001899 
2160.273920  	0.000516 
2162.202736  	-0.000107 
2164.131552  	-0.001635 
2166.060368  	-0.001687 
2167.989184  	-0.002463 
2169.918000  	-0.002773 
2171.846816  	-0.002149 
2173.775632  	-0.000807 
2175.704448  	-0.001260 
2177.633264  	-0.002020 
2179.562080  	-0.002512 
2181.490896  	-0.001727 
2183.419712  	-0.001804 
2185.348528  	-0.001980 
2187.277344  	-0.002158 
2189.206160  	-0.002120 
2191.134976  	-0.002844 
2193.063792  	-0.003092 
2194.992608  	-0.002837 
2196.921424  	-0.002688 
2198.850240  	-0.003262 
2200.779056  	-0.003627 
2202.707872  	-0.004024 
2204.636688  	-0.003443 
2206.565504  	-0.003500 
2208.494320  	-0.003546 
2210.423136  	-0.003665 
2212.351952  	-0.003721 
2214.280768  	-0.004191 
2216.209584  	-0.004207 
2218.138400  	-0.005360 
2220.067216  	-0.005485 
2221.996032  	-0.004981 
2223.924848  	-0.004129 
2225.853664  	-0.003774 
2227.782480  	-0.003490 
2229.711296  	-0.004537 
2231.640112  	-0.004887 
2233.568928  	-0.004892 
2235.497744  	-0.004352 
2237.426560  	-0.004049 
2239.355376  	-0.003902 
2241.284192  	-0.004426 
2243.213008  	-0.004508 
2245.141824  	-0.004884 
2247.070640  	-0.004998 
2248.999456  	-0.004946 
2250.928272  	-0.005010 
2252.857088  	-0.005618 
2254.785904  	-0.005088 
2256.714720  	-0.004107 
2258.643536  	-0.003689 
2260.572352  	-0.003671 
2262.501168  	-0.003607 
2264.429984  	-0.003876 
2266.358800  	-0.003973 
2268.287616  	-0.004167 
2270.216432  	-0.004347 
2272.145248  	-0.004253 
2274.074064  	-0.003616 
2276.002880  	-0.003964 
2277.931696  	-0.004054 
2279.860512  	-0.004056 
2281.789328  	-0.003956 
2283.718144  	-0.003885 
2285.646960  	-0.003419 
2287.575776  	-0.003506 
2289.504592  	-0.003457 
2291.433408  	-0.003136 
2293.362224  	-0.002871 
2295.291040  	-0.002951 
2297.219856  	-0.002624 
2299.148672  	-0.002269 
2301.077488  	-0.002043 
2303.006304  	-0.001624 
2304.935120  	-0.001020 
2306.863936  	-0.000779 
2308.792752  	-0.000577 
2310.721568  	-0.000607 
2312.650384  	-0.000774 
2314.579200  	-0.001365 
2316.508016  	-0.001526 
2318.436832  	-0.001197 
2320.365648  	-0.000945 
2322.294464  	-0.001455 
2324.223280  	-0.002522 
2326.152096  	-0.004299 
2328.080912  	-0.005572 
2330.009728  	-0.005949 
2331.938544  	-0.006298 
2333.867360  	-0.006927 
2335.796176  	-0.007497 
2337.724992  	-0.008066 
2339.653808  	-0.008051 
2341.582624  	-0.007576 
2343.511440  	-0.006605 
2345.440256  	-0.005363 
2347.369072  	-0.004161 
2349.297888  	-0.003730 
2351.226704  	-0.004738 
2353.155520  	-0.007009 
2355.084336  	-0.008433 
2357.013152  	-0.008672 
2358.941968  	-0.008954 
2360.870784  	-0.010039 
2362.799600  	-0.009901 
2364.728416  	-0.008554 
2366.657232  	-0.007593 
2368.586048  	-0.006714 
2370.514864  	-0.005076 
2372.443680  	-0.003944 
2374.372496  	-0.002970 
2376.301312  	-0.002234 
2378.230128  	-0.001949 
2380.158944  	-0.002016 
2382.087760  	-0.002510 
2384.016576  	-0.003451 
2385.945392  	-0.003937 
2387.874208  	-0.004195 
2389.803024  	-0.004582 
2391.731840  	-0.004893 
2393.660656  	-0.005011 
2395.589472  	-0.005015 
2397.518288  	-0.005002 
2399.447104  	-0.005058 
2401.375920  	-0.005089 
2403.304736  	-0.005370 
2405.233552  	-0.005517 
2407.162368  	-0.005386 
2409.091184  	-0.005144 
2411.020000  	-0.005173 
2412.948816  	-0.005316 
2414.877632  	-0.005261 
2416.806448  	-0.005035 
2418.735264  	-0.004936 
2420.664080  	-0.004859 
2422.592896  	-0.004921 
2424.521712  	-0.004906 
2426.450528  	-0.004973 
2428.379344  	-0.005003 
2430.308160  	-0.004781 
2432.236976  	-0.004653 
2434.165792  	-0.004546 
2436.094608  	-0.004420 
2438.023424  	-0.004260 
2439.952240  	-0.004287 
2441.881056  	-0.004432 
2443.809872  	-0.004374 
2445.738688  	-0.004293 
2447.667504  	-0.004190 
2449.596320  	-0.004007 
2451.525136  	-0.003990 
2453.453952  	-0.004082 
2455.382768  	-0.003996 
2457.311584  	-0.004097 
2459.240400  	-0.004079 
2461.169216  	-0.003871 
2463.098032  	-0.003772 
2465.026848  	-0.003889 
2466.955664  	-0.004022 
2468.884480  	-0.004227 
2470.813296  	-0.004163 
2472.742112  	-0.003838 
2474.670928  	-0.003551 
2476.599744  	-0.003495 
2478.528560  	-0.003336 
2480.457376  	-0.003098 
2482.386192  	-0.003008 
2484.315008  	-0.003229 
2486.243824  	-0.003279 
2488.172640  	-0.003094 
2490.101456  	-0.002938 
2492.030272  	-0.002876 
2493.959088  	-0.003015 
2495.887904  	-0.003112 
2497.816720  	-0.002891 
2499.745536  	-0.002722 
2501.674352  	-0.002606 
2503.603168  	-0.002568 
2505.531984  	-0.002585 
2507.460800  	-0.002745 
2509.389616  	-0.002867 
2511.318432  	-0.002834 
2513.247248  	-0.002667 
2515.176064  	-0.002667 
2517.104880  	-0.002700 
2519.033696  	-0.002928 
2520.962512  	-0.002798 
2522.891328  	-0.002621 
2524.820144  	-0.002383 
2526.748960  	-0.002229 
2528.677776  	-0.002107 
2530.606592  	-0.002129 
2532.535408  	-0.002208 
2534.464224  	-0.002390 
2536.393040  	-0.002331 
2538.321856  	-0.002201 
2540.250672  	-0.001988 
2542.179488  	-0.001637 
2544.108304  	-0.001403 
2546.037120  	-0.001270 
2547.965936  	-0.001088 
2549.894752  	-0.001092 
2551.823568  	-0.001077 
2553.752384  	-0.001141 
2555.681200  	-0.001042 
2557.610016  	-0.001062 
2559.538832  	-0.000994 
2561.467648  	-0.000867 
2563.396464  	-0.000728 
2565.325280  	-0.000762 
2567.254096  	-0.000814 
2569.182912  	-0.000814 
2571.111728  	-0.000717 
2573.040544  	-0.000547 
2574.969360  	-0.000429 
2576.898176  	-0.000408 
2578.826992  	-0.000248 
2580.755808  	-0.000223 
2582.684624  	-0.000092 
2584.613440  	0.000041 
2586.542256  	0.000217 
2588.471072  	0.000235 
2590.399888  	0.000300 
2592.328704  	0.000409 
2594.257520  	0.000509 
2596.186336  	0.000323 
2598.115152  	0.000320 
2600.043968  	0.000754 
2601.972784  	0.000956 
2603.901600  	0.001047 
2605.830416  	0.001153 
2607.759232  	0.001200 
2609.688048  	0.001196 
2611.616864  	0.001221 
2613.545680  	0.001327 
2615.474496  	0.001511 
2617.403312  	0.001768 
2619.332128  	0.001903 
2621.260944  	0.002007 
2623.189760  	0.002091 
2625.118576  	0.002263 
2627.047392  	0.002303 
2628.976208  	0.002550 
2630.905024  	0.002688 
2632.833840  	0.002526 
2634.762656  	0.002533 
2636.691472  	0.002725 
2638.620288  	0.002810 
2640.549104  	0.002952 
2642.477920  	0.003080 
2644.406736  	0.003156 
2646.335552  	0.003309 
2648.264368  	0.003452 
2650.193184  	0.003570 
2652.122000  	0.003712 
2654.050816  	0.003801 
2655.979632  	0.003948 
2657.908448  	0.004073 
2659.837264  	0.004179 
2661.766080  	0.004296 
2663.694896  	0.004439 
2665.623712  	0.004588 
2667.552528  	0.004826 
2669.481344  	0.004935 
2671.410160  	0.004844 
2673.338976  	0.004919 
2675.267792  	0.005186 
2677.196608  	0.005317 
2679.125424  	0.005344 
2681.054240  	0.005445 
2682.983056  	0.005678 
2684.911872  	0.005757 
2686.840688  	0.005814 
2688.769504  	0.005983 
2690.698320  	0.006077 
2692.627136  	0.006105 
2694.555952  	0.006171 
2696.484768  	0.006298 
2698.413584  	0.006395 
2700.342400  	0.006435 
2702.271216  	0.006655 
2704.200032  	0.006894 
2706.128848  	0.007054 
2708.057664  	0.007115 
2709.986480  	0.007132 
2711.915296  	0.007220 
2713.844112  	0.007379 
2715.772928  	0.007500 
2717.701744  	0.007581 
2719.630560  	0.007762 
2721.559376  	0.007973 
2723.488192  	0.008151 
2725.417008  	0.008314 
2727.345824  	0.008434 
2729.274640  	0.008677 
2731.203456  	0.008809 
2733.132272  	0.008800 
2735.061088  	0.008945 
2736.989904  	0.009045 
2738.918720  	0.009159 
2740.847536  	0.009351 
2742.776352  	0.009470 
2744.705168  	0.009505 
2746.633984  	0.009539 
2748.562800  	0.009697 
2750.491616  	0.009800 
2752.420432  	0.009905 
2754.349248  	0.009917 
2756.278064  	0.009901 
2758.206880  	0.009884 
2760.135696  	0.009886 
2762.064512  	0.009897 
2763.993328  	0.009921 
2765.922144  	0.009948 
2767.850960  	0.009937 
2769.779776  	0.009935 
2771.708592  	0.010050 
2773.637408  	0.010078 
2775.566224  	0.010081 
2777.495040  	0.010063 
2779.423856  	0.010092 
2781.352672  	0.010202 
2783.281488  	0.010282 
2785.210304  	0.010330 
2787.139120  	0.010421 
2789.067936  	0.010375 
2790.996752  	0.010372 
2792.925568  	0.010396 
2794.854384  	0.010330 
2796.783200  	0.010397 
2798.712016  	0.010402 
2800.640832  	0.010391 
2802.569648  	0.010529 
2804.498464  	0.010634 
2806.427280  	0.010706 
2808.356096  	0.010851 
2810.284912  	0.010864 
2812.213728  	0.010807 
2814.142544  	0.010896 
2816.071360  	0.010828 
2818.000176  	0.010836 
2819.928992  	0.010921 
2821.857808  	0.010965 
2823.786624  	0.010932 
2825.715440  	0.010972 
2827.644256  	0.010965 
2829.573072  	0.010834 
2831.501888  	0.010825 
2833.430704  	0.010894 
2835.359520  	0.010831 
2837.288336  	0.010691 
2839.217152  	0.010660 
2841.145968  	0.010605 
2843.074784  	0.010590 
2845.003600  	0.010692 
2846.932416  	0.010707 
2848.861232  	0.010773 
2850.790048  	0.010744 
2852.718864  	0.010741 
2854.647680  	0.010828 
2856.576496  	0.010901 
2858.505312  	0.010927 
2860.434128  	0.011013 
2862.362944  	0.010996 
2864.291760  	0.010988 
2866.220576  	0.011001 
2868.149392  	0.011096 
2870.078208  	0.011255 
2872.007024  	0.011474 
2873.935840  	0.011787 
2875.864656  	0.012105 
2877.793472  	0.012393 
2879.722288  	0.012851 
2881.651104  	0.013142 
2883.579920  	0.013486 
2885.508736  	0.013804 
2887.437552  	0.013941 
2889.366368  	0.014029 
2891.295184  	0.014204 
2893.224000  	0.014297 
2895.152816  	0.014271 
2897.081632  	0.014266 
2899.010448  	0.014044 
2900.939264  	0.013813 
2902.868080  	0.013961 
2904.796896  	0.014318 
2906.725712  	0.014638 
2908.654528  	0.014848 
2910.583344  	0.015099 
2912.512160  	0.015383 
2914.440976  	0.015861 
2916.369792  	0.016388 
2918.298608  	0.016752 
2920.227424  	0.017177 
2922.156240  	0.017680 
2924.085056  	0.018185 
2926.013872  	0.018672 
2927.942688  	0.019334 
2929.871504  	0.019944 
2931.800320  	0.020475 
2933.729136  	0.021206 
2935.657952  	0.021873 
2937.586768  	0.022378 
2939.515584  	0.022597 
2941.444400  	0.022845 
2943.373216  	0.023303 
2945.302032  	0.023733 
2947.230848  	0.023842 
2949.159664  	0.023812 
2951.088480  	0.023777 
2953.017296  	0.023704 
2954.946112  	0.023492 
2956.874928  	0.023310 
2958.803744  	0.023160 
2960.732560  	0.022986 
2962.661376  	0.022857 
2964.590192  	0.022649 
2966.519008  	0.022308 
2968.447824  	0.021916 
2970.376640  	0.021586 
2972.305456  	0.021358 
2974.234272  	0.021545 
2976.163088  	0.021592 
2978.091904  	0.021432 
2980.020720  	0.021280 
2981.949536  	0.021176 
2983.878352  	0.021175 
2985.807168  	0.021083 
2987.735984  	0.020975 
2989.664800  	0.021081 
2991.593616  	0.021660 
2993.522432  	0.022083 
2995.451248  	0.022162 
2997.380064  	0.022452 
2999.308880  	0.022996 
3001.237696  	0.023463 
3003.166512  	0.024018 
3005.095328  	0.024439 
3007.024144  	0.024746 
3008.952960  	0.025364 
3010.881776  	0.026024 
3012.810592  	0.026547 
3014.739408  	0.026975 
3016.668224  	0.027403 
3018.597040  	0.027916 
3020.525856  	0.028421 
3022.454672  	0.028829 
3024.383488  	0.029307 
3026.312304  	0.029817 
3028.241120  	0.030316 
3030.169936  	0.030997 
3032.098752  	0.031663 
3034.027568  	0.031941 
3035.956384  	0.032312 
3037.885200  	0.032779 
3039.814016  	0.033323 
3041.742832  	0.033757 
3043.671648  	0.034300 
3045.600464  	0.034765 
3047.529280  	0.035049 
3049.458096  	0.035607 
3051.386912  	0.036121 
3053.315728  	0.036526 
3055.244544  	0.037090 
3057.173360  	0.037868 
3059.102176  	0.038559 
3061.030992  	0.039128 
3062.959808  	0.039735 
3064.888624  	0.040511 
3066.817440  	0.041315 
3068.746256  	0.042029 
3070.675072  	0.042665 
3072.603888  	0.043243 
3074.532704  	0.043918 
3076.461520  	0.044606 
3078.390336  	0.045316 
3080.319152  	0.046070 
3082.247968  	0.046774 
3084.176784  	0.047464 
3086.105600  	0.048077 
3088.034416  	0.048833 
3089.963232  	0.049423 
3091.892048  	0.050008 
3093.820864  	0.050730 
3095.749680  	0.051738 
3097.678496  	0.052722 
3099.607312  	0.053496 
3101.536128  	0.054368 
3103.464944  	0.054987 
3105.393760  	0.055348 
3107.322576  	0.056039 
3109.251392  	0.056893 
3111.180208  	0.057436 
3113.109024  	0.057858 
3115.037840  	0.058603 
3116.966656  	0.059455 
3118.895472  	0.060041 
3120.824288  	0.060641 
3122.753104  	0.061429 
3124.681920  	0.061783 
3126.610736  	0.062188 
3128.539552  	0.062669 
3130.468368  	0.063048 
3132.397184  	0.063788 
3134.326000  	0.064464 
3136.254816  	0.064916 
3138.183632  	0.065324 
3140.112448  	0.065767 
3142.041264  	0.066515 
3143.970080  	0.067179 
3145.898896  	0.067704 
3147.827712  	0.068281 
3149.756528  	0.068754 
3151.685344  	0.069161 
3153.614160  	0.069873 
3155.542976  	0.070424 
3157.471792  	0.070998 
3159.400608  	0.071652 
3161.329424  	0.072112 
3163.258240  	0.072691 
3165.187056  	0.073130 
3167.115872  	0.073446 
3169.044688  	0.074037 
3170.973504  	0.074591 
3172.902320  	0.074954 
3174.831136  	0.075302 
3176.759952  	0.075643 
3178.688768  	0.076158 
3180.617584  	0.076447 
3182.546400  	0.076520 
3184.475216  	0.076735 
3186.404032  	0.077157 
3188.332848  	0.077396 
3190.261664  	0.077665 
3192.190480  	0.077869 
3194.119296  	0.077834 
3196.048112  	0.077666 
3197.976928  	0.077932 
3199.905744  	0.078042 
3201.834560  	0.078151 
3203.763376  	0.078119 
3205.692192  	0.077749 
3207.621008  	0.077704 
3209.549824  	0.077873 
3211.478640  	0.077903 
3213.407456  	0.077721 
3215.336272  	0.077780 
3217.265088  	0.077796 
3219.193904  	0.077787 
3221.122720  	0.077626 
3223.051536  	0.077299 
3224.980352  	0.076985 
3226.909168  	0.076916 
3228.837984  	0.076782 
3230.766800  	0.076684 
3232.695616  	0.076653 
3234.624432  	0.076634 
3236.553248  	0.076727 
3238.482064  	0.076852 
3240.410880  	0.076766 
3242.339696  	0.076663 
3244.268512  	0.076856 
3246.197328  	0.077049 
3248.126144  	0.076910 
3250.054960  	0.077066 
3251.983776  	0.077233 
3253.912592  	0.077531 
3255.841408  	0.077742 
3257.770224  	0.077806 
3259.699040  	0.077946 
3261.627856  	0.078021 
3263.556672  	0.078162 
3265.485488  	0.078474 
3267.414304  	0.078564 
3269.343120  	0.078665 
3271.271936  	0.078869 
3273.200752  	0.079224 
3275.129568  	0.079433 
3277.058384  	0.079397 
3278.987200  	0.079406 
3280.916016  	0.079436 
3282.844832  	0.079594 
3284.773648  	0.079792 
3286.702464  	0.079864 
3288.631280  	0.080228 
3290.560096  	0.080301 
3292.488912  	0.080476 
3294.417728  	0.080826 
3296.346544  	0.080987 
3298.275360  	0.081249 
3300.204176  	0.081386 
3302.132992  	0.081197 
3304.061808  	0.081408 
3305.990624  	0.081785 
3307.919440  	0.082244 
3309.848256  	0.082580 
3311.777072  	0.082828 
3313.705888  	0.082993 
3315.634704  	0.083102 
3317.563520  	0.083427 
3319.492336  	0.083749 
3321.421152  	0.083898 
3323.349968  	0.084038 
3325.278784  	0.084292 
3327.207600  	0.084507 
3329.136416  	0.084282 
3331.065232  	0.084085 
3332.994048  	0.084052 
3334.922864  	0.084352 
3336.851680  	0.084732 
3338.780496  	0.084536 
3340.709312  	0.084058 
3342.638128  	0.083942 
3344.566944  	0.083838 
3346.495760  	0.083568 
3348.424576  	0.083306 
3350.353392  	0.083037 
3352.282208  	0.082651 
3354.211024  	0.082505 
3356.139840  	0.082280 
3358.068656  	0.081906 
3359.997472  	0.081627 
3361.926288  	0.081325 
3363.855104  	0.080789 
3365.783920  	0.080635 
3367.712736  	0.080517 
3369.641552  	0.080152 
3371.570368  	0.079710 
3373.499184  	0.079439 
3375.428000  	0.079136 
3377.356816  	0.078820 
3379.285632  	0.078715 
3381.214448  	0.078288 
3383.143264  	0.078048 
3385.072080  	0.078090 
3387.000896  	0.077491 
3388.929712  	0.076767 
3390.858528  	0.076472 
3392.787344  	0.076767 
3394.716160  	0.076402 
3396.644976  	0.075925 
3398.573792  	0.075347 
3400.502608  	0.074599 
3402.431424  	0.073999 
3404.360240  	0.073557 
3406.289056  	0.072952 
3408.217872  	0.072453 
3410.146688  	0.072042 
3412.075504  	0.071631 
3414.004320  	0.071313 
3415.933136  	0.071020 
3417.861952  	0.070664 
3419.790768  	0.070743 
3421.719584  	0.070733 
3423.648400  	0.069706 
3425.577216  	0.068490 
3427.506032  	0.067918 
3429.434848  	0.067569 
3431.363664  	0.067358 
3433.292480  	0.066911 
3435.221296  	0.066256 
3437.150112  	0.065494 
3439.078928  	0.064760 
3441.007744  	0.064246 
3442.936560  	0.064159 
3444.865376  	0.063467 
3446.794192  	0.063493 
3448.723008  	0.063202 
3450.651824  	0.061697 
3452.580640  	0.060890 
3454.509456  	0.060262 
3456.438272  	0.059563 
3458.367088  	0.058984 
3460.295904  	0.058564 
3462.224720  	0.058156 
3464.153536  	0.057299 
3466.082352  	0.056449 
3468.011168  	0.055763 
3469.939984  	0.055027 
3471.868800  	0.054196 
3473.797616  	0.053353 
3475.726432  	0.052725 
3477.655248  	0.051922 
3479.584064  	0.051470 
3481.512880  	0.051584 
3483.441696  	0.050787 
3485.370512  	0.049326 
3487.299328  	0.048667 
3489.228144  	0.048054 
3491.156960  	0.046943 
3493.085776  	0.046332 
3495.014592  	0.045978 
3496.943408  	0.045403 
3498.872224  	0.044564 
3500.801040  	0.044351 
3502.729856  	0.044685 
3504.658672  	0.043972 
3506.587488  	0.042246 
3508.516304  	0.041734 
3510.445120  	0.041607 
3512.373936  	0.040339 
3514.302752  	0.039243 
3516.231568  	0.038600 
3518.160384  	0.038072 
3520.089200  	0.037255 
3522.018016  	0.037161 
3523.946832  	0.038017 
3525.875648  	0.037458 
3527.804464  	0.036660 
3529.733280  	0.035605 
3531.662096  	0.034118 
3533.590912  	0.032942 
3535.519728  	0.032821 
3537.448544  	0.032417 
3539.377360  	0.031011 
3541.306176  	0.030199 
3543.234992  	0.030533 
3545.163808  	0.031808 
3547.092624  	0.031706 
3549.021440  	0.029317 
3550.950256  	0.027814 
3552.879072  	0.028173 
3554.807888  	0.026966 
3556.736704  	0.025601 
3558.665520  	0.025540 
3560.594336  	0.025624 
3562.523152  	0.025021 
3564.451968  	0.025292 
3566.380784  	0.027993 
3568.309600  	0.027918 
3570.238416  	0.023652 
3572.167232  	0.021230 
3574.096048  	0.020549 
3576.024864  	0.019912 
3577.953680  	0.019258 
3579.882496  	0.018788 
3581.811312  	0.017956 
3583.740128  	0.017295 
3585.668944  	0.017927 
3587.597760  	0.019987 
3589.526576  	0.017846 
3591.455392  	0.014842 
3593.384208  	0.014709 
3595.313024  	0.015198 
3597.241840  	0.013916 
3599.170656  	0.012292 
3601.099472  	0.011734 
3603.028288  	0.010741 
3604.957104  	0.009733 
3606.885920  	0.010376 
3608.814736  	0.010882 
3610.743552  	0.009352 
3612.672368  	0.009293 
3614.601184  	0.009207 
3616.530000  	0.007474 
3618.458816  	0.007477 
3620.387632  	0.006710 
3622.316448  	0.003965 
3624.245264  	0.002436 
3626.174080  	0.002390 
3628.102896  	0.003815 
3630.031712  	0.004751 
3631.960528  	0.001779 
3633.889344  	-0.000026 
3635.818160  	-0.001442 
3637.746976  	-0.002638 
3639.675792  	-0.003241 
3641.604608  	-0.003630 
3643.533424  	-0.004148 
3645.462240  	-0.004036 
3647.391056  	-0.001446 
3649.319872  	-0.000372 
3651.248688  	-0.002937 
3653.177504  	-0.006613 
3655.106320  	-0.007900 
3657.035136  	-0.007818 
3658.963952  	-0.009170 
3660.892768  	-0.010201 
3662.821584  	-0.010855 
3664.750400  	-0.011076 
3666.679216  	-0.010944 
3668.608032  	-0.010036 
3670.536848  	-0.008842 
3672.465664  	-0.010121 
3674.394480  	-0.009833 
3676.323296  	-0.008604 
3678.252112  	-0.010276 
3680.180928  	-0.011692 
3682.109744  	-0.012742 
3684.038560  	-0.013031 
3685.967376  	-0.013115 
3687.896192  	-0.011843 
3689.825008  	-0.010556 
3691.753824  	-0.011726 
3693.682640  	-0.013177 
3695.611456  	-0.013837 
3697.540272  	-0.013886 
3699.469088  	-0.014118 
3701.397904  	-0.013703 
3703.326720  	-0.013756 
3705.255536  	-0.013819 
3707.184352  	-0.013321 
3709.113168  	-0.012347 
3711.041984  	-0.010819 
3712.970800  	-0.011345 
3714.899616  	-0.012998 
3716.828432  	-0.013891 
3718.757248  	-0.013413 
3720.686064  	-0.012995 
3722.614880  	-0.012086 
3724.543696  	-0.011510 
3726.472512  	-0.011317 
3728.401328  	-0.012796 
3730.330144  	-0.013878 
3732.258960  	-0.012845 
3734.187776  	-0.009639 
3736.116592  	-0.007651 
3738.045408  	-0.010534 
3739.974224  	-0.011826 
3741.903040  	-0.011901 
3743.831856  	-0.011638 
3745.760672  	-0.010759 
3747.689488  	-0.011565 
3749.618304  	-0.010418 
3751.547120  	-0.009243 
3753.475936  	-0.010966 
3755.404752  	-0.012484 
3757.333568  	-0.012700 
3759.262384  	-0.012380 
3761.191200  	-0.012973 
3763.120016  	-0.013798 
3765.048832  	-0.013297 
3766.977648  	-0.013062 
3768.906464  	-0.013045 
3770.835280  	-0.012938 
3772.764096  	-0.014069 
3774.692912  	-0.014704 
3776.621728  	-0.014459 
3778.550544  	-0.013650 
3780.479360  	-0.013538 
3782.408176  	-0.014198 
3784.336992  	-0.013852 
3786.265808  	-0.013827 
3788.194624  	-0.014524 
3790.123440  	-0.014679 
3792.052256  	-0.014702 
3793.981072  	-0.014756 
3795.909888  	-0.013520 
3797.838704  	-0.012569 
3799.767520  	-0.012889 
3801.696336  	-0.011668 
3803.625152  	-0.012530 
3805.553968  	-0.013742 
3807.482784  	-0.013497 
3809.411600  	-0.014155 
3811.340416  	-0.014619 
3813.269232  	-0.014505 
3815.198048  	-0.013388 
3817.126864  	-0.012415 
3819.055680  	-0.012510 
3820.984496  	-0.011248 
3822.913312  	-0.012028 
3824.842128  	-0.013374 
3826.770944  	-0.013490 
3828.699760  	-0.013919 
3830.628576  	-0.013871 
3832.557392  	-0.013493 
3834.486208  	-0.013622 
3836.415024  	-0.013043 
3838.343840  	-0.011551 
3840.272656  	-0.010879 
3842.201472  	-0.012064 
3844.130288  	-0.012870 
3846.059104  	-0.013892 
3847.987920  	-0.014218 
3849.916736  	-0.013281 
3851.845552  	-0.011642 
3853.774368  	-0.009576 
3855.703184  	-0.010809 
3857.632000  	-0.012261 
3859.560816  	-0.013501 
3861.489632  	-0.013117 
3863.418448  	-0.011959 
3865.347264  	-0.011387 
3867.276080  	-0.012509 
3869.204896  	-0.011649 
3871.133712  	-0.010774 
3873.062528  	-0.011989 
3874.991344  	-0.012554 
3876.920160  	-0.014114 
3878.848976  	-0.013754 
3880.777792  	-0.011663 
3882.706608  	-0.011776 
3884.635424  	-0.012145 
3886.564240  	-0.012548 
3888.493056  	-0.014133 
3890.421872  	-0.013669 
3892.350688  	-0.012667 
3894.279504  	-0.013549 
3896.208320  	-0.014298 
3898.137136  	-0.013306 
3900.065952  	-0.011361 
3901.994768  	-0.010522 
3903.923584  	-0.010496 
3905.852400  	-0.011842 
3907.781216  	-0.014102 
3909.710032  	-0.015293 
3911.638848  	-0.015433 
3913.567664  	-0.015137 
3915.496480  	-0.013825 
3917.425296  	-0.012377 
3919.354112  	-0.012777 
3921.282928  	-0.013324 
3923.211744  	-0.013024 
3925.140560  	-0.012676 
3927.069376  	-0.013865 
3928.998192  	-0.013679 
3930.927008  	-0.012604 
3932.855824  	-0.012617 
3934.784640  	-0.013938 
3936.713456  	-0.014591 
3938.642272  	-0.014620 
3940.571088  	-0.014405 
3942.499904  	-0.013094 
3944.428720  	-0.013273 
3946.357536  	-0.013872 
3948.286352  	-0.013086 
3950.215168  	-0.013563 
3952.143984  	-0.014727 
3954.072800  	-0.015115 
3956.001616  	-0.014708 
3957.930432  	-0.014422 
3959.859248  	-0.014331 
3961.788064  	-0.014166 
3963.716880  	-0.014488 
3965.645696  	-0.015061 
3967.574512  	-0.015163 
3969.503328  	-0.015015 
3971.432144  	-0.014858 
3973.360960  	-0.014486 
3975.289776  	-0.013995 
3977.218592  	-0.014347 
3979.147408  	-0.014927 
3981.076224  	-0.014986 
3983.005040  	-0.014999 
3984.933856  	-0.014938 
3986.862672  	-0.014778 
3988.791488  	-0.014641 
3990.720304  	-0.014435 
3992.649120  	-0.014698 
3994.577936  	-0.014783 
3996.506752  	-0.014859 
3998.435568  	-0.015057 
4000.364384  	-0.015014 