##TITLE=No Description
##DATA TYPE=INFRARED SPECTRUM
##XUNITS=1/CM
##YUNITS=Abs
399.264912  	0.480277 
401.193728  	0.451502 
403.122544  	0.447750 
405.051360  	0.445145 
406.980176  	0.449903 
408.908992  	0.442452 
410.837808  	0.449906 
412.766624  	0.457885 
414.695440  	0.464744 
416.624256  	0.460691 
418.553072  	0.452490 
420.481888  	0.438013 
422.410704  	0.438500 
424.339520  	0.435259 
426.268336  	0.424458 
428.197152  	0.428722 
430.125968  	0.432166 
432.054784  	0.422127 
433.983600  	0.425097 
435.912416  	0.426915 
437.841232  	0.421262 
439.770048  	0.417576 
441.698864  	0.421449 
443.627680  	0.419962 
445.556496  	0.418207 
447.485312  	0.414325 
449.414128  	0.415723 
451.342944  	0.418385 
453.271760  	0.421037 
455.200576  	0.415268 
457.129392  	0.418813 
459.058208  	0.421519 
460.987024  	0.421427 
462.915840  	0.420160 
464.844656  	0.419612 
466.773472  	0.420317 
468.702288  	0.419421 
470.631104  	0.418657 
472.559920  	0.425674 
474.488736  	0.423292 
476.417552  	0.423417 
478.346368  	0.420049 
480.275184  	0.417332 
482.204000  	0.413416 
484.132816  	0.414414 
486.061632  	0.416169 
487.990448  	0.415022 
489.919264  	0.412415 
491.848080  	0.412823 
493.776896  	0.410568 
495.705712  	0.409180 
497.634528  	0.407798 
499.563344  	0.409823 
501.492160  	0.411421 
503.420976  	0.408222 
505.349792  	0.404977 
507.278608  	0.406109 
509.207424  	0.402974 
511.136240  	0.407547 
513.065056  	0.410107 
514.993872  	0.411734 
516.922688  	0.414506 
518.851504  	0.417940 
520.780320  	0.415421 
522.709136  	0.414145 
524.637952  	0.413948 
526.566768  	0.412524 
528.495584  	0.408052 
530.424400  	0.404967 
532.353216  	0.400771 
534.282032  	0.396867 
536.210848  	0.391756 
538.139664  	0.385878 
540.068480  	0.380783 
541.997296  	0.376765 
543.926112  	0.373838 
545.854928  	0.370595 
547.783744  	0.365765 
549.712560  	0.364097 
551.641376  	0.361945 
553.570192  	0.360701 
555.499008  	0.356114 
557.427824  	0.352483 
559.356640  	0.349105 
561.285456  	0.347078 
563.214272  	0.343934 
565.143088  	0.340342 
567.071904  	0.336316 
569.000720  	0.333334 
570.929536  	0.330703 
572.858352  	0.328420 
574.787168  	0.326698 
576.715984  	0.324978 
578.644800  	0.320732 
580.573616  	0.316531 
582.502432  	0.311793 
584.431248  	0.308101 
586.360064  	0.304806 
588.288880  	0.302543 
590.217696  	0.300518 
592.146512  	0.299194 
594.075328  	0.296452 
596.004144  	0.294750 
597.932960  	0.293777 
599.861776  	0.293009 
601.790592  	0.291805 
603.719408  	0.291173 
605.648224  	0.290279 
607.577040  	0.288808 
609.505856  	0.287028 
611.434672  	0.286946 
613.363488  	0.285578 
615.292304  	0.284611 
617.221120  	0.283456 
619.149936  	0.282723 
621.078752  	0.281377 
623.007568  	0.280047 
624.936384  	0.279067 
626.865200  	0.278832 
628.794016  	0.278476 
630.722832  	0.278370 
632.651648  	0.278470 
634.580464  	0.278497 
636.509280  	0.278701 
638.438096  	0.278866 
640.366912  	0.278208 
642.295728  	0.277439 
644.224544  	0.275416 
646.153360  	0.272673 
648.082176  	0.269043 
650.010992  	0.266255 
651.939808  	0.263436 
653.868624  	0.260442 
655.797440  	0.256808 
657.726256  	0.254017 
659.655072  	0.250232 
661.583888  	0.246070 
663.512704  	0.242645 
665.441520  	0.238503 
667.370336  	0.234153 
669.299152  	0.231685 
671.227968  	0.227706 
673.156784  	0.224325 
675.085600  	0.222316 
677.014416  	0.220603 
678.943232  	0.218639 
680.872048  	0.217497 
682.800864  	0.216599 
684.729680  	0.215381 
686.658496  	0.214185 
688.587312  	0.213524 
690.516128  	0.212331 
692.444944  	0.211882 
694.373760  	0.211173 
696.302576  	0.210460 
698.231392  	0.208870 
700.160208  	0.206565 
702.089024  	0.203958 
704.017840  	0.201734 
705.946656  	0.199391 
707.875472  	0.197448 
709.804288  	0.195895 
711.733104  	0.194812 
713.661920  	0.193638 
715.590736  	0.192678 
717.519552  	0.192609 
719.448368  	0.193415 
721.377184  	0.194661 
723.306000  	0.195856 
725.234816  	0.196990 
727.163632  	0.197067 
729.092448  	0.194932 
731.021264  	0.191867 
732.950080  	0.188656 
734.878896  	0.185382 
736.807712  	0.182330 
738.736528  	0.180315 
740.665344  	0.178848 
742.594160  	0.177861 
744.522976  	0.176246 
746.451792  	0.175120 
748.380608  	0.174134 
750.309424  	0.173172 
752.238240  	0.172363 
754.167056  	0.171767 
756.095872  	0.171330 
758.024688  	0.170624 
759.953504  	0.170669 
761.882320  	0.171912 
763.811136  	0.173327 
765.739952  	0.172296 
767.668768  	0.169888 
769.597584  	0.168329 
771.526400  	0.168396 
773.455216  	0.170656 
775.384032  	0.175027 
777.312848  	0.181290 
779.241664  	0.185919 
781.170480  	0.186152 
783.099296  	0.182247 
785.028112  	0.177013 
786.956928  	0.171648 
788.885744  	0.167236 
790.814560  	0.163945 
792.743376  	0.162290 
794.672192  	0.162074 
796.601008  	0.161488 
798.529824  	0.158624 
800.458640  	0.154507 
802.387456  	0.151090 
804.316272  	0.149571 
806.245088  	0.149373 
808.173904  	0.149346 
810.102720  	0.149469 
812.031536  	0.149760 
813.960352  	0.150444 
815.889168  	0.151315 
817.817984  	0.152374 
819.746800  	0.153534 
821.675616  	0.154737 
823.604432  	0.155617 
825.533248  	0.155982 
827.462064  	0.156722 
829.390880  	0.156658 
831.319696  	0.156008 
833.248512  	0.154955 
835.177328  	0.153613 
837.106144  	0.151169 
839.034960  	0.148229 
840.963776  	0.144886 
842.892592  	0.141460 
844.821408  	0.137807 
846.750224  	0.134450 
848.679040  	0.131907 
850.607856  	0.130206 
852.536672  	0.129006 
854.465488  	0.127600 
856.394304  	0.126788 
858.323120  	0.125848 
860.251936  	0.124456 
862.180752  	0.123099 
864.109568  	0.121334 
866.038384  	0.119473 
867.967200  	0.117560 
869.896016  	0.116048 
871.824832  	0.115337 
873.753648  	0.115819 
875.682464  	0.116598 
877.611280  	0.118154 
879.540096  	0.120327 
881.468912  	0.122830 
883.397728  	0.125172 
885.326544  	0.126906 
887.255360  	0.127592 
889.184176  	0.127067 
891.112992  	0.126252 
893.041808  	0.124900 
894.970624  	0.122443 
896.899440  	0.118538 
898.828256  	0.114093 
900.757072  	0.109939 
902.685888  	0.106560 
904.614704  	0.104846 
906.543520  	0.104751 
908.472336  	0.106488 
910.401152  	0.109442 
912.329968  	0.112941 
914.258784  	0.116426 
916.187600  	0.119942 
918.116416  	0.122801 
920.045232  	0.124843 
921.974048  	0.126065 
923.902864  	0.126942 
925.831680  	0.127838 
927.760496  	0.128846 
929.689312  	0.130024 
931.618128  	0.131582 
933.546944  	0.132967 
935.475760  	0.133716 
937.404576  	0.133776 
939.333392  	0.133500 
941.262208  	0.133762 
943.191024  	0.135659 
945.119840  	0.139861 
947.048656  	0.146567 
948.977472  	0.155533 
950.906288  	0.166250 
952.835104  	0.178579 
954.763920  	0.191922 
956.692736  	0.204264 
958.621552  	0.214668 
960.550368  	0.221268 
962.479184  	0.224175 
964.408000  	0.222514 
966.336816  	0.216648 
968.265632  	0.207058 
970.194448  	0.195137 
972.123264  	0.181442 
974.052080  	0.167357 
975.980896  	0.153754 
977.909712  	0.141185 
979.838528  	0.130338 
981.767344  	0.121581 
983.696160  	0.115289 
985.624976  	0.111833 
987.553792  	0.111651 
989.482608  	0.114291 
991.411424  	0.119501 
993.340240  	0.126960 
995.269056  	0.135216 
997.197872  	0.143940 
999.126688  	0.152506 
1001.055504  	0.161508 
1002.984320  	0.169631 
1004.913136  	0.177440 
1006.841952  	0.184564 
1008.770768  	0.190732 
1010.699584  	0.195144 
1012.628400  	0.197875 
1014.557216  	0.199454 
1016.486032  	0.199662 
1018.414848  	0.199058 
1020.343664  	0.198255 
1022.272480  	0.197508 
1024.201296  	0.196798 
1026.130112  	0.196010 
1028.058928  	0.196282 
1029.987744  	0.198102 
1031.916560  	0.201095 
1033.845376  	0.204769 
1035.774192  	0.209691 
1037.703008  	0.215998 
1039.631824  	0.225195 
1041.560640  	0.236623 
1043.489456  	0.250428 
1045.418272  	0.264590 
1047.347088  	0.277273 
1049.275904  	0.285545 
1051.204720  	0.288768 
1053.133536  	0.287895 
1055.062352  	0.284639 
1056.991168  	0.279542 
1058.919984  	0.275155 
1060.848800  	0.271482 
1062.777616  	0.267770 
1064.706432  	0.262846 
1066.635248  	0.257594 
1068.564064  	0.251762 
1070.492880  	0.245288 
1072.421696  	0.239038 
1074.350512  	0.235103 
1076.279328  	0.233876 
1078.208144  	0.235444 
1080.136960  	0.237909 
1082.065776  	0.239497 
1083.994592  	0.238054 
1085.923408  	0.234015 
1087.852224  	0.227080 
1089.781040  	0.218751 
1091.709856  	0.209275 
1093.638672  	0.198975 
1095.567488  	0.187320 
1097.496304  	0.175574 
1099.425120  	0.164204 
1101.353936  	0.152879 
1103.282752  	0.142004 
1105.211568  	0.132026 
1107.140384  	0.123043 
1109.069200  	0.114579 
1110.998016  	0.106982 
1112.926832  	0.100279 
1114.855648  	0.093985 
1116.784464  	0.087767 
1118.713280  	0.081821 
1120.642096  	0.076342 
1122.570912  	0.071142 
1124.499728  	0.066371 
1126.428544  	0.062110 
1128.357360  	0.058225 
1130.286176  	0.054898 
1132.214992  	0.052251 
1134.143808  	0.050325 
1136.072624  	0.048573 
1138.001440  	0.046813 
1139.930256  	0.045387 
1141.859072  	0.043697 
1143.787888  	0.041967 
1145.716704  	0.040604 
1147.645520  	0.039239 
1149.574336  	0.038556 
1151.503152  	0.038225 
1153.431968  	0.038214 
1155.360784  	0.038397 
1157.289600  	0.039536 
1159.218416  	0.041162 
1161.147232  	0.043091 
1163.076048  	0.045193 
1165.004864  	0.047286 
1166.933680  	0.049480 
1168.862496  	0.051831 
1170.791312  	0.054314 
1172.720128  	0.057053 
1174.648944  	0.060147 
1176.577760  	0.063057 
1178.506576  	0.066102 
1180.435392  	0.069495 
1182.364208  	0.072939 
1184.293024  	0.076581 
1186.221840  	0.080833 
1188.150656  	0.085827 
1190.079472  	0.091412 
1192.008288  	0.098004 
1193.937104  	0.105405 
1195.865920  	0.113513 
1197.794736  	0.121969 
1199.723552  	0.130827 
1201.652368  	0.139639 
1203.581184  	0.147632 
1205.510000  	0.154991 
1207.438816  	0.161220 
1209.367632  	0.166594 
1211.296448  	0.170462 
1213.225264  	0.173089 
1215.154080  	0.174221 
1217.082896  	0.174364 
1219.011712  	0.173435 
1220.940528  	0.172068 
1222.869344  	0.170142 
1224.798160  	0.167958 
1226.726976  	0.164955 
1228.655792  	0.161381 
1230.584608  	0.157447 
1232.513424  	0.153168 
1234.442240  	0.148442 
1236.371056  	0.143558 
1238.299872  	0.138167 
1240.228688  	0.132000 
1242.157504  	0.125855 
1244.086320  	0.120251 
1246.015136  	0.114297 
1247.943952  	0.108293 
1249.872768  	0.102385 
1251.801584  	0.096883 
1253.730400  	0.091545 
1255.659216  	0.086372 
1257.588032  	0.081469 
1259.516848  	0.076955 
1261.445664  	0.072558 
1263.374480  	0.068564 
1265.303296  	0.065220 
1267.232112  	0.062651 
1269.160928  	0.060934 
1271.089744  	0.059954 
1273.018560  	0.059433 
1274.947376  	0.059513 
1276.876192  	0.060075 
1278.805008  	0.060342 
1280.733824  	0.059911 
1282.662640  	0.058385 
1284.591456  	0.056499 
1286.520272  	0.055127 
1288.449088  	0.054400 
1290.377904  	0.054118 
1292.306720  	0.054481 
1294.235536  	0.054754 
1296.164352  	0.054309 
1298.093168  	0.052520 
1300.021984  	0.050111 
1301.950800  	0.047545 
1303.879616  	0.044843 
1305.808432  	0.042244 
1307.737248  	0.039814 
1309.666064  	0.037273 
1311.594880  	0.035604 
1313.523696  	0.034556 
1315.452512  	0.033575 
1317.381328  	0.033429 
1319.310144  	0.033817 
1321.238960  	0.033943 
1323.167776  	0.034364 
1325.096592  	0.034946 
1327.025408  	0.035292 
1328.954224  	0.035303 
1330.883040  	0.034787 
1332.811856  	0.033828 
1334.740672  	0.033152 
1336.669488  	0.033536 
1338.598304  	0.034782 
1340.527120  	0.034246 
1342.455936  	0.031675 
1344.384752  	0.030856 
1346.313568  	0.031208 
1348.242384  	0.032040 
1350.171200  	0.033262 
1352.100016  	0.034824 
1354.028832  	0.036972 
1355.957648  	0.039104 
1357.886464  	0.040849 
1359.815280  	0.043048 
1361.744096  	0.046471 
1363.672912  	0.048955 
1365.601728  	0.048732 
1367.530544  	0.049698 
1369.459360  	0.051081 
1371.388176  	0.051136 
1373.316992  	0.051364 
1375.245808  	0.050317 
1377.174624  	0.047238 
1379.103440  	0.044613 
1381.032256  	0.041833 
1382.961072  	0.039504 
1384.889888  	0.038087 
1386.818704  	0.038259 
1388.747520  	0.036591 
1390.676336  	0.033771 
1392.605152  	0.032291 
1394.533968  	0.033043 
1396.462784  	0.034019 
1398.391600  	0.033891 
1400.320416  	0.033532 
1402.249232  	0.032750 
1404.178048  	0.034266 
1406.106864  	0.035669 
1408.035680  	0.036327 
1409.964496  	0.038012 
1411.893312  	0.040124 
1413.822128  	0.041724 
1415.750944  	0.044190 
1417.679760  	0.046937 
1419.608576  	0.048772 
1421.537392  	0.047017 
1423.466208  	0.046037 
1425.395024  	0.044197 
1427.323840  	0.041323 
1429.252656  	0.040015 
1431.181472  	0.038865 
1433.110288  	0.037658 
1435.039104  	0.037729 
1436.967920  	0.040091 
1438.896736  	0.039873 
1440.825552  	0.039243 
1442.754368  	0.039388 
1444.683184  	0.039151 
1446.612000  	0.039540 
1448.540816  	0.040289 
1450.469632  	0.040095 
1452.398448  	0.040334 
1454.327264  	0.040837 
1456.256080  	0.043461 
1458.184896  	0.046493 
1460.113712  	0.043077 
1462.042528  	0.040503 
1463.971344  	0.040820 
1465.900160  	0.043191 
1467.828976  	0.043612 
1469.757792  	0.044687 
1471.686608  	0.049716 
1473.615424  	0.059193 
1475.544240  	0.062535 
1477.473056  	0.065748 
1479.401872  	0.067051 
1481.330688  	0.069647 
1483.259504  	0.070828 
1485.188320  	0.071026 
1487.117136  	0.072009 
1489.045952  	0.073867 
1490.974768  	0.071954 
1492.903584  	0.066319 
1494.832400  	0.061864 
1496.761216  	0.059278 
1498.690032  	0.054978 
1500.618848  	0.050102 
1502.547664  	0.045216 
1504.476480  	0.041530 
1506.405296  	0.044086 
1508.334112  	0.046373 
1510.262928  	0.040156 
1512.191744  	0.036236 
1514.120560  	0.034867 
1516.049376  	0.036769 
1517.978192  	0.038296 
1519.907008  	0.038222 
1521.835824  	0.043612 
1523.764640  	0.045246 
1525.693456  	0.047302 
1527.622272  	0.049200 
1529.551088  	0.047834 
1531.479904  	0.046198 
1533.408720  	0.046302 
1535.337536  	0.043457 
1537.266352  	0.039365 
1539.195168  	0.038527 
1541.123984  	0.039620 
1543.052800  	0.037806 
1544.981616  	0.035429 
1546.910432  	0.031506 
1548.839248  	0.030684 
1550.768064  	0.032144 
1552.696880  	0.031022 
1554.625696  	0.032531 
1556.554512  	0.032652 
1558.483328  	0.037647 
1560.412144  	0.044196 
1562.340960  	0.041870 
1564.269776  	0.043342 
1566.198592  	0.047731 
1568.127408  	0.050663 
1570.056224  	0.058980 
1571.985040  	0.062382 
1573.913856  	0.063170 
1575.842672  	0.067448 
1577.771488  	0.072052 
1579.700304  	0.069193 
1581.629120  	0.067752 
1583.557936  	0.067300 
1585.486752  	0.068510 
1587.415568  	0.070763 
1589.344384  	0.075046 
1591.273200  	0.080125 
1593.202016  	0.086409 
1595.130832  	0.093027 
1597.059648  	0.099179 
1598.988464  	0.103425 
1600.917280  	0.107714 
1602.846096  	0.110586 
1604.774912  	0.111985 
1606.703728  	0.111572 
1608.632544  	0.111344 
1610.561360  	0.109556 
1612.490176  	0.107578 
1614.418992  	0.104595 
1616.347808  	0.106963 
1618.276624  	0.111476 
1620.205440  	0.111183 
1622.134256  	0.113265 
1624.063072  	0.122066 
1625.991888  	0.125585 
1627.920704  	0.131788 
1629.849520  	0.138479 
1631.778336  	0.141470 
1633.707152  	0.142888 
1635.635968  	0.153703 
1637.564784  	0.163646 
1639.493600  	0.161922 
1641.422416  	0.161643 
1643.351232  	0.160457 
1645.280048  	0.158845 
1647.208864  	0.165783 
1649.137680  	0.163325 
1651.066496  	0.153704 
1652.995312  	0.156398 
1654.924128  	0.163282 
1656.852944  	0.153871 
1658.781760  	0.148146 
1660.710576  	0.144161 
1662.639392  	0.142873 
1664.568208  	0.140053 
1666.497024  	0.133969 
1668.425840  	0.130683 
1670.354656  	0.130286 
1672.283472  	0.125828 
1674.212288  	0.121024 
1676.141104  	0.121117 
1678.069920  	0.117611 
1679.998736  	0.116102 
1681.927552  	0.113465 
1683.856368  	0.114861 
1685.785184  	0.118023 
1687.714000  	0.112965 
1689.642816  	0.111527 
1691.571632  	0.108915 
1693.500448  	0.104750 
1695.429264  	0.104555 
1697.358080  	0.106354 
1699.286896  	0.101776 
1701.215712  	0.103211 
1703.144528  	0.097951 
1705.073344  	0.094329 
1707.002160  	0.091086 
1708.930976  	0.085739 
1710.859792  	0.080681 
1712.788608  	0.075743 
1714.717424  	0.071313 
1716.646240  	0.066233 
1718.575056  	0.058625 
1720.503872  	0.049537 
1722.432688  	0.042618 
1724.361504  	0.036082 
1726.290320  	0.030022 
1728.219136  	0.025656 
1730.147952  	0.022829 
1732.076768  	0.019552 
1734.005584  	0.017640 
1735.934400  	0.013792 
1737.863216  	0.010910 
1739.792032  	0.009172 
1741.720848  	0.007994 
1743.649664  	0.007682 
1745.578480  	0.006586 
1747.507296  	0.006031 
1749.436112  	0.006390 
1751.364928  	0.005109 
1753.293744  	0.002714 
1755.222560  	0.001498 
1757.151376  	0.002306 
1759.080192  	0.001420 
1761.009008  	0.001075 
1762.937824  	0.000706 
1764.866640  	-0.000370 
1766.795456  	-0.000316 
1768.724272  	0.000432 
1770.653088  	-0.000182 
1772.581904  	0.000732 
1774.510720  	0.000172 
1776.439536  	-0.000776 
1778.368352  	-0.001625 
1780.297168  	-0.001210 
1782.225984  	-0.001745 
1784.154800  	-0.001944 
1786.083616  	-0.002371 
1788.012432  	-0.003036 
1789.941248  	-0.002319 
1791.870064  	-0.000793 
1793.798880  	-0.001361 
1795.727696  	-0.001995 
1797.656512  	-0.002966 
1799.585328  	-0.002983 
1801.514144  	-0.002256 
1803.442960  	-0.002952 
1805.371776  	-0.003820 
1807.300592  	-0.003880 
1809.229408  	-0.003900 
1811.158224  	-0.003734 
1813.087040  	-0.004356 
1815.015856  	-0.004901 
1816.944672  	-0.004389 
1818.873488  	-0.004140 
1820.802304  	-0.004522 
1822.731120  	-0.004285 
1824.659936  	-0.003837 
1826.588752  	-0.003892 
1828.517568  	-0.004187 
1830.446384  	-0.003678 
1832.375200  	-0.004590 
1834.304016  	-0.004763 
1836.232832  	-0.004652 
1838.161648  	-0.004577 
1840.090464  	-0.004953 
1842.019280  	-0.004764 
1843.948096  	-0.003816 
1845.876912  	-0.003670 
1847.805728  	-0.004647 
1849.734544  	-0.005310 
1851.663360  	-0.005708 
1853.592176  	-0.005411 
1855.520992  	-0.005507 
1857.449808  	-0.005294 
1859.378624  	-0.005438 
1861.307440  	-0.005380 
1863.236256  	-0.005807 
1865.165072  	-0.005613 
1867.093888  	-0.004917 
1869.022704  	-0.003497 
1870.951520  	-0.004514 
1872.880336  	-0.005669 
1874.809152  	-0.006204 
1876.737968  	-0.006332 
1878.666784  	-0.006493 
1880.595600  	-0.006554 
1882.524416  	-0.006372 
1884.453232  	-0.005752 
1886.382048  	-0.006137 
1888.310864  	-0.005973 
1890.239680  	-0.005664 
1892.168496  	-0.005670 
1894.097312  	-0.005504 
1896.026128  	-0.005436 
1897.954944  	-0.005959 
1899.883760  	-0.006212 
1901.812576  	-0.006433 
1903.741392  	-0.006224 
1905.670208  	-0.006459 
1907.599024  	-0.006232 
1909.527840  	-0.005914 
1911.456656  	-0.005435 
1913.385472  	-0.005465 
1915.314288  	-0.005476 
1917.243104  	-0.005405 
1919.171920  	-0.004891 
1921.100736  	-0.005135 
1923.029552  	-0.004611 
1924.958368  	-0.006189 
1926.887184  	-0.006851 
1928.816000  	-0.006962 
1930.744816  	-0.006477 
1932.673632  	-0.006137 
1934.602448  	-0.005806 
1936.531264  	-0.006045 
1938.460080  	-0.005703 
1940.388896  	-0.005792 
1942.317712  	-0.005160 
1944.246528  	-0.005857 
1946.175344  	-0.005958 
1948.104160  	-0.006109 
1950.032976  	-0.005800 
1951.961792  	-0.006537 
1953.890608  	-0.007049 
1955.819424  	-0.007229 
1957.748240  	-0.006728 
1959.677056  	-0.006985 
1961.605872  	-0.006523 
1963.534688  	-0.007030 
1965.463504  	-0.006168 
1967.392320  	-0.005742 
1969.321136  	-0.006186 
1971.249952  	-0.008173 
1973.178768  	-0.007891 
1975.107584  	-0.006862 
1977.036400  	-0.005273 
1978.965216  	-0.004850 
1980.894032  	-0.005476 
1982.822848  	-0.006452 
1984.751664  	-0.006367 
1986.680480  	-0.005978 
1988.609296  	-0.004809 
1990.538112  	-0.005065 
1992.466928  	-0.004677 
1994.395744  	-0.005832 
1996.324560  	-0.005885 
1998.253376  	-0.005560 
2000.182192  	-0.005745 
2002.111008  	-0.006517 
2004.039824  	-0.006070 
2005.968640  	-0.006259 
2007.897456  	-0.005980 
2009.826272  	-0.006282 
2011.755088  	-0.006142 
2013.683904  	-0.006249 
2015.612720  	-0.005107 
2017.541536  	-0.004552 
2019.470352  	-0.003804 
2021.399168  	-0.005488 
2023.327984  	-0.005341 
2025.256800  	-0.004396 
2027.185616  	-0.003888 
2029.114432  	-0.004550 
2031.043248  	-0.004608 
2032.972064  	-0.004729 
2034.900880  	-0.004156 
2036.829696  	-0.004023 
2038.758512  	-0.003513 
2040.687328  	-0.004856 
2042.616144  	-0.005056 
2044.544960  	-0.004954 
2046.473776  	-0.004542 
2048.402592  	-0.004438 
2050.331408  	-0.004225 
2052.260224  	-0.004647 
2054.189040  	-0.004564 
2056.117856  	-0.005151 
2058.046672  	-0.004484 
2059.975488  	-0.004023 
2061.904304  	-0.003735 
2063.833120  	-0.003818 
2065.761936  	-0.003423 
2067.690752  	-0.003880 
2069.619568  	-0.004290 
2071.548384  	-0.004713 
2073.477200  	-0.004297 
2075.406016  	-0.004198 
2077.334832  	-0.003851 
2079.263648  	-0.003255 
2081.192464  	-0.002922 
2083.121280  	-0.003574 
2085.050096  	-0.004111 
2086.978912  	-0.004207 
2088.907728  	-0.003537 
2090.836544  	-0.003187 
2092.765360  	-0.003068 
2094.694176  	-0.003168 
2096.622992  	-0.002962 
2098.551808  	-0.003171 
2100.480624  	-0.003079 
2102.409440  	-0.003231 
2104.338256  	-0.003115 
2106.267072  	-0.003269 
2108.195888  	-0.003182 
2110.124704  	-0.003233 
2112.053520  	-0.002748 
2113.982336  	-0.002818 
2115.911152  	-0.003163 
2117.839968  	-0.003468 
2119.768784  	-0.003381 
2121.697600  	-0.003531 
2123.626416  	-0.003479 
2125.555232  	-0.003407 
2127.484048  	-0.003725 
2129.412864  	-0.003900 
2131.341680  	-0.002969 
2133.270496  	-0.002625 
2135.199312  	-0.003001 
2137.128128  	-0.003192 
2139.056944  	-0.002385 
2140.985760  	-0.002189 
2142.914576  	-0.001843 
2144.843392  	-0.002332 
2146.772208  	-0.002795 
2148.701024  	-0.003455 
2150.629840  	-0.002802 
2152.558656  	-0.002384 
2154.487472  	-0.002111 
2156.416288  	-0.001320 
2158.345104  	-0.000114 
2160.273920  	0.001165 
2162.202736  	0.001580 
2164.131552  	0.000474 
2166.060368  	0.000186 
2167.989184  	0.000002 
2169.918000  	-0.000305 
2171.846816  	-0.001409 
2173.775632  	-0.001246 
2175.704448  	-0.001107 
2177.633264  	-0.001494 
2179.562080  	-0.002446 
2181.490896  	-0.001830 
2183.419712  	-0.001131 
2185.348528  	-0.001344 
2187.277344  	-0.002084 
2189.206160  	-0.001918 
2191.134976  	-0.002045 
2193.063792  	-0.002242 
2194.992608  	-0.002341 
2196.921424  	-0.002062 
2198.850240  	-0.002426 
2200.779056  	-0.002910 
2202.707872  	-0.003168 
2204.636688  	-0.002657 
2206.565504  	-0.002830 
2208.494320  	-0.003256 
2210.423136  	-0.003433 
2212.351952  	-0.002891 
2214.280768  	-0.002748 
2216.209584  	-0.002608 
2218.138400  	-0.003575 
2220.067216  	-0.004078 
2221.996032  	-0.004361 
2223.924848  	-0.003877 
2225.853664  	-0.003143 
2227.782480  	-0.002806 
2229.711296  	-0.004065 
2231.640112  	-0.004471 
2233.568928  	-0.004474 
2235.497744  	-0.004337 
2237.426560  	-0.004182 
2239.355376  	-0.003827 
2241.284192  	-0.004458 
2243.213008  	-0.004465 
2245.141824  	-0.004180 
2247.070640  	-0.004002 
2248.999456  	-0.004063 
2250.928272  	-0.004317 
2252.857088  	-0.004381 
2254.785904  	-0.003666 
2256.714720  	-0.003460 
2258.643536  	-0.003590 
2260.572352  	-0.003430 
2262.501168  	-0.003199 
2264.429984  	-0.003299 
2266.358800  	-0.003561 
2268.287616  	-0.004041 
2270.216432  	-0.003923 
2272.145248  	-0.003770 
2274.074064  	-0.003872 
2276.002880  	-0.003931 
2277.931696  	-0.003346 
2279.860512  	-0.003406 
2281.789328  	-0.003695 
2283.718144  	-0.003747 
2285.646960  	-0.003447 
2287.575776  	-0.003241 
2289.504592  	-0.003107 
2291.433408  	-0.003027 
2293.362224  	-0.002770 
2295.291040  	-0.002747 
2297.219856  	-0.002493 
2299.148672  	-0.002309 
2301.077488  	-0.001959 
2303.006304  	-0.001538 
2304.935120  	-0.001243 
2306.863936  	-0.001125 
2308.792752  	-0.000898 
2310.721568  	-0.000904 
2312.650384  	-0.001213 
2314.579200  	-0.001907 
2316.508016  	-0.002045 
2318.436832  	-0.001836 
2320.365648  	-0.001767 
2322.294464  	-0.001919 
2324.223280  	-0.002663 
2326.152096  	-0.004293 
2328.080912  	-0.005453 
2330.009728  	-0.006101 
2331.938544  	-0.006485 
2333.867360  	-0.006932 
2335.796176  	-0.007524 
2337.724992  	-0.008309 
2339.653808  	-0.008393 
2341.582624  	-0.007849 
2343.511440  	-0.006841 
2345.440256  	-0.005002 
2347.369072  	-0.003741 
2349.297888  	-0.004241 
2351.226704  	-0.005792 
2353.155520  	-0.007647 
2355.084336  	-0.008930 
2357.013152  	-0.009486 
2358.941968  	-0.009560 
2360.870784  	-0.009775 
2362.799600  	-0.009491 
2364.728416  	-0.008368 
2366.657232  	-0.007082 
2368.586048  	-0.006161 
2370.514864  	-0.005043 
2372.443680  	-0.004116 
2374.372496  	-0.003119 
2376.301312  	-0.002355 
2378.230128  	-0.002031 
2380.158944  	-0.002149 
2382.087760  	-0.002320 
2384.016576  	-0.002841 
2385.945392  	-0.003565 
2387.874208  	-0.004041 
2389.803024  	-0.004327 
2391.731840  	-0.004598 
2393.660656  	-0.004676 
2395.589472  	-0.004512 
2397.518288  	-0.004438 
2399.447104  	-0.004619 
2401.375920  	-0.004767 
2403.304736  	-0.005008 
2405.233552  	-0.004909 
2407.162368  	-0.004794 
2409.091184  	-0.004884 
2411.020000  	-0.005002 
2412.948816  	-0.005069 
2414.877632  	-0.005033 
2416.806448  	-0.004725 
2418.735264  	-0.004512 
2420.664080  	-0.004496 
2422.592896  	-0.004680 
2424.521712  	-0.004765 
2426.450528  	-0.004723 
2428.379344  	-0.004616 
2430.308160  	-0.004536 
2432.236976  	-0.004504 
2434.165792  	-0.004308 
2436.094608  	-0.004223 
2438.023424  	-0.004153 
2439.952240  	-0.004047 
2441.881056  	-0.004181 
2443.809872  	-0.004223 
2445.738688  	-0.004154 
2447.667504  	-0.003839 
2449.596320  	-0.003600 
2451.525136  	-0.003636 
2453.453952  	-0.003787 
2455.382768  	-0.003649 
2457.311584  	-0.003550 
2459.240400  	-0.003782 
2461.169216  	-0.003836 
2463.098032  	-0.003592 
2465.026848  	-0.003625 
2466.955664  	-0.003846 
2468.884480  	-0.004130 
2470.813296  	-0.004203 
2472.742112  	-0.004048 
2474.670928  	-0.003678 
2476.599744  	-0.003460 
2478.528560  	-0.003278 
2480.457376  	-0.003177 
2482.386192  	-0.003091 
2484.315008  	-0.003199 
2486.243824  	-0.003244 
2488.172640  	-0.002968 
2490.101456  	-0.002748 
2492.030272  	-0.002585 
2493.959088  	-0.002602 
2495.887904  	-0.002811 
2497.816720  	-0.002719 
2499.745536  	-0.002596 
2501.674352  	-0.002517 
2503.603168  	-0.002401 
2505.531984  	-0.002380 
2507.460800  	-0.002594 
2509.389616  	-0.002757 
2511.318432  	-0.002706 
2513.247248  	-0.002706 
2515.176064  	-0.002638 
2517.104880  	-0.002529 
2519.033696  	-0.002562 
2520.962512  	-0.002416 
2522.891328  	-0.002305 
2524.820144  	-0.002293 
2526.748960  	-0.002278 
2528.677776  	-0.002044 
2530.606592  	-0.001879 
2532.535408  	-0.001715 
2534.464224  	-0.001656 
2536.393040  	-0.001877 
2538.321856  	-0.002075 
2540.250672  	-0.001988 
2542.179488  	-0.001731 
2544.108304  	-0.001506 
2546.037120  	-0.001295 
2547.965936  	-0.001099 
2549.894752  	-0.001057 
2551.823568  	-0.000908 
2553.752384  	-0.000744 
2555.681200  	-0.001036 
2557.610016  	-0.001203 
2559.538832  	-0.001060 
2561.467648  	-0.000830 
2563.396464  	-0.000664 
2565.325280  	-0.000722 
2567.254096  	-0.000848 
2569.182912  	-0.000800 
2571.111728  	-0.000643 
2573.040544  	-0.000619 
2574.969360  	-0.000473 
2576.898176  	-0.000353 
2578.826992  	-0.000495 
2580.755808  	-0.000508 
2582.684624  	-0.000190 
2584.613440  	-0.000118 
2586.542256  	-0.000033 
2588.471072  	-0.000026 
2590.399888  	0.000004 
2592.328704  	0.000192 
2594.257520  	0.000257 
2596.186336  	0.000119 
2598.115152  	0.000245 
2600.043968  	0.000443 
2601.972784  	0.000542 
2603.901600  	0.000734 
2605.830416  	0.000769 
2607.759232  	0.000708 
2609.688048  	0.000731 
2611.616864  	0.000921 
2613.545680  	0.001054 
2615.474496  	0.001149 
2617.403312  	0.001200 
2619.332128  	0.001204 
2621.260944  	0.001370 
2623.189760  	0.001572 
2625.118576  	0.001690 
2627.047392  	0.001666 
2628.976208  	0.001843 
2630.905024  	0.001889 
2632.833840  	0.001861 
2634.762656  	0.001856 
2636.691472  	0.002100 
2638.620288  	0.002300 
2640.549104  	0.002402 
2642.477920  	0.002604 
2644.406736  	0.002668 
2646.335552  	0.002624 
2648.264368  	0.002690 
2650.193184  	0.002859 
2652.122000  	0.003047 
2654.050816  	0.003095 
2655.979632  	0.003174 
2657.908448  	0.003284 
2659.837264  	0.003443 
2661.766080  	0.003547 
2663.694896  	0.003610 
2665.623712  	0.003669 
2667.552528  	0.003807 
2669.481344  	0.003936 
2671.410160  	0.003985 
2673.338976  	0.004049 
2675.267792  	0.004196 
2677.196608  	0.004418 
2679.125424  	0.004546 
2681.054240  	0.004653 
2682.983056  	0.004892 
2684.911872  	0.004940 
2686.840688  	0.004917 
2688.769504  	0.004948 
2690.698320  	0.005124 
2692.627136  	0.005208 
2694.555952  	0.005226 
2696.484768  	0.005397 
2698.413584  	0.005503 
2700.342400  	0.005454 
2702.271216  	0.005652 
2704.200032  	0.005869 
2706.128848  	0.006019 
2708.057664  	0.006200 
2709.986480  	0.006231 
2711.915296  	0.006291 
2713.844112  	0.006508 
2715.772928  	0.006593 
2717.701744  	0.006668 
2719.630560  	0.006891 
2721.559376  	0.007068 
2723.488192  	0.007079 
2725.417008  	0.007198 
2727.345824  	0.007403 
2729.274640  	0.007644 
2731.203456  	0.007689 
2733.132272  	0.007761 
2735.061088  	0.007945 
2736.989904  	0.007966 
2738.918720  	0.008032 
2740.847536  	0.008165 
2742.776352  	0.008304 
2744.705168  	0.008432 
2746.633984  	0.008540 
2748.562800  	0.008718 
2750.491616  	0.008824 
2752.420432  	0.008837 
2754.349248  	0.008731 
2756.278064  	0.008768 
2758.206880  	0.008818 
2760.135696  	0.008778 
2762.064512  	0.008783 
2763.993328  	0.008839 
2765.922144  	0.008892 
2767.850960  	0.008956 
2769.779776  	0.009021 
2771.708592  	0.009053 
2773.637408  	0.009037 
2775.566224  	0.009016 
2777.495040  	0.009042 
2779.423856  	0.009205 
2781.352672  	0.009374 
2783.281488  	0.009461 
2785.210304  	0.009500 
2787.139120  	0.009620 
2789.067936  	0.009580 
2790.996752  	0.009584 
2792.925568  	0.009657 
2794.854384  	0.009710 
2796.783200  	0.009776 
2798.712016  	0.009726 
2800.640832  	0.009730 
2802.569648  	0.009936 
2804.498464  	0.010066 
2806.427280  	0.010125 
2808.356096  	0.010314 
2810.284912  	0.010308 
2812.213728  	0.010209 
2814.142544  	0.010315 
2816.071360  	0.010378 
2818.000176  	0.010448 
2819.928992  	0.010519 
2821.857808  	0.010492 
2823.786624  	0.010425 
2825.715440  	0.010431 
2827.644256  	0.010435 
2829.573072  	0.010341 
2831.501888  	0.010291 
2833.430704  	0.010323 
2835.359520  	0.010316 
2837.288336  	0.010267 
2839.217152  	0.010217 
2841.145968  	0.010031 
2843.074784  	0.009887 
2845.003600  	0.009994 
2846.932416  	0.009964 
2848.861232  	0.010018 
2850.790048  	0.010041 
2852.718864  	0.010111 
2854.647680  	0.010189 
2856.576496  	0.010202 
2858.505312  	0.010244 
2860.434128  	0.010397 
2862.362944  	0.010370 
2864.291760  	0.010289 
2866.220576  	0.010418 
2868.149392  	0.010547 
2870.078208  	0.010654 
2872.007024  	0.010961 
2873.935840  	0.011297 
2875.864656  	0.011611 
2877.793472  	0.011979 
2879.722288  	0.012421 
2881.651104  	0.012783 
2883.579920  	0.013080 
2885.508736  	0.013362 
2887.437552  	0.013575 
2889.366368  	0.013725 
2891.295184  	0.013795 
2893.224000  	0.013774 
2895.152816  	0.013795 
2897.081632  	0.013851 
2899.010448  	0.013636 
2900.939264  	0.013342 
2902.868080  	0.013575 
2904.796896  	0.014066 
2906.725712  	0.014282 
2908.654528  	0.014468 
2910.583344  	0.014761 
2912.512160  	0.015056 
2914.440976  	0.015444 
2916.369792  	0.015987 
2918.298608  	0.016426 
2920.227424  	0.016747 
2922.156240  	0.017107 
2924.085056  	0.017620 
2926.013872  	0.018226 
2927.942688  	0.018920 
2929.871504  	0.019578 
2931.800320  	0.020130 
2933.729136  	0.020757 
2935.657952  	0.021289 
2937.586768  	0.021704 
2939.515584  	0.022091 
2941.444400  	0.022271 
2943.373216  	0.022480 
2945.302032  	0.022761 
2947.230848  	0.022893 
2949.159664  	0.022881 
2951.088480  	0.022818 
2953.017296  	0.022756 
2954.946112  	0.022486 
2956.874928  	0.022229 
2958.803744  	0.022047 
2960.732560  	0.021920 
2962.661376  	0.021855 
2964.590192  	0.021633 
2966.519008  	0.021378 
2968.447824  	0.021093 
2970.376640  	0.020854 
2972.305456  	0.020581 
2974.234272  	0.020553 
2976.163088  	0.020579 
2978.091904  	0.020513 
2980.020720  	0.020411 
2981.949536  	0.020409 
2983.878352  	0.020489 
2985.807168  	0.020397 
2987.735984  	0.020352 
2989.664800  	0.020297 
2991.593616  	0.020716 
2993.522432  	0.021289 
2995.451248  	0.021584 
2997.380064  	0.021844 
2999.308880  	0.022319 
3001.237696  	0.022906 
3003.166512  	0.023517 
3005.095328  	0.023914 
3007.024144  	0.024258 
3008.952960  	0.024705 
3010.881776  	0.025138 
3012.810592  	0.025620 
3014.739408  	0.026129 
3016.668224  	0.026664 
3018.597040  	0.027077 
3020.525856  	0.027523 
3022.454672  	0.027991 
3024.383488  	0.028420 
3026.312304  	0.028881 
3028.241120  	0.029237 
3030.169936  	0.029883 
3032.098752  	0.030565 
3034.027568  	0.030771 
3035.956384  	0.031075 
3037.885200  	0.031529 
3039.814016  	0.032047 
3041.742832  	0.032413 
3043.671648  	0.032737 
3045.600464  	0.033301 
3047.529280  	0.033783 
3049.458096  	0.034354 
3051.386912  	0.034658 
3053.315728  	0.034918 
3055.244544  	0.035481 
3057.173360  	0.036261 
3059.102176  	0.036784 
3061.030992  	0.037178 
3062.959808  	0.037590 
3064.888624  	0.038246 
3066.817440  	0.039051 
3068.746256  	0.039679 
3070.675072  	0.040086 
3072.603888  	0.040561 
3074.532704  	0.041237 
3076.461520  	0.041944 
3078.390336  	0.042542 
3080.319152  	0.043225 
3082.247968  	0.043721 
3084.176784  	0.044123 
3086.105600  	0.044662 
3088.034416  	0.045304 
3089.963232  	0.045725 
3091.892048  	0.046024 
3093.820864  	0.046549 
3095.749680  	0.047488 
3097.678496  	0.048247 
3099.607312  	0.048795 
3101.536128  	0.049601 
3103.464944  	0.050060 
3105.393760  	0.050251 
3107.322576  	0.050752 
3109.251392  	0.051364 
3111.180208  	0.051896 
3113.109024  	0.052193 
3115.037840  	0.052516 
3116.966656  	0.053185 
3118.895472  	0.053900 
3120.824288  	0.054333 
3122.753104  	0.054734 
3124.681920  	0.055016 
3126.610736  	0.055380 
3128.539552  	0.055654 
3130.468368  	0.055746 
3132.397184  	0.056289 
3134.326000  	0.056870 
3136.254816  	0.057124 
3138.183632  	0.057430 
3140.112448  	0.057655 
3142.041264  	0.058165 
3143.970080  	0.058736 
3145.898896  	0.058971 
3147.827712  	0.059160 
3149.756528  	0.059743 
3151.685344  	0.060300 
3153.614160  	0.060564 
3155.542976  	0.060741 
3157.471792  	0.061126 
3159.400608  	0.061568 
3161.329424  	0.061995 
3163.258240  	0.062433 
3165.187056  	0.062678 
3167.115872  	0.062766 
3169.044688  	0.063038 
3170.973504  	0.063305 
3172.902320  	0.063524 
3174.831136  	0.063615 
3176.759952  	0.063867 
3178.688768  	0.064426 
3180.617584  	0.064553 
3182.546400  	0.064499 
3184.475216  	0.064584 
3186.404032  	0.064751 
3188.332848  	0.064707 
3190.261664  	0.064687 
3192.190480  	0.064851 
3194.119296  	0.064816 
3196.048112  	0.064554 
3197.976928  	0.065007 
3199.905744  	0.065280 
3201.834560  	0.065076 
3203.763376  	0.064805 
3205.692192  	0.064529 
3207.621008  	0.064474 
3209.549824  	0.064648 
3211.478640  	0.064708 
3213.407456  	0.064554 
3215.336272  	0.064526 
3217.265088  	0.064233 
3219.193904  	0.064214 
3221.122720  	0.064271 
3223.051536  	0.063942 
3224.980352  	0.063725 
3226.909168  	0.063555 
3228.837984  	0.063230 
3230.766800  	0.063118 
3232.695616  	0.063269 
3234.624432  	0.063123 
3236.553248  	0.063179 
3238.482064  	0.063335 
3240.410880  	0.063126 
3242.339696  	0.062904 
3244.268512  	0.062963 
3246.197328  	0.063114 
3248.126144  	0.062956 
3250.054960  	0.063066 
3251.983776  	0.063165 
3253.912592  	0.063421 
3255.841408  	0.063538 
3257.770224  	0.063331 
3259.699040  	0.063345 
3261.627856  	0.063588 
3263.556672  	0.063695 
3265.485488  	0.063882 
3267.414304  	0.063979 
3269.343120  	0.064052 
3271.271936  	0.064128 
3273.200752  	0.064324 
3275.129568  	0.064453 
3277.058384  	0.064372 
3278.987200  	0.064263 
3280.916016  	0.064361 
3282.844832  	0.064603 
3284.773648  	0.064749 
3286.702464  	0.064789 
3288.631280  	0.064899 
3290.560096  	0.064914 
3292.488912  	0.064832 
3294.417728  	0.064803 
3296.346544  	0.065051 
3298.275360  	0.065372 
3300.204176  	0.065341 
3302.132992  	0.065339 
3304.061808  	0.065718 
3305.990624  	0.065892 
3307.919440  	0.066083 
3309.848256  	0.066431 
3311.777072  	0.066549 
3313.705888  	0.066645 
3315.634704  	0.066806 
3317.563520  	0.067026 
3319.492336  	0.067231 
3321.421152  	0.067269 
3323.349968  	0.067229 
3325.278784  	0.067216 
3327.207600  	0.067398 
3329.136416  	0.067312 
3331.065232  	0.067137 
3332.994048  	0.067084 
3334.922864  	0.067228 
3336.851680  	0.067370 
3338.780496  	0.067310 
3340.709312  	0.066844 
3342.638128  	0.066749 
3344.566944  	0.066756 
3346.495760  	0.066423 
3348.424576  	0.066096 
3350.353392  	0.065807 
3352.282208  	0.065432 
3354.211024  	0.065199 
3356.139840  	0.065103 
3358.068656  	0.064861 
3359.997472  	0.064410 
3361.926288  	0.064018 
3363.855104  	0.063628 
3365.783920  	0.063571 
3367.712736  	0.063344 
3369.641552  	0.063016 
3371.570368  	0.062648 
3373.499184  	0.062434 
3375.428000  	0.062242 
3377.356816  	0.062064 
3379.285632  	0.061906 
3381.214448  	0.061519 
3383.143264  	0.061209 
3385.072080  	0.061229 
3387.000896  	0.060708 
3388.929712  	0.060012 
3390.858528  	0.059709 
3392.787344  	0.060016 
3394.716160  	0.059723 
3396.644976  	0.059388 
3398.573792  	0.059003 
3400.502608  	0.058208 
3402.431424  	0.057673 
3404.360240  	0.057364 
3406.289056  	0.056880 
3408.217872  	0.056565 
3410.146688  	0.056131 
3412.075504  	0.055631 
3414.004320  	0.055395 
3415.933136  	0.055179 
3417.861952  	0.054787 
3419.790768  	0.054840 
3421.719584  	0.054904 
3423.648400  	0.054040 
3425.577216  	0.053173 
3427.506032  	0.052857 
3429.434848  	0.052503 
3431.363664  	0.052322 
3433.292480  	0.052036 
3435.221296  	0.051455 
3437.150112  	0.050759 
3439.078928  	0.050082 
3441.007744  	0.049620 
3442.936560  	0.049574 
3444.865376  	0.048934 
3446.794192  	0.049272 
3448.723008  	0.049393 
3450.651824  	0.047919 
3452.580640  	0.047290 
3454.509456  	0.046939 
3456.438272  	0.046385 
3458.367088  	0.045823 
3460.295904  	0.045372 
3462.224720  	0.045101 
3464.153536  	0.044370 
3466.082352  	0.043408 
3468.011168  	0.043090 
3469.939984  	0.042555 
3471.868800  	0.041801 
3473.797616  	0.041160 
3475.726432  	0.040709 
3477.655248  	0.039746 
3479.584064  	0.039060 
3481.512880  	0.039324 
3483.441696  	0.039153 
3485.370512  	0.037902 
3487.299328  	0.037303 
3489.228144  	0.036770 
3491.156960  	0.035897 
3493.085776  	0.035331 
3495.014592  	0.035068 
3496.943408  	0.034831 
3498.872224  	0.034063 
3500.801040  	0.033706 
3502.729856  	0.034170 
3504.658672  	0.034081 
3506.587488  	0.032292 
3508.516304  	0.031610 
3510.445120  	0.031954 
3512.373936  	0.031020 
3514.302752  	0.030196 
3516.231568  	0.029563 
3518.160384  	0.029001 
3520.089200  	0.028370 
3522.018016  	0.028327 
3523.946832  	0.029191 
3525.875648  	0.028479 
3527.804464  	0.027852 
3529.733280  	0.027553 
3531.662096  	0.026393 
3533.590912  	0.025058 
3535.519728  	0.024873 
3537.448544  	0.024966 
3539.377360  	0.023766 
3541.306176  	0.022827 
3543.234992  	0.022870 
3545.163808  	0.024307 
3547.092624  	0.024811 
3549.021440  	0.022584 
3550.950256  	0.021101 
3552.879072  	0.021911 
3554.807888  	0.020808 
3556.736704  	0.019119 
3558.665520  	0.019018 
3560.594336  	0.019283 
3562.523152  	0.018509 
3564.451968  	0.018311 
3566.380784  	0.021400 
3568.309600  	0.023095 
3570.238416  	0.018918 
3572.167232  	0.015968 
3574.096048  	0.015246 
3576.024864  	0.014917 
3577.953680  	0.014273 
3579.882496  	0.013980 
3581.811312  	0.013220 
3583.740128  	0.012293 
3585.668944  	0.012679 
3587.597760  	0.015803 
3589.526576  	0.014763 
3591.455392  	0.011163 
3593.384208  	0.010663 
3595.313024  	0.011434 
3597.241840  	0.010339 
3599.170656  	0.008985 
3601.099472  	0.008727 
3603.028288  	0.007488 
3604.957104  	0.005898 
3606.885920  	0.006503 
3608.814736  	0.008003 
3610.743552  	0.006576 
3612.672368  	0.006104 
3614.601184  	0.006355 
3616.530000  	0.004320 
3618.458816  	0.004458 
3620.387632  	0.005123 
3622.316448  	0.002655 
3624.245264  	0.000565 
3626.174080  	-0.000431 
3628.102896  	0.000997 
3630.031712  	0.004197 
3631.960528  	0.000517 
3633.889344  	-0.001215 
3635.818160  	-0.002173 
3637.746976  	-0.003283 
3639.675792  	-0.003989 
3641.604608  	-0.004516 
3643.533424  	-0.004943 
3645.462240  	-0.005767 
3647.391056  	-0.003651 
3649.319872  	-0.000831 
3651.248688  	-0.001296 
3653.177504  	-0.005696 
3655.106320  	-0.007827 
3657.035136  	-0.006910 
3658.963952  	-0.008118 
3660.892768  	-0.009371 
3662.821584  	-0.010179 
3664.750400  	-0.010809 
3666.679216  	-0.011276 
3668.608032  	-0.010561 
3670.536848  	-0.007832 
3672.465664  	-0.009574 
3674.394480  	-0.010527 
3676.323296  	-0.006678 
3678.252112  	-0.008500 
3680.180928  	-0.010270 
3682.109744  	-0.011750 
3684.038560  	-0.012395 
3685.967376  	-0.012985 
3687.896192  	-0.011886 
3689.825008  	-0.009264 
3691.753824  	-0.009717 
3693.682640  	-0.011369 
3695.611456  	-0.012368 
3697.540272  	-0.012476 
3699.469088  	-0.013127 
3701.397904  	-0.012389 
3703.326720  	-0.011758 
3705.255536  	-0.012542 
3707.184352  	-0.012808 
3709.113168  	-0.012149 
3711.041984  	-0.009959 
3712.970800  	-0.009069 
3714.899616  	-0.010986 
3716.828432  	-0.012392 
3718.757248  	-0.012102 
3720.686064  	-0.012199 
3722.614880  	-0.011670 
3724.543696  	-0.010986 
3726.472512  	-0.010187 
3728.401328  	-0.011419 
3730.330144  	-0.013431 
3732.258960  	-0.012700 
3734.187776  	-0.009576 
3736.116592  	-0.006355 
3738.045408  	-0.008345 
3739.974224  	-0.010563 
3741.903040  	-0.011934 
3743.831856  	-0.011565 
3745.760672  	-0.008905 
3747.689488  	-0.010954 
3749.618304  	-0.010305 
3751.547120  	-0.007831 
3753.475936  	-0.008774 
3755.404752  	-0.010927 
3757.333568  	-0.011263 
3759.262384  	-0.010551 
3761.191200  	-0.010978 
3763.120016  	-0.012649 
3765.048832  	-0.012105 
3766.977648  	-0.011635 
3768.906464  	-0.011931 
3770.835280  	-0.010971 
3772.764096  	-0.011972 
3774.692912  	-0.013063 
3776.621728  	-0.013341 
3778.550544  	-0.012535 
3780.479360  	-0.011575 
3782.408176  	-0.012620 
3784.336992  	-0.012417 
3786.265808  	-0.012029 
3788.194624  	-0.012652 
3790.123440  	-0.012932 
3792.052256  	-0.013252 
3793.981072  	-0.013870 
3795.909888  	-0.012756 
3797.838704  	-0.011285 
3799.767520  	-0.012270 
3801.696336  	-0.010175 
3803.625152  	-0.010686 
3805.553968  	-0.012860 
3807.482784  	-0.011521 
3809.411600  	-0.011765 
3811.340416  	-0.012901 
3813.269232  	-0.013678 
3815.198048  	-0.012776 
3817.126864  	-0.010703 
3819.055680  	-0.012139 
3820.984496  	-0.010373 
3822.913312  	-0.009611 
3824.842128  	-0.012022 
3826.770944  	-0.012043 
3828.699760  	-0.012289 
3830.628576  	-0.012686 
3832.557392  	-0.012346 
3834.486208  	-0.012771 
3836.415024  	-0.012679 
3838.343840  	-0.010613 
3840.272656  	-0.009174 
3842.201472  	-0.010295 
3844.130288  	-0.010805 
3846.059104  	-0.011919 
3847.987920  	-0.013052 
3849.916736  	-0.013326 
3851.845552  	-0.012590 
3853.774368  	-0.007419 
3855.703184  	-0.007896 
3857.632000  	-0.010380 
3859.560816  	-0.012181 
3861.489632  	-0.012304 
3863.418448  	-0.011050 
3865.347264  	-0.009747 
3867.276080  	-0.011464 
3869.204896  	-0.010769 
3871.133712  	-0.008466 
3873.062528  	-0.010559 
3874.991344  	-0.010792 
3876.920160  	-0.012579 
3878.848976  	-0.012984 
3880.777792  	-0.010190 
3882.706608  	-0.010451 
3884.635424  	-0.011485 
3886.564240  	-0.010509 
3888.493056  	-0.012541 
3890.421872  	-0.012747 
3892.350688  	-0.010840 
3894.279504  	-0.011530 
3896.208320  	-0.013011 
3898.137136  	-0.012589 
3900.065952  	-0.010461 
3901.994768  	-0.009606 
3903.923584  	-0.008860 
3905.852400  	-0.009310 
3907.781216  	-0.011788 
3909.710032  	-0.013352 
3911.638848  	-0.013621 
3913.567664  	-0.013504 
3915.496480  	-0.012573 
3917.425296  	-0.010813 
3919.354112  	-0.010857 
3921.282928  	-0.011425 
3923.211744  	-0.011580 
3925.140560  	-0.010996 
3927.069376  	-0.011999 
3928.998192  	-0.012329 
3930.927008  	-0.011296 
3932.855824  	-0.010775 
3934.784640  	-0.011938 
3936.713456  	-0.012741 
3938.642272  	-0.012927 
3940.571088  	-0.012894 
3942.499904  	-0.011459 
3944.428720  	-0.011507 
3946.357536  	-0.012442 
3948.286352  	-0.011642 
3950.215168  	-0.011845 
3952.143984  	-0.012898 
3954.072800  	-0.013319 
3956.001616  	-0.013088 
3957.930432  	-0.012791 
3959.859248  	-0.012624 
3961.788064  	-0.012380 
3963.716880  	-0.012565 
3965.645696  	-0.013077 
3967.574512  	-0.013286 
3969.503328  	-0.013232 
3971.432144  	-0.013039 
3973.360960  	-0.012641 
3975.289776  	-0.012124 
3977.218592  	-0.012378 
3979.147408  	-0.012980 
3981.076224  	-0.013044 
3983.005040  	-0.013031 
3984.933856  	-0.013039 
3986.862672  	-0.012970 
3988.791488  	-0.013055 
3990.720304  	-0.012793 
3992.649120  	-0.012789 
3994.577936  	-0.012792 
3996.506752  	-0.012882 
3998.435568  	-0.013195 
4000.364384  	-0.013168 