##TITLE=No Description
##DATA TYPE=INFRARED SPECTRUM
##XUNITS=1/CM
##YUNITS=Abs
399.264912  	0.477464 
401.193728  	0.461608 
403.122544  	0.460538 
405.051360  	0.453697 
406.980176  	0.454322 
408.908992  	0.456777 
410.837808  	0.471467 
412.766624  	0.474705 
414.695440  	0.465442 
416.624256  	0.455319 
418.553072  	0.456012 
420.481888  	0.454132 
422.410704  	0.467873 
424.339520  	0.464659 
426.268336  	0.451313 
428.197152  	0.450889 
430.125968  	0.448041 
432.054784  	0.439450 
433.983600  	0.441683 
435.912416  	0.440390 
437.841232  	0.438274 
439.770048  	0.438779 
441.698864  	0.438564 
443.627680  	0.436098 
445.556496  	0.437305 
447.485312  	0.432777 
449.414128  	0.434804 
451.342944  	0.435282 
453.271760  	0.433075 
455.200576  	0.433871 
457.129392  	0.436140 
459.058208  	0.435209 
460.987024  	0.439699 
462.915840  	0.439943 
464.844656  	0.436033 
466.773472  	0.431427 
468.702288  	0.435354 
470.631104  	0.438556 
472.559920  	0.441124 
474.488736  	0.437738 
476.417552  	0.436016 
478.346368  	0.430214 
480.275184  	0.429727 
482.204000  	0.430178 
484.132816  	0.431363 
486.061632  	0.431313 
487.990448  	0.430342 
489.919264  	0.429008 
491.848080  	0.428015 
493.776896  	0.427210 
495.705712  	0.427236 
497.634528  	0.423698 
499.563344  	0.422462 
501.492160  	0.420408 
503.420976  	0.421556 
505.349792  	0.420384 
507.278608  	0.422770 
509.207424  	0.423331 
511.136240  	0.424918 
513.065056  	0.425557 
514.993872  	0.428536 
516.922688  	0.430222 
518.851504  	0.431887 
520.780320  	0.429397 
522.709136  	0.427387 
524.637952  	0.425769 
526.566768  	0.424528 
528.495584  	0.422295 
530.424400  	0.420965 
532.353216  	0.414780 
534.282032  	0.408389 
536.210848  	0.404948 
538.139664  	0.400877 
540.068480  	0.394902 
541.997296  	0.391120 
543.926112  	0.386781 
545.854928  	0.383942 
547.783744  	0.381482 
549.712560  	0.379171 
551.641376  	0.374969 
553.570192  	0.371806 
555.499008  	0.368585 
557.427824  	0.366226 
559.356640  	0.362214 
561.285456  	0.359774 
563.214272  	0.356460 
565.143088  	0.353501 
567.071904  	0.351084 
569.000720  	0.347693 
570.929536  	0.343827 
572.858352  	0.341184 
574.787168  	0.338488 
576.715984  	0.336175 
578.644800  	0.332583 
580.573616  	0.329088 
582.502432  	0.324289 
584.431248  	0.319520 
586.360064  	0.315900 
588.288880  	0.313786 
590.217696  	0.311118 
592.146512  	0.310093 
594.075328  	0.308226 
596.004144  	0.306184 
597.932960  	0.304399 
599.861776  	0.303319 
601.790592  	0.302552 
603.719408  	0.302324 
605.648224  	0.301398 
607.577040  	0.300606 
609.505856  	0.299259 
611.434672  	0.297856 
613.363488  	0.296619 
615.292304  	0.296118 
617.221120  	0.294877 
619.149936  	0.293815 
621.078752  	0.292806 
623.007568  	0.292484 
624.936384  	0.291254 
626.865200  	0.289847 
628.794016  	0.289330 
630.722832  	0.289623 
632.651648  	0.290629 
634.580464  	0.291043 
636.509280  	0.291238 
638.438096  	0.291130 
640.366912  	0.291046 
642.295728  	0.290510 
644.224544  	0.288218 
646.153360  	0.285153 
648.082176  	0.281721 
650.010992  	0.278308 
651.939808  	0.274738 
653.868624  	0.271635 
655.797440  	0.268104 
657.726256  	0.264716 
659.655072  	0.261034 
661.583888  	0.256757 
663.512704  	0.252867 
665.441520  	0.248704 
667.370336  	0.244658 
669.299152  	0.242321 
671.227968  	0.238492 
673.156784  	0.235111 
675.085600  	0.232821 
677.014416  	0.230570 
678.943232  	0.228535 
680.872048  	0.227472 
682.800864  	0.226791 
684.729680  	0.225448 
686.658496  	0.223904 
688.587312  	0.223332 
690.516128  	0.222507 
692.444944  	0.221905 
694.373760  	0.220601 
696.302576  	0.219623 
698.231392  	0.218113 
700.160208  	0.216056 
702.089024  	0.213849 
704.017840  	0.211578 
705.946656  	0.209172 
707.875472  	0.207180 
709.804288  	0.205560 
711.733104  	0.204220 
713.661920  	0.202853 
715.590736  	0.201709 
717.519552  	0.201531 
719.448368  	0.202790 
721.377184  	0.204401 
723.306000  	0.205865 
725.234816  	0.207293 
727.163632  	0.207010 
729.092448  	0.204753 
731.021264  	0.201447 
732.950080  	0.197985 
734.878896  	0.194811 
736.807712  	0.191732 
738.736528  	0.189553 
740.665344  	0.187997 
742.594160  	0.186928 
744.522976  	0.185616 
746.451792  	0.184376 
748.380608  	0.183169 
750.309424  	0.182344 
752.238240  	0.181612 
754.167056  	0.181064 
756.095872  	0.180550 
758.024688  	0.179911 
759.953504  	0.179848 
761.882320  	0.181278 
763.811136  	0.182707 
765.739952  	0.181811 
767.668768  	0.179210 
769.597584  	0.177275 
771.526400  	0.177169 
773.455216  	0.179464 
775.384032  	0.184363 
777.312848  	0.191067 
779.241664  	0.195983 
781.170480  	0.196196 
783.099296  	0.191936 
785.028112  	0.186237 
786.956928  	0.180517 
788.885744  	0.175967 
790.814560  	0.172449 
792.743376  	0.170826 
794.672192  	0.170595 
796.601008  	0.169937 
798.529824  	0.166967 
800.458640  	0.162786 
802.387456  	0.159346 
804.316272  	0.157761 
806.245088  	0.157444 
808.173904  	0.157265 
810.102720  	0.157367 
812.031536  	0.157915 
813.960352  	0.158568 
815.889168  	0.159635 
817.817984  	0.160857 
819.746800  	0.162000 
821.675616  	0.163138 
823.604432  	0.164338 
825.533248  	0.165009 
827.462064  	0.165270 
829.390880  	0.165214 
831.319696  	0.165177 
833.248512  	0.164122 
835.177328  	0.162404 
837.106144  	0.159965 
839.034960  	0.156914 
840.963776  	0.153221 
842.892592  	0.149298 
844.821408  	0.145513 
846.750224  	0.142024 
848.679040  	0.139238 
850.607856  	0.137070 
852.536672  	0.135751 
854.465488  	0.134898 
856.394304  	0.134238 
858.323120  	0.132926 
860.251936  	0.131469 
862.180752  	0.129918 
864.109568  	0.127996 
866.038384  	0.125948 
867.967200  	0.124026 
869.896016  	0.122810 
871.824832  	0.122019 
873.753648  	0.122275 
875.682464  	0.123114 
877.611280  	0.125006 
879.540096  	0.127396 
881.468912  	0.129863 
883.397728  	0.132416 
885.326544  	0.134156 
887.255360  	0.135120 
889.184176  	0.135139 
891.112992  	0.134235 
893.041808  	0.132594 
894.970624  	0.129971 
896.899440  	0.126016 
898.828256  	0.121421 
900.757072  	0.116993 
902.685888  	0.113399 
904.614704  	0.111577 
906.543520  	0.111702 
908.472336  	0.113885 
910.401152  	0.117065 
912.329968  	0.120881 
914.258784  	0.124605 
916.187600  	0.128109 
918.116416  	0.131142 
920.045232  	0.133375 
921.974048  	0.134788 
923.902864  	0.135754 
925.831680  	0.136535 
927.760496  	0.137594 
929.689312  	0.138968 
931.618128  	0.140696 
933.546944  	0.141978 
935.475760  	0.142595 
937.404576  	0.142678 
939.333392  	0.142557 
941.262208  	0.142883 
943.191024  	0.144713 
945.119840  	0.149025 
947.048656  	0.156129 
948.977472  	0.166027 
950.906288  	0.177870 
952.835104  	0.191130 
954.763920  	0.205556 
956.692736  	0.219010 
958.621552  	0.230103 
960.550368  	0.237085 
962.479184  	0.240089 
964.408000  	0.238088 
966.336816  	0.231741 
968.265632  	0.221365 
970.194448  	0.208386 
972.123264  	0.193599 
974.052080  	0.178490 
975.980896  	0.164010 
977.909712  	0.150685 
979.838528  	0.139064 
981.767344  	0.129606 
983.696160  	0.122869 
985.624976  	0.119175 
987.553792  	0.118845 
989.482608  	0.121833 
991.411424  	0.127607 
993.340240  	0.135403 
995.269056  	0.144078 
997.197872  	0.153204 
999.126688  	0.162210 
1001.055504  	0.171386 
1002.984320  	0.179783 
1004.913136  	0.188064 
1006.841952  	0.195674 
1008.770768  	0.202301 
1010.699584  	0.207229 
1012.628400  	0.210370 
1014.557216  	0.211998 
1016.486032  	0.212256 
1018.414848  	0.211768 
1020.343664  	0.211218 
1022.272480  	0.210644 
1024.201296  	0.209954 
1026.130112  	0.209198 
1028.058928  	0.209646 
1029.987744  	0.211673 
1031.916560  	0.214790 
1033.845376  	0.218775 
1035.774192  	0.224277 
1037.703008  	0.231302 
1039.631824  	0.241177 
1041.560640  	0.253597 
1043.489456  	0.268530 
1045.418272  	0.283822 
1047.347088  	0.297051 
1049.275904  	0.305287 
1051.204720  	0.308239 
1053.133536  	0.306558 
1055.062352  	0.302219 
1056.991168  	0.296414 
1058.919984  	0.291818 
1060.848800  	0.288106 
1062.777616  	0.284269 
1064.706432  	0.279159 
1066.635248  	0.273726 
1068.564064  	0.267611 
1070.492880  	0.260817 
1072.421696  	0.254190 
1074.350512  	0.250172 
1076.279328  	0.249309 
1078.208144  	0.251788 
1080.136960  	0.254651 
1082.065776  	0.256291 
1083.994592  	0.254529 
1085.923408  	0.249594 
1087.852224  	0.241785 
1089.781040  	0.232786 
1091.709856  	0.222276 
1093.638672  	0.210711 
1095.567488  	0.198143 
1097.496304  	0.185770 
1099.425120  	0.173649 
1101.353936  	0.161626 
1103.282752  	0.150362 
1105.211568  	0.139922 
1107.140384  	0.130413 
1109.069200  	0.121406 
1110.998016  	0.113228 
1112.926832  	0.106145 
1114.855648  	0.099535 
1116.784464  	0.093028 
1118.713280  	0.086943 
1120.642096  	0.081019 
1122.570912  	0.075621 
1124.499728  	0.070694 
1126.428544  	0.066415 
1128.357360  	0.062621 
1130.286176  	0.059249 
1132.214992  	0.056514 
1134.143808  	0.054461 
1136.072624  	0.052610 
1138.001440  	0.050923 
1139.930256  	0.049441 
1141.859072  	0.047857 
1143.787888  	0.046057 
1145.716704  	0.044559 
1147.645520  	0.043309 
1149.574336  	0.042544 
1151.503152  	0.041904 
1153.431968  	0.041863 
1155.360784  	0.042305 
1157.289600  	0.043528 
1159.218416  	0.045177 
1161.147232  	0.047197 
1163.076048  	0.049555 
1165.004864  	0.051961 
1166.933680  	0.054101 
1168.862496  	0.056426 
1170.791312  	0.059167 
1172.720128  	0.062345 
1174.648944  	0.065733 
1176.577760  	0.068963 
1178.506576  	0.072319 
1180.435392  	0.075857 
1182.364208  	0.079479 
1184.293024  	0.083446 
1186.221840  	0.087997 
1188.150656  	0.093308 
1190.079472  	0.099352 
1192.008288  	0.106340 
1193.937104  	0.114124 
1195.865920  	0.122722 
1197.794736  	0.131947 
1199.723552  	0.141722 
1201.652368  	0.151002 
1203.581184  	0.159309 
1205.510000  	0.167113 
1207.438816  	0.173808 
1209.367632  	0.179442 
1211.296448  	0.183544 
1213.225264  	0.186173 
1215.154080  	0.187123 
1217.082896  	0.187161 
1219.011712  	0.185905 
1220.940528  	0.184443 
1222.869344  	0.182391 
1224.798160  	0.179667 
1226.726976  	0.176210 
1228.655792  	0.172328 
1230.584608  	0.168043 
1232.513424  	0.163348 
1234.442240  	0.158228 
1236.371056  	0.152901 
1238.299872  	0.147220 
1240.228688  	0.140898 
1242.157504  	0.134518 
1244.086320  	0.128307 
1246.015136  	0.121737 
1247.943952  	0.115536 
1249.872768  	0.109375 
1251.801584  	0.103450 
1253.730400  	0.097826 
1255.659216  	0.092414 
1257.588032  	0.087243 
1259.516848  	0.082596 
1261.445664  	0.078091 
1263.374480  	0.073854 
1265.303296  	0.070309 
1267.232112  	0.067621 
1269.160928  	0.065745 
1271.089744  	0.064637 
1273.018560  	0.064163 
1274.947376  	0.064388 
1276.876192  	0.065041 
1278.805008  	0.065343 
1280.733824  	0.064948 
1282.662640  	0.063422 
1284.591456  	0.061505 
1286.520272  	0.059988 
1288.449088  	0.059167 
1290.377904  	0.058942 
1292.306720  	0.059422 
1294.235536  	0.059721 
1296.164352  	0.059254 
1298.093168  	0.057547 
1300.021984  	0.055034 
1301.950800  	0.052311 
1303.879616  	0.049388 
1305.808432  	0.046523 
1307.737248  	0.043808 
1309.666064  	0.041013 
1311.594880  	0.039113 
1313.523696  	0.037838 
1315.452512  	0.036755 
1317.381328  	0.036497 
1319.310144  	0.036800 
1321.238960  	0.037029 
1323.167776  	0.037623 
1325.096592  	0.038348 
1327.025408  	0.038738 
1328.954224  	0.038743 
1330.883040  	0.038171 
1332.811856  	0.037049 
1334.740672  	0.036273 
1336.669488  	0.036421 
1338.598304  	0.037486 
1340.527120  	0.037126 
1342.455936  	0.034812 
1344.384752  	0.034094 
1346.313568  	0.034495 
1348.242384  	0.035385 
1350.171200  	0.036624 
1352.100016  	0.038223 
1354.028832  	0.040408 
1355.957648  	0.042620 
1357.886464  	0.044508 
1359.815280  	0.046737 
1361.744096  	0.050121 
1363.672912  	0.052705 
1365.601728  	0.052806 
1367.530544  	0.053978 
1369.459360  	0.055496 
1371.388176  	0.055626 
1373.316992  	0.055874 
1375.245808  	0.054802 
1377.174624  	0.051588 
1379.103440  	0.048803 
1381.032256  	0.045990 
1382.961072  	0.043663 
1384.889888  	0.042271 
1386.818704  	0.042237 
1388.747520  	0.040475 
1390.676336  	0.037671 
1392.605152  	0.035998 
1394.533968  	0.036452 
1396.462784  	0.037336 
1398.391600  	0.037195 
1400.320416  	0.036961 
1402.249232  	0.036380 
1404.178048  	0.037838 
1406.106864  	0.039307 
1408.035680  	0.040082 
1409.964496  	0.041797 
1411.893312  	0.043994 
1413.822128  	0.045754 
1415.750944  	0.048218 
1417.679760  	0.050756 
1419.608576  	0.052547 
1421.537392  	0.051020 
1423.466208  	0.050021 
1425.395024  	0.048247 
1427.323840  	0.045349 
1429.252656  	0.043723 
1431.181472  	0.042428 
1433.110288  	0.041284 
1435.039104  	0.041449 
1436.967920  	0.043927 
1438.896736  	0.043978 
1440.825552  	0.043448 
1442.754368  	0.043599 
1444.683184  	0.043435 
1446.612000  	0.043894 
1448.540816  	0.044674 
1450.469632  	0.044512 
1452.398448  	0.044722 
1454.327264  	0.045046 
1456.256080  	0.046964 
1458.184896  	0.049847 
1460.113712  	0.047159 
1462.042528  	0.044910 
1463.971344  	0.044992 
1465.900160  	0.047077 
1467.828976  	0.047531 
1469.757792  	0.048723 
1471.686608  	0.053609 
1473.615424  	0.063043 
1475.544240  	0.066870 
1477.473056  	0.070459 
1479.401872  	0.072150 
1481.330688  	0.075119 
1483.259504  	0.076552 
1485.188320  	0.076814 
1487.117136  	0.077760 
1489.045952  	0.079509 
1490.974768  	0.077681 
1492.903584  	0.072292 
1494.832400  	0.067635 
1496.761216  	0.064377 
1498.690032  	0.059668 
1500.618848  	0.054633 
1502.547664  	0.049442 
1504.476480  	0.045300 
1506.405296  	0.046397 
1508.334112  	0.048564 
1510.262928  	0.043272 
1512.191744  	0.039496 
1514.120560  	0.038170 
1516.049376  	0.039816 
1517.978192  	0.041393 
1519.907008  	0.041693 
1521.835824  	0.046982 
1523.764640  	0.049038 
1525.693456  	0.051335 
1527.622272  	0.053416 
1529.551088  	0.052301 
1531.479904  	0.050454 
1533.408720  	0.049937 
1535.337536  	0.046962 
1537.266352  	0.042882 
1539.195168  	0.041262 
1541.123984  	0.041507 
1543.052800  	0.040097 
1544.981616  	0.038165 
1546.910432  	0.034792 
1548.839248  	0.034017 
1550.768064  	0.035323 
1552.696880  	0.034322 
1554.625696  	0.035872 
1556.554512  	0.035894 
1558.483328  	0.040384 
1560.412144  	0.047228 
1562.340960  	0.045724 
1564.269776  	0.047576 
1566.198592  	0.052045 
1568.127408  	0.054995 
1570.056224  	0.063539 
1571.985040  	0.067368 
1573.913856  	0.068497 
1575.842672  	0.072625 
1577.771488  	0.077264 
1579.700304  	0.074822 
1581.629120  	0.073550 
1583.557936  	0.073102 
1585.486752  	0.074320 
1587.415568  	0.076638 
1589.344384  	0.081188 
1591.273200  	0.086720 
1593.202016  	0.093309 
1595.130832  	0.100238 
1597.059648  	0.106871 
1598.988464  	0.111529 
1600.917280  	0.116111 
1602.846096  	0.119270 
1604.774912  	0.120938 
1606.703728  	0.120659 
1608.632544  	0.120411 
1610.561360  	0.118623 
1612.490176  	0.116725 
1614.418992  	0.113679 
1616.347808  	0.115811 
1618.276624  	0.120276 
1620.205440  	0.120304 
1622.134256  	0.122439 
1624.063072  	0.131286 
1625.991888  	0.135182 
1627.920704  	0.141710 
1629.849520  	0.148869 
1631.778336  	0.152378 
1633.707152  	0.154065 
1635.635968  	0.164800 
1637.564784  	0.174848 
1639.493600  	0.173532 
1641.422416  	0.173523 
1643.351232  	0.172408 
1645.280048  	0.170601 
1647.208864  	0.177446 
1649.137680  	0.175462 
1651.066496  	0.165989 
1652.995312  	0.167555 
1654.924128  	0.174257 
1656.852944  	0.165485 
1658.781760  	0.159992 
1660.710576  	0.155802 
1662.639392  	0.154071 
1664.568208  	0.151091 
1666.497024  	0.144989 
1668.425840  	0.141293 
1670.354656  	0.140145 
1672.283472  	0.135503 
1674.212288  	0.130733 
1676.141104  	0.130393 
1678.069920  	0.126724 
1679.998736  	0.124917 
1681.927552  	0.122066 
1683.856368  	0.122919 
1685.785184  	0.126345 
1687.714000  	0.121724 
1689.642816  	0.120407 
1691.571632  	0.117784 
1693.500448  	0.113664 
1695.429264  	0.113244 
1697.358080  	0.114829 
1699.286896  	0.110374 
1701.215712  	0.111630 
1703.144528  	0.106467 
1705.073344  	0.102791 
1707.002160  	0.099641 
1708.930976  	0.094254 
1710.859792  	0.088898 
1712.788608  	0.083499 
1714.717424  	0.078294 
1716.646240  	0.072414 
1718.575056  	0.064142 
1720.503872  	0.055027 
1722.432688  	0.047913 
1724.361504  	0.040825 
1726.290320  	0.034179 
1728.219136  	0.029288 
1730.147952  	0.025951 
1732.076768  	0.022396 
1734.005584  	0.019992 
1735.934400  	0.015896 
1737.863216  	0.013183 
1739.792032  	0.011186 
1741.720848  	0.009901 
1743.649664  	0.009553 
1745.578480  	0.008492 
1747.507296  	0.007742 
1749.436112  	0.007903 
1751.364928  	0.006795 
1753.293744  	0.004449 
1755.222560  	0.003030 
1757.151376  	0.003721 
1759.080192  	0.002927 
1761.009008  	0.002622 
1762.937824  	0.002230 
1764.866640  	0.001166 
1766.795456  	0.001016 
1768.724272  	0.001670 
1770.653088  	0.000953 
1772.581904  	0.001609 
1774.510720  	0.001226 
1776.439536  	0.000471 
1778.368352  	-0.000254 
1780.297168  	0.000050 
1782.225984  	-0.000661 
1784.154800  	-0.000923 
1786.083616  	-0.001188 
1788.012432  	-0.001642 
1789.941248  	-0.001008 
1791.870064  	0.000279 
1793.798880  	-0.000541 
1795.727696  	-0.001042 
1797.656512  	-0.001831 
1799.585328  	-0.001887 
1801.514144  	-0.001153 
1803.442960  	-0.001725 
1805.371776  	-0.002530 
1807.300592  	-0.002660 
1809.229408  	-0.002710 
1811.158224  	-0.002489 
1813.087040  	-0.003116 
1815.015856  	-0.003743 
1816.944672  	-0.003454 
1818.873488  	-0.003308 
1820.802304  	-0.003381 
1822.731120  	-0.003042 
1824.659936  	-0.002934 
1826.588752  	-0.003051 
1828.517568  	-0.003403 
1830.446384  	-0.002885 
1832.375200  	-0.003496 
1834.304016  	-0.003622 
1836.232832  	-0.003562 
1838.161648  	-0.003508 
1840.090464  	-0.004088 
1842.019280  	-0.004034 
1843.948096  	-0.003296 
1845.876912  	-0.002833 
1847.805728  	-0.003520 
1849.734544  	-0.004129 
1851.663360  	-0.004405 
1853.592176  	-0.004217 
1855.520992  	-0.004373 
1857.449808  	-0.004161 
1859.378624  	-0.004585 
1861.307440  	-0.004470 
1863.236256  	-0.004782 
1865.165072  	-0.004777 
1867.093888  	-0.004193 
1869.022704  	-0.002680 
1870.951520  	-0.003397 
1872.880336  	-0.004543 
1874.809152  	-0.005184 
1876.737968  	-0.005121 
1878.666784  	-0.005196 
1880.595600  	-0.005512 
1882.524416  	-0.005594 
1884.453232  	-0.004988 
1886.382048  	-0.005117 
1888.310864  	-0.004533 
1890.239680  	-0.004416 
1892.168496  	-0.004635 
1894.097312  	-0.004607 
1896.026128  	-0.004809 
1897.954944  	-0.005391 
1899.883760  	-0.005221 
1901.812576  	-0.005161 
1903.741392  	-0.004936 
1905.670208  	-0.005014 
1907.599024  	-0.005078 
1909.527840  	-0.005048 
1911.456656  	-0.004646 
1913.385472  	-0.004823 
1915.314288  	-0.004642 
1917.243104  	-0.004370 
1919.171920  	-0.004006 
1921.100736  	-0.004230 
1923.029552  	-0.003911 
1924.958368  	-0.005264 
1926.887184  	-0.005771 
1928.816000  	-0.006197 
1930.744816  	-0.005890 
1932.673632  	-0.005648 
1934.602448  	-0.005292 
1936.531264  	-0.005215 
1938.460080  	-0.004530 
1940.388896  	-0.004375 
1942.317712  	-0.003834 
1944.246528  	-0.005200 
1946.175344  	-0.005070 
1948.104160  	-0.005022 
1950.032976  	-0.005314 
1951.961792  	-0.005905 
1953.890608  	-0.005717 
1955.819424  	-0.006162 
1957.748240  	-0.006760 
1959.677056  	-0.006659 
1961.605872  	-0.005937 
1963.534688  	-0.006014 
1965.463504  	-0.005500 
1967.392320  	-0.005389 
1969.321136  	-0.005204 
1971.249952  	-0.006660 
1973.178768  	-0.006875 
1975.107584  	-0.006193 
1977.036400  	-0.004943 
1978.965216  	-0.004628 
1980.894032  	-0.005045 
1982.822848  	-0.006263 
1984.751664  	-0.005979 
1986.680480  	-0.005651 
1988.609296  	-0.004076 
1990.538112  	-0.003827 
1992.466928  	-0.003760 
1994.395744  	-0.004962 
1996.324560  	-0.005102 
1998.253376  	-0.005430 
2000.182192  	-0.005840 
2002.111008  	-0.005754 
2004.039824  	-0.005114 
2005.968640  	-0.005170 
2007.897456  	-0.003911 
2009.826272  	-0.004371 
2011.755088  	-0.004633 
2013.683904  	-0.004416 
2015.612720  	-0.003626 
2017.541536  	-0.003651 
2019.470352  	-0.003345 
2021.399168  	-0.004271 
2023.327984  	-0.004499 
2025.256800  	-0.004125 
2027.185616  	-0.002722 
2029.114432  	-0.003051 
2031.043248  	-0.003299 
2032.972064  	-0.003049 
2034.900880  	-0.001450 
2036.829696  	-0.001884 
2038.758512  	-0.002519 
2040.687328  	-0.003048 
2042.616144  	-0.002400 
2044.544960  	-0.002598 
2046.473776  	-0.003373 
2048.402592  	-0.003367 
2050.331408  	-0.002658 
2052.260224  	-0.003318 
2054.189040  	-0.003267 
2056.117856  	-0.003553 
2058.046672  	-0.003258 
2059.975488  	-0.002788 
2061.904304  	-0.002067 
2063.833120  	-0.002350 
2065.761936  	-0.002745 
2067.690752  	-0.002889 
2069.619568  	-0.002865 
2071.548384  	-0.003164 
2073.477200  	-0.002527 
2075.406016  	-0.002162 
2077.334832  	-0.001902 
2079.263648  	-0.001821 
2081.192464  	-0.001791 
2083.121280  	-0.002394 
2085.050096  	-0.002930 
2086.978912  	-0.002858 
2088.907728  	-0.002199 
2090.836544  	-0.002166 
2092.765360  	-0.002385 
2094.694176  	-0.002233 
2096.622992  	-0.001589 
2098.551808  	-0.001705 
2100.480624  	-0.001629 
2102.409440  	-0.001984 
2104.338256  	-0.002060 
2106.267072  	-0.002285 
2108.195888  	-0.002227 
2110.124704  	-0.002165 
2112.053520  	-0.001811 
2113.982336  	-0.001797 
2115.911152  	-0.001894 
2117.839968  	-0.002002 
2119.768784  	-0.001986 
2121.697600  	-0.002339 
2123.626416  	-0.002658 
2125.555232  	-0.003160 
2127.484048  	-0.002894 
2129.412864  	-0.002539 
2131.341680  	-0.002175 
2133.270496  	-0.002309 
2135.199312  	-0.002246 
2137.128128  	-0.001485 
2139.056944  	-0.000449 
2140.985760  	-0.000611 
2142.914576  	-0.000739 
2144.843392  	-0.002030 
2146.772208  	-0.002417 
2148.701024  	-0.002121 
2150.629840  	-0.002007 
2152.558656  	-0.001887 
2154.487472  	-0.001545 
2156.416288  	-0.001908 
2158.345104  	-0.000087 
2160.273920  	0.001971 
2162.202736  	0.002285 
2164.131552  	0.000701 
2166.060368  	0.000066 
2167.989184  	-0.001052 
2169.918000  	-0.001729 
2171.846816  	-0.001499 
2173.775632  	-0.000243 
2175.704448  	-0.000227 
2177.633264  	-0.000472 
2179.562080  	-0.001455 
2181.490896  	-0.001445 
2183.419712  	-0.001167 
2185.348528  	-0.001131 
2187.277344  	-0.001474 
2189.206160  	-0.001255 
2191.134976  	-0.001839 
2193.063792  	-0.002070 
2194.992608  	-0.001705 
2196.921424  	-0.001281 
2198.850240  	-0.001630 
2200.779056  	-0.001706 
2202.707872  	-0.002226 
2204.636688  	-0.002017 
2206.565504  	-0.002147 
2208.494320  	-0.002375 
2210.423136  	-0.002380 
2212.351952  	-0.001923 
2214.280768  	-0.002084 
2216.209584  	-0.002271 
2218.138400  	-0.002755 
2220.067216  	-0.002757 
2221.996032  	-0.002463 
2223.924848  	-0.001929 
2225.853664  	-0.002273 
2227.782480  	-0.002156 
2229.711296  	-0.002561 
2231.640112  	-0.002962 
2233.568928  	-0.003228 
2235.497744  	-0.003237 
2237.426560  	-0.002867 
2239.355376  	-0.002564 
2241.284192  	-0.002978 
2243.213008  	-0.003303 
2245.141824  	-0.003364 
2247.070640  	-0.003070 
2248.999456  	-0.003178 
2250.928272  	-0.002643 
2252.857088  	-0.002839 
2254.785904  	-0.002996 
2256.714720  	-0.002513 
2258.643536  	-0.002060 
2260.572352  	-0.002282 
2262.501168  	-0.002557 
2264.429984  	-0.002658 
2266.358800  	-0.002249 
2268.287616  	-0.002467 
2270.216432  	-0.002788 
2272.145248  	-0.002769 
2274.074064  	-0.002326 
2276.002880  	-0.002362 
2277.931696  	-0.002413 
2279.860512  	-0.002320 
2281.789328  	-0.002038 
2283.718144  	-0.002017 
2285.646960  	-0.001838 
2287.575776  	-0.001722 
2289.504592  	-0.001606 
2291.433408  	-0.001555 
2293.362224  	-0.001317 
2295.291040  	-0.001383 
2297.219856  	-0.001300 
2299.148672  	-0.001225 
2301.077488  	-0.000907 
2303.006304  	-0.000483 
2304.935120  	0.000072 
2306.863936  	0.000149 
2308.792752  	-0.000000 
2310.721568  	-0.000031 
2312.650384  	-0.000305 
2314.579200  	-0.000801 
2316.508016  	-0.000644 
2318.436832  	-0.000546 
2320.365648  	-0.000475 
2322.294464  	-0.000750 
2324.223280  	-0.001619 
2326.152096  	-0.003089 
2328.080912  	-0.004194 
2330.009728  	-0.004689 
2331.938544  	-0.004881 
2333.867360  	-0.005626 
2335.796176  	-0.006378 
2337.724992  	-0.007016 
2339.653808  	-0.007039 
2341.582624  	-0.006519 
2343.511440  	-0.005444 
2345.440256  	-0.004025 
2347.369072  	-0.002833 
2349.297888  	-0.003121 
2351.226704  	-0.004686 
2353.155520  	-0.006485 
2355.084336  	-0.007378 
2357.013152  	-0.007759 
2358.941968  	-0.008247 
2360.870784  	-0.009004 
2362.799600  	-0.008798 
2364.728416  	-0.008112 
2366.657232  	-0.007141 
2368.586048  	-0.005753 
2370.514864  	-0.003873 
2372.443680  	-0.002944 
2374.372496  	-0.002033 
2376.301312  	-0.001278 
2378.230128  	-0.000959 
2380.158944  	-0.001136 
2382.087760  	-0.001418 
2384.016576  	-0.002006 
2385.945392  	-0.002481 
2387.874208  	-0.002677 
2389.803024  	-0.003001 
2391.731840  	-0.003426 
2393.660656  	-0.003646 
2395.589472  	-0.003600 
2397.518288  	-0.003557 
2399.447104  	-0.003567 
2401.375920  	-0.003542 
2403.304736  	-0.003787 
2405.233552  	-0.003842 
2407.162368  	-0.003776 
2409.091184  	-0.003577 
2411.020000  	-0.003598 
2412.948816  	-0.003823 
2414.877632  	-0.003707 
2416.806448  	-0.003384 
2418.735264  	-0.003401 
2420.664080  	-0.003396 
2422.592896  	-0.003371 
2424.521712  	-0.003462 
2426.450528  	-0.003493 
2428.379344  	-0.003322 
2430.308160  	-0.003279 
2432.236976  	-0.003256 
2434.165792  	-0.003134 
2436.094608  	-0.002907 
2438.023424  	-0.002832 
2439.952240  	-0.002805 
2441.881056  	-0.002856 
2443.809872  	-0.002922 
2445.738688  	-0.003054 
2447.667504  	-0.002872 
2449.596320  	-0.002472 
2451.525136  	-0.002373 
2453.453952  	-0.002568 
2455.382768  	-0.002583 
2457.311584  	-0.002617 
2459.240400  	-0.002714 
2461.169216  	-0.002587 
2463.098032  	-0.002465 
2465.026848  	-0.002676 
2466.955664  	-0.002763 
2468.884480  	-0.002921 
2470.813296  	-0.003084 
2472.742112  	-0.002964 
2474.670928  	-0.002744 
2476.599744  	-0.002453 
2478.528560  	-0.002030 
2480.457376  	-0.001880 
2482.386192  	-0.001634 
2484.315008  	-0.001493 
2486.243824  	-0.001697 
2488.172640  	-0.001752 
2490.101456  	-0.001507 
2492.030272  	-0.001422 
2493.959088  	-0.001588 
2495.887904  	-0.001767 
2497.816720  	-0.001509 
2499.745536  	-0.001236 
2501.674352  	-0.001178 
2503.603168  	-0.001271 
2505.531984  	-0.001344 
2507.460800  	-0.001513 
2509.389616  	-0.001591 
2511.318432  	-0.001485 
2513.247248  	-0.001127 
2515.176064  	-0.000946 
2517.104880  	-0.000966 
2519.033696  	-0.001206 
2520.962512  	-0.001277 
2522.891328  	-0.001178 
2524.820144  	-0.000855 
2526.748960  	-0.000717 
2528.677776  	-0.000686 
2530.606592  	-0.000653 
2532.535408  	-0.000446 
2534.464224  	-0.000427 
2536.393040  	-0.000484 
2538.321856  	-0.000357 
2540.250672  	-0.000148 
2542.179488  	-0.000170 
2544.108304  	-0.000097 
2546.037120  	0.000053 
2547.965936  	0.000272 
2549.894752  	0.000515 
2551.823568  	0.000729 
2553.752384  	0.000690 
2555.681200  	0.000471 
2557.610016  	0.000428 
2559.538832  	0.000622 
2561.467648  	0.000808 
2563.396464  	0.000929 
2565.325280  	0.000797 
2567.254096  	0.000742 
2569.182912  	0.000866 
2571.111728  	0.001075 
2573.040544  	0.001154 
2574.969360  	0.001304 
2576.898176  	0.001531 
2578.826992  	0.001573 
2580.755808  	0.001428 
2582.684624  	0.001509 
2584.613440  	0.001637 
2586.542256  	0.001888 
2588.471072  	0.001850 
2590.399888  	0.001881 
2592.328704  	0.001986 
2594.257520  	0.002192 
2596.186336  	0.002198 
2598.115152  	0.002227 
2600.043968  	0.002410 
2601.972784  	0.002456 
2603.901600  	0.002485 
2605.830416  	0.002561 
2607.759232  	0.002791 
2609.688048  	0.002858 
2611.616864  	0.002879 
2613.545680  	0.002937 
2615.474496  	0.002981 
2617.403312  	0.003217 
2619.332128  	0.003421 
2621.260944  	0.003476 
2623.189760  	0.003497 
2625.118576  	0.003702 
2627.047392  	0.003741 
2628.976208  	0.003910 
2630.905024  	0.004183 
2632.833840  	0.004297 
2634.762656  	0.004261 
2636.691472  	0.004371 
2638.620288  	0.004507 
2640.549104  	0.004679 
2642.477920  	0.004879 
2644.406736  	0.004871 
2646.335552  	0.004863 
2648.264368  	0.005055 
2650.193184  	0.005228 
2652.122000  	0.005355 
2654.050816  	0.005515 
2655.979632  	0.005608 
2657.908448  	0.005720 
2659.837264  	0.005847 
2661.766080  	0.005879 
2663.694896  	0.005894 
2665.623712  	0.006047 
2667.552528  	0.006300 
2669.481344  	0.006374 
2671.410160  	0.006377 
2673.338976  	0.006555 
2675.267792  	0.006794 
2677.196608  	0.007037 
2679.125424  	0.007163 
2681.054240  	0.007167 
2682.983056  	0.007293 
2684.911872  	0.007416 
2686.840688  	0.007441 
2688.769504  	0.007585 
2690.698320  	0.007792 
2692.627136  	0.007853 
2694.555952  	0.007823 
2696.484768  	0.007903 
2698.413584  	0.008037 
2700.342400  	0.008145 
2702.271216  	0.008302 
2704.200032  	0.008347 
2706.128848  	0.008506 
2708.057664  	0.008726 
2709.986480  	0.008855 
2711.915296  	0.008930 
2713.844112  	0.009054 
2715.772928  	0.009186 
2717.701744  	0.009302 
2719.630560  	0.009602 
2721.559376  	0.009779 
2723.488192  	0.009759 
2725.417008  	0.009902 
2727.345824  	0.010102 
2729.274640  	0.010329 
2731.203456  	0.010414 
2733.132272  	0.010577 
2735.061088  	0.010872 
2736.989904  	0.010900 
2738.918720  	0.010853 
2740.847536  	0.011030 
2742.776352  	0.011194 
2744.705168  	0.011331 
2746.633984  	0.011451 
2748.562800  	0.011572 
2750.491616  	0.011600 
2752.420432  	0.011635 
2754.349248  	0.011576 
2756.278064  	0.011549 
2758.206880  	0.011497 
2760.135696  	0.011486 
2762.064512  	0.011602 
2763.993328  	0.011714 
2765.922144  	0.011772 
2767.850960  	0.011683 
2769.779776  	0.011625 
2771.708592  	0.011690 
2773.637408  	0.011822 
2775.566224  	0.011927 
2777.495040  	0.011897 
2779.423856  	0.011843 
2781.352672  	0.012004 
2783.281488  	0.012227 
2785.210304  	0.012216 
2787.139120  	0.012227 
2789.067936  	0.012306 
2790.996752  	0.012361 
2792.925568  	0.012393 
2794.854384  	0.012420 
2796.783200  	0.012444 
2798.712016  	0.012438 
2800.640832  	0.012513 
2802.569648  	0.012691 
2804.498464  	0.012801 
2806.427280  	0.012961 
2808.356096  	0.013084 
2810.284912  	0.013026 
2812.213728  	0.012948 
2814.142544  	0.013064 
2816.071360  	0.013094 
2818.000176  	0.013116 
2819.928992  	0.013162 
2821.857808  	0.013158 
2823.786624  	0.013076 
2825.715440  	0.013178 
2827.644256  	0.013226 
2829.573072  	0.013105 
2831.501888  	0.013064 
2833.430704  	0.013055 
2835.359520  	0.013028 
2837.288336  	0.013054 
2839.217152  	0.013003 
2841.145968  	0.012866 
2843.074784  	0.012741 
2845.003600  	0.012761 
2846.932416  	0.012853 
2848.861232  	0.013016 
2850.790048  	0.012984 
2852.718864  	0.012965 
2854.647680  	0.013014 
2856.576496  	0.013086 
2858.505312  	0.013160 
2860.434128  	0.013316 
2862.362944  	0.013388 
2864.291760  	0.013436 
2866.220576  	0.013522 
2868.149392  	0.013677 
2870.078208  	0.013843 
2872.007024  	0.014170 
2873.935840  	0.014585 
2875.864656  	0.014773 
2877.793472  	0.015050 
2879.722288  	0.015563 
2881.651104  	0.016006 
2883.579920  	0.016386 
2885.508736  	0.016694 
2887.437552  	0.016935 
2889.366368  	0.017068 
2891.295184  	0.017147 
2893.224000  	0.017231 
2895.152816  	0.017273 
2897.081632  	0.017334 
2899.010448  	0.017134 
2900.939264  	0.016836 
2902.868080  	0.017000 
2904.796896  	0.017469 
2906.725712  	0.017749 
2908.654528  	0.018039 
2910.583344  	0.018406 
2912.512160  	0.018642 
2914.440976  	0.019022 
2916.369792  	0.019603 
2918.298608  	0.020092 
2920.227424  	0.020559 
2922.156240  	0.021088 
2924.085056  	0.021623 
2926.013872  	0.022179 
2927.942688  	0.022857 
2929.871504  	0.023553 
2931.800320  	0.024224 
2933.729136  	0.024841 
2935.657952  	0.025347 
2937.586768  	0.025792 
2939.515584  	0.026300 
2941.444400  	0.026679 
2943.373216  	0.026970 
2945.302032  	0.027277 
2947.230848  	0.027439 
2949.159664  	0.027309 
2951.088480  	0.027137 
2953.017296  	0.027101 
2954.946112  	0.026990 
2956.874928  	0.026854 
2958.803744  	0.026541 
2960.732560  	0.026384 
2962.661376  	0.026260 
2964.590192  	0.025968 
2966.519008  	0.025706 
2968.447824  	0.025511 
2970.376640  	0.025357 
2972.305456  	0.025108 
2974.234272  	0.025115 
2976.163088  	0.025169 
2978.091904  	0.025042 
2980.020720  	0.024971 
2981.949536  	0.024966 
2983.878352  	0.024869 
2985.807168  	0.024743 
2987.735984  	0.024760 
2989.664800  	0.024933 
2991.593616  	0.025476 
2993.522432  	0.025963 
2995.451248  	0.026245 
2997.380064  	0.026441 
2999.308880  	0.026731 
3001.237696  	0.027274 
3003.166512  	0.027944 
3005.095328  	0.028480 
3007.024144  	0.028790 
3008.952960  	0.029174 
3010.881776  	0.029771 
3012.810592  	0.030453 
3014.739408  	0.030894 
3016.668224  	0.031333 
3018.597040  	0.031832 
3020.525856  	0.032337 
3022.454672  	0.032878 
3024.383488  	0.033283 
3026.312304  	0.033803 
3028.241120  	0.034244 
3030.169936  	0.034716 
3032.098752  	0.035503 
3034.027568  	0.035902 
3035.956384  	0.036284 
3037.885200  	0.036793 
3039.814016  	0.037403 
3041.742832  	0.037821 
3043.671648  	0.038167 
3045.600464  	0.038558 
3047.529280  	0.039143 
3049.458096  	0.039835 
3051.386912  	0.040171 
3053.315728  	0.040492 
3055.244544  	0.040997 
3057.173360  	0.041711 
3059.102176  	0.042407 
3061.030992  	0.043103 
3062.959808  	0.043666 
3064.888624  	0.044326 
3066.817440  	0.045064 
3068.746256  	0.045662 
3070.675072  	0.046219 
3072.603888  	0.046898 
3074.532704  	0.047631 
3076.461520  	0.048276 
3078.390336  	0.049029 
3080.319152  	0.049927 
3082.247968  	0.050491 
3084.176784  	0.050908 
3086.105600  	0.051551 
3088.034416  	0.052279 
3089.963232  	0.052719 
3091.892048  	0.053251 
3093.820864  	0.053896 
3095.749680  	0.054880 
3097.678496  	0.055739 
3099.607312  	0.056294 
3101.536128  	0.057039 
3103.464944  	0.057709 
3105.393760  	0.058092 
3107.322576  	0.058435 
3109.251392  	0.059118 
3111.180208  	0.059606 
3113.109024  	0.059879 
3115.037840  	0.060474 
3116.966656  	0.061305 
3118.895472  	0.061937 
3120.824288  	0.062303 
3122.753104  	0.062881 
3124.681920  	0.063217 
3126.610736  	0.063419 
3128.539552  	0.063830 
3130.468368  	0.064149 
3132.397184  	0.064820 
3134.326000  	0.065201 
3136.254816  	0.065385 
3138.183632  	0.065905 
3140.112448  	0.066329 
3142.041264  	0.066752 
3143.970080  	0.067337 
3145.898896  	0.067775 
3147.827712  	0.068071 
3149.756528  	0.068606 
3151.685344  	0.069132 
3153.614160  	0.069528 
3155.542976  	0.069828 
3157.471792  	0.070330 
3159.400608  	0.070747 
3161.329424  	0.071215 
3163.258240  	0.071665 
3165.187056  	0.071986 
3167.115872  	0.072122 
3169.044688  	0.072415 
3170.973504  	0.072793 
3172.902320  	0.073025 
3174.831136  	0.073172 
3176.759952  	0.073271 
3178.688768  	0.073705 
3180.617584  	0.073986 
3182.546400  	0.074054 
3184.475216  	0.074123 
3186.404032  	0.074301 
3188.332848  	0.074323 
3190.261664  	0.074400 
3192.190480  	0.074401 
3194.119296  	0.074392 
3196.048112  	0.074436 
3197.976928  	0.074817 
3199.905744  	0.074977 
3201.834560  	0.074814 
3203.763376  	0.074548 
3205.692192  	0.074236 
3207.621008  	0.073990 
3209.549824  	0.074009 
3211.478640  	0.074153 
3213.407456  	0.074127 
3215.336272  	0.074249 
3217.265088  	0.074081 
3219.193904  	0.073882 
3221.122720  	0.073759 
3223.051536  	0.073467 
3224.980352  	0.073196 
3226.909168  	0.073028 
3228.837984  	0.072806 
3230.766800  	0.072685 
3232.695616  	0.072832 
3234.624432  	0.072898 
3236.553248  	0.072776 
3238.482064  	0.072644 
3240.410880  	0.072475 
3242.339696  	0.072264 
3244.268512  	0.072281 
3246.197328  	0.072660 
3248.126144  	0.072481 
3250.054960  	0.072547 
3251.983776  	0.072643 
3253.912592  	0.072970 
3255.841408  	0.073167 
3257.770224  	0.073174 
3259.699040  	0.073319 
3261.627856  	0.073478 
3263.556672  	0.073327 
3265.485488  	0.073473 
3267.414304  	0.073580 
3269.343120  	0.073704 
3271.271936  	0.073844 
3273.200752  	0.073996 
3275.129568  	0.074133 
3277.058384  	0.074258 
3278.987200  	0.074257 
3280.916016  	0.074235 
3282.844832  	0.074254 
3284.773648  	0.074313 
3286.702464  	0.074307 
3288.631280  	0.074457 
3290.560096  	0.074531 
3292.488912  	0.074598 
3294.417728  	0.074796 
3296.346544  	0.075065 
3298.275360  	0.075309 
3300.204176  	0.075424 
3302.132992  	0.075384 
3304.061808  	0.075557 
3305.990624  	0.075755 
3307.919440  	0.076093 
3309.848256  	0.076433 
3311.777072  	0.076600 
3313.705888  	0.076726 
3315.634704  	0.076727 
3317.563520  	0.076956 
3319.492336  	0.077120 
3321.421152  	0.077167 
3323.349968  	0.077352 
3325.278784  	0.077563 
3327.207600  	0.077583 
3329.136416  	0.077315 
3331.065232  	0.077250 
3332.994048  	0.077304 
3334.922864  	0.077438 
3336.851680  	0.077603 
3338.780496  	0.077522 
3340.709312  	0.077123 
3342.638128  	0.077024 
3344.566944  	0.076822 
3346.495760  	0.076540 
3348.424576  	0.076479 
3350.353392  	0.076233 
3352.282208  	0.075625 
3354.211024  	0.075208 
3356.139840  	0.075058 
3358.068656  	0.074735 
3359.997472  	0.074341 
3361.926288  	0.074123 
3363.855104  	0.073920 
3365.783920  	0.073699 
3367.712736  	0.073337 
3369.641552  	0.072874 
3371.570368  	0.072469 
3373.499184  	0.072324 
3375.428000  	0.072150 
3377.356816  	0.071928 
3379.285632  	0.071491 
3381.214448  	0.071054 
3383.143264  	0.070876 
3385.072080  	0.070894 
3387.000896  	0.070392 
3388.929712  	0.069825 
3390.858528  	0.069470 
3392.787344  	0.069634 
3394.716160  	0.069219 
3396.644976  	0.068551 
3398.573792  	0.068248 
3400.502608  	0.067605 
3402.431424  	0.067205 
3404.360240  	0.066827 
3406.289056  	0.066214 
3408.217872  	0.065828 
3410.146688  	0.065572 
3412.075504  	0.065019 
3414.004320  	0.064601 
3415.933136  	0.064249 
3417.861952  	0.063747 
3419.790768  	0.063641 
3421.719584  	0.063690 
3423.648400  	0.063089 
3425.577216  	0.062301 
3427.506032  	0.061736 
3429.434848  	0.061208 
3431.363664  	0.060912 
3433.292480  	0.060541 
3435.221296  	0.060107 
3437.150112  	0.059516 
3439.078928  	0.058889 
3441.007744  	0.058282 
3442.936560  	0.058129 
3444.865376  	0.057152 
3446.794192  	0.057397 
3448.723008  	0.057769 
3450.651824  	0.056302 
3452.580640  	0.055308 
3454.509456  	0.054765 
3456.438272  	0.054249 
3458.367088  	0.053828 
3460.295904  	0.053364 
3462.224720  	0.052807 
3464.153536  	0.051939 
3466.082352  	0.051110 
3468.011168  	0.050602 
3469.939984  	0.049951 
3471.868800  	0.049286 
3473.797616  	0.048554 
3475.726432  	0.048065 
3477.655248  	0.047134 
3479.584064  	0.046449 
3481.512880  	0.046692 
3483.441696  	0.046320 
3485.370512  	0.044900 
3487.299328  	0.044231 
3489.228144  	0.043680 
3491.156960  	0.042779 
3493.085776  	0.042092 
3495.014592  	0.041608 
3496.943408  	0.041224 
3498.872224  	0.040413 
3500.801040  	0.039810 
3502.729856  	0.040193 
3504.658672  	0.040164 
3506.587488  	0.038505 
3508.516304  	0.037790 
3510.445120  	0.037987 
3512.373936  	0.037034 
3514.302752  	0.036128 
3516.231568  	0.035567 
3518.160384  	0.034970 
3520.089200  	0.034103 
3522.018016  	0.033865 
3523.946832  	0.034628 
3525.875648  	0.034027 
3527.804464  	0.033286 
3529.733280  	0.032787 
3531.662096  	0.031683 
3533.590912  	0.030347 
3535.519728  	0.030138 
3537.448544  	0.030158 
3539.377360  	0.028926 
3541.306176  	0.027825 
3543.234992  	0.027762 
3545.163808  	0.029175 
3547.092624  	0.029524 
3549.021440  	0.027438 
3550.950256  	0.025958 
3552.879072  	0.026619 
3554.807888  	0.025586 
3556.736704  	0.023782 
3558.665520  	0.023421 
3560.594336  	0.023524 
3562.523152  	0.022573 
3564.451968  	0.022204 
3566.380784  	0.024949 
3568.309600  	0.026739 
3570.238416  	0.023005 
3572.167232  	0.020111 
3574.096048  	0.019080 
3576.024864  	0.018640 
3577.953680  	0.018130 
3579.882496  	0.017724 
3581.811312  	0.016820 
3583.740128  	0.015848 
3585.668944  	0.015846 
3587.597760  	0.018713 
3589.526576  	0.017863 
3591.455392  	0.014313 
3593.384208  	0.013570 
3595.313024  	0.014189 
3597.241840  	0.013281 
3599.170656  	0.011834 
3601.099472  	0.011558 
3603.028288  	0.010596 
3604.957104  	0.009014 
3606.885920  	0.009292 
3608.814736  	0.010388 
3610.743552  	0.008723 
3612.672368  	0.008266 
3614.601184  	0.008540 
3616.530000  	0.006552 
3618.458816  	0.006550 
3620.387632  	0.007033 
3622.316448  	0.004813 
3624.245264  	0.002714 
3626.174080  	0.001312 
3628.102896  	0.002388 
3630.031712  	0.005723 
3631.960528  	0.002274 
3633.889344  	0.000642 
3635.818160  	-0.000301 
3637.746976  	-0.001497 
3639.675792  	-0.002218 
3641.604608  	-0.002836 
3643.533424  	-0.003578 
3645.462240  	-0.004728 
3647.391056  	-0.003309 
3649.319872  	-0.000924 
3651.248688  	-0.000866 
3653.177504  	-0.004804 
3655.106320  	-0.006824 
3657.035136  	-0.005862 
3658.963952  	-0.006992 
3660.892768  	-0.007953 
3662.821584  	-0.008532 
3664.750400  	-0.009352 
3666.679216  	-0.010288 
3668.608032  	-0.010259 
3670.536848  	-0.007921 
3672.465664  	-0.009416 
3674.394480  	-0.010524 
3676.323296  	-0.006783 
3678.252112  	-0.008243 
3680.180928  	-0.009629 
3682.109744  	-0.010763 
3684.038560  	-0.011454 
3685.967376  	-0.012169 
3687.896192  	-0.011273 
3689.825008  	-0.008960 
3691.753824  	-0.009420 
3693.682640  	-0.010929 
3695.611456  	-0.011840 
3697.540272  	-0.011893 
3699.469088  	-0.012746 
3701.397904  	-0.012094 
3703.326720  	-0.011210 
3705.255536  	-0.011825 
3707.184352  	-0.012272 
3709.113168  	-0.011971 
3711.041984  	-0.010036 
3712.970800  	-0.008909 
3714.899616  	-0.010586 
3716.828432  	-0.012042 
3718.757248  	-0.011885 
3720.686064  	-0.011769 
3722.614880  	-0.011037 
3724.543696  	-0.010587 
3726.472512  	-0.010028 
3728.401328  	-0.011127 
3730.330144  	-0.013141 
3732.258960  	-0.012747 
3734.187776  	-0.010263 
3736.116592  	-0.007240 
3738.045408  	-0.008679 
3739.974224  	-0.010598 
3741.903040  	-0.012015 
3743.831856  	-0.012171 
3745.760672  	-0.009376 
3747.689488  	-0.010934 
3749.618304  	-0.010315 
3751.547120  	-0.007968 
3753.475936  	-0.008545 
3755.404752  	-0.010787 
3757.333568  	-0.011259 
3759.262384  	-0.010552 
3761.191200  	-0.010775 
3763.120016  	-0.012320 
3765.048832  	-0.011820 
3766.977648  	-0.011399 
3768.906464  	-0.011597 
3770.835280  	-0.010634 
3772.764096  	-0.011634 
3774.692912  	-0.012594 
3776.621728  	-0.012995 
3778.550544  	-0.012524 
3780.479360  	-0.011322 
3782.408176  	-0.012049 
3784.336992  	-0.011926 
3786.265808  	-0.011503 
3788.194624  	-0.012020 
3790.123440  	-0.012349 
3792.052256  	-0.012608 
3793.981072  	-0.013250 
3795.909888  	-0.012307 
3797.838704  	-0.010999 
3799.767520  	-0.012040 
3801.696336  	-0.010021 
3803.625152  	-0.010191 
3805.553968  	-0.012236 
3807.482784  	-0.011111 
3809.411600  	-0.011527 
3811.340416  	-0.012460 
3813.269232  	-0.013198 
3815.198048  	-0.012525 
3817.126864  	-0.010710 
3819.055680  	-0.011979 
3820.984496  	-0.010433 
3822.913312  	-0.009519 
3824.842128  	-0.011609 
3826.770944  	-0.011599 
3828.699760  	-0.011898 
3830.628576  	-0.012478 
3832.557392  	-0.012178 
3834.486208  	-0.012525 
3836.415024  	-0.012333 
3838.343840  	-0.010393 
3840.272656  	-0.009174 
3842.201472  	-0.010152 
3844.130288  	-0.010476 
3846.059104  	-0.011381 
3847.987920  	-0.012568 
3849.916736  	-0.013050 
3851.845552  	-0.012575 
3853.774368  	-0.007304 
3855.703184  	-0.007454 
3857.632000  	-0.009942 
3859.560816  	-0.011752 
3861.489632  	-0.011981 
3863.418448  	-0.010969 
3865.347264  	-0.009684 
3867.276080  	-0.011306 
3869.204896  	-0.010959 
3871.133712  	-0.008821 
3873.062528  	-0.010405 
3874.991344  	-0.010298 
3876.920160  	-0.012070 
3878.848976  	-0.012482 
3880.777792  	-0.010006 
3882.706608  	-0.010256 
3884.635424  	-0.011224 
3886.564240  	-0.010349 
3888.493056  	-0.012260 
3890.421872  	-0.012546 
3892.350688  	-0.010833 
3894.279504  	-0.011274 
3896.208320  	-0.012432 
3898.137136  	-0.012082 
3900.065952  	-0.010413 
3901.994768  	-0.009979 
3903.923584  	-0.009183 
3905.852400  	-0.009230 
3907.781216  	-0.011328 
3909.710032  	-0.012663 
3911.638848  	-0.012992 
3913.567664  	-0.013006 
3915.496480  	-0.012355 
3917.425296  	-0.010788 
3919.354112  	-0.010803 
3921.282928  	-0.011300 
3923.211744  	-0.011367 
3925.140560  	-0.010641 
3927.069376  	-0.011563 
3928.998192  	-0.011901 
3930.927008  	-0.010839 
3932.855824  	-0.010098 
3934.784640  	-0.011110 
3936.713456  	-0.012055 
3938.642272  	-0.012386 
3940.571088  	-0.012469 
3942.499904  	-0.011057 
3944.428720  	-0.010994 
3946.357536  	-0.012030 
3948.286352  	-0.011419 
3950.215168  	-0.011432 
3952.143984  	-0.012188 
3954.072800  	-0.012507 
3956.001616  	-0.012458 
3957.930432  	-0.012340 
3959.859248  	-0.012169 
3961.788064  	-0.011753 
3963.716880  	-0.011995 
3965.645696  	-0.012698 
3967.574512  	-0.012790 
3969.503328  	-0.012696 
3971.432144  	-0.012582 
3973.360960  	-0.012077 
3975.289776  	-0.011606 
3977.218592  	-0.011949 
3979.147408  	-0.012569 
3981.076224  	-0.012588 
3983.005040  	-0.012570 
3984.933856  	-0.012531 
3986.862672  	-0.012327 
3988.791488  	-0.012165 
3990.720304  	-0.011894 
3992.649120  	-0.012066 
3994.577936  	-0.012142 
3996.506752  	-0.012352 
3998.435568  	-0.012661 
4000.364384  	-0.012529 