##TITLE=No Description
##DATA TYPE=INFRARED SPECTRUM
##XUNITS=1/CM
##YUNITS=Abs
399.264912  	0.590074 
401.193728  	0.592438 
403.122544  	0.605223 
405.051360  	0.599573 
406.980176  	0.595999 
408.908992  	0.589240 
410.837808  	0.576361 
412.766624  	0.569399 
414.695440  	0.576094 
416.624256  	0.580500 
418.553072  	0.589861 
420.481888  	0.572032 
422.410704  	0.567321 
424.339520  	0.559292 
426.268336  	0.557119 
428.197152  	0.553881 
430.125968  	0.557105 
432.054784  	0.550085 
433.983600  	0.555500 
435.912416  	0.554547 
437.841232  	0.542376 
439.770048  	0.534579 
441.698864  	0.539985 
443.627680  	0.539669 
445.556496  	0.539407 
447.485312  	0.534832 
449.414128  	0.534491 
451.342944  	0.532543 
453.271760  	0.535325 
455.200576  	0.535403 
457.129392  	0.546068 
459.058208  	0.544399 
460.987024  	0.541616 
462.915840  	0.538612 
464.844656  	0.535751 
466.773472  	0.537231 
468.702288  	0.542062 
470.631104  	0.534884 
472.559920  	0.533139 
474.488736  	0.528830 
476.417552  	0.528804 
478.346368  	0.529977 
480.275184  	0.532129 
482.204000  	0.527303 
484.132816  	0.528083 
486.061632  	0.530921 
487.990448  	0.529377 
489.919264  	0.523517 
491.848080  	0.523454 
493.776896  	0.521925 
495.705712  	0.522212 
497.634528  	0.519272 
499.563344  	0.516638 
501.492160  	0.514210 
503.420976  	0.512041 
505.349792  	0.508302 
507.278608  	0.511804 
509.207424  	0.512868 
511.136240  	0.513033 
513.065056  	0.513455 
514.993872  	0.518913 
516.922688  	0.523114 
518.851504  	0.526114 
520.780320  	0.523945 
522.709136  	0.521879 
524.637952  	0.520447 
526.566768  	0.519098 
528.495584  	0.515044 
530.424400  	0.512505 
532.353216  	0.507056 
534.282032  	0.503484 
536.210848  	0.497139 
538.139664  	0.491508 
540.068480  	0.485476 
541.997296  	0.482010 
543.926112  	0.478766 
545.854928  	0.476181 
547.783744  	0.471785 
549.712560  	0.469209 
551.641376  	0.465156 
553.570192  	0.462103 
555.499008  	0.459365 
557.427824  	0.457053 
559.356640  	0.452963 
561.285456  	0.449779 
563.214272  	0.446235 
565.143088  	0.442592 
567.071904  	0.438903 
569.000720  	0.437436 
570.929536  	0.433598 
572.858352  	0.429897 
574.787168  	0.428330 
576.715984  	0.426733 
578.644800  	0.422131 
580.573616  	0.417667 
582.502432  	0.411945 
584.431248  	0.407561 
586.360064  	0.403533 
588.288880  	0.401065 
590.217696  	0.399031 
592.146512  	0.397846 
594.075328  	0.395032 
596.004144  	0.392761 
597.932960  	0.390487 
599.861776  	0.389409 
601.790592  	0.388314 
603.719408  	0.387735 
605.648224  	0.385834 
607.577040  	0.384305 
609.505856  	0.382524 
611.434672  	0.380617 
613.363488  	0.378895 
615.292304  	0.378082 
617.221120  	0.376278 
619.149936  	0.374673 
621.078752  	0.372897 
623.007568  	0.371712 
624.936384  	0.370193 
626.865200  	0.369287 
628.794016  	0.369037 
630.722832  	0.369153 
632.651648  	0.369146 
634.580464  	0.369292 
636.509280  	0.368640 
638.438096  	0.368781 
640.366912  	0.368440 
642.295728  	0.366267 
644.224544  	0.363652 
646.153360  	0.360689 
648.082176  	0.356701 
650.010992  	0.353296 
651.939808  	0.349669 
653.868624  	0.346274 
655.797440  	0.341893 
657.726256  	0.337541 
659.655072  	0.333471 
661.583888  	0.330025 
663.512704  	0.326182 
665.441520  	0.322470 
667.370336  	0.319650 
669.299152  	0.314684 
671.227968  	0.309025 
673.156784  	0.305106 
675.085600  	0.301735 
677.014416  	0.298741 
678.943232  	0.296407 
680.872048  	0.295131 
682.800864  	0.293835 
684.729680  	0.291670 
686.658496  	0.289361 
688.587312  	0.288297 
690.516128  	0.286910 
692.444944  	0.285449 
694.373760  	0.283929 
696.302576  	0.282695 
698.231392  	0.280684 
700.160208  	0.278272 
702.089024  	0.275778 
704.017840  	0.273408 
705.946656  	0.270462 
707.875472  	0.267334 
709.804288  	0.264840 
711.733104  	0.263082 
713.661920  	0.261371 
715.590736  	0.260504 
717.519552  	0.260045 
719.448368  	0.260329 
721.377184  	0.260832 
723.306000  	0.261613 
725.234816  	0.262110 
727.163632  	0.260596 
729.092448  	0.257619 
731.021264  	0.254133 
732.950080  	0.250500 
734.878896  	0.246914 
736.807712  	0.243797 
738.736528  	0.241113 
740.665344  	0.238766 
742.594160  	0.237058 
744.522976  	0.235573 
746.451792  	0.233999 
748.380608  	0.232329 
750.309424  	0.230996 
752.238240  	0.229961 
754.167056  	0.229243 
756.095872  	0.228396 
758.024688  	0.227198 
759.953504  	0.226491 
761.882320  	0.227643 
763.811136  	0.228493 
765.739952  	0.226744 
767.668768  	0.222863 
769.597584  	0.219301 
771.526400  	0.218155 
773.455216  	0.219661 
775.384032  	0.223527 
777.312848  	0.229239 
779.241664  	0.233381 
781.170480  	0.232362 
783.099296  	0.226760 
785.028112  	0.220026 
786.956928  	0.213873 
788.885744  	0.208895 
790.814560  	0.205006 
792.743376  	0.203019 
794.672192  	0.202106 
796.601008  	0.200504 
798.529824  	0.197162 
800.458640  	0.192963 
802.387456  	0.189444 
804.316272  	0.187158 
806.245088  	0.186045 
808.173904  	0.185178 
810.102720  	0.184618 
812.031536  	0.184376 
813.960352  	0.184354 
815.889168  	0.184804 
817.817984  	0.185698 
819.746800  	0.186594 
821.675616  	0.187244 
823.604432  	0.188060 
825.533248  	0.188603 
827.462064  	0.188821 
829.390880  	0.188589 
831.319696  	0.188142 
833.248512  	0.187100 
835.177328  	0.185228 
837.106144  	0.182374 
839.034960  	0.179055 
840.963776  	0.174627 
842.892592  	0.170021 
844.821408  	0.165516 
846.750224  	0.161586 
848.679040  	0.158431 
850.607856  	0.155951 
852.536672  	0.154405 
854.465488  	0.153273 
856.394304  	0.151874 
858.323120  	0.150365 
860.251936  	0.148845 
862.180752  	0.147163 
864.109568  	0.145110 
866.038384  	0.142826 
867.967200  	0.140534 
869.896016  	0.138902 
871.824832  	0.137963 
873.753648  	0.138024 
875.682464  	0.138796 
877.611280  	0.140253 
879.540096  	0.142585 
881.468912  	0.145364 
883.397728  	0.148033 
885.326544  	0.150225 
887.255360  	0.151558 
889.184176  	0.151840 
891.112992  	0.151133 
893.041808  	0.149470 
894.970624  	0.146589 
896.899440  	0.142218 
898.828256  	0.136856 
900.757072  	0.131682 
902.685888  	0.127334 
904.614704  	0.124486 
906.543520  	0.123588 
908.472336  	0.124890 
910.401152  	0.127549 
912.329968  	0.130383 
914.258784  	0.133055 
916.187600  	0.135777 
918.116416  	0.138082 
920.045232  	0.139811 
921.974048  	0.141008 
923.902864  	0.142130 
925.831680  	0.143088 
927.760496  	0.144084 
929.689312  	0.145385 
931.618128  	0.146986 
933.546944  	0.147910 
935.475760  	0.147998 
937.404576  	0.147600 
939.333392  	0.146733 
941.262208  	0.146074 
943.191024  	0.146725 
945.119840  	0.149455 
947.048656  	0.154905 
948.977472  	0.163277 
950.906288  	0.174357 
952.835104  	0.188015 
954.763920  	0.203508 
956.692736  	0.219201 
958.621552  	0.233746 
960.550368  	0.244781 
962.479184  	0.251426 
964.408000  	0.252567 
966.336816  	0.248174 
968.265632  	0.238646 
970.194448  	0.225290 
972.123264  	0.209042 
974.052080  	0.191915 
975.980896  	0.175198 
977.909712  	0.159594 
979.838528  	0.145727 
981.767344  	0.134209 
983.696160  	0.125310 
985.624976  	0.119449 
987.553792  	0.117136 
989.482608  	0.117979 
991.411424  	0.121822 
993.340240  	0.127950 
995.269056  	0.135155 
997.197872  	0.143011 
999.126688  	0.151094 
1001.055504  	0.159297 
1002.984320  	0.167513 
1004.913136  	0.175843 
1006.841952  	0.183925 
1008.770768  	0.191431 
1010.699584  	0.197892 
1012.628400  	0.202788 
1014.557216  	0.205786 
1016.486032  	0.207257 
1018.414848  	0.207592 
1020.343664  	0.207666 
1022.272480  	0.207390 
1024.201296  	0.207082 
1026.130112  	0.206376 
1028.058928  	0.206714 
1029.987744  	0.208843 
1031.916560  	0.212070 
1033.845376  	0.216367 
1035.774192  	0.222472 
1037.703008  	0.230465 
1039.631824  	0.241616 
1041.560640  	0.256762 
1043.489456  	0.275855 
1045.418272  	0.297338 
1047.347088  	0.318433 
1049.275904  	0.334225 
1051.204720  	0.342688 
1053.133536  	0.344235 
1055.062352  	0.341369 
1056.991168  	0.336247 
1058.919984  	0.332259 
1060.848800  	0.329389 
1062.777616  	0.327471 
1064.706432  	0.324710 
1066.635248  	0.321391 
1068.564064  	0.316393 
1070.492880  	0.309195 
1072.421696  	0.301461 
1074.350512  	0.296957 
1076.279328  	0.297100 
1078.208144  	0.302359 
1080.136960  	0.309545 
1082.065776  	0.315541 
1083.994592  	0.316833 
1085.923408  	0.312475 
1087.852224  	0.302702 
1089.781040  	0.290373 
1091.709856  	0.276265 
1093.638672  	0.260573 
1095.567488  	0.243460 
1097.496304  	0.226451 
1099.425120  	0.209973 
1101.353936  	0.194269 
1103.282752  	0.179667 
1105.211568  	0.166189 
1107.140384  	0.154052 
1109.069200  	0.143009 
1110.998016  	0.133217 
1112.926832  	0.124617 
1114.855648  	0.116627 
1116.784464  	0.108772 
1118.713280  	0.101275 
1120.642096  	0.094262 
1122.570912  	0.087733 
1124.499728  	0.081429 
1126.428544  	0.076046 
1128.357360  	0.071422 
1130.286176  	0.067468 
1132.214992  	0.064371 
1134.143808  	0.062249 
1136.072624  	0.060254 
1138.001440  	0.058474 
1139.930256  	0.056914 
1141.859072  	0.055377 
1143.787888  	0.053515 
1145.716704  	0.051675 
1147.645520  	0.050120 
1149.574336  	0.049351 
1151.503152  	0.048587 
1153.431968  	0.048228 
1155.360784  	0.048500 
1157.289600  	0.049694 
1159.218416  	0.051120 
1161.147232  	0.052940 
1163.076048  	0.055045 
1165.004864  	0.057205 
1166.933680  	0.059070 
1168.862496  	0.061276 
1170.791312  	0.063817 
1172.720128  	0.066754 
1174.648944  	0.069934 
1176.577760  	0.073064 
1178.506576  	0.076476 
1180.435392  	0.080162 
1182.364208  	0.083870 
1184.293024  	0.087961 
1186.221840  	0.092742 
1188.150656  	0.098164 
1190.079472  	0.104238 
1192.008288  	0.111482 
1193.937104  	0.119703 
1195.865920  	0.128994 
1197.794736  	0.139223 
1199.723552  	0.150116 
1201.652368  	0.160931 
1203.581184  	0.171369 
1205.510000  	0.181234 
1207.438816  	0.189931 
1209.367632  	0.197898 
1211.296448  	0.204544 
1213.225264  	0.209586 
1215.154080  	0.212749 
1217.082896  	0.214371 
1219.011712  	0.214600 
1220.940528  	0.214038 
1222.869344  	0.212287 
1224.798160  	0.210026 
1226.726976  	0.206618 
1228.655792  	0.202637 
1230.584608  	0.197810 
1232.513424  	0.192269 
1234.442240  	0.186209 
1236.371056  	0.179791 
1238.299872  	0.172562 
1240.228688  	0.164702 
1242.157504  	0.156934 
1244.086320  	0.149325 
1246.015136  	0.141500 
1247.943952  	0.133826 
1249.872768  	0.126333 
1251.801584  	0.119339 
1253.730400  	0.112715 
1255.659216  	0.106036 
1257.588032  	0.099677 
1259.516848  	0.094014 
1261.445664  	0.088594 
1263.374480  	0.083537 
1265.303296  	0.079386 
1267.232112  	0.076096 
1269.160928  	0.073811 
1271.089744  	0.072279 
1273.018560  	0.071405 
1274.947376  	0.071493 
1276.876192  	0.072482 
1278.805008  	0.073368 
1280.733824  	0.073223 
1282.662640  	0.071598 
1284.591456  	0.069481 
1286.520272  	0.067842 
1288.449088  	0.066947 
1290.377904  	0.066661 
1292.306720  	0.067626 
1294.235536  	0.068640 
1296.164352  	0.068719 
1298.093168  	0.066790 
1300.021984  	0.063925 
1301.950800  	0.060755 
1303.879616  	0.057468 
1305.808432  	0.053885 
1307.737248  	0.050152 
1309.666064  	0.046371 
1311.594880  	0.044105 
1313.523696  	0.042539 
1315.452512  	0.041036 
1317.381328  	0.040702 
1319.310144  	0.040791 
1321.238960  	0.040504 
1323.167776  	0.040904 
1325.096592  	0.041580 
1327.025408  	0.042060 
1328.954224  	0.041952 
1330.883040  	0.041271 
1332.811856  	0.039888 
1334.740672  	0.039083 
1336.669488  	0.039882 
1338.598304  	0.041805 
1340.527120  	0.040732 
1342.455936  	0.037514 
1344.384752  	0.036683 
1346.313568  	0.037126 
1348.242384  	0.037921 
1350.171200  	0.039054 
1352.100016  	0.040517 
1354.028832  	0.042707 
1355.957648  	0.044895 
1357.886464  	0.046958 
1359.815280  	0.049858 
1361.744096  	0.054144 
1363.672912  	0.056135 
1365.601728  	0.055989 
1367.530544  	0.058095 
1369.459360  	0.060304 
1371.388176  	0.061337 
1373.316992  	0.062783 
1375.245808  	0.061283 
1377.174624  	0.057650 
1379.103440  	0.054574 
1381.032256  	0.051334 
1382.961072  	0.048748 
1384.889888  	0.047946 
1386.818704  	0.048424 
1388.747520  	0.045563 
1390.676336  	0.042390 
1392.605152  	0.041349 
1394.533968  	0.042306 
1396.462784  	0.042745 
1398.391600  	0.042343 
1400.320416  	0.040724 
1402.249232  	0.039957 
1404.178048  	0.041690 
1406.106864  	0.042276 
1408.035680  	0.042579 
1409.964496  	0.044483 
1411.893312  	0.046652 
1413.822128  	0.048807 
1415.750944  	0.052841 
1417.679760  	0.057327 
1419.608576  	0.057999 
1421.537392  	0.055817 
1423.466208  	0.055732 
1425.395024  	0.053207 
1427.323840  	0.050523 
1429.252656  	0.049078 
1431.181472  	0.046937 
1433.110288  	0.045724 
1435.039104  	0.047033 
1436.967920  	0.048834 
1438.896736  	0.048119 
1440.825552  	0.048385 
1442.754368  	0.049142 
1444.683184  	0.049522 
1446.612000  	0.050713 
1448.540816  	0.051230 
1450.469632  	0.050948 
1452.398448  	0.051787 
1454.327264  	0.053828 
1456.256080  	0.058058 
1458.184896  	0.057599 
1460.113712  	0.052471 
1462.042528  	0.050313 
1463.971344  	0.050887 
1465.900160  	0.050866 
1467.828976  	0.050362 
1469.757792  	0.052241 
1471.686608  	0.058497 
1473.615424  	0.066070 
1475.544240  	0.069084 
1477.473056  	0.072445 
1479.401872  	0.075318 
1481.330688  	0.079668 
1483.259504  	0.082087 
1485.188320  	0.084710 
1487.117136  	0.088391 
1489.045952  	0.091972 
1490.974768  	0.088392 
1492.903584  	0.082687 
1494.832400  	0.079526 
1496.761216  	0.075715 
1498.690032  	0.068559 
1500.618848  	0.061917 
1502.547664  	0.056692 
1504.476480  	0.054717 
1506.405296  	0.058456 
1508.334112  	0.056358 
1510.262928  	0.049564 
1512.191744  	0.045294 
1514.120560  	0.044543 
1516.049376  	0.047672 
1517.978192  	0.048630 
1519.907008  	0.050251 
1521.835824  	0.055645 
1523.764640  	0.056831 
1525.693456  	0.059967 
1527.622272  	0.061320 
1529.551088  	0.059631 
1531.479904  	0.058808 
1533.408720  	0.057799 
1535.337536  	0.052668 
1537.266352  	0.050592 
1539.195168  	0.051362 
1541.123984  	0.049534 
1543.052800  	0.046963 
1544.981616  	0.043675 
1546.910432  	0.038900 
1548.839248  	0.038894 
1550.768064  	0.039784 
1552.696880  	0.039127 
1554.625696  	0.041278 
1556.554512  	0.042688 
1558.483328  	0.048418 
1560.412144  	0.048223 
1562.340960  	0.047201 
1564.269776  	0.049516 
1566.198592  	0.053644 
1568.127408  	0.057709 
1570.056224  	0.064808 
1571.985040  	0.067898 
1573.913856  	0.071401 
1575.842672  	0.076392 
1577.771488  	0.078943 
1579.700304  	0.077122 
1581.629120  	0.076168 
1583.557936  	0.075484 
1585.486752  	0.076386 
1587.415568  	0.078626 
1589.344384  	0.083233 
1591.273200  	0.088937 
1593.202016  	0.096285 
1595.130832  	0.104279 
1597.059648  	0.112139 
1598.988464  	0.118824 
1600.917280  	0.125923 
1602.846096  	0.131230 
1604.774912  	0.134703 
1606.703728  	0.136201 
1608.632544  	0.136734 
1610.561360  	0.134701 
1612.490176  	0.132886 
1614.418992  	0.131465 
1616.347808  	0.132722 
1618.276624  	0.133364 
1620.205440  	0.135046 
1622.134256  	0.138911 
1624.063072  	0.146026 
1625.991888  	0.150888 
1627.920704  	0.159058 
1629.849520  	0.167210 
1631.778336  	0.174889 
1633.707152  	0.181977 
1635.635968  	0.194655 
1637.564784  	0.203685 
1639.493600  	0.206828 
1641.422416  	0.210185 
1643.351232  	0.213650 
1645.280048  	0.216656 
1647.208864  	0.222426 
1649.137680  	0.220185 
1651.066496  	0.217826 
1652.995312  	0.218540 
1654.924128  	0.217901 
1656.852944  	0.212262 
1658.781760  	0.208623 
1660.710576  	0.205971 
1662.639392  	0.203150 
1664.568208  	0.197204 
1666.497024  	0.192878 
1668.425840  	0.189312 
1670.354656  	0.183606 
1672.283472  	0.176980 
1674.212288  	0.172581 
1676.141104  	0.167406 
1678.069920  	0.163704 
1679.998736  	0.162827 
1681.927552  	0.161953 
1683.856368  	0.161931 
1685.785184  	0.158991 
1687.714000  	0.156767 
1689.642816  	0.155811 
1691.571632  	0.153202 
1693.500448  	0.151933 
1695.429264  	0.152865 
1697.358080  	0.154171 
1699.286896  	0.152081 
1701.215712  	0.150025 
1703.144528  	0.147288 
1705.073344  	0.145195 
1707.002160  	0.140010 
1708.930976  	0.134401 
1710.859792  	0.128530 
1712.788608  	0.123102 
1714.717424  	0.117568 
1716.646240  	0.109428 
1718.575056  	0.093206 
1720.503872  	0.079827 
1722.432688  	0.070546 
1724.361504  	0.059658 
1726.290320  	0.050322 
1728.219136  	0.044088 
1730.147952  	0.039440 
1732.076768  	0.035276 
1734.005584  	0.031133 
1735.934400  	0.023338 
1737.863216  	0.021027 
1739.792032  	0.018446 
1741.720848  	0.016282 
1743.649664  	0.015714 
1745.578480  	0.014400 
1747.507296  	0.013965 
1749.436112  	0.013996 
1751.364928  	0.011311 
1753.293744  	0.007761 
1755.222560  	0.006706 
1757.151376  	0.007291 
1759.080192  	0.006147 
1761.009008  	0.006168 
1762.937824  	0.004675 
1764.866640  	0.003381 
1766.795456  	0.004045 
1768.724272  	0.004975 
1770.653088  	0.005077 
1772.581904  	0.005503 
1774.510720  	0.003616 
1776.439536  	0.002507 
1778.368352  	0.001665 
1780.297168  	0.002156 
1782.225984  	0.000997 
1784.154800  	0.000916 
1786.083616  	0.000149 
1788.012432  	-0.000197 
1789.941248  	0.001529 
1791.870064  	0.003308 
1793.798880  	0.001371 
1795.727696  	0.000668 
1797.656512  	-0.000360 
1799.585328  	-0.000166 
1801.514144  	0.000372 
1803.442960  	-0.000644 
1805.371776  	-0.001633 
1807.300592  	-0.001523 
1809.229408  	-0.001452 
1811.158224  	-0.001264 
1813.087040  	-0.002437 
1815.015856  	-0.003025 
1816.944672  	-0.002568 
1818.873488  	-0.002533 
1820.802304  	-0.002724 
1822.731120  	-0.001863 
1824.659936  	-0.001241 
1826.588752  	-0.001624 
1828.517568  	-0.001517 
1830.446384  	-0.001420 
1832.375200  	-0.003015 
1834.304016  	-0.003181 
1836.232832  	-0.003066 
1838.161648  	-0.002811 
1840.090464  	-0.003154 
1842.019280  	-0.002112 
1843.948096  	-0.001151 
1845.876912  	-0.001583 
1847.805728  	-0.002559 
1849.734544  	-0.003453 
1851.663360  	-0.004018 
1853.592176  	-0.003777 
1855.520992  	-0.003988 
1857.449808  	-0.003743 
1859.378624  	-0.003972 
1861.307440  	-0.003789 
1863.236256  	-0.004180 
1865.165072  	-0.003586 
1867.093888  	-0.002107 
1869.022704  	-0.000885 
1870.951520  	-0.002903 
1872.880336  	-0.003914 
1874.809152  	-0.004379 
1876.737968  	-0.004565 
1878.666784  	-0.004857 
1880.595600  	-0.004909 
1882.524416  	-0.004927 
1884.453232  	-0.004626 
1886.382048  	-0.004916 
1888.310864  	-0.003627 
1890.239680  	-0.003529 
1892.168496  	-0.004135 
1894.097312  	-0.003876 
1896.026128  	-0.004085 
1897.954944  	-0.004786 
1899.883760  	-0.004666 
1901.812576  	-0.005009 
1903.741392  	-0.004749 
1905.670208  	-0.004533 
1907.599024  	-0.004052 
1909.527840  	-0.004039 
1911.456656  	-0.004185 
1913.385472  	-0.004467 
1915.314288  	-0.003912 
1917.243104  	-0.003563 
1919.171920  	-0.003496 
1921.100736  	-0.003687 
1923.029552  	-0.003416 
1924.958368  	-0.005214 
1926.887184  	-0.005434 
1928.816000  	-0.006001 
1930.744816  	-0.005696 
1932.673632  	-0.005276 
1934.602448  	-0.004362 
1936.531264  	-0.004653 
1938.460080  	-0.004849 
1940.388896  	-0.004453 
1942.317712  	-0.003112 
1944.246528  	-0.004830 
1946.175344  	-0.005210 
1948.104160  	-0.005617 
1950.032976  	-0.005683 
1951.961792  	-0.006285 
1953.890608  	-0.006227 
1955.819424  	-0.007001 
1957.748240  	-0.006826 
1959.677056  	-0.007116 
1961.605872  	-0.006318 
1963.534688  	-0.006179 
1965.463504  	-0.004338 
1967.392320  	-0.004476 
1969.321136  	-0.005323 
1971.249952  	-0.007336 
1973.178768  	-0.008024 
1975.107584  	-0.007777 
1977.036400  	-0.005847 
1978.965216  	-0.005843 
1980.894032  	-0.006931 
1982.822848  	-0.007423 
1984.751664  	-0.005958 
1986.680480  	-0.005566 
1988.609296  	-0.004581 
1990.538112  	-0.004204 
1992.466928  	-0.003103 
1994.395744  	-0.004216 
1996.324560  	-0.004785 
1998.253376  	-0.005484 
2000.182192  	-0.005571 
2002.111008  	-0.006091 
2004.039824  	-0.005347 
2005.968640  	-0.006078 
2007.897456  	-0.006040 
2009.826272  	-0.005446 
2011.755088  	-0.004435 
2013.683904  	-0.005122 
2015.612720  	-0.004328 
2017.541536  	-0.003538 
2019.470352  	-0.003204 
2021.399168  	-0.005054 
2023.327984  	-0.004653 
2025.256800  	-0.004424 
2027.185616  	-0.003545 
2029.114432  	-0.003449 
2031.043248  	-0.003636 
2032.972064  	-0.003664 
2034.900880  	-0.002374 
2036.829696  	-0.002905 
2038.758512  	-0.003120 
2040.687328  	-0.003954 
2042.616144  	-0.003371 
2044.544960  	-0.003726 
2046.473776  	-0.003597 
2048.402592  	-0.003373 
2050.331408  	-0.002787 
2052.260224  	-0.003174 
2054.189040  	-0.003236 
2056.117856  	-0.003759 
2058.046672  	-0.003564 
2059.975488  	-0.003375 
2061.904304  	-0.002634 
2063.833120  	-0.002136 
2065.761936  	-0.001460 
2067.690752  	-0.002409 
2069.619568  	-0.002769 
2071.548384  	-0.003125 
2073.477200  	-0.002929 
2075.406016  	-0.002790 
2077.334832  	-0.002350 
2079.263648  	-0.001904 
2081.192464  	-0.001467 
2083.121280  	-0.002369 
2085.050096  	-0.002519 
2086.978912  	-0.002190 
2088.907728  	-0.001785 
2090.836544  	-0.002057 
2092.765360  	-0.002320 
2094.694176  	-0.002147 
2096.622992  	-0.001541 
2098.551808  	-0.001683 
2100.480624  	-0.001498 
2102.409440  	-0.001730 
2104.338256  	-0.001462 
2106.267072  	-0.001491 
2108.195888  	-0.001638 
2110.124704  	-0.001618 
2112.053520  	-0.001229 
2113.982336  	-0.001558 
2115.911152  	-0.001906 
2117.839968  	-0.002184 
2119.768784  	-0.001812 
2121.697600  	-0.001761 
2123.626416  	-0.001813 
2125.555232  	-0.002427 
2127.484048  	-0.002641 
2129.412864  	-0.002349 
2131.341680  	-0.001839 
2133.270496  	-0.001913 
2135.199312  	-0.001998 
2137.128128  	-0.001688 
2139.056944  	-0.000799 
2140.985760  	-0.000526 
2142.914576  	-0.000275 
2144.843392  	-0.001486 
2146.772208  	-0.001852 
2148.701024  	-0.002359 
2150.629840  	-0.001950 
2152.558656  	-0.001580 
2154.487472  	-0.002558 
2156.416288  	-0.002869 
2158.345104  	0.000046 
2160.273920  	0.002303 
2162.202736  	0.002318 
2164.131552  	0.001130 
2166.060368  	0.001365 
2167.989184  	0.000117 
2169.918000  	-0.000924 
2171.846816  	-0.001112 
2173.775632  	-0.000614 
2175.704448  	-0.000945 
2177.633264  	-0.000410 
2179.562080  	-0.001225 
2181.490896  	-0.000403 
2183.419712  	0.000940 
2185.348528  	0.000369 
2187.277344  	-0.001449 
2189.206160  	-0.001350 
2191.134976  	-0.001494 
2193.063792  	-0.001817 
2194.992608  	-0.001693 
2196.921424  	-0.001817 
2198.850240  	-0.002456 
2200.779056  	-0.001906 
2202.707872  	-0.002083 
2204.636688  	-0.001435 
2206.565504  	-0.001652 
2208.494320  	-0.002097 
2210.423136  	-0.002635 
2212.351952  	-0.002120 
2214.280768  	-0.002202 
2216.209584  	-0.002407 
2218.138400  	-0.003430 
2220.067216  	-0.003227 
2221.996032  	-0.002953 
2223.924848  	-0.002378 
2225.853664  	-0.002124 
2227.782480  	-0.001886 
2229.711296  	-0.002720 
2231.640112  	-0.002935 
2233.568928  	-0.003147 
2235.497744  	-0.002908 
2237.426560  	-0.002970 
2239.355376  	-0.002934 
2241.284192  	-0.003686 
2243.213008  	-0.003692 
2245.141824  	-0.003346 
2247.070640  	-0.003200 
2248.999456  	-0.003331 
2250.928272  	-0.002944 
2252.857088  	-0.002970 
2254.785904  	-0.002807 
2256.714720  	-0.002580 
2258.643536  	-0.002184 
2260.572352  	-0.002174 
2262.501168  	-0.002364 
2264.429984  	-0.002479 
2266.358800  	-0.002267 
2268.287616  	-0.002608 
2270.216432  	-0.002486 
2272.145248  	-0.002462 
2274.074064  	-0.002346 
2276.002880  	-0.002344 
2277.931696  	-0.001913 
2279.860512  	-0.001952 
2281.789328  	-0.001950 
2283.718144  	-0.001801 
2285.646960  	-0.001299 
2287.575776  	-0.001384 
2289.504592  	-0.001295 
2291.433408  	-0.001064 
2293.362224  	-0.000603 
2295.291040  	-0.000370 
2297.219856  	0.000050 
2299.148672  	0.000182 
2301.077488  	0.000391 
2303.006304  	0.000962 
2304.935120  	0.001759 
2306.863936  	0.002110 
2308.792752  	0.002596 
2310.721568  	0.002963 
2312.650384  	0.002688 
2314.579200  	0.001963 
2316.508016  	0.002214 
2318.436832  	0.002782 
2320.365648  	0.003198 
2322.294464  	0.003116 
2324.223280  	0.002362 
2326.152096  	0.000873 
2328.080912  	-0.000170 
2330.009728  	-0.000361 
2331.938544  	-0.000781 
2333.867360  	-0.001973 
2335.796176  	-0.002857 
2337.724992  	-0.003234 
2339.653808  	-0.003175 
2341.582624  	-0.002502 
2343.511440  	-0.001273 
2345.440256  	-0.000325 
2347.369072  	0.000238 
2349.297888  	0.000586 
2351.226704  	0.000115 
2353.155520  	-0.001363 
2355.084336  	-0.002170 
2357.013152  	-0.002690 
2358.941968  	-0.002973 
2360.870784  	-0.003742 
2362.799600  	-0.003657 
2364.728416  	-0.002501 
2366.657232  	-0.001736 
2368.586048  	-0.001240 
2370.514864  	-0.000385 
2372.443680  	0.000090 
2374.372496  	0.000737 
2376.301312  	0.001003 
2378.230128  	0.001005 
2380.158944  	0.000642 
2382.087760  	-0.000203 
2384.016576  	-0.001293 
2385.945392  	-0.002079 
2387.874208  	-0.002549 
2389.803024  	-0.002920 
2391.731840  	-0.003385 
2393.660656  	-0.003456 
2395.589472  	-0.003435 
2397.518288  	-0.003381 
2399.447104  	-0.003437 
2401.375920  	-0.003446 
2403.304736  	-0.003542 
2405.233552  	-0.003652 
2407.162368  	-0.003595 
2409.091184  	-0.003445 
2411.020000  	-0.003492 
2412.948816  	-0.003632 
2414.877632  	-0.003546 
2416.806448  	-0.003281 
2418.735264  	-0.003384 
2420.664080  	-0.003423 
2422.592896  	-0.003376 
2424.521712  	-0.003313 
2426.450528  	-0.003185 
2428.379344  	-0.002946 
2430.308160  	-0.002749 
2432.236976  	-0.002693 
2434.165792  	-0.002698 
2436.094608  	-0.002461 
2438.023424  	-0.002469 
2439.952240  	-0.002539 
2441.881056  	-0.002569 
2443.809872  	-0.002645 
2445.738688  	-0.002510 
2447.667504  	-0.002300 
2449.596320  	-0.002116 
2451.525136  	-0.002015 
2453.453952  	-0.002103 
2455.382768  	-0.002171 
2457.311584  	-0.002381 
2459.240400  	-0.002424 
2461.169216  	-0.002342 
2463.098032  	-0.002171 
2465.026848  	-0.002040 
2466.955664  	-0.002178 
2468.884480  	-0.002357 
2470.813296  	-0.002493 
2472.742112  	-0.002354 
2474.670928  	-0.001901 
2476.599744  	-0.001668 
2478.528560  	-0.001541 
2480.457376  	-0.001439 
2482.386192  	-0.001112 
2484.315008  	-0.001106 
2486.243824  	-0.001190 
2488.172640  	-0.001029 
2490.101456  	-0.000764 
2492.030272  	-0.000833 
2493.959088  	-0.000946 
2495.887904  	-0.000902 
2497.816720  	-0.000494 
2499.745536  	-0.000296 
2501.674352  	-0.000325 
2503.603168  	-0.000275 
2505.531984  	-0.000316 
2507.460800  	-0.000513 
2509.389616  	-0.000522 
2511.318432  	-0.000459 
2513.247248  	-0.000255 
2515.176064  	-0.000128 
2517.104880  	-0.000201 
2519.033696  	-0.000412 
2520.962512  	-0.000264 
2522.891328  	0.000066 
2524.820144  	0.000419 
2526.748960  	0.000314 
2528.677776  	0.000220 
2530.606592  	0.000337 
2532.535408  	0.000558 
2534.464224  	0.000519 
2536.393040  	0.000382 
2538.321856  	0.000451 
2540.250672  	0.000664 
2542.179488  	0.000865 
2544.108304  	0.001020 
2546.037120  	0.001028 
2547.965936  	0.001193 
2549.894752  	0.001389 
2551.823568  	0.001743 
2553.752384  	0.001854 
2555.681200  	0.001815 
2557.610016  	0.001815 
2559.538832  	0.001796 
2561.467648  	0.002012 
2563.396464  	0.002278 
2565.325280  	0.002228 
2567.254096  	0.002053 
2569.182912  	0.002185 
2571.111728  	0.002488 
2573.040544  	0.002566 
2574.969360  	0.002781 
2576.898176  	0.002934 
2578.826992  	0.002908 
2580.755808  	0.002949 
2582.684624  	0.003299 
2584.613440  	0.003444 
2586.542256  	0.003629 
2588.471072  	0.003637 
2590.399888  	0.003585 
2592.328704  	0.003695 
2594.257520  	0.004014 
2596.186336  	0.003983 
2598.115152  	0.004010 
2600.043968  	0.004272 
2601.972784  	0.004477 
2603.901600  	0.004597 
2605.830416  	0.004651 
2607.759232  	0.004650 
2609.688048  	0.004759 
2611.616864  	0.004959 
2613.545680  	0.005127 
2615.474496  	0.005345 
2617.403312  	0.005637 
2619.332128  	0.005690 
2621.260944  	0.005746 
2623.189760  	0.005778 
2625.118576  	0.005989 
2627.047392  	0.006171 
2628.976208  	0.006393 
2630.905024  	0.006490 
2632.833840  	0.006629 
2634.762656  	0.006849 
2636.691472  	0.007065 
2638.620288  	0.007193 
2640.549104  	0.007381 
2642.477920  	0.007585 
2644.406736  	0.007567 
2646.335552  	0.007641 
2648.264368  	0.007876 
2650.193184  	0.008113 
2652.122000  	0.008312 
2654.050816  	0.008547 
2655.979632  	0.008831 
2657.908448  	0.008930 
2659.837264  	0.009072 
2661.766080  	0.009208 
2663.694896  	0.009354 
2665.623712  	0.009606 
2667.552528  	0.009814 
2669.481344  	0.009777 
2671.410160  	0.009901 
2673.338976  	0.010148 
2675.267792  	0.010402 
2677.196608  	0.010635 
2679.125424  	0.010780 
2681.054240  	0.010844 
2682.983056  	0.011061 
2684.911872  	0.011238 
2686.840688  	0.011373 
2688.769504  	0.011492 
2690.698320  	0.011592 
2692.627136  	0.011670 
2694.555952  	0.011830 
2696.484768  	0.011979 
2698.413584  	0.012120 
2700.342400  	0.012164 
2702.271216  	0.012310 
2704.200032  	0.012528 
2706.128848  	0.012731 
2708.057664  	0.012841 
2709.986480  	0.012982 
2711.915296  	0.013264 
2713.844112  	0.013501 
2715.772928  	0.013615 
2717.701744  	0.013754 
2719.630560  	0.014046 
2721.559376  	0.014245 
2723.488192  	0.014304 
2725.417008  	0.014477 
2727.345824  	0.014791 
2729.274640  	0.015100 
2731.203456  	0.015179 
2733.132272  	0.015304 
2735.061088  	0.015474 
2736.989904  	0.015604 
2738.918720  	0.015836 
2740.847536  	0.015962 
2742.776352  	0.016158 
2744.705168  	0.016381 
2746.633984  	0.016430 
2748.562800  	0.016541 
2750.491616  	0.016589 
2752.420432  	0.016642 
2754.349248  	0.016679 
2756.278064  	0.016726 
2758.206880  	0.016650 
2760.135696  	0.016663 
2762.064512  	0.016699 
2763.993328  	0.016725 
2765.922144  	0.016771 
2767.850960  	0.016862 
2769.779776  	0.016853 
2771.708592  	0.016853 
2773.637408  	0.016773 
2775.566224  	0.016730 
2777.495040  	0.016710 
2779.423856  	0.016735 
2781.352672  	0.016870 
2783.281488  	0.016978 
2785.210304  	0.016929 
2787.139120  	0.016887 
2789.067936  	0.016828 
2790.996752  	0.016850 
2792.925568  	0.016904 
2794.854384  	0.016997 
2796.783200  	0.016967 
2798.712016  	0.016829 
2800.640832  	0.016829 
2802.569648  	0.016977 
2804.498464  	0.017064 
2806.427280  	0.017173 
2808.356096  	0.017250 
2810.284912  	0.017134 
2812.213728  	0.017020 
2814.142544  	0.017074 
2816.071360  	0.017012 
2818.000176  	0.017046 
2819.928992  	0.017173 
2821.857808  	0.017231 
2823.786624  	0.017142 
2825.715440  	0.017216 
2827.644256  	0.017231 
2829.573072  	0.017141 
2831.501888  	0.017145 
2833.430704  	0.017207 
2835.359520  	0.017170 
2837.288336  	0.017067 
2839.217152  	0.017004 
2841.145968  	0.016949 
2843.074784  	0.016840 
2845.003600  	0.016897 
2846.932416  	0.017010 
2848.861232  	0.017221 
2850.790048  	0.017242 
2852.718864  	0.017148 
2854.647680  	0.017101 
2856.576496  	0.017291 
2858.505312  	0.017440 
2860.434128  	0.017486 
2862.362944  	0.017489 
2864.291760  	0.017559 
2866.220576  	0.017699 
2868.149392  	0.017853 
2870.078208  	0.018088 
2872.007024  	0.018491 
2873.935840  	0.018776 
2875.864656  	0.019041 
2877.793472  	0.019386 
2879.722288  	0.019982 
2881.651104  	0.020479 
2883.579920  	0.020894 
2885.508736  	0.021304 
2887.437552  	0.021655 
2889.366368  	0.021816 
2891.295184  	0.021938 
2893.224000  	0.021996 
2895.152816  	0.022092 
2897.081632  	0.022102 
2899.010448  	0.021774 
2900.939264  	0.021484 
2902.868080  	0.021874 
2904.796896  	0.022304 
2906.725712  	0.022540 
2908.654528  	0.022941 
2910.583344  	0.023348 
2912.512160  	0.023633 
2914.440976  	0.024134 
2916.369792  	0.024774 
2918.298608  	0.025237 
2920.227424  	0.025734 
2922.156240  	0.026435 
2924.085056  	0.027110 
2926.013872  	0.027703 
2927.942688  	0.028545 
2929.871504  	0.029530 
2931.800320  	0.030379 
2933.729136  	0.031219 
2935.657952  	0.031993 
2937.586768  	0.032738 
2939.515584  	0.033359 
2941.444400  	0.033816 
2943.373216  	0.034248 
2945.302032  	0.034751 
2947.230848  	0.035116 
2949.159664  	0.035175 
2951.088480  	0.035069 
2953.017296  	0.035152 
2954.946112  	0.035237 
2956.874928  	0.035033 
2958.803744  	0.034668 
2960.732560  	0.034483 
2962.661376  	0.034314 
2964.590192  	0.034067 
2966.519008  	0.033909 
2968.447824  	0.033494 
2970.376640  	0.033182 
2972.305456  	0.033048 
2974.234272  	0.033074 
2976.163088  	0.033063 
2978.091904  	0.032857 
2980.020720  	0.032726 
2981.949536  	0.032715 
2983.878352  	0.032616 
2985.807168  	0.032372 
2987.735984  	0.032328 
2989.664800  	0.032458 
2991.593616  	0.033005 
2993.522432  	0.033584 
2995.451248  	0.033892 
2997.380064  	0.034312 
2999.308880  	0.034888 
3001.237696  	0.035403 
3003.166512  	0.035968 
3005.095328  	0.036424 
3007.024144  	0.036912 
3008.952960  	0.037704 
3010.881776  	0.038579 
3012.810592  	0.039293 
3014.739408  	0.039931 
3016.668224  	0.040505 
3018.597040  	0.041125 
3020.525856  	0.041751 
3022.454672  	0.042294 
3024.383488  	0.043051 
3026.312304  	0.043812 
3028.241120  	0.044319 
3030.169936  	0.045052 
3032.098752  	0.045868 
3034.027568  	0.046355 
3035.956384  	0.047017 
3037.885200  	0.047753 
3039.814016  	0.048390 
3041.742832  	0.048996 
3043.671648  	0.049776 
3045.600464  	0.050355 
3047.529280  	0.051006 
3049.458096  	0.051930 
3051.386912  	0.052687 
3053.315728  	0.053362 
3055.244544  	0.054193 
3057.173360  	0.055063 
3059.102176  	0.056020 
3061.030992  	0.056959 
3062.959808  	0.057877 
3064.888624  	0.059026 
3066.817440  	0.060021 
3068.746256  	0.060878 
3070.675072  	0.061857 
3072.603888  	0.062965 
3074.532704  	0.063974 
3076.461520  	0.065012 
3078.390336  	0.066049 
3080.319152  	0.067197 
3082.247968  	0.068200 
3084.176784  	0.069115 
3086.105600  	0.070155 
3088.034416  	0.071197 
3089.963232  	0.072017 
3091.892048  	0.072958 
3093.820864  	0.074035 
3095.749680  	0.075344 
3097.678496  	0.076610 
3099.607312  	0.077854 
3101.536128  	0.079127 
3103.464944  	0.079947 
3105.393760  	0.080799 
3107.322576  	0.081945 
3109.251392  	0.082966 
3111.180208  	0.083746 
3113.109024  	0.084605 
3115.037840  	0.085664 
3116.966656  	0.086760 
3118.895472  	0.087650 
3120.824288  	0.088331 
3122.753104  	0.089161 
3124.681920  	0.089906 
3126.610736  	0.090671 
3128.539552  	0.091420 
3130.468368  	0.092107 
3132.397184  	0.092902 
3134.326000  	0.093867 
3136.254816  	0.094629 
3138.183632  	0.095327 
3140.112448  	0.095992 
3142.041264  	0.096840 
3143.970080  	0.097739 
3145.898896  	0.098477 
3147.827712  	0.099210 
3149.756528  	0.100248 
3151.685344  	0.101097 
3153.614160  	0.101704 
3155.542976  	0.102533 
3157.471792  	0.103474 
3159.400608  	0.104388 
3161.329424  	0.105077 
3163.258240  	0.105778 
3165.187056  	0.106561 
3167.115872  	0.107166 
3169.044688  	0.107940 
3170.973504  	0.108556 
3172.902320  	0.108896 
3174.831136  	0.109364 
3176.759952  	0.110078 
3178.688768  	0.110681 
3180.617584  	0.110977 
3182.546400  	0.111366 
3184.475216  	0.111593 
3186.404032  	0.111755 
3188.332848  	0.112219 
3190.261664  	0.112424 
3192.190480  	0.112476 
3194.119296  	0.112615 
3196.048112  	0.112610 
3197.976928  	0.112869 
3199.905744  	0.112921 
3201.834560  	0.112719 
3203.763376  	0.112523 
3205.692192  	0.112323 
3207.621008  	0.112250 
3209.549824  	0.112356 
3211.478640  	0.112367 
3213.407456  	0.112239 
3215.336272  	0.112084 
3217.265088  	0.111844 
3219.193904  	0.112063 
3221.122720  	0.112097 
3223.051536  	0.111626 
3224.980352  	0.111326 
3226.909168  	0.111278 
3228.837984  	0.111122 
3230.766800  	0.110930 
3232.695616  	0.110986 
3234.624432  	0.110968 
3236.553248  	0.111120 
3238.482064  	0.111193 
3240.410880  	0.110998 
3242.339696  	0.111020 
3244.268512  	0.111221 
3246.197328  	0.111258 
3248.126144  	0.111395 
3250.054960  	0.111712 
3251.983776  	0.111919 
3253.912592  	0.112399 
3255.841408  	0.112738 
3257.770224  	0.112782 
3259.699040  	0.113099 
3261.627856  	0.113352 
3263.556672  	0.113333 
3265.485488  	0.113494 
3267.414304  	0.113709 
3269.343120  	0.114047 
3271.271936  	0.114479 
3273.200752  	0.114742 
3275.129568  	0.114782 
3277.058384  	0.114910 
3278.987200  	0.114978 
3280.916016  	0.115210 
3282.844832  	0.115342 
3284.773648  	0.115386 
3286.702464  	0.115514 
3288.631280  	0.115898 
3290.560096  	0.116210 
3292.488912  	0.116542 
3294.417728  	0.116777 
3296.346544  	0.116988 
3298.275360  	0.117274 
3300.204176  	0.117554 
3302.132992  	0.117677 
3304.061808  	0.118091 
3305.990624  	0.118404 
3307.919440  	0.118781 
3309.848256  	0.119198 
3311.777072  	0.119562 
3313.705888  	0.119852 
3315.634704  	0.119998 
3317.563520  	0.120294 
3319.492336  	0.120529 
3321.421152  	0.120681 
3323.349968  	0.120826 
3325.278784  	0.121113 
3327.207600  	0.121268 
3329.136416  	0.121021 
3331.065232  	0.120985 
3332.994048  	0.121091 
3334.922864  	0.121313 
3336.851680  	0.121329 
3338.780496  	0.121020 
3340.709312  	0.120671 
3342.638128  	0.120506 
3344.566944  	0.120239 
3346.495760  	0.119933 
3348.424576  	0.119711 
3350.353392  	0.119451 
3352.282208  	0.118978 
3354.211024  	0.118675 
3356.139840  	0.118400 
3358.068656  	0.117939 
3359.997472  	0.117531 
3361.926288  	0.117166 
3363.855104  	0.116673 
3365.783920  	0.116363 
3367.712736  	0.115982 
3369.641552  	0.115433 
3371.570368  	0.114963 
3373.499184  	0.114708 
3375.428000  	0.114338 
3377.356816  	0.113803 
3379.285632  	0.113462 
3381.214448  	0.113018 
3383.143264  	0.112394 
3385.072080  	0.112108 
3387.000896  	0.111570 
3388.929712  	0.111049 
3390.858528  	0.110718 
3392.787344  	0.110716 
3394.716160  	0.110015 
3396.644976  	0.109341 
3398.573792  	0.108773 
3400.502608  	0.107845 
3402.431424  	0.107156 
3404.360240  	0.106649 
3406.289056  	0.105839 
3408.217872  	0.105084 
3410.146688  	0.104434 
3412.075504  	0.103865 
3414.004320  	0.103438 
3415.933136  	0.102775 
3417.861952  	0.102175 
3419.790768  	0.102097 
3421.719584  	0.101728 
3423.648400  	0.100661 
3425.577216  	0.099503 
3427.506032  	0.098762 
3429.434848  	0.097991 
3431.363664  	0.097366 
3433.292480  	0.096778 
3435.221296  	0.095949 
3437.150112  	0.095023 
3439.078928  	0.094091 
3441.007744  	0.093348 
3442.936560  	0.093087 
3444.865376  	0.092378 
3446.794192  	0.092207 
3448.723008  	0.091100 
3450.651824  	0.089425 
3452.580640  	0.088486 
3454.509456  	0.087607 
3456.438272  	0.086773 
3458.367088  	0.086024 
3460.295904  	0.085429 
3462.224720  	0.084760 
3464.153536  	0.083322 
3466.082352  	0.082155 
3468.011168  	0.081341 
3469.939984  	0.080371 
3471.868800  	0.079123 
3473.797616  	0.077958 
3475.726432  	0.077062 
3477.655248  	0.075893 
3479.584064  	0.075099 
3481.512880  	0.074992 
3483.441696  	0.073964 
3485.370512  	0.072314 
3487.299328  	0.071466 
3489.228144  	0.070414 
3491.156960  	0.068972 
3493.085776  	0.068134 
3495.014592  	0.067470 
3496.943408  	0.066510 
3498.872224  	0.065259 
3500.801040  	0.065064 
3502.729856  	0.065404 
3504.658672  	0.064071 
3506.587488  	0.061927 
3508.516304  	0.061556 
3510.445120  	0.061084 
3512.373936  	0.059462 
3514.302752  	0.058161 
3516.231568  	0.057271 
3518.160384  	0.056463 
3520.089200  	0.055568 
3522.018016  	0.055597 
3523.946832  	0.056180 
3525.875648  	0.055052 
3527.804464  	0.053896 
3529.733280  	0.052451 
3531.662096  	0.050595 
3533.590912  	0.049172 
3535.519728  	0.049077 
3537.448544  	0.048315 
3539.377360  	0.046497 
3541.306176  	0.045649 
3543.234992  	0.046381 
3545.163808  	0.047632 
3547.092624  	0.046577 
3549.021440  	0.043669 
3550.950256  	0.042453 
3552.879072  	0.042313 
3554.807888  	0.040453 
3556.736704  	0.038876 
3558.665520  	0.038605 
3560.594336  	0.038563 
3562.523152  	0.037967 
3564.451968  	0.038689 
3566.380784  	0.041592 
3568.309600  	0.040060 
3570.238416  	0.035152 
3572.167232  	0.032643 
3574.096048  	0.031706 
3576.024864  	0.030847 
3577.953680  	0.030150 
3579.882496  	0.029495 
3581.811312  	0.028207 
3583.740128  	0.027562 
3585.668944  	0.028823 
3587.597760  	0.030509 
3589.526576  	0.026972 
3591.455392  	0.023836 
3593.384208  	0.023900 
3595.313024  	0.023940 
3597.241840  	0.022476 
3599.170656  	0.021057 
3601.099472  	0.019978 
3603.028288  	0.018110 
3604.957104  	0.016964 
3606.885920  	0.018001 
3608.814736  	0.018335 
3610.743552  	0.016326 
3612.672368  	0.016227 
3614.601184  	0.015619 
3616.530000  	0.013863 
3618.458816  	0.013871 
3620.387632  	0.012326 
3622.316448  	0.009232 
3624.245264  	0.007866 
3626.174080  	0.008138 
3628.102896  	0.009525 
3630.031712  	0.008704 
3631.960528  	0.005214 
3633.889344  	0.003728 
3635.818160  	0.002027 
3637.746976  	0.000595 
3639.675792  	-0.000343 
3641.604608  	-0.000755 
3643.533424  	-0.001348 
3645.462240  	-0.001087 
3647.391056  	0.001809 
3649.319872  	0.002452 
3651.248688  	-0.000968 
3653.177504  	-0.005317 
3655.106320  	-0.006392 
3657.035136  	-0.006762 
3658.963952  	-0.008332 
3660.892768  	-0.009432 
3662.821584  	-0.010614 
3664.750400  	-0.011111 
3666.679216  	-0.010603 
3668.608032  	-0.009056 
3670.536848  	-0.008274 
3672.465664  	-0.009883 
3674.394480  	-0.009056 
3676.323296  	-0.008354 
3678.252112  	-0.010829 
3680.180928  	-0.012531 
3682.109744  	-0.013955 
3684.038560  	-0.014217 
3685.967376  	-0.013910 
3687.896192  	-0.012111 
3689.825008  	-0.010681 
3691.753824  	-0.012254 
3693.682640  	-0.014131 
3695.611456  	-0.014804 
3697.540272  	-0.014975 
3699.469088  	-0.015112 
3701.397904  	-0.014325 
3703.326720  	-0.014435 
3705.255536  	-0.014947 
3707.184352  	-0.014707 
3709.113168  	-0.013393 
3711.041984  	-0.011530 
3712.970800  	-0.012379 
3714.899616  	-0.014362 
3716.828432  	-0.015170 
3718.757248  	-0.014465 
3720.686064  	-0.013641 
3722.614880  	-0.012835 
3724.543696  	-0.012586 
3726.472512  	-0.012354 
3728.401328  	-0.013934 
3730.330144  	-0.014965 
3732.258960  	-0.013659 
3734.187776  	-0.010100 
3736.116592  	-0.008346 
3738.045408  	-0.011553 
3739.974224  	-0.012870 
3741.903040  	-0.012983 
3743.831856  	-0.012353 
3745.760672  	-0.011641 
3747.689488  	-0.012353 
3749.618304  	-0.011044 
3751.547120  	-0.010317 
3753.475936  	-0.012746 
3755.404752  	-0.014240 
3757.333568  	-0.013960 
3759.262384  	-0.013564 
3761.191200  	-0.014706 
3763.120016  	-0.015692 
3765.048832  	-0.014859 
3766.977648  	-0.014813 
3768.906464  	-0.014834 
3770.835280  	-0.015186 
3772.764096  	-0.016380 
3774.692912  	-0.016884 
3776.621728  	-0.016658 
3778.550544  	-0.015464 
3780.479360  	-0.015302 
3782.408176  	-0.016106 
3784.336992  	-0.015593 
3786.265808  	-0.015908 
3788.194624  	-0.016805 
3790.123440  	-0.016955 
3792.052256  	-0.016949 
3793.981072  	-0.016810 
3795.909888  	-0.015331 
3797.838704  	-0.013987 
3799.767520  	-0.013660 
3801.696336  	-0.012524 
3803.625152  	-0.014347 
3805.553968  	-0.015498 
3807.482784  	-0.015316 
3809.411600  	-0.016326 
3811.340416  	-0.016753 
3813.269232  	-0.016399 
3815.198048  	-0.014818 
3817.126864  	-0.013839 
3819.055680  	-0.013762 
3820.984496  	-0.012189 
3822.913312  	-0.013827 
3824.842128  	-0.015286 
3826.770944  	-0.015254 
3828.699760  	-0.015739 
3830.628576  	-0.015710 
3832.557392  	-0.015344 
3834.486208  	-0.015124 
3836.415024  	-0.014122 
3838.343840  	-0.012858 
3840.272656  	-0.012419 
3842.201472  	-0.013572 
3844.130288  	-0.014653 
3846.059104  	-0.016076 
3847.987920  	-0.016276 
3849.916736  	-0.014974 
3851.845552  	-0.012731 
3853.774368  	-0.010878 
3855.703184  	-0.013002 
3857.632000  	-0.014502 
3859.560816  	-0.015585 
3861.489632  	-0.014766 
3863.418448  	-0.013371 
3865.347264  	-0.013031 
3867.276080  	-0.014359 
3869.204896  	-0.013033 
3871.133712  	-0.012555 
3873.062528  	-0.013972 
3874.991344  	-0.014636 
3876.920160  	-0.016225 
3878.848976  	-0.015400 
3880.777792  	-0.013122 
3882.706608  	-0.013520 
3884.635424  	-0.013774 
3886.564240  	-0.014693 
3888.493056  	-0.016504 
3890.421872  	-0.015538 
3892.350688  	-0.014533 
3894.279504  	-0.015624 
3896.208320  	-0.016156 
3898.137136  	-0.014802 
3900.065952  	-0.013037 
3901.994768  	-0.012391 
3903.923584  	-0.012127 
3905.852400  	-0.013842 
3907.781216  	-0.016439 
3909.710032  	-0.017638 
3911.638848  	-0.017750 
3913.567664  	-0.017296 
3915.496480  	-0.015631 
3917.425296  	-0.014219 
3919.354112  	-0.014916 
3921.282928  	-0.015554 
3923.211744  	-0.014881 
3925.140560  	-0.014351 
3927.069376  	-0.015909 
3928.998192  	-0.015759 
3930.927008  	-0.014543 
3932.855824  	-0.014598 
3934.784640  	-0.016181 
3936.713456  	-0.016831 
3938.642272  	-0.016949 
3940.571088  	-0.016516 
3942.499904  	-0.014912 
3944.428720  	-0.015389 
3946.357536  	-0.016117 
3948.286352  	-0.015131 
3950.215168  	-0.015557 
3952.143984  	-0.016776 
3954.072800  	-0.017270 
3956.001616  	-0.017090 
3957.930432  	-0.016734 
3959.859248  	-0.016511 
3961.788064  	-0.016360 
3963.716880  	-0.016967 
3965.645696  	-0.017556 
3967.574512  	-0.017488 
3969.503328  	-0.017295 
3971.432144  	-0.017050 
3973.360960  	-0.016649 
3975.289776  	-0.016291 
3977.218592  	-0.016675 
3979.147408  	-0.017336 
3981.076224  	-0.017484 
3983.005040  	-0.017559 
3984.933856  	-0.017445 
3986.862672  	-0.017200 
3988.791488  	-0.017001 
3990.720304  	-0.016673 
3992.649120  	-0.016863 
3994.577936  	-0.017049 
3996.506752  	-0.017463 
3998.435568  	-0.017727 
4000.364384  	-0.017536 