##TITLE=No Description
##DATA TYPE=INFRARED SPECTRUM
##XUNITS=1/CM
##YUNITS=Abs
399.264912  	0.408809 
401.193728  	0.392473 
403.122544  	0.398945 
405.051360  	0.405978 
406.980176  	0.415413 
408.908992  	0.411793 
410.837808  	0.406010 
412.766624  	0.403319 
414.695440  	0.404493 
416.624256  	0.401407 
418.553072  	0.397851 
420.481888  	0.391024 
422.410704  	0.385398 
424.339520  	0.382934 
426.268336  	0.383371 
428.197152  	0.377286 
430.125968  	0.376469 
432.054784  	0.374278 
433.983600  	0.372417 
435.912416  	0.373243 
437.841232  	0.370170 
439.770048  	0.365290 
441.698864  	0.363885 
443.627680  	0.362101 
445.556496  	0.365020 
447.485312  	0.361560 
449.414128  	0.361087 
451.342944  	0.360613 
453.271760  	0.358321 
455.200576  	0.355657 
457.129392  	0.361316 
459.058208  	0.360929 
460.987024  	0.358272 
462.915840  	0.352982 
464.844656  	0.352989 
466.773472  	0.354706 
468.702288  	0.352635 
470.631104  	0.350333 
472.559920  	0.353774 
474.488736  	0.351289 
476.417552  	0.352179 
478.346368  	0.348452 
480.275184  	0.344303 
482.204000  	0.343816 
484.132816  	0.347801 
486.061632  	0.347503 
487.990448  	0.345487 
489.919264  	0.344828 
491.848080  	0.344864 
493.776896  	0.344706 
495.705712  	0.342689 
497.634528  	0.337294 
499.563344  	0.335708 
501.492160  	0.335754 
503.420976  	0.337329 
505.349792  	0.335391 
507.278608  	0.336435 
509.207424  	0.334963 
511.136240  	0.332940 
513.065056  	0.332671 
514.993872  	0.336611 
516.922688  	0.338791 
518.851504  	0.339140 
520.780320  	0.337484 
522.709136  	0.337041 
524.637952  	0.336918 
526.566768  	0.334999 
528.495584  	0.330559 
530.424400  	0.329504 
532.353216  	0.327193 
534.282032  	0.323021 
536.210848  	0.319190 
538.139664  	0.315002 
540.068480  	0.311013 
541.997296  	0.308483 
543.926112  	0.306252 
545.854928  	0.305060 
547.783744  	0.301941 
549.712560  	0.301214 
551.641376  	0.298390 
553.570192  	0.295527 
555.499008  	0.292094 
557.427824  	0.290548 
559.356640  	0.288027 
561.285456  	0.285938 
563.214272  	0.283283 
565.143088  	0.281812 
567.071904  	0.280049 
569.000720  	0.278735 
570.929536  	0.276152 
572.858352  	0.273745 
574.787168  	0.272410 
576.715984  	0.271092 
578.644800  	0.268128 
580.573616  	0.265169 
582.502432  	0.261167 
584.431248  	0.257888 
586.360064  	0.254984 
588.288880  	0.253095 
590.217696  	0.252173 
592.146512  	0.251598 
594.075328  	0.248689 
596.004144  	0.246733 
597.932960  	0.245254 
599.861776  	0.244831 
601.790592  	0.243665 
603.719408  	0.242720 
605.648224  	0.241336 
607.577040  	0.240288 
609.505856  	0.239330 
611.434672  	0.238407 
613.363488  	0.237475 
615.292304  	0.237126 
617.221120  	0.236178 
619.149936  	0.234970 
621.078752  	0.233585 
623.007568  	0.232392 
624.936384  	0.231124 
626.865200  	0.230184 
628.794016  	0.229566 
630.722832  	0.229747 
632.651648  	0.229644 
634.580464  	0.229157 
636.509280  	0.229048 
638.438096  	0.228871 
640.366912  	0.228705 
642.295728  	0.227759 
644.224544  	0.225655 
646.153360  	0.223469 
648.082176  	0.220659 
650.010992  	0.218280 
651.939808  	0.216372 
653.868624  	0.214327 
655.797440  	0.211417 
657.726256  	0.208881 
659.655072  	0.206079 
661.583888  	0.203143 
663.512704  	0.200370 
665.441520  	0.196981 
667.370336  	0.194861 
669.299152  	0.195376 
671.227968  	0.190978 
673.156784  	0.187248 
675.085600  	0.185629 
677.014416  	0.183797 
678.943232  	0.182122 
680.872048  	0.181179 
682.800864  	0.179987 
684.729680  	0.178771 
686.658496  	0.177633 
688.587312  	0.177157 
690.516128  	0.176090 
692.444944  	0.175417 
694.373760  	0.174399 
696.302576  	0.173304 
698.231392  	0.171694 
700.160208  	0.169908 
702.089024  	0.168179 
704.017840  	0.166620 
705.946656  	0.164879 
707.875472  	0.162939 
709.804288  	0.161462 
711.733104  	0.160330 
713.661920  	0.158966 
715.590736  	0.157876 
717.519552  	0.157544 
719.448368  	0.157999 
721.377184  	0.158536 
723.306000  	0.158818 
725.234816  	0.159164 
727.163632  	0.158597 
729.092448  	0.156829 
731.021264  	0.154615 
732.950080  	0.152343 
734.878896  	0.149834 
736.807712  	0.147325 
738.736528  	0.146170 
740.665344  	0.145097 
742.594160  	0.144089 
744.522976  	0.143062 
746.451792  	0.141930 
748.380608  	0.140543 
750.309424  	0.139617 
752.238240  	0.138719 
754.167056  	0.138204 
756.095872  	0.137794 
758.024688  	0.136990 
759.953504  	0.136361 
761.882320  	0.136663 
763.811136  	0.137337 
765.739952  	0.136309 
767.668768  	0.134366 
769.597584  	0.132973 
771.526400  	0.132356 
773.455216  	0.133105 
775.384032  	0.135837 
777.312848  	0.139591 
779.241664  	0.141969 
781.170480  	0.141840 
783.099296  	0.138931 
785.028112  	0.135166 
786.956928  	0.131506 
788.885744  	0.128423 
790.814560  	0.125867 
792.743376  	0.124661 
794.672192  	0.124264 
796.601008  	0.123587 
798.529824  	0.121449 
800.458640  	0.118300 
802.387456  	0.115763 
804.316272  	0.114237 
806.245088  	0.113666 
808.173904  	0.113079 
810.102720  	0.112709 
812.031536  	0.112583 
813.960352  	0.112506 
815.889168  	0.112798 
817.817984  	0.113142 
819.746800  	0.113484 
821.675616  	0.113794 
823.604432  	0.114080 
825.533248  	0.114215 
827.462064  	0.114404 
829.390880  	0.114076 
831.319696  	0.113716 
833.248512  	0.113006 
835.177328  	0.111707 
837.106144  	0.109919 
839.034960  	0.107834 
840.963776  	0.105178 
842.892592  	0.102374 
844.821408  	0.099890 
846.750224  	0.097688 
848.679040  	0.095604 
850.607856  	0.094034 
852.536672  	0.092850 
854.465488  	0.091854 
856.394304  	0.091127 
858.323120  	0.089963 
860.251936  	0.088761 
862.180752  	0.087482 
864.109568  	0.085819 
866.038384  	0.084266 
867.967200  	0.082721 
869.896016  	0.081414 
871.824832  	0.080555 
873.753648  	0.080543 
875.682464  	0.080842 
877.611280  	0.081554 
879.540096  	0.082809 
881.468912  	0.084269 
883.397728  	0.085625 
885.326544  	0.086952 
887.255360  	0.087702 
889.184176  	0.087693 
891.112992  	0.087343 
893.041808  	0.086455 
894.970624  	0.084736 
896.899440  	0.081938 
898.828256  	0.078916 
900.757072  	0.075954 
902.685888  	0.073358 
904.614704  	0.071843 
906.543520  	0.071584 
908.472336  	0.072529 
910.401152  	0.074053 
912.329968  	0.076069 
914.258784  	0.077948 
916.187600  	0.079955 
918.116416  	0.081759 
920.045232  	0.083087 
921.974048  	0.083834 
923.902864  	0.084446 
925.831680  	0.084896 
927.760496  	0.085340 
929.689312  	0.086110 
931.618128  	0.087097 
933.546944  	0.087796 
935.475760  	0.088001 
937.404576  	0.087933 
939.333392  	0.087667 
941.262208  	0.087689 
943.191024  	0.088590 
945.119840  	0.090857 
947.048656  	0.094619 
948.977472  	0.100124 
950.906288  	0.106925 
952.835104  	0.114780 
954.763920  	0.123436 
956.692736  	0.131836 
958.621552  	0.139520 
960.550368  	0.144957 
962.479184  	0.147915 
964.408000  	0.147931 
966.336816  	0.145211 
968.265632  	0.139712 
970.194448  	0.132115 
972.123264  	0.123059 
974.052080  	0.113423 
975.980896  	0.103792 
977.909712  	0.094724 
979.838528  	0.086681 
981.767344  	0.079973 
983.696160  	0.075034 
985.624976  	0.071770 
987.553792  	0.070704 
989.482608  	0.071555 
991.411424  	0.074326 
993.340240  	0.078592 
995.269056  	0.083507 
997.197872  	0.088661 
999.126688  	0.093883 
1001.055504  	0.099466 
1002.984320  	0.104534 
1004.913136  	0.109565 
1006.841952  	0.114117 
1008.770768  	0.118141 
1010.699584  	0.121336 
1012.628400  	0.123593 
1014.557216  	0.125206 
1016.486032  	0.125878 
1018.414848  	0.125938 
1020.343664  	0.125649 
1022.272480  	0.125517 
1024.201296  	0.125058 
1026.130112  	0.124334 
1028.058928  	0.124387 
1029.987744  	0.125606 
1031.916560  	0.127061 
1033.845376  	0.128948 
1035.774192  	0.131884 
1037.703008  	0.135512 
1039.631824  	0.141116 
1041.560640  	0.148439 
1043.489456  	0.157697 
1045.418272  	0.167624 
1047.347088  	0.177544 
1049.275904  	0.185027 
1051.204720  	0.189233 
1053.133536  	0.190514 
1055.062352  	0.189544 
1056.991168  	0.187448 
1058.919984  	0.185797 
1060.848800  	0.184406 
1062.777616  	0.182477 
1064.706432  	0.179912 
1066.635248  	0.177270 
1068.564064  	0.174246 
1070.492880  	0.170306 
1072.421696  	0.166277 
1074.350512  	0.163635 
1076.279328  	0.162852 
1078.208144  	0.164549 
1080.136960  	0.167354 
1082.065776  	0.169449 
1083.994592  	0.169175 
1085.923408  	0.167019 
1087.852224  	0.162591 
1089.781040  	0.157301 
1091.709856  	0.150782 
1093.638672  	0.143170 
1095.567488  	0.134509 
1097.496304  	0.125696 
1099.425120  	0.117043 
1101.353936  	0.108576 
1103.282752  	0.100673 
1105.211568  	0.093105 
1107.140384  	0.086125 
1109.069200  	0.079799 
1110.998016  	0.074106 
1112.926832  	0.068798 
1114.855648  	0.064060 
1116.784464  	0.059520 
1118.713280  	0.055060 
1120.642096  	0.050873 
1122.570912  	0.046872 
1124.499728  	0.043200 
1126.428544  	0.040023 
1128.357360  	0.037225 
1130.286176  	0.034701 
1132.214992  	0.032653 
1134.143808  	0.031272 
1136.072624  	0.029944 
1138.001440  	0.028574 
1139.930256  	0.027470 
1141.859072  	0.026478 
1143.787888  	0.025225 
1145.716704  	0.024199 
1147.645520  	0.023184 
1149.574336  	0.022592 
1151.503152  	0.022087 
1153.431968  	0.021848 
1155.360784  	0.021900 
1157.289600  	0.022717 
1159.218416  	0.023685 
1161.147232  	0.024610 
1163.076048  	0.025911 
1165.004864  	0.027429 
1166.933680  	0.028799 
1168.862496  	0.030333 
1170.791312  	0.032113 
1172.720128  	0.034042 
1174.648944  	0.036097 
1176.577760  	0.037992 
1178.506576  	0.040049 
1180.435392  	0.042478 
1182.364208  	0.044774 
1184.293024  	0.047241 
1186.221840  	0.050250 
1188.150656  	0.053562 
1190.079472  	0.057102 
1192.008288  	0.061412 
1193.937104  	0.066222 
1195.865920  	0.071681 
1197.794736  	0.077443 
1199.723552  	0.083780 
1201.652368  	0.089977 
1203.581184  	0.095646 
1205.510000  	0.100993 
1207.438816  	0.105666 
1209.367632  	0.110004 
1211.296448  	0.113413 
1213.225264  	0.115878 
1215.154080  	0.117138 
1217.082896  	0.117707 
1219.011712  	0.117398 
1220.940528  	0.116930 
1222.869344  	0.116105 
1224.798160  	0.115043 
1226.726976  	0.113177 
1228.655792  	0.110828 
1230.584608  	0.108428 
1232.513424  	0.105602 
1234.442240  	0.102486 
1236.371056  	0.099136 
1238.299872  	0.095469 
1240.228688  	0.091017 
1242.157504  	0.086624 
1244.086320  	0.082547 
1246.015136  	0.078080 
1247.943952  	0.073826 
1249.872768  	0.069527 
1251.801584  	0.065378 
1253.730400  	0.061557 
1255.659216  	0.057765 
1257.588032  	0.054126 
1259.516848  	0.051020 
1261.445664  	0.047924 
1263.374480  	0.044777 
1265.303296  	0.042242 
1267.232112  	0.040344 
1269.160928  	0.039149 
1271.089744  	0.038409 
1273.018560  	0.037813 
1274.947376  	0.037644 
1276.876192  	0.038134 
1278.805008  	0.038412 
1280.733824  	0.038118 
1282.662640  	0.036999 
1284.591456  	0.035760 
1286.520272  	0.034976 
1288.449088  	0.034533 
1290.377904  	0.033996 
1292.306720  	0.034117 
1294.235536  	0.034414 
1296.164352  	0.034301 
1298.093168  	0.033060 
1300.021984  	0.031355 
1301.950800  	0.029476 
1303.879616  	0.027540 
1305.808432  	0.025577 
1307.737248  	0.023702 
1309.666064  	0.021730 
1311.594880  	0.020841 
1313.523696  	0.020361 
1315.452512  	0.019609 
1317.381328  	0.019633 
1319.310144  	0.019866 
1321.238960  	0.019417 
1323.167776  	0.019308 
1325.096592  	0.019654 
1327.025408  	0.019848 
1328.954224  	0.019688 
1330.883040  	0.019217 
1332.811856  	0.018400 
1334.740672  	0.018180 
1336.669488  	0.019455 
1338.598304  	0.021825 
1340.527120  	0.021017 
1342.455936  	0.017369 
1344.384752  	0.016161 
1346.313568  	0.016411 
1348.242384  	0.017110 
1350.171200  	0.017949 
1352.100016  	0.019015 
1354.028832  	0.020727 
1355.957648  	0.022172 
1357.886464  	0.023414 
1359.815280  	0.025503 
1361.744096  	0.029177 
1363.672912  	0.030392 
1365.601728  	0.028901 
1367.530544  	0.029877 
1369.459360  	0.031086 
1371.388176  	0.031212 
1373.316992  	0.032609 
1375.245808  	0.031745 
1377.174624  	0.028543 
1379.103440  	0.026500 
1381.032256  	0.024108 
1382.961072  	0.022191 
1384.889888  	0.021843 
1386.818704  	0.023188 
1388.747520  	0.021340 
1390.676336  	0.018620 
1392.605152  	0.018025 
1394.533968  	0.019857 
1396.462784  	0.020786 
1398.391600  	0.020301 
1400.320416  	0.018622 
1402.249232  	0.017412 
1404.178048  	0.019074 
1406.106864  	0.019652 
1408.035680  	0.019539 
1409.964496  	0.021071 
1411.893312  	0.022620 
1413.822128  	0.023711 
1415.750944  	0.026780 
1417.679760  	0.030719 
1419.608576  	0.031443 
1421.537392  	0.028663 
1423.466208  	0.028374 
1425.395024  	0.026587 
1427.323840  	0.024254 
1429.252656  	0.023984 
1431.181472  	0.022972 
1433.110288  	0.022005 
1435.039104  	0.023093 
1436.967920  	0.024955 
1438.896736  	0.023055 
1440.825552  	0.022232 
1442.754368  	0.022425 
1444.683184  	0.022487 
1446.612000  	0.023662 
1448.540816  	0.024307 
1450.469632  	0.023593 
1452.398448  	0.024185 
1454.327264  	0.025932 
1456.256080  	0.030763 
1458.184896  	0.032120 
1460.113712  	0.026544 
1462.042528  	0.023629 
1463.971344  	0.024487 
1465.900160  	0.025596 
1467.828976  	0.024911 
1469.757792  	0.026145 
1471.686608  	0.032071 
1473.615424  	0.039208 
1475.544240  	0.040075 
1477.473056  	0.040772 
1479.401872  	0.041157 
1481.330688  	0.043576 
1483.259504  	0.044321 
1485.188320  	0.045212 
1487.117136  	0.048030 
1489.045952  	0.051617 
1490.974768  	0.049004 
1492.903584  	0.042912 
1494.832400  	0.040315 
1496.761216  	0.039772 
1498.690032  	0.036043 
1500.618848  	0.031696 
1502.547664  	0.028013 
1504.476480  	0.026780 
1506.405296  	0.033558 
1508.334112  	0.034942 
1510.262928  	0.027403 
1512.191744  	0.022899 
1514.120560  	0.022013 
1516.049376  	0.025293 
1517.978192  	0.026042 
1519.907008  	0.026487 
1521.835824  	0.031362 
1523.764640  	0.030622 
1525.693456  	0.032051 
1527.622272  	0.032529 
1529.551088  	0.030271 
1531.479904  	0.029678 
1533.408720  	0.030933 
1535.337536  	0.027607 
1537.266352  	0.025364 
1539.195168  	0.027802 
1541.123984  	0.029270 
1543.052800  	0.026582 
1544.981616  	0.023456 
1546.910432  	0.018306 
1548.839248  	0.018285 
1550.768064  	0.019397 
1552.696880  	0.018273 
1554.625696  	0.020248 
1556.554512  	0.021350 
1558.483328  	0.027444 
1560.412144  	0.027329 
1562.340960  	0.023882 
1564.269776  	0.024832 
1566.198592  	0.027476 
1568.127408  	0.029951 
1570.056224  	0.035949 
1571.985040  	0.036919 
1573.913856  	0.037738 
1575.842672  	0.042094 
1577.771488  	0.044604 
1579.700304  	0.041409 
1581.629120  	0.040119 
1583.557936  	0.039727 
1585.486752  	0.040423 
1587.415568  	0.041870 
1589.344384  	0.044910 
1591.273200  	0.048327 
1593.202016  	0.052613 
1595.130832  	0.057399 
1597.059648  	0.061534 
1598.988464  	0.064603 
1600.917280  	0.068244 
1602.846096  	0.070883 
1604.774912  	0.072143 
1606.703728  	0.072391 
1608.632544  	0.072922 
1610.561360  	0.071493 
1612.490176  	0.069905 
1614.418992  	0.068213 
1616.347808  	0.070989 
1618.276624  	0.073531 
1620.205440  	0.072521 
1622.134256  	0.074518 
1624.063072  	0.080985 
1625.991888  	0.082645 
1627.920704  	0.087240 
1629.849520  	0.091596 
1631.778336  	0.093554 
1633.707152  	0.095686 
1635.635968  	0.107064 
1637.564784  	0.114474 
1639.493600  	0.111805 
1641.422416  	0.111616 
1643.351232  	0.111190 
1645.280048  	0.111694 
1647.208864  	0.120836 
1649.137680  	0.118135 
1651.066496  	0.109799 
1652.995312  	0.115155 
1654.924128  	0.120963 
1656.852944  	0.111327 
1658.781760  	0.106405 
1660.710576  	0.103874 
1662.639392  	0.104297 
1664.568208  	0.101974 
1666.497024  	0.097047 
1668.425840  	0.095979 
1670.354656  	0.096933 
1672.283472  	0.092498 
1674.212288  	0.088720 
1676.141104  	0.089071 
1678.069920  	0.085718 
1679.998736  	0.085554 
1681.927552  	0.084282 
1683.856368  	0.087179 
1685.785184  	0.088523 
1687.714000  	0.083561 
1689.642816  	0.082190 
1691.571632  	0.079355 
1693.500448  	0.076287 
1695.429264  	0.078159 
1697.358080  	0.081347 
1699.286896  	0.077885 
1701.215712  	0.079474 
1703.144528  	0.074387 
1705.073344  	0.072091 
1707.002160  	0.069273 
1708.930976  	0.064367 
1710.859792  	0.060476 
1712.788608  	0.057372 
1714.717424  	0.055689 
1716.646240  	0.053160 
1718.575056  	0.045470 
1720.503872  	0.036340 
1722.432688  	0.030616 
1724.361504  	0.025140 
1726.290320  	0.019853 
1728.219136  	0.017097 
1730.147952  	0.016024 
1732.076768  	0.014551 
1734.005584  	0.013013 
1735.934400  	0.007504 
1737.863216  	0.005600 
1739.792032  	0.004367 
1741.720848  	0.003124 
1743.649664  	0.003523 
1745.578480  	0.002776 
1747.507296  	0.003150 
1749.436112  	0.003765 
1751.364928  	0.001414 
1753.293744  	-0.002187 
1755.222560  	-0.002988 
1757.151376  	-0.002074 
1759.080192  	-0.002921 
1761.009008  	-0.002758 
1762.937824  	-0.003813 
1764.866640  	-0.005180 
1766.795456  	-0.004291 
1768.724272  	-0.003159 
1770.653088  	-0.002854 
1772.581904  	-0.002541 
1774.510720  	-0.004002 
1776.439536  	-0.005074 
1778.368352  	-0.005736 
1780.297168  	-0.005105 
1782.225984  	-0.006083 
1784.154800  	-0.006274 
1786.083616  	-0.006967 
1788.012432  	-0.007348 
1789.941248  	-0.005313 
1791.870064  	-0.003415 
1793.798880  	-0.005170 
1795.727696  	-0.005798 
1797.656512  	-0.006668 
1799.585328  	-0.006423 
1801.514144  	-0.005784 
1803.442960  	-0.007128 
1805.371776  	-0.008177 
1807.300592  	-0.007829 
1809.229408  	-0.007467 
1811.158224  	-0.007264 
1813.087040  	-0.008404 
1815.015856  	-0.009213 
1816.944672  	-0.008740 
1818.873488  	-0.008694 
1820.802304  	-0.008732 
1822.731120  	-0.008022 
1824.659936  	-0.007221 
1826.588752  	-0.007356 
1828.517568  	-0.006835 
1830.446384  	-0.006640 
1832.375200  	-0.008615 
1834.304016  	-0.009128 
1836.232832  	-0.008713 
1838.161648  	-0.008477 
1840.090464  	-0.009073 
1842.019280  	-0.007906 
1843.948096  	-0.006509 
1845.876912  	-0.007188 
1847.805728  	-0.008259 
1849.734544  	-0.009407 
1851.663360  	-0.009992 
1853.592176  	-0.009646 
1855.520992  	-0.009722 
1857.449808  	-0.009560 
1859.378624  	-0.009629 
1861.307440  	-0.009628 
1863.236256  	-0.010006 
1865.165072  	-0.009478 
1867.093888  	-0.007738 
1869.022704  	-0.006450 
1870.951520  	-0.008455 
1872.880336  	-0.009865 
1874.809152  	-0.010208 
1876.737968  	-0.010281 
1878.666784  	-0.010534 
1880.595600  	-0.010712 
1882.524416  	-0.010556 
1884.453232  	-0.010080 
1886.382048  	-0.010290 
1888.310864  	-0.009270 
1890.239680  	-0.008879 
1892.168496  	-0.009251 
1894.097312  	-0.008887 
1896.026128  	-0.009514 
1897.954944  	-0.010582 
1899.883760  	-0.010517 
1901.812576  	-0.010633 
1903.741392  	-0.010577 
1905.670208  	-0.010691 
1907.599024  	-0.010096 
1909.527840  	-0.009676 
1911.456656  	-0.009652 
1913.385472  	-0.009920 
1915.314288  	-0.009604 
1917.243104  	-0.009162 
1919.171920  	-0.009090 
1921.100736  	-0.009027 
1923.029552  	-0.008825 
1924.958368  	-0.010825 
1926.887184  	-0.011216 
1928.816000  	-0.011611 
1930.744816  	-0.011300 
1932.673632  	-0.010952 
1934.602448  	-0.010630 
1936.531264  	-0.010594 
1938.460080  	-0.010192 
1940.388896  	-0.009726 
1942.317712  	-0.008616 
1944.246528  	-0.009530 
1946.175344  	-0.009623 
1948.104160  	-0.010046 
1950.032976  	-0.010439 
1951.961792  	-0.010885 
1953.890608  	-0.010768 
1955.819424  	-0.011369 
1957.748240  	-0.011368 
1959.677056  	-0.010990 
1961.605872  	-0.010559 
1963.534688  	-0.011050 
1965.463504  	-0.009855 
1967.392320  	-0.009981 
1969.321136  	-0.010778 
1971.249952  	-0.011803 
1973.178768  	-0.011104 
1975.107584  	-0.010712 
1977.036400  	-0.010441 
1978.965216  	-0.010382 
1980.894032  	-0.010503 
1982.822848  	-0.010969 
1984.751664  	-0.010720 
1986.680480  	-0.009944 
1988.609296  	-0.009245 
1990.538112  	-0.008913 
1992.466928  	-0.008062 
1994.395744  	-0.010351 
1996.324560  	-0.010921 
1998.253376  	-0.010388 
2000.182192  	-0.010443 
2002.111008  	-0.010991 
2004.039824  	-0.011092 
2005.968640  	-0.011506 
2007.897456  	-0.010955 
2009.826272  	-0.010533 
2011.755088  	-0.010321 
2013.683904  	-0.010856 
2015.612720  	-0.010120 
2017.541536  	-0.009683 
2019.470352  	-0.010123 
2021.399168  	-0.012011 
2023.327984  	-0.011975 
2025.256800  	-0.010969 
2027.185616  	-0.009325 
2029.114432  	-0.009516 
2031.043248  	-0.009461 
2032.972064  	-0.009577 
2034.900880  	-0.009074 
2036.829696  	-0.008632 
2038.758512  	-0.009019 
2040.687328  	-0.009848 
2042.616144  	-0.009017 
2044.544960  	-0.009142 
2046.473776  	-0.009657 
2048.402592  	-0.009512 
2050.331408  	-0.009484 
2052.260224  	-0.009691 
2054.189040  	-0.009607 
2056.117856  	-0.010005 
2058.046672  	-0.010031 
2059.975488  	-0.010025 
2061.904304  	-0.009291 
2063.833120  	-0.008833 
2065.761936  	-0.008819 
2067.690752  	-0.009549 
2069.619568  	-0.009449 
2071.548384  	-0.009549 
2073.477200  	-0.009195 
2075.406016  	-0.008600 
2077.334832  	-0.008371 
2079.263648  	-0.008335 
2081.192464  	-0.008404 
2083.121280  	-0.009340 
2085.050096  	-0.009892 
2086.978912  	-0.010105 
2088.907728  	-0.009343 
2090.836544  	-0.008821 
2092.765360  	-0.008611 
2094.694176  	-0.008692 
2096.622992  	-0.008536 
2098.551808  	-0.008542 
2100.480624  	-0.008507 
2102.409440  	-0.008619 
2104.338256  	-0.008446 
2106.267072  	-0.008963 
2108.195888  	-0.008735 
2110.124704  	-0.008273 
2112.053520  	-0.008270 
2113.982336  	-0.008315 
2115.911152  	-0.008378 
2117.839968  	-0.008876 
2119.768784  	-0.008947 
2121.697600  	-0.008615 
2123.626416  	-0.008700 
2125.555232  	-0.009293 
2127.484048  	-0.009310 
2129.412864  	-0.008957 
2131.341680  	-0.008370 
2133.270496  	-0.008052 
2135.199312  	-0.007745 
2137.128128  	-0.007449 
2139.056944  	-0.007555 
2140.985760  	-0.008309 
2142.914576  	-0.008068 
2144.843392  	-0.008910 
2146.772208  	-0.009028 
2148.701024  	-0.008558 
2150.629840  	-0.008503 
2152.558656  	-0.008051 
2154.487472  	-0.007439 
2156.416288  	-0.007768 
2158.345104  	-0.006172 
2160.273920  	-0.004162 
2162.202736  	-0.005031 
2164.131552  	-0.006772 
2166.060368  	-0.006749 
2167.989184  	-0.007417 
2169.918000  	-0.008538 
2171.846816  	-0.007845 
2173.775632  	-0.006590 
2175.704448  	-0.007223 
2177.633264  	-0.007679 
2179.562080  	-0.008422 
2181.490896  	-0.007882 
2183.419712  	-0.007445 
2185.348528  	-0.008154 
2187.277344  	-0.008904 
2189.206160  	-0.008061 
2191.134976  	-0.008332 
2193.063792  	-0.008723 
2194.992608  	-0.008140 
2196.921424  	-0.008220 
2198.850240  	-0.009171 
2200.779056  	-0.009079 
2202.707872  	-0.008589 
2204.636688  	-0.007940 
2206.565504  	-0.008447 
2208.494320  	-0.009190 
2210.423136  	-0.009316 
2212.351952  	-0.008529 
2214.280768  	-0.008746 
2216.209584  	-0.009393 
2218.138400  	-0.010215 
2220.067216  	-0.010234 
2221.996032  	-0.010081 
2223.924848  	-0.009667 
2225.853664  	-0.009185 
2227.782480  	-0.009009 
2229.711296  	-0.010120 
2231.640112  	-0.010489 
2233.568928  	-0.010801 
2235.497744  	-0.010873 
2237.426560  	-0.010051 
2239.355376  	-0.009762 
2241.284192  	-0.010252 
2243.213008  	-0.010351 
2245.141824  	-0.010422 
2247.070640  	-0.010268 
2248.999456  	-0.010482 
2250.928272  	-0.010250 
2252.857088  	-0.010338 
2254.785904  	-0.010218 
2256.714720  	-0.009736 
2258.643536  	-0.009423 
2260.572352  	-0.009270 
2262.501168  	-0.009267 
2264.429984  	-0.009386 
2266.358800  	-0.009364 
2268.287616  	-0.009561 
2270.216432  	-0.009659 
2272.145248  	-0.009587 
2274.074064  	-0.009334 
2276.002880  	-0.009390 
2277.931696  	-0.009425 
2279.860512  	-0.009505 
2281.789328  	-0.009282 
2283.718144  	-0.009069 
2285.646960  	-0.008696 
2287.575776  	-0.008663 
2289.504592  	-0.008571 
2291.433408  	-0.008376 
2293.362224  	-0.008049 
2295.291040  	-0.008014 
2297.219856  	-0.007743 
2299.148672  	-0.007548 
2301.077488  	-0.007241 
2303.006304  	-0.006631 
2304.935120  	-0.006027 
2306.863936  	-0.005833 
2308.792752  	-0.005543 
2310.721568  	-0.005380 
2312.650384  	-0.005929 
2314.579200  	-0.006456 
2316.508016  	-0.006247 
2318.436832  	-0.006063 
2320.365648  	-0.006023 
2322.294464  	-0.006427 
2324.223280  	-0.007630 
2326.152096  	-0.009137 
2328.080912  	-0.010068 
2330.009728  	-0.010548 
2331.938544  	-0.010996 
2333.867360  	-0.011868 
2335.796176  	-0.012803 
2337.724992  	-0.013658 
2339.653808  	-0.013704 
2341.582624  	-0.013075 
2343.511440  	-0.012015 
2345.440256  	-0.010803 
2347.369072  	-0.009324 
2349.297888  	-0.008446 
2351.226704  	-0.009317 
2353.155520  	-0.011385 
2355.084336  	-0.012714 
2357.013152  	-0.013394 
2358.941968  	-0.013928 
2360.870784  	-0.014735 
2362.799600  	-0.014431 
2364.728416  	-0.013702 
2366.657232  	-0.012825 
2368.586048  	-0.011521 
2370.514864  	-0.010438 
2372.443680  	-0.009454 
2374.372496  	-0.007943 
2376.301312  	-0.007115 
2378.230128  	-0.006913 
2380.158944  	-0.007112 
2382.087760  	-0.007636 
2384.016576  	-0.008487 
2385.945392  	-0.009256 
2387.874208  	-0.009763 
2389.803024  	-0.010186 
2391.731840  	-0.010467 
2393.660656  	-0.010481 
2395.589472  	-0.010443 
2397.518288  	-0.010448 
2399.447104  	-0.010477 
2401.375920  	-0.010477 
2403.304736  	-0.010684 
2405.233552  	-0.010702 
2407.162368  	-0.010742 
2409.091184  	-0.010836 
2411.020000  	-0.010944 
2412.948816  	-0.010912 
2414.877632  	-0.010860 
2416.806448  	-0.010814 
2418.735264  	-0.010811 
2420.664080  	-0.010683 
2422.592896  	-0.010630 
2424.521712  	-0.010601 
2426.450528  	-0.010653 
2428.379344  	-0.010641 
2430.308160  	-0.010549 
2432.236976  	-0.010513 
2434.165792  	-0.010299 
2436.094608  	-0.010137 
2438.023424  	-0.010123 
2439.952240  	-0.010124 
2441.881056  	-0.010134 
2443.809872  	-0.010147 
2445.738688  	-0.010317 
2447.667504  	-0.010240 
2449.596320  	-0.009848 
2451.525136  	-0.009623 
2453.453952  	-0.009836 
2455.382768  	-0.010007 
2457.311584  	-0.010085 
2459.240400  	-0.010181 
2461.169216  	-0.010173 
2463.098032  	-0.009965 
2465.026848  	-0.009915 
2466.955664  	-0.010080 
2468.884480  	-0.010264 
2470.813296  	-0.010336 
2472.742112  	-0.010284 
2474.670928  	-0.010046 
2476.599744  	-0.009750 
2478.528560  	-0.009544 
2480.457376  	-0.009442 
2482.386192  	-0.009264 
2484.315008  	-0.009395 
2486.243824  	-0.009389 
2488.172640  	-0.009211 
2490.101456  	-0.009026 
2492.030272  	-0.009038 
2493.959088  	-0.009242 
2495.887904  	-0.009319 
2497.816720  	-0.008982 
2499.745536  	-0.008963 
2501.674352  	-0.009176 
2503.603168  	-0.009047 
2505.531984  	-0.008958 
2507.460800  	-0.009122 
2509.389616  	-0.009234 
2511.318432  	-0.009233 
2513.247248  	-0.009129 
2515.176064  	-0.009065 
2517.104880  	-0.009100 
2519.033696  	-0.009316 
2520.962512  	-0.009022 
2522.891328  	-0.008742 
2524.820144  	-0.008553 
2526.748960  	-0.008618 
2528.677776  	-0.008643 
2530.606592  	-0.008615 
2532.535408  	-0.008470 
2534.464224  	-0.008473 
2536.393040  	-0.008700 
2538.321856  	-0.008804 
2540.250672  	-0.008674 
2542.179488  	-0.008499 
2544.108304  	-0.008442 
2546.037120  	-0.008373 
2547.965936  	-0.008007 
2549.894752  	-0.007876 
2551.823568  	-0.007801 
2553.752384  	-0.007780 
2555.681200  	-0.007770 
2557.610016  	-0.007753 
2559.538832  	-0.007901 
2561.467648  	-0.007829 
2563.396464  	-0.007514 
2565.325280  	-0.007470 
2567.254096  	-0.007704 
2569.182912  	-0.007760 
2571.111728  	-0.007600 
2573.040544  	-0.007530 
2574.969360  	-0.007557 
2576.898176  	-0.007580 
2578.826992  	-0.007573 
2580.755808  	-0.007569 
2582.684624  	-0.007403 
2584.613440  	-0.007380 
2586.542256  	-0.007249 
2588.471072  	-0.007285 
2590.399888  	-0.007311 
2592.328704  	-0.007081 
2594.257520  	-0.006832 
2596.186336  	-0.006939 
2598.115152  	-0.006966 
2600.043968  	-0.006768 
2601.972784  	-0.006594 
2603.901600  	-0.006532 
2605.830416  	-0.006655 
2607.759232  	-0.006701 
2609.688048  	-0.006587 
2611.616864  	-0.006407 
2613.545680  	-0.006281 
2615.474496  	-0.006205 
2617.403312  	-0.006119 
2619.332128  	-0.006083 
2621.260944  	-0.005964 
2623.189760  	-0.005856 
2625.118576  	-0.005676 
2627.047392  	-0.005641 
2628.976208  	-0.005570 
2630.905024  	-0.005519 
2632.833840  	-0.005555 
2634.762656  	-0.005568 
2636.691472  	-0.005450 
2638.620288  	-0.005354 
2640.549104  	-0.005281 
2642.477920  	-0.005114 
2644.406736  	-0.004991 
2646.335552  	-0.004982 
2648.264368  	-0.004933 
2650.193184  	-0.004866 
2652.122000  	-0.004767 
2654.050816  	-0.004656 
2655.979632  	-0.004605 
2657.908448  	-0.004521 
2659.837264  	-0.004401 
2661.766080  	-0.004290 
2663.694896  	-0.004201 
2665.623712  	-0.004114 
2667.552528  	-0.004035 
2669.481344  	-0.004019 
2671.410160  	-0.004037 
2673.338976  	-0.003932 
2675.267792  	-0.003760 
2677.196608  	-0.003583 
2679.125424  	-0.003485 
2681.054240  	-0.003449 
2682.983056  	-0.003321 
2684.911872  	-0.003260 
2686.840688  	-0.003231 
2688.769504  	-0.003150 
2690.698320  	-0.003079 
2692.627136  	-0.003044 
2694.555952  	-0.002981 
2696.484768  	-0.002850 
2698.413584  	-0.002766 
2700.342400  	-0.002842 
2702.271216  	-0.002755 
2704.200032  	-0.002538 
2706.128848  	-0.002426 
2708.057664  	-0.002376 
2709.986480  	-0.002317 
2711.915296  	-0.002237 
2713.844112  	-0.002138 
2715.772928  	-0.002037 
2717.701744  	-0.001949 
2719.630560  	-0.001822 
2721.559376  	-0.001761 
2723.488192  	-0.001747 
2725.417008  	-0.001591 
2727.345824  	-0.001348 
2729.274640  	-0.001135 
2731.203456  	-0.001132 
2733.132272  	-0.001149 
2735.061088  	-0.001106 
2736.989904  	-0.001104 
2738.918720  	-0.000935 
2740.847536  	-0.000752 
2742.776352  	-0.000641 
2744.705168  	-0.000526 
2746.633984  	-0.000469 
2748.562800  	-0.000429 
2750.491616  	-0.000412 
2752.420432  	-0.000345 
2754.349248  	-0.000375 
2756.278064  	-0.000389 
2758.206880  	-0.000511 
2760.135696  	-0.000578 
2762.064512  	-0.000484 
2763.993328  	-0.000405 
2765.922144  	-0.000391 
2767.850960  	-0.000382 
2769.779776  	-0.000448 
2771.708592  	-0.000438 
2773.637408  	-0.000364 
2775.566224  	-0.000366 
2777.495040  	-0.000421 
2779.423856  	-0.000383 
2781.352672  	-0.000214 
2783.281488  	-0.000086 
2785.210304  	-0.000135 
2787.139120  	-0.000160 
2789.067936  	-0.000144 
2790.996752  	-0.000068 
2792.925568  	-0.000035 
2794.854384  	-0.000007 
2796.783200  	0.000089 
2798.712016  	0.000072 
2800.640832  	0.000039 
2802.569648  	0.000138 
2804.498464  	0.000221 
2806.427280  	0.000290 
2808.356096  	0.000393 
2810.284912  	0.000331 
2812.213728  	0.000254 
2814.142544  	0.000287 
2816.071360  	0.000303 
2818.000176  	0.000328 
2819.928992  	0.000320 
2821.857808  	0.000311 
2823.786624  	0.000264 
2825.715440  	0.000287 
2827.644256  	0.000283 
2829.573072  	0.000220 
2831.501888  	0.000189 
2833.430704  	0.000216 
2835.359520  	0.000202 
2837.288336  	0.000064 
2839.217152  	-0.000095 
2841.145968  	-0.000162 
2843.074784  	-0.000184 
2845.003600  	-0.000158 
2846.932416  	-0.000207 
2848.861232  	-0.000149 
2850.790048  	-0.000133 
2852.718864  	-0.000167 
2854.647680  	-0.000224 
2856.576496  	-0.000212 
2858.505312  	-0.000264 
2860.434128  	-0.000271 
2862.362944  	-0.000286 
2864.291760  	-0.000303 
2866.220576  	-0.000239 
2868.149392  	-0.000146 
2870.078208  	-0.000069 
2872.007024  	0.000060 
2873.935840  	0.000154 
2875.864656  	0.000258 
2877.793472  	0.000534 
2879.722288  	0.000977 
2881.651104  	0.001200 
2883.579920  	0.001352 
2885.508736  	0.001533 
2887.437552  	0.001700 
2889.366368  	0.001689 
2891.295184  	0.001735 
2893.224000  	0.001839 
2895.152816  	0.001917 
2897.081632  	0.001855 
2899.010448  	0.001519 
2900.939264  	0.001309 
2902.868080  	0.001617 
2904.796896  	0.001900 
2906.725712  	0.001939 
2908.654528  	0.002008 
2910.583344  	0.002286 
2912.512160  	0.002662 
2914.440976  	0.003077 
2916.369792  	0.003483 
2918.298608  	0.003707 
2920.227424  	0.003992 
2922.156240  	0.004315 
2924.085056  	0.004615 
2926.013872  	0.004947 
2927.942688  	0.005529 
2929.871504  	0.006154 
2931.800320  	0.006480 
2933.729136  	0.006995 
2935.657952  	0.007534 
2937.586768  	0.007793 
2939.515584  	0.008055 
2941.444400  	0.008196 
2943.373216  	0.008356 
2945.302032  	0.008676 
2947.230848  	0.008884 
2949.159664  	0.008783 
2951.088480  	0.008586 
2953.017296  	0.008493 
2954.946112  	0.008445 
2956.874928  	0.008381 
2958.803744  	0.008176 
2960.732560  	0.008048 
2962.661376  	0.007970 
2964.590192  	0.007806 
2966.519008  	0.007490 
2968.447824  	0.007180 
2970.376640  	0.007012 
2972.305456  	0.006860 
2974.234272  	0.006920 
2976.163088  	0.006957 
2978.091904  	0.006908 
2980.020720  	0.006877 
2981.949536  	0.006816 
2983.878352  	0.006675 
2985.807168  	0.006417 
2987.735984  	0.006390 
2989.664800  	0.006459 
2991.593616  	0.006949 
2993.522432  	0.007410 
2995.451248  	0.007595 
2997.380064  	0.007819 
2999.308880  	0.008279 
3001.237696  	0.008682 
3003.166512  	0.009030 
3005.095328  	0.009367 
3007.024144  	0.009773 
3008.952960  	0.010196 
3010.881776  	0.010750 
3012.810592  	0.011338 
3014.739408  	0.011658 
3016.668224  	0.011956 
3018.597040  	0.012345 
3020.525856  	0.012717 
3022.454672  	0.013060 
3024.383488  	0.013462 
3026.312304  	0.013897 
3028.241120  	0.014145 
3030.169936  	0.014712 
3032.098752  	0.015390 
3034.027568  	0.015510 
3035.956384  	0.015782 
3037.885200  	0.016079 
3039.814016  	0.016444 
3041.742832  	0.016801 
3043.671648  	0.017156 
3045.600464  	0.017446 
3047.529280  	0.017814 
3049.458096  	0.018227 
3051.386912  	0.018421 
3053.315728  	0.018665 
3055.244544  	0.019150 
3057.173360  	0.019670 
3059.102176  	0.020112 
3061.030992  	0.020529 
3062.959808  	0.020921 
3064.888624  	0.021568 
3066.817440  	0.022095 
3068.746256  	0.022435 
3070.675072  	0.022811 
3072.603888  	0.023311 
3074.532704  	0.023828 
3076.461520  	0.024255 
3078.390336  	0.024792 
3080.319152  	0.025428 
3082.247968  	0.025844 
3084.176784  	0.026281 
3086.105600  	0.026805 
3088.034416  	0.027233 
3089.963232  	0.027380 
3091.892048  	0.027571 
3093.820864  	0.028028 
3095.749680  	0.028936 
3097.678496  	0.029699 
3099.607312  	0.030189 
3101.536128  	0.030828 
3103.464944  	0.031219 
3105.393760  	0.031388 
3107.322576  	0.031831 
3109.251392  	0.032466 
3111.180208  	0.032832 
3113.109024  	0.032909 
3115.037840  	0.033347 
3116.966656  	0.034155 
3118.895472  	0.034710 
3120.824288  	0.034918 
3122.753104  	0.035210 
3124.681920  	0.035371 
3126.610736  	0.035607 
3128.539552  	0.035928 
3130.468368  	0.036226 
3132.397184  	0.036877 
3134.326000  	0.037248 
3136.254816  	0.037372 
3138.183632  	0.037684 
3140.112448  	0.037948 
3142.041264  	0.038354 
3143.970080  	0.038804 
3145.898896  	0.039136 
3147.827712  	0.039404 
3149.756528  	0.039766 
3151.685344  	0.040019 
3153.614160  	0.040277 
3155.542976  	0.040632 
3157.471792  	0.041025 
3159.400608  	0.041328 
3161.329424  	0.041675 
3163.258240  	0.042031 
3165.187056  	0.042284 
3167.115872  	0.042456 
3169.044688  	0.042679 
3170.973504  	0.043022 
3172.902320  	0.043190 
3174.831136  	0.043255 
3176.759952  	0.043520 
3178.688768  	0.043922 
3180.617584  	0.043971 
3182.546400  	0.044001 
3184.475216  	0.044160 
3186.404032  	0.044368 
3188.332848  	0.044353 
3190.261664  	0.044397 
3192.190480  	0.044507 
3194.119296  	0.044670 
3196.048112  	0.044633 
3197.976928  	0.044924 
3199.905744  	0.045011 
3201.834560  	0.044695 
3203.763376  	0.044576 
3205.692192  	0.044511 
3207.621008  	0.044510 
3209.549824  	0.044736 
3211.478640  	0.044651 
3213.407456  	0.044500 
3215.336272  	0.044595 
3217.265088  	0.044490 
3219.193904  	0.044530 
3221.122720  	0.044470 
3223.051536  	0.043938 
3224.980352  	0.043698 
3226.909168  	0.043831 
3228.837984  	0.043683 
3230.766800  	0.043400 
3232.695616  	0.043571 
3234.624432  	0.043506 
3236.553248  	0.043390 
3238.482064  	0.043472 
3240.410880  	0.043265 
3242.339696  	0.043030 
3244.268512  	0.043267 
3246.197328  	0.043485 
3248.126144  	0.043192 
3250.054960  	0.043354 
3251.983776  	0.043471 
3253.912592  	0.043777 
3255.841408  	0.043989 
3257.770224  	0.043963 
3259.699040  	0.043991 
3261.627856  	0.044106 
3263.556672  	0.044105 
3265.485488  	0.044189 
3267.414304  	0.044211 
3269.343120  	0.044347 
3271.271936  	0.044470 
3273.200752  	0.044787 
3275.129568  	0.044896 
3277.058384  	0.044857 
3278.987200  	0.044720 
3280.916016  	0.044763 
3282.844832  	0.044901 
3284.773648  	0.044948 
3286.702464  	0.044993 
3288.631280  	0.045212 
3290.560096  	0.045244 
3292.488912  	0.045420 
3294.417728  	0.045410 
3296.346544  	0.045543 
3298.275360  	0.045823 
3300.204176  	0.045706 
3302.132992  	0.045522 
3304.061808  	0.045827 
3305.990624  	0.046082 
3307.919440  	0.046366 
3309.848256  	0.046680 
3311.777072  	0.046748 
3313.705888  	0.046857 
3315.634704  	0.046981 
3317.563520  	0.047051 
3319.492336  	0.047068 
3321.421152  	0.047201 
3323.349968  	0.047328 
3325.278784  	0.047379 
3327.207600  	0.047500 
3329.136416  	0.047333 
3331.065232  	0.047231 
3332.994048  	0.047348 
3334.922864  	0.047737 
3336.851680  	0.047957 
3338.780496  	0.047610 
3340.709312  	0.047162 
3342.638128  	0.047201 
3344.566944  	0.047019 
3346.495760  	0.046695 
3348.424576  	0.046577 
3350.353392  	0.046464 
3352.282208  	0.046144 
3354.211024  	0.046016 
3356.139840  	0.045975 
3358.068656  	0.045726 
3359.997472  	0.045512 
3361.926288  	0.045354 
3363.855104  	0.044892 
3365.783920  	0.044799 
3367.712736  	0.044661 
3369.641552  	0.044253 
3371.570368  	0.043860 
3373.499184  	0.043888 
3375.428000  	0.043782 
3377.356816  	0.043515 
3379.285632  	0.043276 
3381.214448  	0.042859 
3383.143264  	0.042706 
3385.072080  	0.042762 
3387.000896  	0.042339 
3388.929712  	0.041834 
3390.858528  	0.041643 
3392.787344  	0.042101 
3394.716160  	0.041743 
3396.644976  	0.041420 
3398.573792  	0.041144 
3400.502608  	0.040342 
3402.431424  	0.039911 
3404.360240  	0.039656 
3406.289056  	0.039338 
3408.217872  	0.039043 
3410.146688  	0.038756 
3412.075504  	0.038408 
3414.004320  	0.038021 
3415.933136  	0.037817 
3417.861952  	0.037533 
3419.790768  	0.037750 
3421.719584  	0.037891 
3423.648400  	0.037228 
3425.577216  	0.036471 
3427.506032  	0.036054 
3429.434848  	0.035687 
3431.363664  	0.035525 
3433.292480  	0.035237 
3435.221296  	0.034979 
3437.150112  	0.034562 
3439.078928  	0.034031 
3441.007744  	0.033667 
3442.936560  	0.033760 
3444.865376  	0.033288 
3446.794192  	0.033870 
3448.723008  	0.033631 
3450.651824  	0.032021 
3452.580640  	0.031466 
3454.509456  	0.030983 
3456.438272  	0.030607 
3458.367088  	0.030306 
3460.295904  	0.029995 
3462.224720  	0.029873 
3464.153536  	0.029338 
3466.082352  	0.028550 
3468.011168  	0.028088 
3469.939984  	0.027530 
3471.868800  	0.026881 
3473.797616  	0.026317 
3475.726432  	0.025962 
3477.655248  	0.025217 
3479.584064  	0.025087 
3481.512880  	0.025614 
3483.441696  	0.025107 
3485.370512  	0.023871 
3487.299328  	0.023512 
3489.228144  	0.022974 
3491.156960  	0.022108 
3493.085776  	0.021752 
3495.014592  	0.021842 
3496.943408  	0.021511 
3498.872224  	0.020459 
3500.801040  	0.020610 
3502.729856  	0.021795 
3504.658672  	0.021299 
3506.587488  	0.019277 
3508.516304  	0.019172 
3510.445120  	0.019498 
3512.373936  	0.018328 
3514.302752  	0.017305 
3516.231568  	0.016726 
3518.160384  	0.016491 
3520.089200  	0.015902 
3522.018016  	0.016204 
3523.946832  	0.017547 
3525.875648  	0.017127 
3527.804464  	0.016659 
3529.733280  	0.015854 
3531.662096  	0.014370 
3533.590912  	0.013141 
3535.519728  	0.013388 
3537.448544  	0.013305 
3539.377360  	0.011882 
3541.306176  	0.011282 
3543.234992  	0.012279 
3545.163808  	0.014381 
3547.092624  	0.014190 
3549.021440  	0.011378 
3550.950256  	0.010420 
3552.879072  	0.011265 
3554.807888  	0.009851 
3556.736704  	0.008285 
3558.665520  	0.008419 
3560.594336  	0.008944 
3562.523152  	0.008779 
3564.451968  	0.009911 
3566.380784  	0.013835 
3568.309600  	0.013830 
3570.238416  	0.008542 
3572.167232  	0.005648 
3574.096048  	0.005144 
3576.024864  	0.004848 
3577.953680  	0.004347 
3579.882496  	0.004210 
3581.811312  	0.003634 
3583.740128  	0.003338 
3585.668944  	0.004949 
3587.597760  	0.008175 
3589.526576  	0.005221 
3591.455392  	0.001674 
3593.384208  	0.002234 
3595.313024  	0.003238 
3597.241840  	0.001865 
3599.170656  	0.000504 
3601.099472  	0.000111 
3603.028288  	-0.001201 
3604.957104  	-0.002118 
3606.885920  	-0.000701 
3608.814736  	0.000426 
3610.743552  	-0.001001 
3612.672368  	-0.000710 
3614.601184  	-0.000791 
3616.530000  	-0.002257 
3618.458816  	-0.001586 
3620.387632  	-0.002473 
3622.316448  	-0.005682 
3624.245264  	-0.007112 
3626.174080  	-0.006306 
3628.102896  	-0.003684 
3630.031712  	-0.003180 
3631.960528  	-0.007192 
3633.889344  	-0.008591 
3635.818160  	-0.009810 
3637.746976  	-0.010803 
3639.675792  	-0.011190 
3641.604608  	-0.011214 
3643.533424  	-0.011479 
3645.462240  	-0.010739 
3647.391056  	-0.006719 
3649.319872  	-0.005009 
3651.248688  	-0.008903 
3653.177504  	-0.013181 
3655.106320  	-0.014045 
3657.035136  	-0.013958 
3658.963952  	-0.015493 
3660.892768  	-0.016426 
3662.821584  	-0.017141 
3664.750400  	-0.017348 
3666.679216  	-0.016523 
3668.608032  	-0.014280 
3670.536848  	-0.012725 
3672.465664  	-0.014298 
3674.394480  	-0.013453 
3676.323296  	-0.012796 
3678.252112  	-0.015243 
3680.180928  	-0.016944 
3682.109744  	-0.018271 
3684.038560  	-0.018267 
3685.967376  	-0.017788 
3687.896192  	-0.015923 
3689.825008  	-0.014445 
3691.753824  	-0.016183 
3693.682640  	-0.018021 
3695.611456  	-0.018627 
3697.540272  	-0.018780 
3699.469088  	-0.018800 
3701.397904  	-0.017896 
3703.326720  	-0.018235 
3705.255536  	-0.018602 
3707.184352  	-0.017779 
3709.113168  	-0.016067 
3711.041984  	-0.013931 
3712.970800  	-0.015222 
3714.899616  	-0.017330 
3716.828432  	-0.018189 
3718.757248  	-0.017474 
3720.686064  	-0.016595 
3722.614880  	-0.015746 
3724.543696  	-0.015481 
3726.472512  	-0.015420 
3728.401328  	-0.017176 
3730.330144  	-0.017970 
3732.258960  	-0.016140 
3734.187776  	-0.012150 
3736.116592  	-0.010512 
3738.045408  	-0.013920 
3739.974224  	-0.015148 
3741.903040  	-0.015072 
3743.831856  	-0.014646 
3745.760672  	-0.014025 
3747.689488  	-0.014311 
3749.618304  	-0.012737 
3751.547120  	-0.012102 
3753.475936  	-0.015008 
3755.404752  	-0.016728 
3757.333568  	-0.016381 
3759.262384  	-0.016192 
3761.191200  	-0.017785 
3763.120016  	-0.018634 
3765.048832  	-0.017631 
3766.977648  	-0.017429 
3768.906464  	-0.017389 
3770.835280  	-0.017711 
3772.764096  	-0.019139 
3774.692912  	-0.019807 
3776.621728  	-0.019541 
3778.550544  	-0.018394 
3780.479360  	-0.018277 
3782.408176  	-0.018813 
3784.336992  	-0.018164 
3786.265808  	-0.018345 
3788.194624  	-0.019348 
3790.123440  	-0.019736 
3792.052256  	-0.019922 
3793.981072  	-0.019634 
3795.909888  	-0.017822 
3797.838704  	-0.016445 
3799.767520  	-0.016127 
3801.696336  	-0.014880 
3803.625152  	-0.016723 
3805.553968  	-0.017986 
3807.482784  	-0.017988 
3809.411600  	-0.018951 
3811.340416  	-0.019353 
3813.269232  	-0.019021 
3815.198048  	-0.017292 
3817.126864  	-0.016092 
3819.055680  	-0.016036 
3820.984496  	-0.015035 
3822.913312  	-0.016676 
3824.842128  	-0.017905 
3826.770944  	-0.017861 
3828.699760  	-0.018390 
3830.628576  	-0.018304 
3832.557392  	-0.017689 
3834.486208  	-0.017438 
3836.415024  	-0.016490 
3838.343840  	-0.014825 
3840.272656  	-0.014604 
3842.201472  	-0.016068 
3844.130288  	-0.017023 
3846.059104  	-0.018517 
3847.987920  	-0.018691 
3849.916736  	-0.017248 
3851.845552  	-0.014638 
3853.774368  	-0.012889 
3855.703184  	-0.015165 
3857.632000  	-0.016750 
3859.560816  	-0.017966 
3861.489632  	-0.017189 
3863.418448  	-0.015738 
3865.347264  	-0.015512 
3867.276080  	-0.016713 
3869.204896  	-0.015083 
3871.133712  	-0.014331 
3873.062528  	-0.016039 
3874.991344  	-0.017368 
3876.920160  	-0.019054 
3878.848976  	-0.018000 
3880.777792  	-0.015703 
3882.706608  	-0.016136 
3884.635424  	-0.016275 
3886.564240  	-0.017209 
3888.493056  	-0.019075 
3890.421872  	-0.018055 
3892.350688  	-0.016980 
3894.279504  	-0.018289 
3896.208320  	-0.018843 
3898.137136  	-0.017311 
3900.065952  	-0.015102 
3901.994768  	-0.014405 
3903.923584  	-0.014665 
3905.852400  	-0.016627 
3907.781216  	-0.019189 
3909.710032  	-0.020442 
3911.638848  	-0.020663 
3913.567664  	-0.020258 
3915.496480  	-0.018571 
3917.425296  	-0.017240 
3919.354112  	-0.017960 
3921.282928  	-0.018402 
3923.211744  	-0.017748 
3925.140560  	-0.017468 
3927.069376  	-0.018910 
3928.998192  	-0.018500 
3930.927008  	-0.017110 
3932.855824  	-0.017093 
3934.784640  	-0.018856 
3936.713456  	-0.019903 
3938.642272  	-0.020001 
3940.571088  	-0.019464 
3942.499904  	-0.017806 
3944.428720  	-0.018212 
3946.357536  	-0.018968 
3948.286352  	-0.017941 
3950.215168  	-0.018530 
3952.143984  	-0.019851 
3954.072800  	-0.020314 
3956.001616  	-0.020055 
3957.930432  	-0.019811 
3959.859248  	-0.019534 
3961.788064  	-0.019295 
3963.716880  	-0.019894 
3965.645696  	-0.020581 
3967.574512  	-0.020619 
3969.503328  	-0.020399 
3971.432144  	-0.020082 
3973.360960  	-0.019668 
3975.289776  	-0.019370 
3977.218592  	-0.019775 
3979.147408  	-0.020261 
3981.076224  	-0.020274 
3983.005040  	-0.020424 
3984.933856  	-0.020316 
3986.862672  	-0.020006 
3988.791488  	-0.019945 
3990.720304  	-0.019735 
3992.649120  	-0.020015 
3994.577936  	-0.020145 
3996.506752  	-0.020382 
3998.435568  	-0.020650 
4000.364384  	-0.020588 