##TITLE=No Description
##DATA TYPE=INFRARED SPECTRUM
##XUNITS=1/CM
##YUNITS=Abs
399.264912  	0.535029 
401.193728  	0.516972 
403.122544  	0.505147 
405.051360  	0.487532 
406.980176  	0.488745 
408.908992  	0.485543 
410.837808  	0.493171 
412.766624  	0.487971 
414.695440  	0.482303 
416.624256  	0.478368 
418.553072  	0.480854 
420.481888  	0.473203 
422.410704  	0.471854 
424.339520  	0.459797 
426.268336  	0.455282 
428.197152  	0.456855 
430.125968  	0.459671 
432.054784  	0.450811 
433.983600  	0.445287 
435.912416  	0.442892 
437.841232  	0.440604 
439.770048  	0.437374 
441.698864  	0.438134 
443.627680  	0.433661 
445.556496  	0.433686 
447.485312  	0.431837 
449.414128  	0.432667 
451.342944  	0.430825 
453.271760  	0.430628 
455.200576  	0.430651 
457.129392  	0.433685 
459.058208  	0.427507 
460.987024  	0.427384 
462.915840  	0.423134 
464.844656  	0.422574 
466.773472  	0.426562 
468.702288  	0.424612 
470.631104  	0.421008 
472.559920  	0.426639 
474.488736  	0.419567 
476.417552  	0.413491 
478.346368  	0.408738 
480.275184  	0.410268 
482.204000  	0.413097 
484.132816  	0.413637 
486.061632  	0.409781 
487.990448  	0.409454 
489.919264  	0.411148 
491.848080  	0.413009 
493.776896  	0.412203 
495.705712  	0.410580 
497.634528  	0.406772 
499.563344  	0.405564 
501.492160  	0.402614 
503.420976  	0.401228 
505.349792  	0.398390 
507.278608  	0.401903 
509.207424  	0.401168 
511.136240  	0.401506 
513.065056  	0.403248 
514.993872  	0.404746 
516.922688  	0.403059 
518.851504  	0.406018 
520.780320  	0.405487 
522.709136  	0.403360 
524.637952  	0.401685 
526.566768  	0.401677 
528.495584  	0.397753 
530.424400  	0.396319 
532.353216  	0.393299 
534.282032  	0.387765 
536.210848  	0.382630 
538.139664  	0.379179 
540.068480  	0.376289 
541.997296  	0.374750 
543.926112  	0.372671 
545.854928  	0.371619 
547.783744  	0.368397 
549.712560  	0.367143 
551.641376  	0.363995 
553.570192  	0.360801 
555.499008  	0.356913 
557.427824  	0.354713 
559.356640  	0.352235 
561.285456  	0.350766 
563.214272  	0.348618 
565.143088  	0.346197 
567.071904  	0.343015 
569.000720  	0.341285 
570.929536  	0.339380 
572.858352  	0.337233 
574.787168  	0.334757 
576.715984  	0.332544 
578.644800  	0.329197 
580.573616  	0.326603 
582.502432  	0.322767 
584.431248  	0.319385 
586.360064  	0.316348 
588.288880  	0.315037 
590.217696  	0.313205 
592.146512  	0.312466 
594.075328  	0.310714 
596.004144  	0.309272 
597.932960  	0.306652 
599.861776  	0.305450 
601.790592  	0.304169 
603.719408  	0.302843 
605.648224  	0.300859 
607.577040  	0.299078 
609.505856  	0.297787 
611.434672  	0.297113 
613.363488  	0.295499 
615.292304  	0.294491 
617.221120  	0.293041 
619.149936  	0.291788 
621.078752  	0.290369 
623.007568  	0.289409 
624.936384  	0.288063 
626.865200  	0.286562 
628.794016  	0.285308 
630.722832  	0.284638 
632.651648  	0.284287 
634.580464  	0.284168 
636.509280  	0.283642 
638.438096  	0.282863 
640.366912  	0.281932 
642.295728  	0.280749 
644.224544  	0.278770 
646.153360  	0.276818 
648.082176  	0.273918 
650.010992  	0.271237 
651.939808  	0.268865 
653.868624  	0.266512 
655.797440  	0.263116 
657.726256  	0.260400 
659.655072  	0.257780 
661.583888  	0.254331 
663.512704  	0.250814 
665.441520  	0.247564 
667.370336  	0.245076 
669.299152  	0.243859 
671.227968  	0.240087 
673.156784  	0.236722 
675.085600  	0.234002 
677.014416  	0.231849 
678.943232  	0.230007 
680.872048  	0.228566 
682.800864  	0.227187 
684.729680  	0.225957 
686.658496  	0.224327 
688.587312  	0.223527 
690.516128  	0.222183 
692.444944  	0.220990 
694.373760  	0.219264 
696.302576  	0.217869 
698.231392  	0.215706 
700.160208  	0.213612 
702.089024  	0.211876 
704.017840  	0.209956 
705.946656  	0.207827 
707.875472  	0.205699 
709.804288  	0.203761 
711.733104  	0.202188 
713.661920  	0.200835 
715.590736  	0.199627 
717.519552  	0.198910 
719.448368  	0.199013 
721.377184  	0.198876 
723.306000  	0.198816 
725.234816  	0.198521 
727.163632  	0.197599 
729.092448  	0.195736 
731.021264  	0.193343 
732.950080  	0.190399 
734.878896  	0.188017 
736.807712  	0.185747 
738.736528  	0.183806 
740.665344  	0.182423 
742.594160  	0.181284 
744.522976  	0.179847 
746.451792  	0.178365 
748.380608  	0.176778 
750.309424  	0.175445 
752.238240  	0.174208 
754.167056  	0.173268 
756.095872  	0.172577 
758.024688  	0.171542 
759.953504  	0.170437 
761.882320  	0.170644 
763.811136  	0.171126 
765.739952  	0.169765 
767.668768  	0.167215 
769.597584  	0.164993 
771.526400  	0.164114 
773.455216  	0.164665 
775.384032  	0.166620 
777.312848  	0.169692 
779.241664  	0.171930 
781.170480  	0.171151 
783.099296  	0.167322 
785.028112  	0.162908 
786.956928  	0.158895 
788.885744  	0.155564 
790.814560  	0.152724 
792.743376  	0.151073 
794.672192  	0.150700 
796.601008  	0.149796 
798.529824  	0.147088 
800.458640  	0.143421 
802.387456  	0.140772 
804.316272  	0.139386 
806.245088  	0.138202 
808.173904  	0.136787 
810.102720  	0.136053 
812.031536  	0.135694 
813.960352  	0.135087 
815.889168  	0.134827 
817.817984  	0.134794 
819.746800  	0.135128 
821.675616  	0.135180 
823.604432  	0.134937 
825.533248  	0.134848 
827.462064  	0.134690 
829.390880  	0.134124 
831.319696  	0.133821 
833.248512  	0.133066 
835.177328  	0.131520 
837.106144  	0.129210 
839.034960  	0.126755 
840.963776  	0.123864 
842.892592  	0.120774 
844.821408  	0.117946 
846.750224  	0.115522 
848.679040  	0.113273 
850.607856  	0.111394 
852.536672  	0.110031 
854.465488  	0.108912 
856.394304  	0.107851 
858.323120  	0.106556 
860.251936  	0.105329 
862.180752  	0.104000 
864.109568  	0.102111 
866.038384  	0.100341 
867.967200  	0.098612 
869.896016  	0.097078 
871.824832  	0.096027 
873.753648  	0.095844 
875.682464  	0.095840 
877.611280  	0.096350 
879.540096  	0.097576 
881.468912  	0.099318 
883.397728  	0.100732 
885.326544  	0.101653 
887.255360  	0.102432 
889.184176  	0.102587 
891.112992  	0.102022 
893.041808  	0.100877 
894.970624  	0.098927 
896.899440  	0.096094 
898.828256  	0.092749 
900.757072  	0.089580 
902.685888  	0.086898 
904.614704  	0.085080 
906.543520  	0.084385 
908.472336  	0.085012 
910.401152  	0.086263 
912.329968  	0.087878 
914.258784  	0.089530 
916.187600  	0.091279 
918.116416  	0.092778 
920.045232  	0.093660 
921.974048  	0.094138 
923.902864  	0.094568 
925.831680  	0.095025 
927.760496  	0.095386 
929.689312  	0.095737 
931.618128  	0.096440 
933.546944  	0.096914 
935.475760  	0.096944 
937.404576  	0.096640 
939.333392  	0.096072 
941.262208  	0.095675 
943.191024  	0.096116 
945.119840  	0.097840 
947.048656  	0.101080 
948.977472  	0.105910 
950.906288  	0.112039 
952.835104  	0.119538 
954.763920  	0.128171 
956.692736  	0.136907 
958.621552  	0.145134 
960.550368  	0.151441 
962.479184  	0.155272 
964.408000  	0.156107 
966.336816  	0.153945 
968.265632  	0.148586 
970.194448  	0.140901 
972.123264  	0.131442 
974.052080  	0.121220 
975.980896  	0.111052 
977.909712  	0.101268 
979.838528  	0.092495 
981.767344  	0.085267 
983.696160  	0.079778 
985.624976  	0.076050 
987.553792  	0.074338 
989.482608  	0.074604 
991.411424  	0.076772 
993.340240  	0.080456 
995.269056  	0.084674 
997.197872  	0.089300 
999.126688  	0.094146 
1001.055504  	0.099096 
1002.984320  	0.103755 
1004.913136  	0.108670 
1006.841952  	0.113360 
1008.770768  	0.117583 
1010.699584  	0.121151 
1012.628400  	0.123999 
1014.557216  	0.125964 
1016.486032  	0.127013 
1018.414848  	0.127618 
1020.343664  	0.127774 
1022.272480  	0.127522 
1024.201296  	0.127077 
1026.130112  	0.126489 
1028.058928  	0.126397 
1029.987744  	0.127469 
1031.916560  	0.129106 
1033.845376  	0.131137 
1035.774192  	0.133832 
1037.703008  	0.137424 
1039.631824  	0.143267 
1041.560640  	0.151220 
1043.489456  	0.161308 
1045.418272  	0.173054 
1047.347088  	0.185275 
1049.275904  	0.194987 
1051.204720  	0.201321 
1053.133536  	0.204315 
1055.062352  	0.204330 
1056.991168  	0.202566 
1058.919984  	0.201315 
1060.848800  	0.200311 
1062.777616  	0.199284 
1064.706432  	0.197756 
1066.635248  	0.196210 
1068.564064  	0.193790 
1070.492880  	0.189871 
1072.421696  	0.185284 
1074.350512  	0.182186 
1076.279328  	0.181756 
1078.208144  	0.184637 
1080.136960  	0.189143 
1082.065776  	0.193298 
1083.994592  	0.195146 
1085.923408  	0.194195 
1087.852224  	0.189915 
1089.781040  	0.183945 
1091.709856  	0.176443 
1093.638672  	0.167771 
1095.567488  	0.157935 
1097.496304  	0.147515 
1099.425120  	0.137028 
1101.353936  	0.127049 
1103.282752  	0.117319 
1105.211568  	0.108288 
1107.140384  	0.100366 
1109.069200  	0.092932 
1110.998016  	0.086236 
1112.926832  	0.080249 
1114.855648  	0.074726 
1116.784464  	0.069364 
1118.713280  	0.064259 
1120.642096  	0.059592 
1122.570912  	0.054960 
1124.499728  	0.050724 
1126.428544  	0.047248 
1128.357360  	0.044074 
1130.286176  	0.041315 
1132.214992  	0.039076 
1134.143808  	0.037418 
1136.072624  	0.035977 
1138.001440  	0.034717 
1139.930256  	0.033521 
1141.859072  	0.032347 
1143.787888  	0.030966 
1145.716704  	0.029707 
1147.645520  	0.028760 
1149.574336  	0.028344 
1151.503152  	0.027796 
1153.431968  	0.027508 
1155.360784  	0.027545 
1157.289600  	0.028200 
1159.218416  	0.028979 
1161.147232  	0.029873 
1163.076048  	0.031112 
1165.004864  	0.032485 
1166.933680  	0.033475 
1168.862496  	0.034657 
1170.791312  	0.036130 
1172.720128  	0.037949 
1174.648944  	0.039822 
1176.577760  	0.041637 
1178.506576  	0.043584 
1180.435392  	0.045820 
1182.364208  	0.048010 
1184.293024  	0.050377 
1186.221840  	0.053259 
1188.150656  	0.056533 
1190.079472  	0.060236 
1192.008288  	0.064637 
1193.937104  	0.069525 
1195.865920  	0.074993 
1197.794736  	0.081009 
1199.723552  	0.087644 
1201.652368  	0.094196 
1203.581184  	0.100360 
1205.510000  	0.106363 
1207.438816  	0.111948 
1209.367632  	0.117053 
1211.296448  	0.121217 
1213.225264  	0.124422 
1215.154080  	0.126533 
1217.082896  	0.127943 
1219.011712  	0.128515 
1220.940528  	0.128436 
1222.869344  	0.127985 
1224.798160  	0.127340 
1226.726976  	0.125639 
1228.655792  	0.123365 
1230.584608  	0.120915 
1232.513424  	0.117970 
1234.442240  	0.114536 
1236.371056  	0.110994 
1238.299872  	0.107022 
1240.228688  	0.102188 
1242.157504  	0.097333 
1244.086320  	0.092857 
1246.015136  	0.087912 
1247.943952  	0.082968 
1249.872768  	0.078206 
1251.801584  	0.073624 
1253.730400  	0.069154 
1255.659216  	0.064864 
1257.588032  	0.060814 
1259.516848  	0.057136 
1261.445664  	0.053554 
1263.374480  	0.050105 
1265.303296  	0.047239 
1267.232112  	0.045049 
1269.160928  	0.043565 
1271.089744  	0.042480 
1273.018560  	0.041696 
1274.947376  	0.041566 
1276.876192  	0.042025 
1278.805008  	0.042330 
1280.733824  	0.042153 
1282.662640  	0.041070 
1284.591456  	0.039739 
1286.520272  	0.038749 
1288.449088  	0.038086 
1290.377904  	0.037667 
1292.306720  	0.038111 
1294.235536  	0.038628 
1296.164352  	0.038650 
1298.093168  	0.037394 
1300.021984  	0.035541 
1301.950800  	0.033573 
1303.879616  	0.031517 
1305.808432  	0.029349 
1307.737248  	0.027190 
1309.666064  	0.024944 
1311.594880  	0.023695 
1313.523696  	0.022740 
1315.452512  	0.021796 
1317.381328  	0.021716 
1319.310144  	0.021702 
1321.238960  	0.021281 
1323.167776  	0.021403 
1325.096592  	0.021776 
1327.025408  	0.021964 
1328.954224  	0.021869 
1330.883040  	0.021427 
1332.811856  	0.020498 
1334.740672  	0.020054 
1336.669488  	0.020897 
1338.598304  	0.022750 
1340.527120  	0.021904 
1342.455936  	0.018901 
1344.384752  	0.018096 
1346.313568  	0.018370 
1348.242384  	0.018977 
1350.171200  	0.019721 
1352.100016  	0.020725 
1354.028832  	0.022297 
1355.957648  	0.023721 
1357.886464  	0.024975 
1359.815280  	0.027055 
1361.744096  	0.030399 
1363.672912  	0.031510 
1365.601728  	0.030641 
1367.530544  	0.031939 
1369.459360  	0.033245 
1371.388176  	0.033577 
1373.316992  	0.034708 
1375.245808  	0.033815 
1377.174624  	0.031140 
1379.103440  	0.029139 
1381.032256  	0.026878 
1382.961072  	0.025009 
1384.889888  	0.024558 
1386.818704  	0.025268 
1388.747520  	0.023303 
1390.676336  	0.020940 
1392.605152  	0.020227 
1394.533968  	0.021320 
1396.462784  	0.021986 
1398.391600  	0.021675 
1400.320416  	0.020138 
1402.249232  	0.019185 
1404.178048  	0.020485 
1406.106864  	0.020890 
1408.035680  	0.021044 
1409.964496  	0.022510 
1411.893312  	0.024017 
1413.822128  	0.025328 
1415.750944  	0.028296 
1417.679760  	0.031742 
1419.608576  	0.032086 
1421.537392  	0.030177 
1423.466208  	0.030083 
1425.395024  	0.028249 
1427.323840  	0.026341 
1429.252656  	0.025705 
1431.181472  	0.024526 
1433.110288  	0.023738 
1435.039104  	0.024769 
1436.967920  	0.025966 
1438.896736  	0.024730 
1440.825552  	0.024419 
1442.754368  	0.024750 
1444.683184  	0.025019 
1446.612000  	0.026029 
1448.540816  	0.026392 
1450.469632  	0.026007 
1452.398448  	0.026622 
1454.327264  	0.028189 
1456.256080  	0.031805 
1458.184896  	0.031839 
1460.113712  	0.027618 
1462.042528  	0.025682 
1463.971344  	0.026241 
1465.900160  	0.026604 
1467.828976  	0.026189 
1469.757792  	0.027489 
1471.686608  	0.032293 
1473.615424  	0.037999 
1475.544240  	0.039425 
1477.473056  	0.040793 
1479.401872  	0.042036 
1481.330688  	0.044767 
1483.259504  	0.046086 
1485.188320  	0.047570 
1487.117136  	0.050293 
1489.045952  	0.053299 
1490.974768  	0.050827 
1492.903584  	0.046190 
1494.832400  	0.044026 
1496.761216  	0.042411 
1498.690032  	0.038109 
1500.618848  	0.033713 
1502.547664  	0.030270 
1504.476480  	0.028986 
1506.405296  	0.032880 
1508.334112  	0.032870 
1510.262928  	0.027339 
1512.191744  	0.023731 
1514.120560  	0.023074 
1516.049376  	0.025680 
1517.978192  	0.026198 
1519.907008  	0.026991 
1521.835824  	0.030593 
1523.764640  	0.030894 
1525.693456  	0.032869 
1527.622272  	0.033558 
1529.551088  	0.031976 
1531.479904  	0.031554 
1533.408720  	0.031817 
1535.337536  	0.028488 
1537.266352  	0.026836 
1539.195168  	0.028087 
1541.123984  	0.027756 
1543.052800  	0.025880 
1544.981616  	0.023315 
1546.910432  	0.019188 
1548.839248  	0.019305 
1550.768064  	0.019972 
1552.696880  	0.019068 
1554.625696  	0.020565 
1556.554512  	0.021620 
1558.483328  	0.026240 
1560.412144  	0.025386 
1562.340960  	0.023748 
1564.269776  	0.025037 
1566.198592  	0.027574 
1568.127408  	0.030098 
1570.056224  	0.034862 
1571.985040  	0.036356 
1573.913856  	0.038205 
1575.842672  	0.041839 
1577.771488  	0.043692 
1579.700304  	0.041781 
1581.629120  	0.040977 
1583.557936  	0.040537 
1585.486752  	0.041079 
1587.415568  	0.042412 
1589.344384  	0.045242 
1591.273200  	0.048634 
1593.202016  	0.053071 
1595.130832  	0.057965 
1597.059648  	0.062531 
1598.988464  	0.066225 
1600.917280  	0.070329 
1602.846096  	0.073564 
1604.774912  	0.075633 
1606.703728  	0.076512 
1608.632544  	0.077103 
1610.561360  	0.075863 
1612.490176  	0.074503 
1614.418992  	0.073135 
1616.347808  	0.074757 
1618.276624  	0.076252 
1620.205440  	0.076420 
1622.134256  	0.078496 
1624.063072  	0.083702 
1625.991888  	0.086317 
1627.920704  	0.091331 
1629.849520  	0.096213 
1631.778336  	0.100021 
1633.707152  	0.103802 
1635.635968  	0.114079 
1637.564784  	0.121305 
1639.493600  	0.121585 
1641.422416  	0.123281 
1643.351232  	0.124835 
1645.280048  	0.126493 
1647.208864  	0.133825 
1649.137680  	0.132367 
1651.066496  	0.127455 
1652.995312  	0.130925 
1654.924128  	0.134996 
1656.852944  	0.128419 
1658.781760  	0.124912 
1660.710576  	0.122898 
1662.639392  	0.122425 
1664.568208  	0.119534 
1666.497024  	0.115755 
1668.425840  	0.114003 
1670.354656  	0.112575 
1672.283472  	0.108110 
1674.212288  	0.104506 
1676.141104  	0.103010 
1678.069920  	0.100159 
1679.998736  	0.099697 
1681.927552  	0.098722 
1683.856368  	0.099861 
1685.785184  	0.099903 
1687.714000  	0.096738 
1689.642816  	0.095893 
1691.571632  	0.093711 
1693.500448  	0.091751 
1695.429264  	0.092983 
1697.358080  	0.095231 
1699.286896  	0.092765 
1701.215712  	0.093313 
1703.144528  	0.089777 
1705.073344  	0.087969 
1707.002160  	0.085231 
1708.930976  	0.080991 
1710.859792  	0.077104 
1712.788608  	0.073673 
1714.717424  	0.070601 
1716.646240  	0.066091 
1718.575056  	0.056502 
1720.503872  	0.047281 
1722.432688  	0.040875 
1724.361504  	0.033918 
1726.290320  	0.027529 
1728.219136  	0.023682 
1730.147952  	0.021352 
1732.076768  	0.019031 
1734.005584  	0.016337 
1735.934400  	0.010678 
1737.863216  	0.008858 
1739.792032  	0.006846 
1741.720848  	0.005467 
1743.649664  	0.005513 
1745.578480  	0.004754 
1747.507296  	0.004741 
1749.436112  	0.004990 
1751.364928  	0.002794 
1753.293744  	-0.000274 
1755.222560  	-0.000904 
1757.151376  	-0.000288 
1759.080192  	-0.001091 
1761.009008  	-0.001152 
1762.937824  	-0.002297 
1764.866640  	-0.003311 
1766.795456  	-0.002575 
1768.724272  	-0.001714 
1770.653088  	-0.001614 
1772.581904  	-0.001695 
1774.510720  	-0.002922 
1776.439536  	-0.003592 
1778.368352  	-0.004105 
1780.297168  	-0.003727 
1782.225984  	-0.004604 
1784.154800  	-0.004731 
1786.083616  	-0.005502 
1788.012432  	-0.005660 
1789.941248  	-0.003924 
1791.870064  	-0.002575 
1793.798880  	-0.004349 
1795.727696  	-0.004766 
1797.656512  	-0.005358 
1799.585328  	-0.005149 
1801.514144  	-0.004734 
1803.442960  	-0.005777 
1805.371776  	-0.006587 
1807.300592  	-0.006509 
1809.229408  	-0.006348 
1811.158224  	-0.006119 
1813.087040  	-0.007179 
1815.015856  	-0.007802 
1816.944672  	-0.007284 
1818.873488  	-0.007262 
1820.802304  	-0.007346 
1822.731120  	-0.006498 
1824.659936  	-0.005925 
1826.588752  	-0.006289 
1828.517568  	-0.005980 
1830.446384  	-0.006095 
1832.375200  	-0.007583 
1834.304016  	-0.007630 
1836.232832  	-0.007424 
1838.161648  	-0.007339 
1840.090464  	-0.007686 
1842.019280  	-0.006665 
1843.948096  	-0.005906 
1845.876912  	-0.006437 
1847.805728  	-0.007049 
1849.734544  	-0.007712 
1851.663360  	-0.008325 
1853.592176  	-0.008330 
1855.520992  	-0.008393 
1857.449808  	-0.008239 
1859.378624  	-0.008576 
1861.307440  	-0.008501 
1863.236256  	-0.008682 
1865.165072  	-0.008108 
1867.093888  	-0.006629 
1869.022704  	-0.005424 
1870.951520  	-0.007105 
1872.880336  	-0.008280 
1874.809152  	-0.008829 
1876.737968  	-0.008942 
1878.666784  	-0.009120 
1880.595600  	-0.009172 
1882.524416  	-0.009122 
1884.453232  	-0.008784 
1886.382048  	-0.008903 
1888.310864  	-0.008121 
1890.239680  	-0.008155 
1892.168496  	-0.008435 
1894.097312  	-0.007955 
1896.026128  	-0.008116 
1897.954944  	-0.008799 
1899.883760  	-0.008672 
1901.812576  	-0.008767 
1903.741392  	-0.008726 
1905.670208  	-0.009019 
1907.599024  	-0.008745 
1909.527840  	-0.008265 
1911.456656  	-0.007963 
1913.385472  	-0.007879 
1915.314288  	-0.007762 
1917.243104  	-0.007942 
1919.171920  	-0.008207 
1921.100736  	-0.008053 
1923.029552  	-0.007756 
1924.958368  	-0.009503 
1926.887184  	-0.009884 
1928.816000  	-0.009753 
1930.744816  	-0.009407 
1932.673632  	-0.009446 
1934.602448  	-0.009171 
1936.531264  	-0.009479 
1938.460080  	-0.009134 
1940.388896  	-0.008529 
1942.317712  	-0.007497 
1944.246528  	-0.009087 
1946.175344  	-0.009616 
1948.104160  	-0.009476 
1950.032976  	-0.009139 
1951.961792  	-0.009896 
1953.890608  	-0.009684 
1955.819424  	-0.009884 
1957.748240  	-0.010351 
1959.677056  	-0.011593 
1961.605872  	-0.010779 
1963.534688  	-0.009924 
1965.463504  	-0.008461 
1967.392320  	-0.008663 
1969.321136  	-0.009503 
1971.249952  	-0.010708 
1973.178768  	-0.009790 
1975.107584  	-0.008898 
1977.036400  	-0.008722 
1978.965216  	-0.009376 
1980.894032  	-0.009670 
1982.822848  	-0.009355 
1984.751664  	-0.008544 
1986.680480  	-0.008484 
1988.609296  	-0.007908 
1990.538112  	-0.007452 
1992.466928  	-0.006861 
1994.395744  	-0.008606 
1996.324560  	-0.009318 
1998.253376  	-0.009427 
2000.182192  	-0.009278 
2002.111008  	-0.009398 
2004.039824  	-0.009216 
2005.968640  	-0.010071 
2007.897456  	-0.009436 
2009.826272  	-0.009108 
2011.755088  	-0.009204 
2013.683904  	-0.009756 
2015.612720  	-0.008287 
2017.541536  	-0.007899 
2019.470352  	-0.008359 
2021.399168  	-0.009249 
2023.327984  	-0.008688 
2025.256800  	-0.008704 
2027.185616  	-0.007715 
2029.114432  	-0.007108 
2031.043248  	-0.007299 
2032.972064  	-0.008016 
2034.900880  	-0.008188 
2036.829696  	-0.008576 
2038.758512  	-0.007957 
2040.687328  	-0.008166 
2042.616144  	-0.008038 
2044.544960  	-0.007983 
2046.473776  	-0.007264 
2048.402592  	-0.006867 
2050.331408  	-0.007106 
2052.260224  	-0.007466 
2054.189040  	-0.007281 
2056.117856  	-0.007727 
2058.046672  	-0.007293 
2059.975488  	-0.006866 
2061.904304  	-0.007015 
2063.833120  	-0.007539 
2065.761936  	-0.007043 
2067.690752  	-0.007322 
2069.619568  	-0.007246 
2071.548384  	-0.007570 
2073.477200  	-0.007585 
2075.406016  	-0.007678 
2077.334832  	-0.007176 
2079.263648  	-0.006632 
2081.192464  	-0.006555 
2083.121280  	-0.007233 
2085.050096  	-0.007500 
2086.978912  	-0.007589 
2088.907728  	-0.007145 
2090.836544  	-0.006903 
2092.765360  	-0.007258 
2094.694176  	-0.007340 
2096.622992  	-0.007018 
2098.551808  	-0.007019 
2100.480624  	-0.006697 
2102.409440  	-0.006545 
2104.338256  	-0.006437 
2106.267072  	-0.006614 
2108.195888  	-0.006544 
2110.124704  	-0.006479 
2112.053520  	-0.006455 
2113.982336  	-0.006526 
2115.911152  	-0.006580 
2117.839968  	-0.006859 
2119.768784  	-0.006844 
2121.697600  	-0.006969 
2123.626416  	-0.007033 
2125.555232  	-0.007282 
2127.484048  	-0.007584 
2129.412864  	-0.007494 
2131.341680  	-0.006580 
2133.270496  	-0.006306 
2135.199312  	-0.006304 
2137.128128  	-0.006179 
2139.056944  	-0.005575 
2140.985760  	-0.005857 
2142.914576  	-0.005960 
2144.843392  	-0.006818 
2146.772208  	-0.007090 
2148.701024  	-0.007097 
2150.629840  	-0.007202 
2152.558656  	-0.007108 
2154.487472  	-0.006597 
2156.416288  	-0.006667 
2158.345104  	-0.003781 
2160.273920  	-0.001227 
2162.202736  	-0.002675 
2164.131552  	-0.005105 
2166.060368  	-0.004369 
2167.989184  	-0.003862 
2169.918000  	-0.005417 
2171.846816  	-0.006012 
2173.775632  	-0.004912 
2175.704448  	-0.005150 
2177.633264  	-0.005096 
2179.562080  	-0.005391 
2181.490896  	-0.004553 
2183.419712  	-0.004549 
2185.348528  	-0.005367 
2187.277344  	-0.006144 
2189.206160  	-0.005662 
2191.134976  	-0.005494 
2193.063792  	-0.005827 
2194.992608  	-0.005824 
2196.921424  	-0.005316 
2198.850240  	-0.005955 
2200.779056  	-0.006673 
2202.707872  	-0.006802 
2204.636688  	-0.006436 
2206.565504  	-0.006386 
2208.494320  	-0.006367 
2210.423136  	-0.006641 
2212.351952  	-0.006319 
2214.280768  	-0.006852 
2216.209584  	-0.006994 
2218.138400  	-0.007204 
2220.067216  	-0.007634 
2221.996032  	-0.007723 
2223.924848  	-0.007182 
2225.853664  	-0.007229 
2227.782480  	-0.006783 
2229.711296  	-0.007554 
2231.640112  	-0.008122 
2233.568928  	-0.008297 
2235.497744  	-0.007908 
2237.426560  	-0.007115 
2239.355376  	-0.007118 
2241.284192  	-0.008243 
2243.213008  	-0.008627 
2245.141824  	-0.008205 
2247.070640  	-0.007986 
2248.999456  	-0.007899 
2250.928272  	-0.007679 
2252.857088  	-0.008065 
2254.785904  	-0.007984 
2256.714720  	-0.007367 
2258.643536  	-0.007067 
2260.572352  	-0.007063 
2262.501168  	-0.007250 
2264.429984  	-0.007542 
2266.358800  	-0.007495 
2268.287616  	-0.007908 
2270.216432  	-0.008131 
2272.145248  	-0.007770 
2274.074064  	-0.007328 
2276.002880  	-0.007707 
2277.931696  	-0.007713 
2279.860512  	-0.007508 
2281.789328  	-0.007385 
2283.718144  	-0.007419 
2285.646960  	-0.006988 
2287.575776  	-0.006781 
2289.504592  	-0.006687 
2291.433408  	-0.006647 
2293.362224  	-0.006325 
2295.291040  	-0.006150 
2297.219856  	-0.005708 
2299.148672  	-0.005553 
2301.077488  	-0.005305 
2303.006304  	-0.004731 
2304.935120  	-0.004161 
2306.863936  	-0.004019 
2308.792752  	-0.003887 
2310.721568  	-0.003915 
2312.650384  	-0.004319 
2314.579200  	-0.004676 
2316.508016  	-0.004393 
2318.436832  	-0.004066 
2320.365648  	-0.004113 
2322.294464  	-0.004470 
2324.223280  	-0.005497 
2326.152096  	-0.007041 
2328.080912  	-0.008113 
2330.009728  	-0.008545 
2331.938544  	-0.009059 
2333.867360  	-0.009958 
2335.796176  	-0.010723 
2337.724992  	-0.011234 
2339.653808  	-0.011385 
2341.582624  	-0.011001 
2343.511440  	-0.009882 
2345.440256  	-0.008505 
2347.369072  	-0.007124 
2349.297888  	-0.006413 
2351.226704  	-0.007259 
2353.155520  	-0.009257 
2355.084336  	-0.010592 
2357.013152  	-0.011278 
2358.941968  	-0.011683 
2360.870784  	-0.012218 
2362.799600  	-0.012036 
2364.728416  	-0.011558 
2366.657232  	-0.010975 
2368.586048  	-0.009760 
2370.514864  	-0.008406 
2372.443680  	-0.007465 
2374.372496  	-0.006486 
2376.301312  	-0.005846 
2378.230128  	-0.005584 
2380.158944  	-0.005584 
2382.087760  	-0.005858 
2384.016576  	-0.006585 
2385.945392  	-0.007302 
2387.874208  	-0.007722 
2389.803024  	-0.008021 
2391.731840  	-0.008387 
2393.660656  	-0.008371 
2395.589472  	-0.008351 
2397.518288  	-0.008433 
2399.447104  	-0.008560 
2401.375920  	-0.008629 
2403.304736  	-0.008844 
2405.233552  	-0.008843 
2407.162368  	-0.008677 
2409.091184  	-0.008563 
2411.020000  	-0.008615 
2412.948816  	-0.008803 
2414.877632  	-0.008817 
2416.806448  	-0.008498 
2418.735264  	-0.008488 
2420.664080  	-0.008448 
2422.592896  	-0.008380 
2424.521712  	-0.008247 
2426.450528  	-0.008364 
2428.379344  	-0.008472 
2430.308160  	-0.008374 
2432.236976  	-0.008304 
2434.165792  	-0.008167 
2436.094608  	-0.008055 
2438.023424  	-0.008057 
2439.952240  	-0.008021 
2441.881056  	-0.007977 
2443.809872  	-0.007945 
2445.738688  	-0.008092 
2447.667504  	-0.008086 
2449.596320  	-0.007823 
2451.525136  	-0.007669 
2453.453952  	-0.007706 
2455.382768  	-0.007600 
2457.311584  	-0.007647 
2459.240400  	-0.007832 
2461.169216  	-0.007709 
2463.098032  	-0.007509 
2465.026848  	-0.007685 
2466.955664  	-0.007825 
2468.884480  	-0.008016 
2470.813296  	-0.008116 
2472.742112  	-0.007949 
2474.670928  	-0.007744 
2476.599744  	-0.007723 
2478.528560  	-0.007486 
2480.457376  	-0.007242 
2482.386192  	-0.007051 
2484.315008  	-0.007019 
2486.243824  	-0.006939 
2488.172640  	-0.006819 
2490.101456  	-0.006783 
2492.030272  	-0.006803 
2493.959088  	-0.006879 
2495.887904  	-0.006902 
2497.816720  	-0.006704 
2499.745536  	-0.006685 
2501.674352  	-0.006743 
2503.603168  	-0.006512 
2505.531984  	-0.006352 
2507.460800  	-0.006568 
2509.389616  	-0.006836 
2511.318432  	-0.007006 
2513.247248  	-0.006816 
2515.176064  	-0.006651 
2517.104880  	-0.006642 
2519.033696  	-0.006663 
2520.962512  	-0.006389 
2522.891328  	-0.006352 
2524.820144  	-0.006192 
2526.748960  	-0.006258 
2528.677776  	-0.006226 
2530.606592  	-0.006035 
2532.535408  	-0.005843 
2534.464224  	-0.005911 
2536.393040  	-0.006010 
2538.321856  	-0.006032 
2540.250672  	-0.006041 
2542.179488  	-0.005896 
2544.108304  	-0.005695 
2546.037120  	-0.005491 
2547.965936  	-0.005283 
2549.894752  	-0.005268 
2551.823568  	-0.005119 
2553.752384  	-0.005105 
2555.681200  	-0.005373 
2557.610016  	-0.005413 
2559.538832  	-0.005133 
2561.467648  	-0.004794 
2563.396464  	-0.004710 
2565.325280  	-0.004968 
2567.254096  	-0.005089 
2569.182912  	-0.005047 
2571.111728  	-0.004988 
2573.040544  	-0.004785 
2574.969360  	-0.004551 
2576.898176  	-0.004490 
2578.826992  	-0.004623 
2580.755808  	-0.004685 
2582.684624  	-0.004572 
2584.613440  	-0.004523 
2586.542256  	-0.004385 
2588.471072  	-0.004341 
2590.399888  	-0.004316 
2592.328704  	-0.004223 
2594.257520  	-0.004120 
2596.186336  	-0.004135 
2598.115152  	-0.004080 
2600.043968  	-0.003845 
2601.972784  	-0.003674 
2603.901600  	-0.003601 
2605.830416  	-0.003573 
2607.759232  	-0.003537 
2609.688048  	-0.003519 
2611.616864  	-0.003359 
2613.545680  	-0.003167 
2615.474496  	-0.003169 
2617.403312  	-0.003013 
2619.332128  	-0.002982 
2621.260944  	-0.003039 
2623.189760  	-0.002991 
2625.118576  	-0.002836 
2627.047392  	-0.002769 
2628.976208  	-0.002639 
2630.905024  	-0.002518 
2632.833840  	-0.002462 
2634.762656  	-0.002486 
2636.691472  	-0.002386 
2638.620288  	-0.002193 
2640.549104  	-0.002030 
2642.477920  	-0.001945 
2644.406736  	-0.001932 
2646.335552  	-0.001878 
2648.264368  	-0.001671 
2650.193184  	-0.001536 
2652.122000  	-0.001464 
2654.050816  	-0.001377 
2655.979632  	-0.001355 
2657.908448  	-0.001338 
2659.837264  	-0.001138 
2661.766080  	-0.000979 
2663.694896  	-0.000993 
2665.623712  	-0.000953 
2667.552528  	-0.000816 
2669.481344  	-0.000782 
2671.410160  	-0.000744 
2673.338976  	-0.000532 
2675.267792  	-0.000312 
2677.196608  	-0.000176 
2679.125424  	-0.000093 
2681.054240  	-0.000044 
2682.983056  	0.000107 
2684.911872  	0.000195 
2686.840688  	0.000198 
2688.769504  	0.000241 
2690.698320  	0.000280 
2692.627136  	0.000380 
2694.555952  	0.000469 
2696.484768  	0.000529 
2698.413584  	0.000508 
2700.342400  	0.000546 
2702.271216  	0.000769 
2704.200032  	0.000889 
2706.128848  	0.000990 
2708.057664  	0.001120 
2709.986480  	0.001175 
2711.915296  	0.001285 
2713.844112  	0.001403 
2715.772928  	0.001491 
2717.701744  	0.001432 
2719.630560  	0.001600 
2721.559376  	0.001883 
2723.488192  	0.002074 
2725.417008  	0.002169 
2727.345824  	0.002249 
2729.274640  	0.002434 
2731.203456  	0.002438 
2733.132272  	0.002466 
2735.061088  	0.002597 
2736.989904  	0.002655 
2738.918720  	0.002736 
2740.847536  	0.002824 
2742.776352  	0.002934 
2744.705168  	0.003061 
2746.633984  	0.003093 
2748.562800  	0.003197 
2750.491616  	0.003285 
2752.420432  	0.003287 
2754.349248  	0.003241 
2756.278064  	0.003243 
2758.206880  	0.003193 
2760.135696  	0.003201 
2762.064512  	0.003260 
2763.993328  	0.003309 
2765.922144  	0.003343 
2767.850960  	0.003373 
2769.779776  	0.003386 
2771.708592  	0.003459 
2773.637408  	0.003452 
2775.566224  	0.003373 
2777.495040  	0.003335 
2779.423856  	0.003409 
2781.352672  	0.003575 
2783.281488  	0.003672 
2785.210304  	0.003567 
2787.139120  	0.003527 
2789.067936  	0.003505 
2790.996752  	0.003528 
2792.925568  	0.003518 
2794.854384  	0.003519 
2796.783200  	0.003576 
2798.712016  	0.003534 
2800.640832  	0.003520 
2802.569648  	0.003644 
2804.498464  	0.003695 
2806.427280  	0.003704 
2808.356096  	0.003801 
2810.284912  	0.003801 
2812.213728  	0.003707 
2814.142544  	0.003702 
2816.071360  	0.003592 
2818.000176  	0.003643 
2819.928992  	0.003773 
2821.857808  	0.003776 
2823.786624  	0.003744 
2825.715440  	0.003824 
2827.644256  	0.003830 
2829.573072  	0.003692 
2831.501888  	0.003595 
2833.430704  	0.003620 
2835.359520  	0.003635 
2837.288336  	0.003585 
2839.217152  	0.003548 
2841.145968  	0.003503 
2843.074784  	0.003467 
2845.003600  	0.003514 
2846.932416  	0.003480 
2848.861232  	0.003541 
2850.790048  	0.003531 
2852.718864  	0.003517 
2854.647680  	0.003483 
2856.576496  	0.003516 
2858.505312  	0.003499 
2860.434128  	0.003538 
2862.362944  	0.003555 
2864.291760  	0.003504 
2866.220576  	0.003516 
2868.149392  	0.003543 
2870.078208  	0.003499 
2872.007024  	0.003670 
2873.935840  	0.003950 
2875.864656  	0.004141 
2877.793472  	0.004272 
2879.722288  	0.004600 
2881.651104  	0.004802 
2883.579920  	0.005043 
2885.508736  	0.005241 
2887.437552  	0.005391 
2889.366368  	0.005524 
2891.295184  	0.005596 
2893.224000  	0.005630 
2895.152816  	0.005749 
2897.081632  	0.005784 
2899.010448  	0.005403 
2900.939264  	0.005127 
2902.868080  	0.005506 
2904.796896  	0.005955 
2906.725712  	0.006003 
2908.654528  	0.006058 
2910.583344  	0.006322 
2912.512160  	0.006580 
2914.440976  	0.006976 
2916.369792  	0.007535 
2918.298608  	0.007874 
2920.227424  	0.008116 
2922.156240  	0.008459 
2924.085056  	0.008817 
2926.013872  	0.009138 
2927.942688  	0.009631 
2929.871504  	0.010192 
2931.800320  	0.010651 
2933.729136  	0.011128 
2935.657952  	0.011590 
2937.586768  	0.012032 
2939.515584  	0.012367 
2941.444400  	0.012564 
2943.373216  	0.012761 
2945.302032  	0.013074 
2947.230848  	0.013253 
2949.159664  	0.013295 
2951.088480  	0.013220 
2953.017296  	0.013242 
2954.946112  	0.013103 
2956.874928  	0.012903 
2958.803744  	0.012727 
2960.732560  	0.012631 
2962.661376  	0.012451 
2964.590192  	0.012148 
2966.519008  	0.011935 
2968.447824  	0.011620 
2970.376640  	0.011307 
2972.305456  	0.011241 
2974.234272  	0.011388 
2976.163088  	0.011424 
2978.091904  	0.011406 
2980.020720  	0.011281 
2981.949536  	0.011186 
2983.878352  	0.010975 
2985.807168  	0.010780 
2987.735984  	0.010652 
2989.664800  	0.010691 
2991.593616  	0.011251 
2993.522432  	0.011684 
2995.451248  	0.011884 
2997.380064  	0.012197 
2999.308880  	0.012612 
3001.237696  	0.013088 
3003.166512  	0.013571 
3005.095328  	0.013897 
3007.024144  	0.014126 
3008.952960  	0.014592 
3010.881776  	0.015238 
3012.810592  	0.015861 
3014.739408  	0.016206 
3016.668224  	0.016421 
3018.597040  	0.016800 
3020.525856  	0.017355 
3022.454672  	0.017745 
3024.383488  	0.018148 
3026.312304  	0.018617 
3028.241120  	0.018919 
3030.169936  	0.019339 
3032.098752  	0.020024 
3034.027568  	0.020387 
3035.956384  	0.020670 
3037.885200  	0.020900 
3039.814016  	0.021292 
3041.742832  	0.021762 
3043.671648  	0.022294 
3045.600464  	0.022762 
3047.529280  	0.023095 
3049.458096  	0.023415 
3051.386912  	0.023690 
3053.315728  	0.024082 
3055.244544  	0.024542 
3057.173360  	0.025014 
3059.102176  	0.025478 
3061.030992  	0.025953 
3062.959808  	0.026526 
3064.888624  	0.027205 
3066.817440  	0.027863 
3068.746256  	0.028509 
3070.675072  	0.028844 
3072.603888  	0.029338 
3074.532704  	0.030093 
3076.461520  	0.030707 
3078.390336  	0.031305 
3080.319152  	0.032007 
3082.247968  	0.032346 
3084.176784  	0.032756 
3086.105600  	0.033482 
3088.034416  	0.034184 
3089.963232  	0.034567 
3091.892048  	0.035076 
3093.820864  	0.035631 
3095.749680  	0.036419 
3097.678496  	0.037174 
3099.607312  	0.037837 
3101.536128  	0.038625 
3103.464944  	0.039081 
3105.393760  	0.039420 
3107.322576  	0.039996 
3109.251392  	0.040661 
3111.180208  	0.041103 
3113.109024  	0.041625 
3115.037840  	0.042263 
3116.966656  	0.042908 
3118.895472  	0.043444 
3120.824288  	0.043939 
3122.753104  	0.044444 
3124.681920  	0.044767 
3126.610736  	0.045127 
3128.539552  	0.045472 
3130.468368  	0.045865 
3132.397184  	0.046660 
3134.326000  	0.047130 
3136.254816  	0.047398 
3138.183632  	0.047771 
3140.112448  	0.048187 
3142.041264  	0.048832 
3143.970080  	0.049372 
3145.898896  	0.049773 
3147.827712  	0.050223 
3149.756528  	0.050852 
3151.685344  	0.051430 
3153.614160  	0.051850 
3155.542976  	0.052158 
3157.471792  	0.052648 
3159.400608  	0.053128 
3161.329424  	0.053700 
3163.258240  	0.054180 
3165.187056  	0.054455 
3167.115872  	0.054692 
3169.044688  	0.055206 
3170.973504  	0.055705 
3172.902320  	0.056003 
3174.831136  	0.056272 
3176.759952  	0.056570 
3178.688768  	0.057072 
3180.617584  	0.057268 
3182.546400  	0.057468 
3184.475216  	0.057671 
3186.404032  	0.057841 
3188.332848  	0.058016 
3190.261664  	0.058159 
3192.190480  	0.058331 
3194.119296  	0.058455 
3196.048112  	0.058471 
3197.976928  	0.058896 
3199.905744  	0.059005 
3201.834560  	0.058757 
3203.763376  	0.058555 
3205.692192  	0.058342 
3207.621008  	0.058374 
3209.549824  	0.058702 
3211.478640  	0.058748 
3213.407456  	0.058578 
3215.336272  	0.058662 
3217.265088  	0.058544 
3219.193904  	0.058587 
3221.122720  	0.058648 
3223.051536  	0.058254 
3224.980352  	0.058048 
3226.909168  	0.058088 
3228.837984  	0.057887 
3230.766800  	0.057693 
3232.695616  	0.057867 
3234.624432  	0.057864 
3236.553248  	0.057873 
3238.482064  	0.057913 
3240.410880  	0.057722 
3242.339696  	0.057648 
3244.268512  	0.057809 
3246.197328  	0.058031 
3248.126144  	0.057792 
3250.054960  	0.057980 
3251.983776  	0.058359 
3253.912592  	0.058877 
3255.841408  	0.059125 
3257.770224  	0.059042 
3259.699040  	0.059017 
3261.627856  	0.059244 
3263.556672  	0.059352 
3265.485488  	0.059526 
3267.414304  	0.059591 
3269.343120  	0.059721 
3271.271936  	0.059913 
3273.200752  	0.060243 
3275.129568  	0.060372 
3277.058384  	0.060464 
3278.987200  	0.060637 
3280.916016  	0.060771 
3282.844832  	0.060764 
3284.773648  	0.060839 
3286.702464  	0.060947 
3288.631280  	0.061350 
3290.560096  	0.061547 
3292.488912  	0.061588 
3294.417728  	0.061554 
3296.346544  	0.061625 
3298.275360  	0.061888 
3300.204176  	0.062072 
3302.132992  	0.062084 
3304.061808  	0.062208 
3305.990624  	0.062429 
3307.919440  	0.062970 
3309.848256  	0.063398 
3311.777072  	0.063541 
3313.705888  	0.063691 
3315.634704  	0.063827 
3317.563520  	0.064036 
3319.492336  	0.064244 
3321.421152  	0.064454 
3323.349968  	0.064617 
3325.278784  	0.064864 
3327.207600  	0.065121 
3329.136416  	0.064943 
3331.065232  	0.064745 
3332.994048  	0.064846 
3334.922864  	0.065127 
3336.851680  	0.065223 
3338.780496  	0.064909 
3340.709312  	0.064574 
3342.638128  	0.064556 
3344.566944  	0.064331 
3346.495760  	0.064129 
3348.424576  	0.064084 
3350.353392  	0.064019 
3352.282208  	0.063792 
3354.211024  	0.063558 
3356.139840  	0.063419 
3358.068656  	0.063182 
3359.997472  	0.062881 
3361.926288  	0.062707 
3363.855104  	0.062479 
3365.783920  	0.062242 
3367.712736  	0.061922 
3369.641552  	0.061740 
3371.570368  	0.061559 
3373.499184  	0.061467 
3375.428000  	0.061329 
3377.356816  	0.060991 
3379.285632  	0.060703 
3381.214448  	0.060427 
3383.143264  	0.060360 
3385.072080  	0.060192 
3387.000896  	0.059575 
3388.929712  	0.059185 
3390.858528  	0.059031 
3392.787344  	0.059262 
3394.716160  	0.058902 
3396.644976  	0.058631 
3398.573792  	0.058185 
3400.502608  	0.057428 
3402.431424  	0.056968 
3404.360240  	0.056599 
3406.289056  	0.056115 
3408.217872  	0.055589 
3410.146688  	0.055124 
3412.075504  	0.054780 
3414.004320  	0.054666 
3415.933136  	0.054613 
3417.861952  	0.054279 
3419.790768  	0.054413 
3421.719584  	0.054264 
3423.648400  	0.053343 
3425.577216  	0.052492 
3427.506032  	0.052038 
3429.434848  	0.051606 
3431.363664  	0.051350 
3433.292480  	0.051096 
3435.221296  	0.050798 
3437.150112  	0.050113 
3439.078928  	0.049268 
3441.007744  	0.049039 
3442.936560  	0.049171 
3444.865376  	0.048488 
3446.794192  	0.048708 
3448.723008  	0.048469 
3450.651824  	0.047238 
3452.580640  	0.046502 
3454.509456  	0.045854 
3456.438272  	0.045247 
3458.367088  	0.044751 
3460.295904  	0.044458 
3462.224720  	0.044088 
3464.153536  	0.043305 
3466.082352  	0.042547 
3468.011168  	0.042083 
3469.939984  	0.041523 
3471.868800  	0.040728 
3473.797616  	0.040033 
3475.726432  	0.039578 
3477.655248  	0.038820 
3479.584064  	0.038449 
3481.512880  	0.038660 
3483.441696  	0.038031 
3485.370512  	0.036760 
3487.299328  	0.036137 
3489.228144  	0.035382 
3491.156960  	0.034478 
3493.085776  	0.034087 
3495.014592  	0.033901 
3496.943408  	0.033524 
3498.872224  	0.032718 
3500.801040  	0.032725 
3502.729856  	0.033200 
3504.658672  	0.032428 
3506.587488  	0.030716 
3508.516304  	0.030318 
3510.445120  	0.030211 
3512.373936  	0.029015 
3514.302752  	0.028187 
3516.231568  	0.027651 
3518.160384  	0.027232 
3520.089200  	0.026688 
3522.018016  	0.026876 
3523.946832  	0.027882 
3525.875648  	0.027162 
3527.804464  	0.026219 
3529.733280  	0.025402 
3531.662096  	0.024111 
3533.590912  	0.022954 
3535.519728  	0.023083 
3537.448544  	0.022737 
3539.377360  	0.021287 
3541.306176  	0.020870 
3543.234992  	0.021594 
3545.163808  	0.022810 
3547.092624  	0.022265 
3549.021440  	0.020066 
3550.950256  	0.019186 
3552.879072  	0.019469 
3554.807888  	0.018090 
3556.736704  	0.016738 
3558.665520  	0.016908 
3560.594336  	0.017250 
3562.523152  	0.016748 
3564.451968  	0.017472 
3566.380784  	0.020354 
3568.309600  	0.019742 
3570.238416  	0.015462 
3572.167232  	0.013285 
3574.096048  	0.012774 
3576.024864  	0.012267 
3577.953680  	0.011588 
3579.882496  	0.011256 
3581.811312  	0.010673 
3583.740128  	0.010433 
3585.668944  	0.011456 
3587.597760  	0.013335 
3589.526576  	0.010869 
3591.455392  	0.008171 
3593.384208  	0.008191 
3595.313024  	0.008360 
3597.241840  	0.007332 
3599.170656  	0.006211 
3601.099472  	0.005504 
3603.028288  	0.004199 
3604.957104  	0.003424 
3606.885920  	0.004807 
3608.814736  	0.005613 
3610.743552  	0.003841 
3612.672368  	0.003829 
3614.601184  	0.003779 
3616.530000  	0.002240 
3618.458816  	0.002218 
3620.387632  	0.001062 
3622.316448  	-0.001358 
3624.245264  	-0.002348 
3626.174080  	-0.001745 
3628.102896  	-0.000063 
3630.031712  	-0.000277 
3631.960528  	-0.003205 
3633.889344  	-0.004649 
3635.818160  	-0.005925 
3637.746976  	-0.006806 
3639.675792  	-0.007429 
3641.604608  	-0.007559 
3643.533424  	-0.007623 
3645.462240  	-0.006903 
3647.391056  	-0.004148 
3649.319872  	-0.003556 
3651.248688  	-0.006879 
3653.177504  	-0.010181 
3655.106320  	-0.011161 
3657.035136  	-0.011643 
3658.963952  	-0.012805 
3660.892768  	-0.013500 
3662.821584  	-0.014141 
3664.750400  	-0.014312 
3666.679216  	-0.013640 
3668.608032  	-0.012196 
3670.536848  	-0.011415 
3672.465664  	-0.012134 
3674.394480  	-0.011512 
3676.323296  	-0.011916 
3678.252112  	-0.013518 
3680.180928  	-0.014673 
3682.109744  	-0.015683 
3684.038560  	-0.015763 
3685.967376  	-0.015252 
3687.896192  	-0.013883 
3689.825008  	-0.013359 
3691.753824  	-0.014701 
3693.682640  	-0.015836 
3695.611456  	-0.016168 
3697.540272  	-0.016280 
3699.469088  	-0.016395 
3701.397904  	-0.016114 
3703.326720  	-0.016196 
3705.255536  	-0.016121 
3707.184352  	-0.015357 
3709.113168  	-0.013974 
3711.041984  	-0.012646 
3712.970800  	-0.013867 
3714.899616  	-0.015381 
3716.828432  	-0.015860 
3718.757248  	-0.015370 
3720.686064  	-0.014912 
3722.614880  	-0.014089 
3724.543696  	-0.013552 
3726.472512  	-0.013797 
3728.401328  	-0.015190 
3730.330144  	-0.015699 
3732.258960  	-0.014372 
3734.187776  	-0.011307 
3736.116592  	-0.010825 
3738.045408  	-0.013557 
3739.974224  	-0.014140 
3741.903040  	-0.013590 
3743.831856  	-0.013280 
3745.760672  	-0.013267 
3747.689488  	-0.013013 
3749.618304  	-0.011779 
3751.547120  	-0.011605 
3753.475936  	-0.013819 
3755.404752  	-0.014918 
3757.333568  	-0.014672 
3759.262384  	-0.014587 
3761.191200  	-0.015778 
3763.120016  	-0.016219 
3765.048832  	-0.015481 
3766.977648  	-0.015433 
3768.906464  	-0.015447 
3770.835280  	-0.015870 
3772.764096  	-0.016768 
3774.692912  	-0.017085 
3776.621728  	-0.016780 
3778.550544  	-0.015986 
3780.479360  	-0.016290 
3782.408176  	-0.016810 
3784.336992  	-0.016433 
3786.265808  	-0.016485 
3788.194624  	-0.017081 
3790.123440  	-0.017219 
3792.052256  	-0.017237 
3793.981072  	-0.016968 
3795.909888  	-0.015685 
3797.838704  	-0.014446 
3799.767520  	-0.014122 
3801.696336  	-0.013918 
3803.625152  	-0.015316 
3805.553968  	-0.016040 
3807.482784  	-0.016501 
3809.411600  	-0.016914 
3811.340416  	-0.016861 
3813.269232  	-0.016426 
3815.198048  	-0.015310 
3817.126864  	-0.014458 
3819.055680  	-0.013780 
3820.984496  	-0.013464 
3822.913312  	-0.015061 
3824.842128  	-0.015716 
3826.770944  	-0.015702 
3828.699760  	-0.015965 
3830.628576  	-0.016013 
3832.557392  	-0.015874 
3834.486208  	-0.015459 
3836.415024  	-0.014561 
3838.343840  	-0.013786 
3840.272656  	-0.013569 
3842.201472  	-0.014406 
3844.130288  	-0.015255 
3846.059104  	-0.016386 
3847.987920  	-0.016325 
3849.916736  	-0.014969 
3851.845552  	-0.012827 
3853.774368  	-0.012337 
3855.703184  	-0.014080 
3857.632000  	-0.014878 
3859.560816  	-0.015575 
3861.489632  	-0.014934 
3863.418448  	-0.013733 
3865.347264  	-0.013609 
3867.276080  	-0.014578 
3869.204896  	-0.013544 
3871.133712  	-0.013393 
3873.062528  	-0.014496 
3874.991344  	-0.015504 
3876.920160  	-0.016528 
3878.848976  	-0.015551 
3880.777792  	-0.013929 
3882.706608  	-0.014101 
3884.635424  	-0.014328 
3886.564240  	-0.015567 
3888.493056  	-0.016767 
3890.421872  	-0.016035 
3892.350688  	-0.015497 
3894.279504  	-0.016160 
3896.208320  	-0.016364 
3898.137136  	-0.015075 
3900.065952  	-0.013428 
3901.994768  	-0.012899 
3903.923584  	-0.013061 
3905.852400  	-0.014701 
3907.781216  	-0.016780 
3909.710032  	-0.017826 
3911.638848  	-0.018039 
3913.567664  	-0.017433 
3915.496480  	-0.016003 
3917.425296  	-0.014919 
3919.354112  	-0.015350 
3921.282928  	-0.015765 
3923.211744  	-0.015295 
3925.140560  	-0.015240 
3927.069376  	-0.016476 
3928.998192  	-0.016145 
3930.927008  	-0.014999 
3932.855824  	-0.015277 
3934.784640  	-0.016725 
3936.713456  	-0.017230 
3938.642272  	-0.017201 
3940.571088  	-0.016773 
3942.499904  	-0.015600 
3944.428720  	-0.016071 
3946.357536  	-0.016522 
3948.286352  	-0.015615 
3950.215168  	-0.016253 
3952.143984  	-0.017461 
3954.072800  	-0.017844 
3956.001616  	-0.017566 
3957.930432  	-0.017198 
3959.859248  	-0.016955 
3961.788064  	-0.016825 
3963.716880  	-0.017215 
3965.645696  	-0.017758 
3967.574512  	-0.017840 
3969.503328  	-0.017724 
3971.432144  	-0.017435 
3973.360960  	-0.017056 
3975.289776  	-0.016840 
3977.218592  	-0.017233 
3979.147408  	-0.017674 
3981.076224  	-0.017580 
3983.005040  	-0.017675 
3984.933856  	-0.017681 
3986.862672  	-0.017447 
3988.791488  	-0.017347 
3990.720304  	-0.017138 
3992.649120  	-0.017231 
3994.577936  	-0.017459 
3996.506752  	-0.017746 
3998.435568  	-0.017843 
4000.364384  	-0.017726 