##TITLE=No Description
##DATA TYPE=INFRARED SPECTRUM
##XUNITS=1/CM
##YUNITS=Abs
399.264912  	0.408902 
401.193728  	0.391475 
403.122544  	0.385054 
405.051360  	0.382256 
406.980176  	0.384864 
408.908992  	0.388036 
410.837808  	0.393718 
412.766624  	0.380085 
414.695440  	0.372906 
416.624256  	0.374522 
418.553072  	0.383085 
420.481888  	0.374610 
422.410704  	0.376526 
424.339520  	0.372510 
426.268336  	0.367232 
428.197152  	0.364252 
430.125968  	0.363576 
432.054784  	0.355965 
433.983600  	0.353608 
435.912416  	0.355786 
437.841232  	0.355332 
439.770048  	0.348623 
441.698864  	0.349177 
443.627680  	0.343128 
445.556496  	0.342176 
447.485312  	0.344018 
449.414128  	0.343988 
451.342944  	0.343363 
453.271760  	0.344370 
455.200576  	0.340835 
457.129392  	0.341369 
459.058208  	0.339291 
460.987024  	0.338568 
462.915840  	0.336924 
464.844656  	0.337669 
466.773472  	0.337963 
468.702288  	0.333500 
470.631104  	0.331212 
472.559920  	0.336596 
474.488736  	0.331826 
476.417552  	0.332958 
478.346368  	0.335580 
480.275184  	0.331337 
482.204000  	0.328062 
484.132816  	0.332376 
486.061632  	0.331928 
487.990448  	0.329787 
489.919264  	0.329467 
491.848080  	0.326089 
493.776896  	0.322719 
495.705712  	0.323101 
497.634528  	0.320767 
499.563344  	0.318796 
501.492160  	0.318563 
503.420976  	0.321532 
505.349792  	0.320879 
507.278608  	0.320336 
509.207424  	0.317327 
511.136240  	0.319414 
513.065056  	0.319410 
514.993872  	0.320909 
516.922688  	0.324068 
518.851504  	0.324936 
520.780320  	0.322381 
522.709136  	0.321554 
524.637952  	0.320219 
526.566768  	0.318515 
528.495584  	0.315665 
530.424400  	0.314224 
532.353216  	0.311595 
534.282032  	0.307401 
536.210848  	0.304155 
538.139664  	0.301331 
540.068480  	0.297823 
541.997296  	0.295621 
543.926112  	0.293439 
545.854928  	0.291955 
547.783744  	0.289571 
549.712560  	0.288297 
551.641376  	0.285676 
553.570192  	0.283607 
555.499008  	0.280931 
557.427824  	0.279246 
559.356640  	0.276559 
561.285456  	0.275083 
563.214272  	0.273163 
565.143088  	0.271305 
567.071904  	0.268908 
569.000720  	0.266605 
570.929536  	0.264179 
572.858352  	0.261692 
574.787168  	0.260570 
576.715984  	0.259746 
578.644800  	0.257057 
580.573616  	0.254400 
582.502432  	0.250391 
584.431248  	0.247278 
586.360064  	0.243784 
588.288880  	0.241620 
590.217696  	0.241063 
592.146512  	0.240772 
594.075328  	0.238700 
596.004144  	0.236931 
597.932960  	0.235123 
599.861776  	0.234639 
601.790592  	0.233867 
603.719408  	0.233105 
605.648224  	0.232222 
607.577040  	0.231422 
609.505856  	0.230103 
611.434672  	0.228879 
613.363488  	0.227789 
615.292304  	0.227150 
617.221120  	0.226381 
619.149936  	0.225090 
621.078752  	0.223911 
623.007568  	0.223787 
624.936384  	0.222742 
626.865200  	0.221581 
628.794016  	0.220595 
630.722832  	0.220417 
632.651648  	0.220521 
634.580464  	0.220817 
636.509280  	0.220977 
638.438096  	0.220656 
640.366912  	0.219907 
642.295728  	0.218957 
644.224544  	0.217429 
646.153360  	0.215012 
648.082176  	0.212342 
650.010992  	0.210398 
651.939808  	0.208265 
653.868624  	0.205999 
655.797440  	0.203112 
657.726256  	0.201122 
659.655072  	0.199010 
661.583888  	0.195975 
663.512704  	0.193116 
665.441520  	0.190065 
667.370336  	0.188131 
669.299152  	0.187916 
671.227968  	0.182928 
673.156784  	0.179701 
675.085600  	0.178022 
677.014416  	0.176323 
678.943232  	0.174950 
680.872048  	0.174103 
682.800864  	0.173208 
684.729680  	0.172140 
686.658496  	0.170895 
688.587312  	0.170410 
690.516128  	0.169704 
692.444944  	0.168958 
694.373760  	0.167932 
696.302576  	0.167140 
698.231392  	0.165881 
700.160208  	0.164025 
702.089024  	0.161730 
704.017840  	0.160252 
705.946656  	0.158748 
707.875472  	0.156876 
709.804288  	0.155618 
711.733104  	0.154441 
713.661920  	0.152942 
715.590736  	0.151846 
717.519552  	0.151863 
719.448368  	0.152664 
721.377184  	0.153187 
723.306000  	0.153259 
725.234816  	0.153507 
727.163632  	0.153258 
729.092448  	0.151516 
731.021264  	0.149047 
732.950080  	0.146584 
734.878896  	0.144668 
736.807712  	0.142871 
738.736528  	0.141183 
740.665344  	0.139812 
742.594160  	0.139171 
744.522976  	0.138214 
746.451792  	0.136992 
748.380608  	0.135732 
750.309424  	0.134851 
752.238240  	0.134170 
754.167056  	0.133644 
756.095872  	0.133038 
758.024688  	0.132212 
759.953504  	0.131878 
761.882320  	0.132523 
763.811136  	0.133196 
765.739952  	0.132291 
767.668768  	0.130136 
769.597584  	0.128293 
771.526400  	0.127804 
773.455216  	0.128890 
775.384032  	0.131546 
777.312848  	0.135203 
779.241664  	0.137750 
781.170480  	0.137444 
783.099296  	0.134359 
785.028112  	0.130582 
786.956928  	0.126859 
788.885744  	0.123740 
790.814560  	0.121435 
792.743376  	0.120331 
794.672192  	0.119704 
796.601008  	0.118873 
798.529824  	0.116822 
800.458640  	0.113873 
802.387456  	0.111625 
804.316272  	0.110509 
806.245088  	0.109913 
808.173904  	0.109248 
810.102720  	0.108906 
812.031536  	0.108655 
813.960352  	0.108475 
815.889168  	0.108828 
817.817984  	0.109367 
819.746800  	0.109934 
821.675616  	0.110343 
823.604432  	0.110571 
825.533248  	0.110886 
827.462064  	0.111343 
829.390880  	0.111108 
831.319696  	0.110833 
833.248512  	0.110209 
835.177328  	0.109073 
837.106144  	0.107255 
839.034960  	0.105149 
840.963776  	0.102472 
842.892592  	0.099744 
844.821408  	0.097291 
846.750224  	0.094987 
848.679040  	0.092941 
850.607856  	0.091479 
852.536672  	0.090553 
854.465488  	0.089693 
856.394304  	0.088810 
858.323120  	0.087611 
860.251936  	0.086564 
862.180752  	0.085515 
864.109568  	0.084017 
866.038384  	0.082496 
867.967200  	0.080884 
869.896016  	0.079500 
871.824832  	0.078754 
873.753648  	0.078969 
875.682464  	0.079281 
877.611280  	0.080147 
879.540096  	0.081634 
881.468912  	0.083373 
883.397728  	0.085046 
885.326544  	0.086453 
887.255360  	0.087254 
889.184176  	0.087548 
891.112992  	0.087183 
893.041808  	0.086176 
894.970624  	0.084550 
896.899440  	0.082136 
898.828256  	0.079006 
900.757072  	0.075915 
902.685888  	0.073380 
904.614704  	0.071920 
906.543520  	0.071751 
908.472336  	0.073009 
910.401152  	0.074879 
912.329968  	0.077025 
914.258784  	0.079053 
916.187600  	0.081129 
918.116416  	0.082721 
920.045232  	0.083890 
921.974048  	0.084595 
923.902864  	0.085103 
925.831680  	0.085760 
927.760496  	0.086416 
929.689312  	0.087183 
931.618128  	0.088097 
933.546944  	0.088806 
935.475760  	0.089050 
937.404576  	0.088969 
939.333392  	0.088533 
941.262208  	0.088358 
943.191024  	0.089307 
945.119840  	0.091549 
947.048656  	0.095422 
948.977472  	0.101060 
950.906288  	0.107996 
952.835104  	0.116231 
954.763920  	0.125355 
956.692736  	0.134183 
958.621552  	0.141982 
960.550368  	0.147682 
962.479184  	0.150728 
964.408000  	0.150625 
966.336816  	0.147742 
968.265632  	0.142019 
970.194448  	0.134130 
972.123264  	0.124708 
974.052080  	0.114726 
975.980896  	0.104824 
977.909712  	0.095472 
979.838528  	0.087359 
981.767344  	0.080711 
983.696160  	0.075751 
985.624976  	0.072560 
987.553792  	0.071495 
989.482608  	0.072448 
991.411424  	0.075050 
993.340240  	0.079309 
995.269056  	0.084273 
997.197872  	0.089318 
999.126688  	0.094309 
1001.055504  	0.099559 
1002.984320  	0.104396 
1004.913136  	0.109346 
1006.841952  	0.114117 
1008.770768  	0.118379 
1010.699584  	0.121705 
1012.628400  	0.124228 
1014.557216  	0.125982 
1016.486032  	0.126654 
1018.414848  	0.126816 
1020.343664  	0.126616 
1022.272480  	0.126254 
1024.201296  	0.125847 
1026.130112  	0.125250 
1028.058928  	0.125361 
1029.987744  	0.126660 
1031.916560  	0.128487 
1033.845376  	0.130556 
1035.774192  	0.133533 
1037.703008  	0.137565 
1039.631824  	0.143457 
1041.560640  	0.151095 
1043.489456  	0.160725 
1045.418272  	0.170858 
1047.347088  	0.180261 
1049.275904  	0.186307 
1051.204720  	0.188948 
1053.133536  	0.188775 
1055.062352  	0.186527 
1056.991168  	0.183521 
1058.919984  	0.181553 
1060.848800  	0.180020 
1062.777616  	0.178383 
1064.706432  	0.176057 
1066.635248  	0.173662 
1068.564064  	0.170940 
1070.492880  	0.167321 
1072.421696  	0.163327 
1074.350512  	0.160855 
1076.279328  	0.160502 
1078.208144  	0.162717 
1080.136960  	0.165781 
1082.065776  	0.168151 
1083.994592  	0.168131 
1085.923408  	0.165714 
1087.852224  	0.160866 
1089.781040  	0.154964 
1091.709856  	0.148086 
1093.638672  	0.140247 
1095.567488  	0.131349 
1097.496304  	0.122556 
1099.425120  	0.113961 
1101.353936  	0.105592 
1103.282752  	0.097645 
1105.211568  	0.090263 
1107.140384  	0.083672 
1109.069200  	0.077812 
1110.998016  	0.072062 
1112.926832  	0.066705 
1114.855648  	0.062092 
1116.784464  	0.057746 
1118.713280  	0.053404 
1120.642096  	0.049245 
1122.570912  	0.045394 
1124.499728  	0.041851 
1126.428544  	0.038915 
1128.357360  	0.036416 
1130.286176  	0.034060 
1132.214992  	0.032128 
1134.143808  	0.030897 
1136.072624  	0.029986 
1138.001440  	0.028915 
1139.930256  	0.027704 
1141.859072  	0.026612 
1143.787888  	0.025434 
1145.716704  	0.024513 
1147.645520  	0.023747 
1149.574336  	0.023334 
1151.503152  	0.022683 
1153.431968  	0.022270 
1155.360784  	0.022438 
1157.289600  	0.023332 
1159.218416  	0.024405 
1161.147232  	0.025546 
1163.076048  	0.026962 
1165.004864  	0.028389 
1166.933680  	0.029651 
1168.862496  	0.031190 
1170.791312  	0.032932 
1172.720128  	0.034991 
1174.648944  	0.037204 
1176.577760  	0.039098 
1178.506576  	0.041268 
1180.435392  	0.043747 
1182.364208  	0.046024 
1184.293024  	0.048542 
1186.221840  	0.051564 
1188.150656  	0.054924 
1190.079472  	0.058519 
1192.008288  	0.063001 
1193.937104  	0.068034 
1195.865920  	0.073349 
1197.794736  	0.079063 
1199.723552  	0.085273 
1201.652368  	0.091414 
1203.581184  	0.097060 
1205.510000  	0.102366 
1207.438816  	0.106883 
1209.367632  	0.110781 
1211.296448  	0.113860 
1213.225264  	0.116199 
1215.154080  	0.117320 
1217.082896  	0.117690 
1219.011712  	0.117504 
1220.940528  	0.116852 
1222.869344  	0.115739 
1224.798160  	0.114604 
1226.726976  	0.112743 
1228.655792  	0.110365 
1230.584608  	0.107753 
1232.513424  	0.104843 
1234.442240  	0.101605 
1236.371056  	0.098168 
1238.299872  	0.094428 
1240.228688  	0.090197 
1242.157504  	0.086035 
1244.086320  	0.082043 
1246.015136  	0.077702 
1247.943952  	0.073536 
1249.872768  	0.069365 
1251.801584  	0.065415 
1253.730400  	0.061740 
1255.659216  	0.058151 
1257.588032  	0.054590 
1259.516848  	0.051438 
1261.445664  	0.048433 
1263.374480  	0.045494 
1265.303296  	0.043117 
1267.232112  	0.041260 
1269.160928  	0.040085 
1271.089744  	0.039334 
1273.018560  	0.038656 
1274.947376  	0.038434 
1276.876192  	0.038870 
1278.805008  	0.039186 
1280.733824  	0.039064 
1282.662640  	0.038097 
1284.591456  	0.036919 
1286.520272  	0.036182 
1288.449088  	0.035750 
1290.377904  	0.035345 
1292.306720  	0.035668 
1294.235536  	0.036078 
1296.164352  	0.036077 
1298.093168  	0.034909 
1300.021984  	0.033205 
1301.950800  	0.031410 
1303.879616  	0.029455 
1305.808432  	0.027372 
1307.737248  	0.025325 
1309.666064  	0.023170 
1311.594880  	0.022143 
1313.523696  	0.021595 
1315.452512  	0.020683 
1317.381328  	0.020704 
1319.310144  	0.020946 
1321.238960  	0.020445 
1323.167776  	0.020373 
1325.096592  	0.020638 
1327.025408  	0.020840 
1328.954224  	0.020840 
1330.883040  	0.020376 
1332.811856  	0.019521 
1334.740672  	0.019227 
1336.669488  	0.020410 
1338.598304  	0.022778 
1340.527120  	0.022209 
1342.455936  	0.018723 
1344.384752  	0.017633 
1346.313568  	0.017906 
1348.242384  	0.018560 
1350.171200  	0.019325 
1352.100016  	0.020243 
1354.028832  	0.021800 
1355.957648  	0.023356 
1357.886464  	0.024528 
1359.815280  	0.026492 
1361.744096  	0.030143 
1363.672912  	0.031612 
1365.601728  	0.030149 
1367.530544  	0.031047 
1369.459360  	0.032351 
1371.388176  	0.032418 
1373.316992  	0.033702 
1375.245808  	0.033146 
1377.174624  	0.030047 
1379.103440  	0.028005 
1381.032256  	0.025724 
1382.961072  	0.023817 
1384.889888  	0.023377 
1386.818704  	0.024815 
1388.747520  	0.023131 
1390.676336  	0.020307 
1392.605152  	0.019471 
1394.533968  	0.021197 
1396.462784  	0.022237 
1398.391600  	0.021897 
1400.320416  	0.020388 
1402.249232  	0.018846 
1404.178048  	0.020304 
1406.106864  	0.020979 
1408.035680  	0.020769 
1409.964496  	0.022147 
1411.893312  	0.023698 
1413.822128  	0.024798 
1415.750944  	0.027689 
1417.679760  	0.031509 
1419.608576  	0.032595 
1421.537392  	0.029891 
1423.466208  	0.029687 
1425.395024  	0.028057 
1427.323840  	0.025598 
1429.252656  	0.025217 
1431.181472  	0.024280 
1433.110288  	0.023257 
1435.039104  	0.024154 
1436.967920  	0.026509 
1438.896736  	0.024849 
1440.825552  	0.023946 
1442.754368  	0.024224 
1444.683184  	0.024358 
1446.612000  	0.025426 
1448.540816  	0.026328 
1450.469632  	0.025656 
1452.398448  	0.026149 
1454.327264  	0.027537 
1456.256080  	0.032085 
1458.184896  	0.034030 
1460.113712  	0.028476 
1462.042528  	0.025348 
1463.971344  	0.026133 
1465.900160  	0.027300 
1467.828976  	0.026354 
1469.757792  	0.027124 
1471.686608  	0.032737 
1473.615424  	0.039930 
1475.544240  	0.040718 
1477.473056  	0.041513 
1479.401872  	0.041796 
1481.330688  	0.044377 
1483.259504  	0.045356 
1485.188320  	0.046365 
1487.117136  	0.049272 
1489.045952  	0.053013 
1490.974768  	0.051073 
1492.903584  	0.044871 
1494.832400  	0.041844 
1496.761216  	0.041301 
1498.690032  	0.037738 
1500.618848  	0.033324 
1502.547664  	0.029425 
1504.476480  	0.027836 
1506.405296  	0.034707 
1508.334112  	0.036888 
1510.262928  	0.029042 
1512.191744  	0.024378 
1514.120560  	0.023348 
1516.049376  	0.026624 
1517.978192  	0.027652 
1519.907008  	0.027810 
1521.835824  	0.033035 
1523.764640  	0.032408 
1525.693456  	0.033646 
1527.622272  	0.034244 
1529.551088  	0.031931 
1531.479904  	0.030927 
1533.408720  	0.032284 
1535.337536  	0.028837 
1537.266352  	0.026032 
1539.195168  	0.028393 
1541.123984  	0.030589 
1543.052800  	0.028058 
1544.981616  	0.025124 
1546.910432  	0.019850 
1548.839248  	0.019634 
1550.768064  	0.020926 
1552.696880  	0.019519 
1554.625696  	0.021435 
1556.554512  	0.022265 
1558.483328  	0.028921 
1560.412144  	0.029774 
1562.340960  	0.025414 
1564.269776  	0.026091 
1566.198592  	0.028659 
1568.127408  	0.030862 
1570.056224  	0.037047 
1571.985040  	0.037930 
1573.913856  	0.038446 
1575.842672  	0.043063 
1577.771488  	0.046025 
1579.700304  	0.042753 
1581.629120  	0.041520 
1583.557936  	0.041179 
1585.486752  	0.041912 
1587.415568  	0.043218 
1589.344384  	0.046109 
1591.273200  	0.049456 
1593.202016  	0.053689 
1595.130832  	0.058304 
1597.059648  	0.062351 
1598.988464  	0.065259 
1600.917280  	0.068962 
1602.846096  	0.071817 
1604.774912  	0.073157 
1606.703728  	0.073411 
1608.632544  	0.074002 
1610.561360  	0.072799 
1612.490176  	0.071146 
1614.418992  	0.069069 
1616.347808  	0.071943 
1618.276624  	0.074684 
1620.205440  	0.073194 
1622.134256  	0.074991 
1624.063072  	0.081355 
1625.991888  	0.082626 
1627.920704  	0.086867 
1629.849520  	0.090805 
1631.778336  	0.092427 
1633.707152  	0.094079 
1635.635968  	0.105135 
1637.564784  	0.112400 
1639.493600  	0.109550 
1641.422416  	0.109190 
1643.351232  	0.108547 
1645.280048  	0.108927 
1647.208864  	0.118196 
1649.137680  	0.115091 
1651.066496  	0.106531 
1652.995312  	0.112979 
1654.924128  	0.118969 
1656.852944  	0.109013 
1658.781760  	0.104060 
1660.710576  	0.101724 
1662.639392  	0.102436 
1664.568208  	0.100018 
1666.497024  	0.094936 
1668.425840  	0.094031 
1670.354656  	0.095120 
1672.283472  	0.090526 
1674.212288  	0.086686 
1676.141104  	0.087038 
1678.069920  	0.083494 
1679.998736  	0.083233 
1681.927552  	0.081830 
1683.856368  	0.084998 
1685.785184  	0.086527 
1687.714000  	0.081399 
1689.642816  	0.080188 
1691.571632  	0.077374 
1693.500448  	0.074359 
1695.429264  	0.076779 
1697.358080  	0.079979 
1699.286896  	0.076527 
1701.215712  	0.079131 
1703.144528  	0.074080 
1705.073344  	0.072166 
1707.002160  	0.070050 
1708.930976  	0.065516 
1710.859792  	0.061741 
1712.788608  	0.058580 
1714.717424  	0.056845 
1716.646240  	0.054282 
1718.575056  	0.047059 
1720.503872  	0.037887 
1722.432688  	0.031898 
1724.361504  	0.026288 
1726.290320  	0.020816 
1728.219136  	0.017868 
1730.147952  	0.016754 
1732.076768  	0.014985 
1734.005584  	0.013990 
1735.934400  	0.008815 
1737.863216  	0.006363 
1739.792032  	0.005272 
1741.720848  	0.004108 
1743.649664  	0.004428 
1745.578480  	0.003490 
1747.507296  	0.003846 
1749.436112  	0.004524 
1751.364928  	0.002557 
1753.293744  	-0.000956 
1755.222560  	-0.001969 
1757.151376  	-0.000946 
1759.080192  	-0.001908 
1761.009008  	-0.001838 
1762.937824  	-0.002680 
1764.866640  	-0.004105 
1766.795456  	-0.003337 
1768.724272  	-0.002208 
1770.653088  	-0.002031 
1772.581904  	-0.001253 
1774.510720  	-0.002741 
1776.439536  	-0.003867 
1778.368352  	-0.004594 
1780.297168  	-0.004003 
1782.225984  	-0.004914 
1784.154800  	-0.005098 
1786.083616  	-0.005609 
1788.012432  	-0.006059 
1789.941248  	-0.004319 
1791.870064  	-0.002263 
1793.798880  	-0.003766 
1795.727696  	-0.004584 
1797.656512  	-0.005532 
1799.585328  	-0.005348 
1801.514144  	-0.004615 
1803.442960  	-0.005926 
1805.371776  	-0.006932 
1807.300592  	-0.006767 
1809.229408  	-0.006437 
1811.158224  	-0.006096 
1813.087040  	-0.007182 
1815.015856  	-0.008090 
1816.944672  	-0.007551 
1818.873488  	-0.007467 
1820.802304  	-0.007508 
1822.731120  	-0.006887 
1824.659936  	-0.006082 
1826.588752  	-0.006324 
1828.517568  	-0.006125 
1830.446384  	-0.005707 
1832.375200  	-0.007396 
1834.304016  	-0.007840 
1836.232832  	-0.007545 
1838.161648  	-0.007393 
1840.090464  	-0.007783 
1842.019280  	-0.006827 
1843.948096  	-0.005374 
1845.876912  	-0.005596 
1847.805728  	-0.006808 
1849.734544  	-0.008049 
1851.663360  	-0.008809 
1853.592176  	-0.008664 
1855.520992  	-0.008789 
1857.449808  	-0.008308 
1859.378624  	-0.008329 
1861.307440  	-0.008453 
1863.236256  	-0.008840 
1865.165072  	-0.008071 
1867.093888  	-0.006364 
1869.022704  	-0.005212 
1870.951520  	-0.007107 
1872.880336  	-0.008587 
1874.809152  	-0.009198 
1876.737968  	-0.009207 
1878.666784  	-0.009336 
1880.595600  	-0.009516 
1882.524416  	-0.009341 
1884.453232  	-0.008931 
1886.382048  	-0.009136 
1888.310864  	-0.007914 
1890.239680  	-0.007295 
1892.168496  	-0.008304 
1894.097312  	-0.008471 
1896.026128  	-0.008500 
1897.954944  	-0.009086 
1899.883760  	-0.009233 
1901.812576  	-0.009148 
1903.741392  	-0.008817 
1905.670208  	-0.009030 
1907.599024  	-0.008829 
1909.527840  	-0.008473 
1911.456656  	-0.008391 
1913.385472  	-0.008531 
1915.314288  	-0.008178 
1917.243104  	-0.007590 
1919.171920  	-0.007470 
1921.100736  	-0.007730 
1923.029552  	-0.007187 
1924.958368  	-0.009207 
1926.887184  	-0.010088 
1928.816000  	-0.010126 
1930.744816  	-0.009644 
1932.673632  	-0.009485 
1934.602448  	-0.009171 
1936.531264  	-0.009299 
1938.460080  	-0.009113 
1940.388896  	-0.008375 
1942.317712  	-0.007114 
1944.246528  	-0.008629 
1946.175344  	-0.008995 
1948.104160  	-0.009017 
1950.032976  	-0.009055 
1951.961792  	-0.009773 
1953.890608  	-0.009811 
1955.819424  	-0.010318 
1957.748240  	-0.010570 
1959.677056  	-0.010637 
1961.605872  	-0.010308 
1963.534688  	-0.010489 
1965.463504  	-0.009057 
1967.392320  	-0.008677 
1969.321136  	-0.009831 
1971.249952  	-0.011288 
1973.178768  	-0.011491 
1975.107584  	-0.010656 
1977.036400  	-0.008740 
1978.965216  	-0.008495 
1980.894032  	-0.009177 
1982.822848  	-0.010314 
1984.751664  	-0.009850 
1986.680480  	-0.009266 
1988.609296  	-0.008607 
1990.538112  	-0.008117 
1992.466928  	-0.007043 
1994.395744  	-0.008574 
1996.324560  	-0.009665 
1998.253376  	-0.009729 
2000.182192  	-0.009795 
2002.111008  	-0.010149 
2004.039824  	-0.010093 
2005.968640  	-0.010548 
2007.897456  	-0.009383 
2009.826272  	-0.008825 
2011.755088  	-0.008392 
2013.683904  	-0.008979 
2015.612720  	-0.009224 
2017.541536  	-0.008870 
2019.470352  	-0.008977 
2021.399168  	-0.010747 
2023.327984  	-0.010019 
2025.256800  	-0.008851 
2027.185616  	-0.007894 
2029.114432  	-0.008370 
2031.043248  	-0.008524 
2032.972064  	-0.008697 
2034.900880  	-0.008147 
2036.829696  	-0.008617 
2038.758512  	-0.009359 
2040.687328  	-0.010154 
2042.616144  	-0.009474 
2044.544960  	-0.009764 
2046.473776  	-0.009886 
2048.402592  	-0.008864 
2050.331408  	-0.008180 
2052.260224  	-0.008347 
2054.189040  	-0.008553 
2056.117856  	-0.009149 
2058.046672  	-0.008703 
2059.975488  	-0.007962 
2061.904304  	-0.007491 
2063.833120  	-0.007799 
2065.761936  	-0.007959 
2067.690752  	-0.008082 
2069.619568  	-0.007987 
2071.548384  	-0.008371 
2073.477200  	-0.008179 
2075.406016  	-0.007799 
2077.334832  	-0.007243 
2079.263648  	-0.007155 
2081.192464  	-0.007208 
2083.121280  	-0.007583 
2085.050096  	-0.007900 
2086.978912  	-0.008016 
2088.907728  	-0.007526 
2090.836544  	-0.007204 
2092.765360  	-0.007231 
2094.694176  	-0.007562 
2096.622992  	-0.007473 
2098.551808  	-0.007547 
2100.480624  	-0.007582 
2102.409440  	-0.007489 
2104.338256  	-0.007103 
2106.267072  	-0.007230 
2108.195888  	-0.007321 
2110.124704  	-0.007345 
2112.053520  	-0.007234 
2113.982336  	-0.007095 
2115.911152  	-0.007103 
2117.839968  	-0.007602 
2119.768784  	-0.007735 
2121.697600  	-0.007719 
2123.626416  	-0.007847 
2125.555232  	-0.008301 
2127.484048  	-0.008620 
2129.412864  	-0.008251 
2131.341680  	-0.007596 
2133.270496  	-0.007913 
2135.199312  	-0.008069 
2137.128128  	-0.007515 
2139.056944  	-0.006460 
2140.985760  	-0.006576 
2142.914576  	-0.007160 
2144.843392  	-0.008306 
2146.772208  	-0.007982 
2148.701024  	-0.007832 
2150.629840  	-0.007657 
2152.558656  	-0.007680 
2154.487472  	-0.007929 
2156.416288  	-0.007437 
2158.345104  	-0.004247 
2160.273920  	-0.003146 
2162.202736  	-0.003932 
2164.131552  	-0.006144 
2166.060368  	-0.006377 
2167.989184  	-0.006145 
2169.918000  	-0.007167 
2171.846816  	-0.007222 
2173.775632  	-0.006850 
2175.704448  	-0.007217 
2177.633264  	-0.006472 
2179.562080  	-0.007276 
2181.490896  	-0.006669 
2183.419712  	-0.006130 
2185.348528  	-0.006290 
2187.277344  	-0.006311 
2189.206160  	-0.006656 
2191.134976  	-0.007289 
2193.063792  	-0.007128 
2194.992608  	-0.006613 
2196.921424  	-0.006857 
2198.850240  	-0.007882 
2200.779056  	-0.008009 
2202.707872  	-0.008018 
2204.636688  	-0.007764 
2206.565504  	-0.007886 
2208.494320  	-0.008090 
2210.423136  	-0.008050 
2212.351952  	-0.008090 
2214.280768  	-0.008524 
2216.209584  	-0.008341 
2218.138400  	-0.008435 
2220.067216  	-0.008597 
2221.996032  	-0.009112 
2223.924848  	-0.008507 
2225.853664  	-0.008064 
2227.782480  	-0.007509 
2229.711296  	-0.008011 
2231.640112  	-0.008288 
2233.568928  	-0.008890 
2235.497744  	-0.009084 
2237.426560  	-0.008973 
2239.355376  	-0.008745 
2241.284192  	-0.009165 
2243.213008  	-0.009187 
2245.141824  	-0.008927 
2247.070640  	-0.008880 
2248.999456  	-0.008961 
2250.928272  	-0.008930 
2252.857088  	-0.008896 
2254.785904  	-0.008588 
2256.714720  	-0.008530 
2258.643536  	-0.008563 
2260.572352  	-0.008316 
2262.501168  	-0.007925 
2264.429984  	-0.007812 
2266.358800  	-0.008004 
2268.287616  	-0.008402 
2270.216432  	-0.008602 
2272.145248  	-0.008600 
2274.074064  	-0.008236 
2276.002880  	-0.008444 
2277.931696  	-0.008250 
2279.860512  	-0.008009 
2281.789328  	-0.007926 
2283.718144  	-0.007708 
2285.646960  	-0.007151 
2287.575776  	-0.007002 
2289.504592  	-0.006993 
2291.433408  	-0.006914 
2293.362224  	-0.006549 
2295.291040  	-0.006449 
2297.219856  	-0.006244 
2299.148672  	-0.005984 
2301.077488  	-0.005524 
2303.006304  	-0.004793 
2304.935120  	-0.004262 
2306.863936  	-0.004033 
2308.792752  	-0.003915 
2310.721568  	-0.003841 
2312.650384  	-0.003916 
2314.579200  	-0.004479 
2316.508016  	-0.004315 
2318.436832  	-0.003989 
2320.365648  	-0.003866 
2322.294464  	-0.004265 
2324.223280  	-0.005330 
2326.152096  	-0.006722 
2328.080912  	-0.007858 
2330.009728  	-0.008311 
2331.938544  	-0.008784 
2333.867360  	-0.009606 
2335.796176  	-0.010224 
2337.724992  	-0.010887 
2339.653808  	-0.011339 
2341.582624  	-0.010759 
2343.511440  	-0.009365 
2345.440256  	-0.007892 
2347.369072  	-0.007006 
2349.297888  	-0.006952 
2351.226704  	-0.007993 
2353.155520  	-0.009599 
2355.084336  	-0.010727 
2357.013152  	-0.011360 
2358.941968  	-0.011577 
2360.870784  	-0.012052 
2362.799600  	-0.011679 
2364.728416  	-0.010550 
2366.657232  	-0.009665 
2368.586048  	-0.009076 
2370.514864  	-0.008134 
2372.443680  	-0.007195 
2374.372496  	-0.006018 
2376.301312  	-0.005206 
2378.230128  	-0.004961 
2380.158944  	-0.005261 
2382.087760  	-0.005818 
2384.016576  	-0.006807 
2385.945392  	-0.007701 
2387.874208  	-0.008091 
2389.803024  	-0.008400 
2391.731840  	-0.008863 
2393.660656  	-0.008870 
2395.589472  	-0.008663 
2397.518288  	-0.008760 
2399.447104  	-0.008940 
2401.375920  	-0.008928 
2403.304736  	-0.009075 
2405.233552  	-0.009052 
2407.162368  	-0.009007 
2409.091184  	-0.009049 
2411.020000  	-0.009145 
2412.948816  	-0.009231 
2414.877632  	-0.009237 
2416.806448  	-0.009140 
2418.735264  	-0.009136 
2420.664080  	-0.009021 
2422.592896  	-0.008961 
2424.521712  	-0.008943 
2426.450528  	-0.009066 
2428.379344  	-0.008948 
2430.308160  	-0.008599 
2432.236976  	-0.008611 
2434.165792  	-0.008688 
2436.094608  	-0.008659 
2438.023424  	-0.008643 
2439.952240  	-0.008618 
2441.881056  	-0.008540 
2443.809872  	-0.008411 
2445.738688  	-0.008438 
2447.667504  	-0.008284 
2449.596320  	-0.007999 
2451.525136  	-0.007921 
2453.453952  	-0.008006 
2455.382768  	-0.007946 
2457.311584  	-0.007959 
2459.240400  	-0.008113 
2461.169216  	-0.008208 
2463.098032  	-0.007984 
2465.026848  	-0.007883 
2466.955664  	-0.008016 
2468.884480  	-0.008390 
2470.813296  	-0.008616 
2472.742112  	-0.008432 
2474.670928  	-0.007955 
2476.599744  	-0.007767 
2478.528560  	-0.007642 
2480.457376  	-0.007553 
2482.386192  	-0.007403 
2484.315008  	-0.007547 
2486.243824  	-0.007589 
2488.172640  	-0.007420 
2490.101456  	-0.007319 
2492.030272  	-0.007282 
2493.959088  	-0.007253 
2495.887904  	-0.007350 
2497.816720  	-0.007319 
2499.745536  	-0.007352 
2501.674352  	-0.007342 
2503.603168  	-0.007289 
2505.531984  	-0.007206 
2507.460800  	-0.007257 
2509.389616  	-0.007402 
2511.318432  	-0.007346 
2513.247248  	-0.007086 
2515.176064  	-0.007034 
2517.104880  	-0.007239 
2519.033696  	-0.007342 
2520.962512  	-0.007031 
2522.891328  	-0.006915 
2524.820144  	-0.006748 
2526.748960  	-0.006662 
2528.677776  	-0.006659 
2530.606592  	-0.006585 
2532.535408  	-0.006571 
2534.464224  	-0.006671 
2536.393040  	-0.006694 
2538.321856  	-0.006521 
2540.250672  	-0.006411 
2542.179488  	-0.006325 
2544.108304  	-0.006189 
2546.037120  	-0.006036 
2547.965936  	-0.005861 
2549.894752  	-0.005806 
2551.823568  	-0.005677 
2553.752384  	-0.005572 
2555.681200  	-0.005702 
2557.610016  	-0.005775 
2559.538832  	-0.005789 
2561.467648  	-0.005546 
2563.396464  	-0.005336 
2565.325280  	-0.005563 
2567.254096  	-0.005806 
2569.182912  	-0.005732 
2571.111728  	-0.005622 
2573.040544  	-0.005583 
2574.969360  	-0.005341 
2576.898176  	-0.005199 
2578.826992  	-0.005295 
2580.755808  	-0.005329 
2582.684624  	-0.005120 
2584.613440  	-0.005088 
2586.542256  	-0.005064 
2588.471072  	-0.005103 
2590.399888  	-0.005067 
2592.328704  	-0.004913 
2594.257520  	-0.004671 
2596.186336  	-0.004883 
2598.115152  	-0.004986 
2600.043968  	-0.004595 
2601.972784  	-0.004335 
2603.901600  	-0.004392 
2605.830416  	-0.004491 
2607.759232  	-0.004412 
2609.688048  	-0.004443 
2611.616864  	-0.004346 
2613.545680  	-0.004089 
2615.474496  	-0.003864 
2617.403312  	-0.003756 
2619.332128  	-0.003785 
2621.260944  	-0.003877 
2623.189760  	-0.003887 
2625.118576  	-0.003726 
2627.047392  	-0.003643 
2628.976208  	-0.003519 
2630.905024  	-0.003416 
2632.833840  	-0.003358 
2634.762656  	-0.003395 
2636.691472  	-0.003337 
2638.620288  	-0.003145 
2640.549104  	-0.002925 
2642.477920  	-0.002856 
2644.406736  	-0.002884 
2646.335552  	-0.002816 
2648.264368  	-0.002732 
2650.193184  	-0.002653 
2652.122000  	-0.002575 
2654.050816  	-0.002464 
2655.979632  	-0.002351 
2657.908448  	-0.002265 
2659.837264  	-0.002191 
2661.766080  	-0.002083 
2663.694896  	-0.002077 
2665.623712  	-0.001926 
2667.552528  	-0.001751 
2669.481344  	-0.001828 
2671.410160  	-0.001827 
2673.338976  	-0.001677 
2675.267792  	-0.001481 
2677.196608  	-0.001348 
2679.125424  	-0.001254 
2681.054240  	-0.001137 
2682.983056  	-0.001015 
2684.911872  	-0.000975 
2686.840688  	-0.000977 
2688.769504  	-0.000933 
2690.698320  	-0.000799 
2692.627136  	-0.000713 
2694.555952  	-0.000740 
2696.484768  	-0.000731 
2698.413584  	-0.000614 
2700.342400  	-0.000617 
2702.271216  	-0.000470 
2704.200032  	-0.000213 
2706.128848  	-0.000087 
2708.057664  	-0.000095 
2709.986480  	-0.000155 
2711.915296  	0.000008 
2713.844112  	0.000213 
2715.772928  	0.000293 
2717.701744  	0.000250 
2719.630560  	0.000373 
2721.559376  	0.000545 
2723.488192  	0.000611 
2725.417008  	0.000790 
2727.345824  	0.000920 
2729.274640  	0.001045 
2731.203456  	0.001106 
2733.132272  	0.001150 
2735.061088  	0.001256 
2736.989904  	0.001313 
2738.918720  	0.001386 
2740.847536  	0.001401 
2742.776352  	0.001484 
2744.705168  	0.001625 
2746.633984  	0.001663 
2748.562800  	0.001740 
2750.491616  	0.001767 
2752.420432  	0.001792 
2754.349248  	0.001722 
2756.278064  	0.001676 
2758.206880  	0.001685 
2760.135696  	0.001682 
2762.064512  	0.001723 
2763.993328  	0.001779 
2765.922144  	0.001796 
2767.850960  	0.001848 
2769.779776  	0.001860 
2771.708592  	0.001854 
2773.637408  	0.001809 
2775.566224  	0.001813 
2777.495040  	0.001854 
2779.423856  	0.001846 
2781.352672  	0.001877 
2783.281488  	0.002003 
2785.210304  	0.001969 
2787.139120  	0.001894 
2789.067936  	0.001917 
2790.996752  	0.001980 
2792.925568  	0.002064 
2794.854384  	0.002061 
2796.783200  	0.001999 
2798.712016  	0.001977 
2800.640832  	0.002094 
2802.569648  	0.002234 
2804.498464  	0.002160 
2806.427280  	0.002117 
2808.356096  	0.002283 
2810.284912  	0.002313 
2812.213728  	0.002193 
2814.142544  	0.002260 
2816.071360  	0.002170 
2818.000176  	0.002169 
2819.928992  	0.002276 
2821.857808  	0.002183 
2823.786624  	0.002047 
2825.715440  	0.002118 
2827.644256  	0.002175 
2829.573072  	0.002143 
2831.501888  	0.002049 
2833.430704  	0.002041 
2835.359520  	0.002056 
2837.288336  	0.001929 
2839.217152  	0.001917 
2841.145968  	0.001926 
2843.074784  	0.001802 
2845.003600  	0.001792 
2846.932416  	0.001756 
2848.861232  	0.001789 
2850.790048  	0.001688 
2852.718864  	0.001662 
2854.647680  	0.001710 
2856.576496  	0.001733 
2858.505312  	0.001714 
2860.434128  	0.001772 
2862.362944  	0.001806 
2864.291760  	0.001866 
2866.220576  	0.001847 
2868.149392  	0.001756 
2870.078208  	0.001738 
2872.007024  	0.001947 
2873.935840  	0.002196 
2875.864656  	0.002360 
2877.793472  	0.002394 
2879.722288  	0.002602 
2881.651104  	0.002868 
2883.579920  	0.003065 
2885.508736  	0.003228 
2887.437552  	0.003442 
2889.366368  	0.003553 
2891.295184  	0.003455 
2893.224000  	0.003467 
2895.152816  	0.003604 
2897.081632  	0.003690 
2899.010448  	0.003452 
2900.939264  	0.003128 
2902.868080  	0.003313 
2904.796896  	0.003628 
2906.725712  	0.003819 
2908.654528  	0.003974 
2910.583344  	0.004229 
2912.512160  	0.004501 
2914.440976  	0.004815 
2916.369792  	0.005233 
2918.298608  	0.005514 
2920.227424  	0.005695 
2922.156240  	0.006009 
2924.085056  	0.006455 
2926.013872  	0.006785 
2927.942688  	0.007206 
2929.871504  	0.007694 
2931.800320  	0.008167 
2933.729136  	0.008700 
2935.657952  	0.009172 
2937.586768  	0.009639 
2939.515584  	0.009936 
2941.444400  	0.010030 
2943.373216  	0.010135 
2945.302032  	0.010454 
2947.230848  	0.010700 
2949.159664  	0.010633 
2951.088480  	0.010387 
2953.017296  	0.010337 
2954.946112  	0.010245 
2956.874928  	0.010088 
2958.803744  	0.009884 
2960.732560  	0.009833 
2962.661376  	0.009701 
2964.590192  	0.009524 
2966.519008  	0.009404 
2968.447824  	0.009016 
2970.376640  	0.008645 
2972.305456  	0.008539 
2974.234272  	0.008761 
2976.163088  	0.008761 
2978.091904  	0.008631 
2980.020720  	0.008626 
2981.949536  	0.008681 
2983.878352  	0.008621 
2985.807168  	0.008415 
2987.735984  	0.008344 
2989.664800  	0.008406 
2991.593616  	0.008912 
2993.522432  	0.009290 
2995.451248  	0.009436 
2997.380064  	0.009745 
2999.308880  	0.010276 
3001.237696  	0.010647 
3003.166512  	0.011023 
3005.095328  	0.011391 
3007.024144  	0.011593 
3008.952960  	0.012102 
3010.881776  	0.012749 
3012.810592  	0.013280 
3014.739408  	0.013687 
3016.668224  	0.014083 
3018.597040  	0.014377 
3020.525856  	0.014697 
3022.454672  	0.015081 
3024.383488  	0.015516 
3026.312304  	0.016087 
3028.241120  	0.016482 
3030.169936  	0.016903 
3032.098752  	0.017349 
3034.027568  	0.017530 
3035.956384  	0.017824 
3037.885200  	0.018132 
3039.814016  	0.018578 
3041.742832  	0.018949 
3043.671648  	0.019222 
3045.600464  	0.019446 
3047.529280  	0.019811 
3049.458096  	0.020430 
3051.386912  	0.020746 
3053.315728  	0.020953 
3055.244544  	0.021315 
3057.173360  	0.021850 
3059.102176  	0.022267 
3061.030992  	0.022614 
3062.959808  	0.023067 
3064.888624  	0.023710 
3066.817440  	0.024231 
3068.746256  	0.024602 
3070.675072  	0.024901 
3072.603888  	0.025399 
3074.532704  	0.025929 
3076.461520  	0.026392 
3078.390336  	0.027021 
3080.319152  	0.027679 
3082.247968  	0.028050 
3084.176784  	0.028282 
3086.105600  	0.028715 
3088.034416  	0.029270 
3089.963232  	0.029613 
3091.892048  	0.030081 
3093.820864  	0.030475 
3095.749680  	0.031137 
3097.678496  	0.031732 
3099.607312  	0.032129 
3101.536128  	0.032803 
3103.464944  	0.033298 
3105.393760  	0.033535 
3107.322576  	0.033925 
3109.251392  	0.034477 
3111.180208  	0.034780 
3113.109024  	0.034920 
3115.037840  	0.035381 
3116.966656  	0.035954 
3118.895472  	0.036404 
3120.824288  	0.036793 
3122.753104  	0.037181 
3124.681920  	0.037287 
3126.610736  	0.037516 
3128.539552  	0.037759 
3130.468368  	0.037908 
3132.397184  	0.038574 
3134.326000  	0.038960 
3136.254816  	0.038943 
3138.183632  	0.039210 
3140.112448  	0.039409 
3142.041264  	0.039809 
3143.970080  	0.040093 
3145.898896  	0.040325 
3147.827712  	0.040673 
3149.756528  	0.041250 
3151.685344  	0.041657 
3153.614160  	0.041894 
3155.542976  	0.042089 
3157.471792  	0.042384 
3159.400608  	0.042706 
3161.329424  	0.043012 
3163.258240  	0.043274 
3165.187056  	0.043350 
3167.115872  	0.043461 
3169.044688  	0.043896 
3170.973504  	0.044208 
3172.902320  	0.044326 
3174.831136  	0.044364 
3176.759952  	0.044625 
3178.688768  	0.045075 
3180.617584  	0.045054 
3182.546400  	0.044945 
3184.475216  	0.045006 
3186.404032  	0.045040 
3188.332848  	0.044968 
3190.261664  	0.044979 
3192.190480  	0.045073 
3194.119296  	0.045188 
3196.048112  	0.045031 
3197.976928  	0.045165 
3199.905744  	0.045135 
3201.834560  	0.045093 
3203.763376  	0.044978 
3205.692192  	0.044683 
3207.621008  	0.044703 
3209.549824  	0.044925 
3211.478640  	0.044758 
3213.407456  	0.044644 
3215.336272  	0.044695 
3217.265088  	0.044511 
3219.193904  	0.044654 
3221.122720  	0.044631 
3223.051536  	0.044307 
3224.980352  	0.043950 
3226.909168  	0.043825 
3228.837984  	0.043759 
3230.766800  	0.043592 
3232.695616  	0.043607 
3234.624432  	0.043548 
3236.553248  	0.043629 
3238.482064  	0.043729 
3240.410880  	0.043603 
3242.339696  	0.043525 
3244.268512  	0.043621 
3246.197328  	0.043718 
3248.126144  	0.043574 
3250.054960  	0.043566 
3251.983776  	0.043556 
3253.912592  	0.043880 
3255.841408  	0.043963 
3257.770224  	0.043877 
3259.699040  	0.043996 
3261.627856  	0.044135 
3263.556672  	0.044239 
3265.485488  	0.044472 
3267.414304  	0.044511 
3269.343120  	0.044529 
3271.271936  	0.044418 
3273.200752  	0.044622 
3275.129568  	0.045005 
3277.058384  	0.045136 
3278.987200  	0.045010 
3280.916016  	0.045016 
3282.844832  	0.044961 
3284.773648  	0.044973 
3286.702464  	0.045113 
3288.631280  	0.045394 
3290.560096  	0.045518 
3292.488912  	0.045433 
3294.417728  	0.045231 
3296.346544  	0.045250 
3298.275360  	0.045544 
3300.204176  	0.045559 
3302.132992  	0.045472 
3304.061808  	0.045681 
3305.990624  	0.045776 
3307.919440  	0.046095 
3309.848256  	0.046426 
3311.777072  	0.046436 
3313.705888  	0.046503 
3315.634704  	0.046515 
3317.563520  	0.046522 
3319.492336  	0.046628 
3321.421152  	0.046958 
3323.349968  	0.047011 
3325.278784  	0.046884 
3327.207600  	0.046995 
3329.136416  	0.046973 
3331.065232  	0.046799 
3332.994048  	0.046784 
3334.922864  	0.047009 
3336.851680  	0.047085 
3338.780496  	0.046820 
3340.709312  	0.046399 
3342.638128  	0.046419 
3344.566944  	0.046185 
3346.495760  	0.045849 
3348.424576  	0.045786 
3350.353392  	0.045852 
3352.282208  	0.045684 
3354.211024  	0.045352 
3356.139840  	0.045235 
3358.068656  	0.045098 
3359.997472  	0.044960 
3361.926288  	0.044797 
3363.855104  	0.044298 
3365.783920  	0.044164 
3367.712736  	0.043987 
3369.641552  	0.043559 
3371.570368  	0.043203 
3373.499184  	0.043063 
3375.428000  	0.042920 
3377.356816  	0.042813 
3379.285632  	0.042690 
3381.214448  	0.042292 
3383.143264  	0.042041 
3385.072080  	0.042295 
3387.000896  	0.041862 
3388.929712  	0.041203 
3390.858528  	0.041080 
3392.787344  	0.041648 
3394.716160  	0.041389 
3396.644976  	0.041151 
3398.573792  	0.040731 
3400.502608  	0.039936 
3402.431424  	0.039573 
3404.360240  	0.039303 
3406.289056  	0.038932 
3408.217872  	0.038587 
3410.146688  	0.038315 
3412.075504  	0.038040 
3414.004320  	0.037731 
3415.933136  	0.037386 
3417.861952  	0.037178 
3419.790768  	0.037573 
3421.719584  	0.037847 
3423.648400  	0.037020 
3425.577216  	0.036161 
3427.506032  	0.035826 
3429.434848  	0.035465 
3431.363664  	0.035439 
3433.292480  	0.035087 
3435.221296  	0.034500 
3437.150112  	0.034117 
3439.078928  	0.033661 
3441.007744  	0.033349 
3442.936560  	0.033470 
3444.865376  	0.032948 
3446.794192  	0.033579 
3448.723008  	0.033491 
3450.651824  	0.031941 
3452.580640  	0.031116 
3454.509456  	0.030594 
3456.438272  	0.030338 
3458.367088  	0.030175 
3460.295904  	0.030042 
3462.224720  	0.029967 
3464.153536  	0.029304 
3466.082352  	0.028605 
3468.011168  	0.028208 
3469.939984  	0.027655 
3471.868800  	0.027053 
3473.797616  	0.026366 
3475.726432  	0.025961 
3477.655248  	0.025279 
3479.584064  	0.025108 
3481.512880  	0.025653 
3483.441696  	0.025247 
3485.370512  	0.023838 
3487.299328  	0.023633 
3489.228144  	0.023322 
3491.156960  	0.022327 
3493.085776  	0.021849 
3495.014592  	0.021895 
3496.943408  	0.021733 
3498.872224  	0.020828 
3500.801040  	0.020895 
3502.729856  	0.022196 
3504.658672  	0.021717 
3506.587488  	0.019528 
3508.516304  	0.019490 
3510.445120  	0.020143 
3512.373936  	0.018875 
3514.302752  	0.017805 
3516.231568  	0.017198 
3518.160384  	0.016893 
3520.089200  	0.016381 
3522.018016  	0.016864 
3523.946832  	0.018173 
3525.875648  	0.017499 
3527.804464  	0.017056 
3529.733280  	0.016355 
3531.662096  	0.014819 
3533.590912  	0.013587 
3535.519728  	0.014001 
3537.448544  	0.013957 
3539.377360  	0.012470 
3541.306176  	0.011930 
3543.234992  	0.012841 
3545.163808  	0.015037 
3547.092624  	0.015164 
3549.021440  	0.012323 
3550.950256  	0.011045 
3552.879072  	0.011963 
3554.807888  	0.010543 
3556.736704  	0.008996 
3558.665520  	0.009243 
3560.594336  	0.009816 
3562.523152  	0.009423 
3564.451968  	0.010275 
3566.380784  	0.014695 
3568.309600  	0.015116 
3570.238416  	0.009577 
3572.167232  	0.006603 
3574.096048  	0.006007 
3576.024864  	0.005725 
3577.953680  	0.005253 
3579.882496  	0.005110 
3581.811312  	0.004379 
3583.740128  	0.004091 
3585.668944  	0.005575 
3587.597760  	0.009151 
3589.526576  	0.006385 
3591.455392  	0.002573 
3593.384208  	0.002945 
3595.313024  	0.003939 
3597.241840  	0.002740 
3599.170656  	0.001657 
3601.099472  	0.001428 
3603.028288  	-0.000162 
3604.957104  	-0.001413 
3606.885920  	0.000247 
3608.814736  	0.001888 
3610.743552  	0.000211 
3612.672368  	0.000455 
3614.601184  	0.000551 
3616.530000  	-0.001160 
3618.458816  	-0.000362 
3620.387632  	-0.000745 
3622.316448  	-0.003929 
3624.245264  	-0.005771 
3626.174080  	-0.005620 
3628.102896  	-0.002713 
3630.031712  	-0.001017 
3631.960528  	-0.005452 
3633.889344  	-0.006944 
3635.818160  	-0.008248 
3637.746976  	-0.009319 
3639.675792  	-0.009840 
3641.604608  	-0.009954 
3643.533424  	-0.010223 
3645.462240  	-0.009717 
3647.391056  	-0.005378 
3649.319872  	-0.002351 
3651.248688  	-0.005754 
3653.177504  	-0.011335 
3655.106320  	-0.012761 
3657.035136  	-0.012200 
3658.963952  	-0.013859 
3660.892768  	-0.014870 
3662.821584  	-0.015435 
3664.750400  	-0.015730 
3666.679216  	-0.015341 
3668.608032  	-0.013304 
3670.536848  	-0.011090 
3672.465664  	-0.013069 
3674.394480  	-0.012563 
3676.323296  	-0.010344 
3678.252112  	-0.012970 
3680.180928  	-0.014683 
3682.109744  	-0.016353 
3684.038560  	-0.016774 
3685.967376  	-0.016645 
3687.896192  	-0.014459 
3689.825008  	-0.012121 
3691.753824  	-0.013766 
3693.682640  	-0.015859 
3695.611456  	-0.016584 
3697.540272  	-0.016836 
3699.469088  	-0.017266 
3701.397904  	-0.016120 
3703.326720  	-0.015955 
3705.255536  	-0.016600 
3707.184352  	-0.016256 
3709.113168  	-0.014719 
3711.041984  	-0.012077 
3712.970800  	-0.012708 
3714.899616  	-0.015220 
3716.828432  	-0.016458 
3718.757248  	-0.015916 
3720.686064  	-0.015074 
3722.614880  	-0.013658 
3724.543696  	-0.013174 
3726.472512  	-0.013113 
3728.401328  	-0.015218 
3730.330144  	-0.016650 
3732.258960  	-0.014887 
3734.187776  	-0.010364 
3736.116592  	-0.007820 
3738.045408  	-0.011831 
3739.974224  	-0.013745 
3741.903040  	-0.014169 
3743.831856  	-0.013131 
3745.760672  	-0.011719 
3747.689488  	-0.012999 
3749.618304  	-0.011147 
3751.547120  	-0.009729 
3753.475936  	-0.012568 
3755.404752  	-0.014816 
3757.333568  	-0.014656 
3759.262384  	-0.014105 
3761.191200  	-0.015397 
3763.120016  	-0.016707 
3765.048832  	-0.015743 
3766.977648  	-0.015652 
3768.906464  	-0.015549 
3770.835280  	-0.015315 
3772.764096  	-0.016784 
3774.692912  	-0.017647 
3776.621728  	-0.017579 
3778.550544  	-0.016309 
3780.479360  	-0.015851 
3782.408176  	-0.017046 
3784.336992  	-0.016669 
3786.265808  	-0.016709 
3788.194624  	-0.017510 
3790.123440  	-0.017629 
3792.052256  	-0.017746 
3793.981072  	-0.017782 
3795.909888  	-0.016082 
3797.838704  	-0.014778 
3799.767520  	-0.014951 
3801.696336  	-0.012837 
3803.625152  	-0.014663 
3805.553968  	-0.016295 
3807.482784  	-0.015360 
3809.411600  	-0.016607 
3811.340416  	-0.017493 
3813.269232  	-0.017366 
3815.198048  	-0.015541 
3817.126864  	-0.014007 
3819.055680  	-0.014440 
3820.984496  	-0.012513 
3822.913312  	-0.013780 
3824.842128  	-0.015720 
3826.770944  	-0.015520 
3828.699760  	-0.016151 
3830.628576  	-0.016341 
3832.557392  	-0.015753 
3834.486208  	-0.015446 
3836.415024  	-0.014312 
3838.343840  	-0.012480 
3840.272656  	-0.012096 
3842.201472  	-0.013798 
3844.130288  	-0.014748 
3846.059104  	-0.016417 
3847.987920  	-0.016928 
3849.916736  	-0.015677 
3851.845552  	-0.013198 
3853.774368  	-0.009711 
3855.703184  	-0.012081 
3857.632000  	-0.014358 
3859.560816  	-0.016052 
3861.489632  	-0.015313 
3863.418448  	-0.013453 
3865.347264  	-0.012989 
3867.276080  	-0.014904 
3869.204896  	-0.013181 
3871.133712  	-0.012105 
3873.062528  	-0.014285 
3874.991344  	-0.015142 
3876.920160  	-0.017071 
3878.848976  	-0.016325 
3880.777792  	-0.013584 
3882.706608  	-0.014064 
3884.635424  	-0.014356 
3886.564240  	-0.014553 
3888.493056  	-0.016775 
3890.421872  	-0.015900 
3892.350688  	-0.014665 
3894.279504  	-0.016195 
3896.208320  	-0.017184 
3898.137136  	-0.015650 
3900.065952  	-0.013083 
3901.994768  	-0.012336 
3903.923584  	-0.011979 
3905.852400  	-0.013668 
3907.781216  	-0.016849 
3909.710032  	-0.018384 
3911.638848  	-0.018395 
3913.567664  	-0.018022 
3915.496480  	-0.016494 
3917.425296  	-0.014756 
3919.354112  	-0.015318 
3921.282928  	-0.016111 
3923.211744  	-0.015696 
3925.140560  	-0.015017 
3927.069376  	-0.016541 
3928.998192  	-0.016584 
3930.927008  	-0.015256 
3932.855824  	-0.015041 
3934.784640  	-0.016704 
3936.713456  	-0.017483 
3938.642272  	-0.017597 
3940.571088  	-0.017447 
3942.499904  	-0.015728 
3944.428720  	-0.015822 
3946.357536  	-0.016716 
3948.286352  	-0.015705 
3950.215168  	-0.016123 
3952.143984  	-0.017524 
3954.072800  	-0.018070 
3956.001616  	-0.017857 
3957.930432  	-0.017596 
3959.859248  	-0.017418 
3961.788064  	-0.017022 
3963.716880  	-0.017431 
3965.645696  	-0.018123 
3967.574512  	-0.018197 
3969.503328  	-0.018133 
3971.432144  	-0.017904 
3973.360960  	-0.017454 
3975.289776  	-0.017059 
3977.218592  	-0.017448 
3979.147408  	-0.017987 
3981.076224  	-0.018033 
3983.005040  	-0.018122 
3984.933856  	-0.018081 
3986.862672  	-0.017894 
3988.791488  	-0.017854 
3990.720304  	-0.017561 
3992.649120  	-0.017709 
3994.577936  	-0.017899 
3996.506752  	-0.018190 
3998.435568  	-0.018395 
4000.364384  	-0.018276 