##TITLE=No Description
##DATA TYPE=INFRARED SPECTRUM
##XUNITS=1/CM
##YUNITS=Abs
399.264912  	0.429782 
401.193728  	0.410855 
403.122544  	0.407427 
405.051360  	0.406861 
406.980176  	0.411262 
408.908992  	0.412349 
410.837808  	0.424505 
412.766624  	0.418650 
414.695440  	0.407220 
416.624256  	0.403764 
418.553072  	0.407764 
420.481888  	0.406856 
422.410704  	0.409720 
424.339520  	0.404263 
426.268336  	0.393608 
428.197152  	0.384949 
430.125968  	0.384331 
432.054784  	0.382070 
433.983600  	0.383958 
435.912416  	0.380807 
437.841232  	0.376522 
439.770048  	0.375532 
441.698864  	0.377346 
443.627680  	0.374692 
445.556496  	0.374897 
447.485312  	0.369405 
449.414128  	0.369689 
451.342944  	0.370680 
453.271760  	0.370408 
455.200576  	0.370535 
457.129392  	0.376952 
459.058208  	0.374223 
460.987024  	0.368384 
462.915840  	0.365633 
464.844656  	0.370053 
466.773472  	0.368853 
468.702288  	0.367588 
470.631104  	0.363980 
472.559920  	0.365285 
474.488736  	0.364104 
476.417552  	0.364488 
478.346368  	0.361950 
480.275184  	0.359505 
482.204000  	0.357570 
484.132816  	0.361279 
486.061632  	0.360622 
487.990448  	0.357513 
489.919264  	0.356233 
491.848080  	0.358768 
493.776896  	0.359121 
495.705712  	0.356813 
497.634528  	0.352136 
499.563344  	0.351579 
501.492160  	0.350961 
503.420976  	0.350713 
505.349792  	0.348321 
507.278608  	0.349299 
509.207424  	0.347878 
511.136240  	0.348298 
513.065056  	0.349842 
514.993872  	0.352016 
516.922688  	0.351720 
518.851504  	0.353205 
520.780320  	0.353915 
522.709136  	0.352576 
524.637952  	0.348110 
526.566768  	0.345753 
528.495584  	0.345349 
530.424400  	0.344740 
532.353216  	0.342111 
534.282032  	0.338328 
536.210848  	0.333972 
538.139664  	0.330596 
540.068480  	0.326647 
541.997296  	0.323847 
543.926112  	0.321224 
545.854928  	0.319726 
547.783744  	0.317684 
549.712560  	0.316314 
551.641376  	0.313039 
553.570192  	0.310431 
555.499008  	0.306472 
557.427824  	0.304303 
559.356640  	0.302724 
561.285456  	0.302381 
563.214272  	0.300504 
565.143088  	0.297530 
567.071904  	0.294291 
569.000720  	0.292131 
570.929536  	0.290504 
572.858352  	0.288397 
574.787168  	0.286047 
576.715984  	0.284333 
578.644800  	0.281534 
580.573616  	0.278957 
582.502432  	0.274919 
584.431248  	0.271695 
586.360064  	0.268885 
588.288880  	0.266972 
590.217696  	0.264967 
592.146512  	0.264021 
594.075328  	0.262184 
596.004144  	0.260464 
597.932960  	0.258707 
599.861776  	0.258295 
601.790592  	0.257583 
603.719408  	0.256501 
605.648224  	0.255225 
607.577040  	0.254122 
609.505856  	0.252621 
611.434672  	0.251834 
613.363488  	0.250560 
615.292304  	0.249897 
617.221120  	0.248848 
619.149936  	0.247558 
621.078752  	0.246358 
623.007568  	0.245568 
624.936384  	0.244253 
626.865200  	0.243535 
628.794016  	0.243416 
630.722832  	0.243288 
632.651648  	0.243232 
634.580464  	0.243093 
636.509280  	0.242488 
638.438096  	0.242166 
640.366912  	0.241542 
642.295728  	0.240616 
644.224544  	0.239254 
646.153360  	0.237616 
648.082176  	0.234423 
650.010992  	0.231659 
651.939808  	0.229263 
653.868624  	0.227093 
655.797440  	0.224084 
657.726256  	0.221509 
659.655072  	0.218795 
661.583888  	0.215962 
663.512704  	0.213038 
665.441520  	0.209574 
667.370336  	0.206686 
669.299152  	0.205887 
671.227968  	0.201945 
673.156784  	0.198438 
675.085600  	0.196647 
677.014416  	0.194832 
678.943232  	0.192800 
680.872048  	0.192039 
682.800864  	0.191214 
684.729680  	0.189847 
686.658496  	0.188794 
688.587312  	0.187900 
690.516128  	0.186770 
692.444944  	0.186110 
694.373760  	0.184717 
696.302576  	0.184031 
698.231392  	0.182723 
700.160208  	0.180737 
702.089024  	0.178727 
704.017840  	0.177268 
705.946656  	0.175292 
707.875472  	0.173269 
709.804288  	0.171627 
711.733104  	0.170692 
713.661920  	0.169890 
715.590736  	0.168723 
717.519552  	0.168078 
719.448368  	0.168313 
721.377184  	0.169210 
723.306000  	0.169733 
725.234816  	0.169951 
727.163632  	0.169245 
729.092448  	0.167127 
731.021264  	0.164905 
732.950080  	0.162387 
734.878896  	0.159852 
736.807712  	0.157780 
738.736528  	0.156288 
740.665344  	0.155008 
742.594160  	0.154061 
744.522976  	0.152972 
746.451792  	0.151869 
748.380608  	0.150433 
750.309424  	0.149491 
752.238240  	0.148328 
754.167056  	0.147401 
756.095872  	0.146913 
758.024688  	0.146227 
759.953504  	0.145930 
761.882320  	0.146535 
763.811136  	0.146886 
765.739952  	0.145678 
767.668768  	0.143424 
769.597584  	0.141379 
771.526400  	0.140722 
773.455216  	0.141950 
775.384032  	0.144579 
777.312848  	0.148340 
779.241664  	0.151329 
781.170480  	0.150877 
783.099296  	0.147321 
785.028112  	0.142977 
786.956928  	0.138875 
788.885744  	0.135752 
790.814560  	0.133009 
792.743376  	0.131539 
794.672192  	0.130975 
796.601008  	0.130148 
798.529824  	0.127982 
800.458640  	0.124933 
802.387456  	0.122400 
804.316272  	0.120935 
806.245088  	0.120142 
808.173904  	0.119642 
810.102720  	0.119472 
812.031536  	0.119191 
813.960352  	0.119011 
815.889168  	0.119240 
817.817984  	0.119607 
819.746800  	0.120312 
821.675616  	0.120804 
823.604432  	0.121221 
825.533248  	0.121627 
827.462064  	0.122094 
829.390880  	0.121884 
831.319696  	0.121421 
833.248512  	0.120496 
835.177328  	0.119313 
837.106144  	0.117403 
839.034960  	0.115126 
840.963776  	0.112265 
842.892592  	0.109290 
844.821408  	0.106331 
846.750224  	0.103466 
848.679040  	0.101300 
850.607856  	0.099854 
852.536672  	0.098886 
854.465488  	0.098134 
856.394304  	0.097420 
858.323120  	0.096206 
860.251936  	0.094972 
862.180752  	0.093949 
864.109568  	0.092398 
866.038384  	0.090664 
867.967200  	0.089104 
869.896016  	0.088043 
871.824832  	0.087290 
873.753648  	0.087314 
875.682464  	0.087620 
877.611280  	0.088745 
879.540096  	0.090371 
881.468912  	0.092136 
883.397728  	0.093912 
885.326544  	0.095434 
887.255360  	0.096334 
889.184176  	0.096332 
891.112992  	0.095885 
893.041808  	0.094667 
894.970624  	0.092854 
896.899440  	0.090053 
898.828256  	0.086588 
900.757072  	0.083291 
902.685888  	0.080528 
904.614704  	0.078946 
906.543520  	0.078836 
908.472336  	0.080155 
910.401152  	0.081759 
912.329968  	0.083707 
914.258784  	0.085700 
916.187600  	0.087654 
918.116416  	0.089167 
920.045232  	0.090250 
921.974048  	0.090979 
923.902864  	0.091630 
925.831680  	0.092269 
927.760496  	0.092964 
929.689312  	0.093814 
931.618128  	0.094936 
933.546944  	0.095613 
935.475760  	0.095660 
937.404576  	0.095404 
939.333392  	0.094861 
941.262208  	0.094508 
943.191024  	0.095109 
945.119840  	0.097231 
947.048656  	0.101075 
948.977472  	0.106853 
950.906288  	0.114234 
952.835104  	0.123058 
954.763920  	0.132871 
956.692736  	0.142268 
958.621552  	0.150651 
960.550368  	0.156472 
962.479184  	0.159550 
964.408000  	0.159260 
966.336816  	0.155926 
968.265632  	0.149550 
970.194448  	0.141054 
972.123264  	0.131037 
974.052080  	0.120427 
975.980896  	0.110023 
977.909712  	0.100157 
979.838528  	0.091442 
981.767344  	0.084191 
983.696160  	0.078787 
985.624976  	0.075324 
987.553792  	0.074180 
989.482608  	0.075139 
991.411424  	0.077978 
993.340240  	0.082144 
995.269056  	0.086754 
997.197872  	0.091989 
999.126688  	0.097315 
1001.055504  	0.102785 
1002.984320  	0.107738 
1004.913136  	0.112928 
1006.841952  	0.117843 
1008.770768  	0.122454 
1010.699584  	0.126208 
1012.628400  	0.128918 
1014.557216  	0.130777 
1016.486032  	0.131354 
1018.414848  	0.131258 
1020.343664  	0.131023 
1022.272480  	0.130770 
1024.201296  	0.130177 
1026.130112  	0.129506 
1028.058928  	0.129767 
1029.987744  	0.131218 
1031.916560  	0.133068 
1033.845376  	0.135415 
1035.774192  	0.138835 
1037.703008  	0.143309 
1039.631824  	0.150078 
1041.560640  	0.158554 
1043.489456  	0.168943 
1045.418272  	0.180049 
1047.347088  	0.190238 
1049.275904  	0.196792 
1051.204720  	0.199878 
1053.133536  	0.199897 
1055.062352  	0.197782 
1056.991168  	0.194778 
1058.919984  	0.192412 
1060.848800  	0.190840 
1062.777616  	0.189409 
1064.706432  	0.187358 
1066.635248  	0.185030 
1068.564064  	0.182153 
1070.492880  	0.178159 
1072.421696  	0.173895 
1074.350512  	0.171409 
1076.279328  	0.171360 
1078.208144  	0.173958 
1080.136960  	0.177556 
1082.065776  	0.180747 
1083.994592  	0.180999 
1085.923408  	0.178520 
1087.852224  	0.173506 
1089.781040  	0.167480 
1091.709856  	0.160048 
1093.638672  	0.151618 
1095.567488  	0.142242 
1097.496304  	0.132815 
1099.425120  	0.123545 
1101.353936  	0.114486 
1103.282752  	0.105966 
1105.211568  	0.097863 
1107.140384  	0.090434 
1109.069200  	0.083726 
1110.998016  	0.077697 
1112.926832  	0.072336 
1114.855648  	0.067445 
1116.784464  	0.062484 
1118.713280  	0.057749 
1120.642096  	0.053517 
1122.570912  	0.049507 
1124.499728  	0.045665 
1126.428544  	0.042326 
1128.357360  	0.039439 
1130.286176  	0.036986 
1132.214992  	0.035034 
1134.143808  	0.033653 
1136.072624  	0.032507 
1138.001440  	0.031393 
1139.930256  	0.030422 
1141.859072  	0.029440 
1143.787888  	0.028360 
1145.716704  	0.027297 
1147.645520  	0.026297 
1149.574336  	0.025704 
1151.503152  	0.025117 
1153.431968  	0.024925 
1155.360784  	0.025134 
1157.289600  	0.025992 
1159.218416  	0.026967 
1161.147232  	0.028016 
1163.076048  	0.029402 
1165.004864  	0.030889 
1166.933680  	0.032242 
1168.862496  	0.033503 
1170.791312  	0.035026 
1172.720128  	0.036853 
1174.648944  	0.039014 
1176.577760  	0.041066 
1178.506576  	0.043272 
1180.435392  	0.045674 
1182.364208  	0.048003 
1184.293024  	0.050553 
1186.221840  	0.053629 
1188.150656  	0.057097 
1190.079472  	0.060868 
1192.008288  	0.065453 
1193.937104  	0.070626 
1195.865920  	0.076269 
1197.794736  	0.082105 
1199.723552  	0.088490 
1201.652368  	0.094979 
1203.581184  	0.100986 
1205.510000  	0.106567 
1207.438816  	0.111343 
1209.367632  	0.115614 
1211.296448  	0.118941 
1213.225264  	0.121476 
1215.154080  	0.122782 
1217.082896  	0.123361 
1219.011712  	0.123235 
1220.940528  	0.122767 
1222.869344  	0.121687 
1224.798160  	0.120524 
1226.726976  	0.118753 
1228.655792  	0.116344 
1230.584608  	0.113747 
1232.513424  	0.110648 
1234.442240  	0.107204 
1236.371056  	0.103603 
1238.299872  	0.099795 
1240.228688  	0.095413 
1242.157504  	0.090809 
1244.086320  	0.086356 
1246.015136  	0.081791 
1247.943952  	0.077535 
1249.872768  	0.073336 
1251.801584  	0.069274 
1253.730400  	0.065209 
1255.659216  	0.061194 
1257.588032  	0.057439 
1259.516848  	0.054106 
1261.445664  	0.050781 
1263.374480  	0.047606 
1265.303296  	0.044952 
1267.232112  	0.043043 
1269.160928  	0.041760 
1271.089744  	0.040764 
1273.018560  	0.040105 
1274.947376  	0.040087 
1276.876192  	0.040557 
1278.805008  	0.040832 
1280.733824  	0.040697 
1282.662640  	0.039686 
1284.591456  	0.038404 
1286.520272  	0.037514 
1288.449088  	0.037028 
1290.377904  	0.036824 
1292.306720  	0.037327 
1294.235536  	0.037950 
1296.164352  	0.037932 
1298.093168  	0.036754 
1300.021984  	0.035038 
1301.950800  	0.033198 
1303.879616  	0.031105 
1305.808432  	0.028925 
1307.737248  	0.026687 
1309.666064  	0.024410 
1311.594880  	0.022992 
1313.523696  	0.022077 
1315.452512  	0.021176 
1317.381328  	0.020895 
1319.310144  	0.021033 
1321.238960  	0.020977 
1323.167776  	0.021153 
1325.096592  	0.021524 
1327.025408  	0.021791 
1328.954224  	0.021744 
1330.883040  	0.021271 
1332.811856  	0.020386 
1334.740672  	0.019750 
1336.669488  	0.020065 
1338.598304  	0.021216 
1340.527120  	0.021017 
1342.455936  	0.019023 
1344.384752  	0.018428 
1346.313568  	0.018672 
1348.242384  	0.019164 
1350.171200  	0.019852 
1352.100016  	0.020830 
1354.028832  	0.022227 
1355.957648  	0.023593 
1357.886464  	0.024736 
1359.815280  	0.026287 
1361.744096  	0.028819 
1363.672912  	0.030591 
1365.601728  	0.030504 
1367.530544  	0.031477 
1369.459360  	0.032729 
1371.388176  	0.032946 
1373.316992  	0.033418 
1375.245808  	0.032954 
1377.174624  	0.030627 
1379.103440  	0.028790 
1381.032256  	0.026863 
1382.961072  	0.025167 
1384.889888  	0.024097 
1386.818704  	0.024297 
1388.747520  	0.023211 
1390.676336  	0.021064 
1392.605152  	0.019711 
1394.533968  	0.020176 
1396.462784  	0.020920 
1398.391600  	0.020648 
1400.320416  	0.020235 
1402.249232  	0.019467 
1404.178048  	0.020276 
1406.106864  	0.021039 
1408.035680  	0.021355 
1409.964496  	0.022478 
1411.893312  	0.024034 
1413.822128  	0.025293 
1415.750944  	0.027153 
1417.679760  	0.029161 
1419.608576  	0.030682 
1421.537392  	0.029490 
1423.466208  	0.028909 
1425.395024  	0.027889 
1427.323840  	0.025792 
1429.252656  	0.024751 
1431.181472  	0.023941 
1433.110288  	0.023125 
1435.039104  	0.023089 
1436.967920  	0.025152 
1438.896736  	0.025242 
1440.825552  	0.024868 
1442.754368  	0.025139 
1444.683184  	0.025053 
1446.612000  	0.025423 
1448.540816  	0.026195 
1450.469632  	0.026006 
1452.398448  	0.026063 
1454.327264  	0.026158 
1456.256080  	0.027735 
1458.184896  	0.030048 
1460.113712  	0.027524 
1462.042528  	0.025341 
1463.971344  	0.025160 
1465.900160  	0.026464 
1467.828976  	0.026200 
1469.757792  	0.026223 
1471.686608  	0.029182 
1473.615424  	0.035648 
1475.544240  	0.038070 
1477.473056  	0.040347 
1479.401872  	0.041486 
1481.330688  	0.043984 
1483.259504  	0.045560 
1485.188320  	0.046274 
1487.117136  	0.047532 
1489.045952  	0.049696 
1490.974768  	0.049277 
1492.903584  	0.045300 
1494.832400  	0.041744 
1496.761216  	0.039694 
1498.690032  	0.036539 
1500.618848  	0.032909 
1502.547664  	0.028972 
1504.476480  	0.025604 
1506.405296  	0.026728 
1508.334112  	0.029588 
1510.262928  	0.025423 
1512.191744  	0.022382 
1514.120560  	0.021295 
1516.049376  	0.022656 
1517.978192  	0.023773 
1519.907008  	0.023463 
1521.835824  	0.027314 
1523.764640  	0.028824 
1525.693456  	0.030473 
1527.622272  	0.031889 
1529.551088  	0.030749 
1531.479904  	0.029208 
1533.408720  	0.028940 
1535.337536  	0.026792 
1537.266352  	0.023305 
1539.195168  	0.021764 
1541.123984  	0.022935 
1543.052800  	0.022559 
1544.981616  	0.021467 
1546.910432  	0.018640 
1548.839248  	0.017963 
1550.768064  	0.018901 
1552.696880  	0.017736 
1554.625696  	0.018550 
1556.554512  	0.018180 
1558.483328  	0.020944 
1560.412144  	0.025991 
1562.340960  	0.024205 
1564.269776  	0.024859 
1566.198592  	0.027465 
1568.127408  	0.028944 
1570.056224  	0.034523 
1571.985040  	0.036827 
1573.913856  	0.037106 
1575.842672  	0.040100 
1577.771488  	0.044068 
1579.700304  	0.042363 
1581.629120  	0.041449 
1583.557936  	0.041069 
1585.486752  	0.041737 
1587.415568  	0.043079 
1589.344384  	0.045768 
1591.273200  	0.049065 
1593.202016  	0.053294 
1595.130832  	0.057915 
1597.059648  	0.062448 
1598.988464  	0.065888 
1600.917280  	0.069540 
1602.846096  	0.072401 
1604.774912  	0.074003 
1606.703728  	0.074217 
1608.632544  	0.074690 
1610.561360  	0.073827 
1612.490176  	0.072346 
1614.418992  	0.069744 
1616.347808  	0.071041 
1618.276624  	0.074168 
1620.205440  	0.073521 
1622.134256  	0.074302 
1624.063072  	0.080138 
1625.991888  	0.082596 
1627.920704  	0.087187 
1629.849520  	0.092128 
1631.778336  	0.094314 
1633.707152  	0.095460 
1635.635968  	0.104034 
1637.564784  	0.112623 
1639.493600  	0.112157 
1641.422416  	0.112800 
1643.351232  	0.112379 
1645.280048  	0.111354 
1647.208864  	0.118181 
1649.137680  	0.117805 
1651.066496  	0.110158 
1652.995312  	0.112818 
1654.924128  	0.121187 
1656.852944  	0.114338 
1658.781760  	0.110390 
1660.710576  	0.107499 
1662.639392  	0.107151 
1664.568208  	0.105520 
1666.497024  	0.100462 
1668.425840  	0.097532 
1670.354656  	0.097420 
1672.283472  	0.093953 
1674.212288  	0.089991 
1676.141104  	0.090237 
1678.069920  	0.087202 
1679.998736  	0.085839 
1681.927552  	0.083080 
1683.856368  	0.083495 
1685.785184  	0.087273 
1687.714000  	0.083695 
1689.642816  	0.082966 
1691.571632  	0.081319 
1693.500448  	0.078005 
1695.429264  	0.078122 
1697.358080  	0.080706 
1699.286896  	0.077341 
1701.215712  	0.080916 
1703.144528  	0.077173 
1705.073344  	0.074825 
1707.002160  	0.073530 
1708.930976  	0.069851 
1710.859792  	0.066065 
1712.788608  	0.062083 
1714.717424  	0.058110 
1716.646240  	0.053655 
1718.575056  	0.047829 
1720.503872  	0.040600 
1722.432688  	0.034405 
1724.361504  	0.028561 
1726.290320  	0.023050 
1728.219136  	0.018941 
1730.147952  	0.016146 
1732.076768  	0.013036 
1734.005584  	0.010954 
1735.934400  	0.008256 
1737.863216  	0.005919 
1739.792032  	0.004335 
1741.720848  	0.003387 
1743.649664  	0.003246 
1745.578480  	0.002353 
1747.507296  	0.001624 
1749.436112  	0.001743 
1751.364928  	0.001075 
1753.293744  	-0.000697 
1755.222560  	-0.001811 
1757.151376  	-0.001148 
1759.080192  	-0.001770 
1761.009008  	-0.002146 
1762.937824  	-0.002409 
1764.866640  	-0.003323 
1766.795456  	-0.003330 
1768.724272  	-0.002895 
1770.653088  	-0.003774 
1772.581904  	-0.003067 
1774.510720  	-0.002992 
1776.439536  	-0.003689 
1778.368352  	-0.004526 
1780.297168  	-0.004351 
1782.225984  	-0.004649 
1784.154800  	-0.004820 
1786.083616  	-0.005171 
1788.012432  	-0.005639 
1789.941248  	-0.005138 
1791.870064  	-0.004268 
1793.798880  	-0.004596 
1795.727696  	-0.004840 
1797.656512  	-0.005625 
1799.585328  	-0.005949 
1801.514144  	-0.005255 
1803.442960  	-0.005665 
1805.371776  	-0.006323 
1807.300592  	-0.006437 
1809.229408  	-0.006514 
1811.158224  	-0.006353 
1813.087040  	-0.006845 
1815.015856  	-0.007456 
1816.944672  	-0.007028 
1818.873488  	-0.006805 
1820.802304  	-0.006892 
1822.731120  	-0.006620 
1824.659936  	-0.006457 
1826.588752  	-0.006692 
1828.517568  	-0.007047 
1830.446384  	-0.006433 
1832.375200  	-0.006895 
1834.304016  	-0.007259 
1836.232832  	-0.007147 
1838.161648  	-0.006898 
1840.090464  	-0.007262 
1842.019280  	-0.007409 
1843.948096  	-0.006918 
1845.876912  	-0.006643 
1847.805728  	-0.007260 
1849.734544  	-0.007559 
1851.663360  	-0.007703 
1853.592176  	-0.007639 
1855.520992  	-0.007861 
1857.449808  	-0.007916 
1859.378624  	-0.008198 
1861.307440  	-0.008171 
1863.236256  	-0.008482 
1865.165072  	-0.008322 
1867.093888  	-0.007537 
1869.022704  	-0.006529 
1870.951520  	-0.007124 
1872.880336  	-0.007795 
1874.809152  	-0.008399 
1876.737968  	-0.008782 
1878.666784  	-0.008981 
1880.595600  	-0.008928 
1882.524416  	-0.008842 
1884.453232  	-0.008657 
1886.382048  	-0.008875 
1888.310864  	-0.008550 
1890.239680  	-0.008217 
1892.168496  	-0.008121 
1894.097312  	-0.008099 
1896.026128  	-0.008324 
1897.954944  	-0.008717 
1899.883760  	-0.008718 
1901.812576  	-0.008843 
1903.741392  	-0.008580 
1905.670208  	-0.008661 
1907.599024  	-0.008831 
1909.527840  	-0.008526 
1911.456656  	-0.008260 
1913.385472  	-0.008356 
1915.314288  	-0.008522 
1917.243104  	-0.008510 
1919.171920  	-0.007561 
1921.100736  	-0.007758 
1923.029552  	-0.008160 
1924.958368  	-0.009540 
1926.887184  	-0.009728 
1928.816000  	-0.009753 
1930.744816  	-0.009510 
1932.673632  	-0.009545 
1934.602448  	-0.009109 
1936.531264  	-0.009228 
1938.460080  	-0.009295 
1940.388896  	-0.009167 
1942.317712  	-0.008173 
1944.246528  	-0.008913 
1946.175344  	-0.009170 
1948.104160  	-0.009159 
1950.032976  	-0.009251 
1951.961792  	-0.009494 
1953.890608  	-0.009885 
1955.819424  	-0.010611 
1957.748240  	-0.010534 
1959.677056  	-0.011394 
1961.605872  	-0.011672 
1963.534688  	-0.010845 
1965.463504  	-0.009000 
1967.392320  	-0.009196 
1969.321136  	-0.010899 
1971.249952  	-0.012484 
1973.178768  	-0.011721 
1975.107584  	-0.010557 
1977.036400  	-0.009350 
1978.965216  	-0.009493 
1980.894032  	-0.010289 
1982.822848  	-0.010329 
1984.751664  	-0.009873 
1986.680480  	-0.009414 
1988.609296  	-0.008610 
1990.538112  	-0.008692 
1992.466928  	-0.008471 
1994.395744  	-0.009684 
1996.324560  	-0.010312 
1998.253376  	-0.010056 
2000.182192  	-0.010300 
2002.111008  	-0.011111 
2004.039824  	-0.010594 
2005.968640  	-0.010323 
2007.897456  	-0.009823 
2009.826272  	-0.009389 
2011.755088  	-0.009633 
2013.683904  	-0.009652 
2015.612720  	-0.008992 
2017.541536  	-0.009472 
2019.470352  	-0.009660 
2021.399168  	-0.010716 
2023.327984  	-0.010546 
2025.256800  	-0.009809 
2027.185616  	-0.008370 
2029.114432  	-0.008347 
2031.043248  	-0.009308 
2032.972064  	-0.009597 
2034.900880  	-0.008287 
2036.829696  	-0.008396 
2038.758512  	-0.008504 
2040.687328  	-0.009044 
2042.616144  	-0.009073 
2044.544960  	-0.009243 
2046.473776  	-0.008524 
2048.402592  	-0.007321 
2050.331408  	-0.007045 
2052.260224  	-0.007335 
2054.189040  	-0.007670 
2056.117856  	-0.008339 
2058.046672  	-0.008454 
2059.975488  	-0.008216 
2061.904304  	-0.007460 
2063.833120  	-0.007186 
2065.761936  	-0.006950 
2067.690752  	-0.007073 
2069.619568  	-0.007083 
2071.548384  	-0.007630 
2073.477200  	-0.007476 
2075.406016  	-0.006731 
2077.334832  	-0.006205 
2079.263648  	-0.006048 
2081.192464  	-0.005896 
2083.121280  	-0.006350 
2085.050096  	-0.006930 
2086.978912  	-0.007398 
2088.907728  	-0.006820 
2090.836544  	-0.006356 
2092.765360  	-0.006246 
2094.694176  	-0.006326 
2096.622992  	-0.006179 
2098.551808  	-0.006054 
2100.480624  	-0.005911 
2102.409440  	-0.005759 
2104.338256  	-0.005595 
2106.267072  	-0.005795 
2108.195888  	-0.005903 
2110.124704  	-0.006142 
2112.053520  	-0.006037 
2113.982336  	-0.005573 
2115.911152  	-0.005813 
2117.839968  	-0.006493 
2119.768784  	-0.006518 
2121.697600  	-0.006318 
2123.626416  	-0.006448 
2125.555232  	-0.006595 
2127.484048  	-0.006614 
2129.412864  	-0.006635 
2131.341680  	-0.006188 
2133.270496  	-0.005739 
2135.199312  	-0.005409 
2137.128128  	-0.005588 
2139.056944  	-0.005487 
2140.985760  	-0.005786 
2142.914576  	-0.005669 
2144.843392  	-0.006461 
2146.772208  	-0.006936 
2148.701024  	-0.006458 
2150.629840  	-0.005873 
2152.558656  	-0.005694 
2154.487472  	-0.005810 
2156.416288  	-0.006669 
2158.345104  	-0.004324 
2160.273920  	-0.002548 
2162.202736  	-0.003942 
2164.131552  	-0.005250 
2166.060368  	-0.005354 
2167.989184  	-0.006100 
2169.918000  	-0.006265 
2171.846816  	-0.005631 
2173.775632  	-0.005628 
2175.704448  	-0.006372 
2177.633264  	-0.005927 
2179.562080  	-0.005849 
2181.490896  	-0.005882 
2183.419712  	-0.005280 
2185.348528  	-0.005678 
2187.277344  	-0.006770 
2189.206160  	-0.006401 
2191.134976  	-0.006215 
2193.063792  	-0.006535 
2194.992608  	-0.006668 
2196.921424  	-0.006267 
2198.850240  	-0.006680 
2200.779056  	-0.007190 
2202.707872  	-0.007252 
2204.636688  	-0.006566 
2206.565504  	-0.006602 
2208.494320  	-0.006919 
2210.423136  	-0.007182 
2212.351952  	-0.006719 
2214.280768  	-0.006850 
2216.209584  	-0.006967 
2218.138400  	-0.007573 
2220.067216  	-0.007557 
2221.996032  	-0.006999 
2223.924848  	-0.006392 
2225.853664  	-0.006470 
2227.782480  	-0.006326 
2229.711296  	-0.006907 
2231.640112  	-0.007058 
2233.568928  	-0.006878 
2235.497744  	-0.006688 
2237.426560  	-0.006675 
2239.355376  	-0.006879 
2241.284192  	-0.007654 
2243.213008  	-0.007679 
2245.141824  	-0.007527 
2247.070640  	-0.007746 
2248.999456  	-0.007338 
2250.928272  	-0.006884 
2252.857088  	-0.006979 
2254.785904  	-0.006623 
2256.714720  	-0.006364 
2258.643536  	-0.006421 
2260.572352  	-0.006249 
2262.501168  	-0.006138 
2264.429984  	-0.006100 
2266.358800  	-0.006197 
2268.287616  	-0.006455 
2270.216432  	-0.006679 
2272.145248  	-0.006800 
2274.074064  	-0.006300 
2276.002880  	-0.006186 
2277.931696  	-0.006153 
2279.860512  	-0.006074 
2281.789328  	-0.006155 
2283.718144  	-0.006119 
2285.646960  	-0.005474 
2287.575776  	-0.005290 
2289.504592  	-0.005589 
2291.433408  	-0.005779 
2293.362224  	-0.005551 
2295.291040  	-0.005708 
2297.219856  	-0.005508 
2299.148672  	-0.005322 
2301.077488  	-0.005044 
2303.006304  	-0.004693 
2304.935120  	-0.004507 
2306.863936  	-0.004273 
2308.792752  	-0.004272 
2310.721568  	-0.004611 
2312.650384  	-0.004864 
2314.579200  	-0.005377 
2316.508016  	-0.005455 
2318.436832  	-0.005226 
2320.365648  	-0.005227 
2322.294464  	-0.005449 
2324.223280  	-0.006128 
2326.152096  	-0.007550 
2328.080912  	-0.008872 
2330.009728  	-0.009477 
2331.938544  	-0.009570 
2333.867360  	-0.010075 
2335.796176  	-0.011091 
2337.724992  	-0.011836 
2339.653808  	-0.011810 
2341.582624  	-0.011182 
2343.511440  	-0.010085 
2345.440256  	-0.008180 
2347.369072  	-0.006720 
2349.297888  	-0.007010 
2351.226704  	-0.008897 
2353.155520  	-0.011014 
2355.084336  	-0.012353 
2357.013152  	-0.012681 
2358.941968  	-0.012902 
2360.870784  	-0.013459 
2362.799600  	-0.013368 
2364.728416  	-0.012222 
2366.657232  	-0.011236 
2368.586048  	-0.010277 
2370.514864  	-0.008720 
2372.443680  	-0.007373 
2374.372496  	-0.005991 
2376.301312  	-0.005124 
2378.230128  	-0.004751 
2380.158944  	-0.004663 
2382.087760  	-0.004843 
2384.016576  	-0.005610 
2385.945392  	-0.006143 
2387.874208  	-0.006435 
2389.803024  	-0.006677 
2391.731840  	-0.006832 
2393.660656  	-0.006888 
2395.589472  	-0.006939 
2397.518288  	-0.006950 
2399.447104  	-0.007008 
2401.375920  	-0.007112 
2403.304736  	-0.007202 
2405.233552  	-0.007139 
2407.162368  	-0.007193 
2409.091184  	-0.007299 
2411.020000  	-0.007457 
2412.948816  	-0.007507 
2414.877632  	-0.007246 
2416.806448  	-0.006980 
2418.735264  	-0.007163 
2420.664080  	-0.007091 
2422.592896  	-0.007001 
2424.521712  	-0.007050 
2426.450528  	-0.007125 
2428.379344  	-0.007125 
2430.308160  	-0.007019 
2432.236976  	-0.006968 
2434.165792  	-0.006756 
2436.094608  	-0.006534 
2438.023424  	-0.006608 
2439.952240  	-0.006819 
2441.881056  	-0.006912 
2443.809872  	-0.006762 
2445.738688  	-0.006649 
2447.667504  	-0.006572 
2449.596320  	-0.006383 
2451.525136  	-0.006447 
2453.453952  	-0.006499 
2455.382768  	-0.006471 
2457.311584  	-0.006511 
2459.240400  	-0.006558 
2461.169216  	-0.006397 
2463.098032  	-0.006306 
2465.026848  	-0.006449 
2466.955664  	-0.006478 
2468.884480  	-0.006510 
2470.813296  	-0.006584 
2472.742112  	-0.006409 
2474.670928  	-0.006266 
2476.599744  	-0.006140 
2478.528560  	-0.006006 
2480.457376  	-0.005967 
2482.386192  	-0.005994 
2484.315008  	-0.006130 
2486.243824  	-0.006012 
2488.172640  	-0.005742 
2490.101456  	-0.005675 
2492.030272  	-0.005569 
2493.959088  	-0.005592 
2495.887904  	-0.005735 
2497.816720  	-0.005539 
2499.745536  	-0.005511 
2501.674352  	-0.005664 
2503.603168  	-0.005650 
2505.531984  	-0.005553 
2507.460800  	-0.005583 
2509.389616  	-0.005670 
2511.318432  	-0.005711 
2513.247248  	-0.005552 
2515.176064  	-0.005407 
2517.104880  	-0.005521 
2519.033696  	-0.005699 
2520.962512  	-0.005713 
2522.891328  	-0.005674 
2524.820144  	-0.005417 
2526.748960  	-0.005284 
2528.677776  	-0.005144 
2530.606592  	-0.005127 
2532.535408  	-0.005071 
2534.464224  	-0.005018 
2536.393040  	-0.005049 
2538.321856  	-0.005039 
2540.250672  	-0.004966 
2542.179488  	-0.004891 
2544.108304  	-0.004877 
2546.037120  	-0.004813 
2547.965936  	-0.004535 
2549.894752  	-0.004426 
2551.823568  	-0.004465 
2553.752384  	-0.004517 
2555.681200  	-0.004513 
2557.610016  	-0.004453 
2559.538832  	-0.004367 
2561.467648  	-0.004167 
2563.396464  	-0.004008 
2565.325280  	-0.003991 
2567.254096  	-0.004184 
2569.182912  	-0.004175 
2571.111728  	-0.003983 
2573.040544  	-0.004024 
2574.969360  	-0.003838 
2576.898176  	-0.003497 
2578.826992  	-0.003597 
2580.755808  	-0.003736 
2582.684624  	-0.003657 
2584.613440  	-0.003607 
2586.542256  	-0.003373 
2588.471072  	-0.003268 
2590.399888  	-0.003243 
2592.328704  	-0.003098 
2594.257520  	-0.002986 
2596.186336  	-0.003188 
2598.115152  	-0.003185 
2600.043968  	-0.002867 
2601.972784  	-0.002807 
2603.901600  	-0.002769 
2605.830416  	-0.002646 
2607.759232  	-0.002570 
2609.688048  	-0.002548 
2611.616864  	-0.002382 
2613.545680  	-0.002278 
2615.474496  	-0.002212 
2617.403312  	-0.002035 
2619.332128  	-0.001920 
2621.260944  	-0.001907 
2623.189760  	-0.001862 
2625.118576  	-0.001763 
2627.047392  	-0.001700 
2628.976208  	-0.001491 
2630.905024  	-0.001281 
2632.833840  	-0.001175 
2634.762656  	-0.001210 
2636.691472  	-0.001082 
2638.620288  	-0.000930 
2640.549104  	-0.000883 
2642.477920  	-0.000777 
2644.406736  	-0.000788 
2646.335552  	-0.000735 
2648.264368  	-0.000634 
2650.193184  	-0.000485 
2652.122000  	-0.000371 
2654.050816  	-0.000316 
2655.979632  	-0.000253 
2657.908448  	-0.000178 
2659.837264  	-0.000070 
2661.766080  	0.000001 
2663.694896  	0.000047 
2665.623712  	0.000117 
2667.552528  	0.000298 
2669.481344  	0.000331 
2671.410160  	0.000290 
2673.338976  	0.000399 
2675.267792  	0.000549 
2677.196608  	0.000727 
2679.125424  	0.000833 
2681.054240  	0.000917 
2682.983056  	0.001078 
2684.911872  	0.001156 
2686.840688  	0.001164 
2688.769504  	0.001201 
2690.698320  	0.001346 
2692.627136  	0.001426 
2694.555952  	0.001354 
2696.484768  	0.001389 
2698.413584  	0.001447 
2700.342400  	0.001506 
2702.271216  	0.001690 
2704.200032  	0.001862 
2706.128848  	0.001987 
2708.057664  	0.002095 
2709.986480  	0.002098 
2711.915296  	0.002163 
2713.844112  	0.002224 
2715.772928  	0.002219 
2717.701744  	0.002328 
2719.630560  	0.002584 
2721.559376  	0.002767 
2723.488192  	0.002828 
2725.417008  	0.002883 
2727.345824  	0.002933 
2729.274640  	0.003039 
2731.203456  	0.003052 
2733.132272  	0.003225 
2735.061088  	0.003390 
2736.989904  	0.003360 
2738.918720  	0.003397 
2740.847536  	0.003488 
2742.776352  	0.003678 
2744.705168  	0.003800 
2746.633984  	0.003823 
2748.562800  	0.003920 
2750.491616  	0.003907 
2752.420432  	0.003884 
2754.349248  	0.003845 
2756.278064  	0.003888 
2758.206880  	0.003863 
2760.135696  	0.003784 
2762.064512  	0.003788 
2763.993328  	0.003834 
2765.922144  	0.003839 
2767.850960  	0.003833 
2769.779776  	0.003874 
2771.708592  	0.003819 
2773.637408  	0.003734 
2775.566224  	0.003749 
2777.495040  	0.003760 
2779.423856  	0.003761 
2781.352672  	0.003899 
2783.281488  	0.003965 
2785.210304  	0.003920 
2787.139120  	0.004020 
2789.067936  	0.004015 
2790.996752  	0.004015 
2792.925568  	0.004067 
2794.854384  	0.003982 
2796.783200  	0.004003 
2798.712016  	0.003955 
2800.640832  	0.003910 
2802.569648  	0.004055 
2804.498464  	0.004094 
2806.427280  	0.004054 
2808.356096  	0.004107 
2810.284912  	0.004137 
2812.213728  	0.004060 
2814.142544  	0.004072 
2816.071360  	0.004040 
2818.000176  	0.003991 
2819.928992  	0.004036 
2821.857808  	0.003993 
2823.786624  	0.003949 
2825.715440  	0.004080 
2827.644256  	0.004106 
2829.573072  	0.003986 
2831.501888  	0.003931 
2833.430704  	0.004017 
2835.359520  	0.003988 
2837.288336  	0.003829 
2839.217152  	0.003823 
2841.145968  	0.003908 
2843.074784  	0.003864 
2845.003600  	0.003756 
2846.932416  	0.003720 
2848.861232  	0.003844 
2850.790048  	0.003811 
2852.718864  	0.003792 
2854.647680  	0.003815 
2856.576496  	0.003928 
2858.505312  	0.003902 
2860.434128  	0.003856 
2862.362944  	0.003888 
2864.291760  	0.003929 
2866.220576  	0.003968 
2868.149392  	0.003950 
2870.078208  	0.004062 
2872.007024  	0.004274 
2873.935840  	0.004442 
2875.864656  	0.004674 
2877.793472  	0.004868 
2879.722288  	0.005021 
2881.651104  	0.005229 
2883.579920  	0.005490 
2885.508736  	0.005756 
2887.437552  	0.005902 
2889.366368  	0.005893 
2891.295184  	0.005906 
2893.224000  	0.005910 
2895.152816  	0.005955 
2897.081632  	0.006031 
2899.010448  	0.005776 
2900.939264  	0.005446 
2902.868080  	0.005717 
2904.796896  	0.006056 
2906.725712  	0.006169 
2908.654528  	0.006370 
2910.583344  	0.006600 
2912.512160  	0.006842 
2914.440976  	0.007198 
2916.369792  	0.007660 
2918.298608  	0.007976 
2920.227424  	0.008189 
2922.156240  	0.008450 
2924.085056  	0.008802 
2926.013872  	0.009072 
2927.942688  	0.009629 
2929.871504  	0.010261 
2931.800320  	0.010636 
2933.729136  	0.011147 
2935.657952  	0.011580 
2937.586768  	0.011916 
2939.515584  	0.012196 
2941.444400  	0.012396 
2943.373216  	0.012673 
2945.302032  	0.012945 
2947.230848  	0.013075 
2949.159664  	0.013021 
2951.088480  	0.013068 
2953.017296  	0.012976 
2954.946112  	0.012805 
2956.874928  	0.012664 
2958.803744  	0.012528 
2960.732560  	0.012415 
2962.661376  	0.012386 
2964.590192  	0.012262 
2966.519008  	0.012077 
2968.447824  	0.011845 
2970.376640  	0.011581 
2972.305456  	0.011343 
2974.234272  	0.011417 
2976.163088  	0.011500 
2978.091904  	0.011440 
2980.020720  	0.011420 
2981.949536  	0.011405 
2983.878352  	0.011279 
2985.807168  	0.011058 
2987.735984  	0.011087 
2989.664800  	0.011165 
2991.593616  	0.011571 
2993.522432  	0.011902 
2995.451248  	0.012048 
2997.380064  	0.012399 
2999.308880  	0.012724 
3001.237696  	0.012931 
3003.166512  	0.013356 
3005.095328  	0.013685 
3007.024144  	0.013968 
3008.952960  	0.014408 
3010.881776  	0.014911 
3012.810592  	0.015359 
3014.739408  	0.015707 
3016.668224  	0.016005 
3018.597040  	0.016445 
3020.525856  	0.016921 
3022.454672  	0.017128 
3024.383488  	0.017482 
3026.312304  	0.018076 
3028.241120  	0.018453 
3030.169936  	0.018766 
3032.098752  	0.019231 
3034.027568  	0.019494 
3035.956384  	0.019851 
3037.885200  	0.020179 
3039.814016  	0.020588 
3041.742832  	0.020965 
3043.671648  	0.021390 
3045.600464  	0.021682 
3047.529280  	0.021964 
3049.458096  	0.022410 
3051.386912  	0.022677 
3053.315728  	0.023027 
3055.244544  	0.023405 
3057.173360  	0.023903 
3059.102176  	0.024411 
3061.030992  	0.024992 
3062.959808  	0.025435 
3064.888624  	0.025928 
3066.817440  	0.026496 
3068.746256  	0.026968 
3070.675072  	0.027360 
3072.603888  	0.027764 
3074.532704  	0.028383 
3076.461520  	0.029018 
3078.390336  	0.029564 
3080.319152  	0.030129 
3082.247968  	0.030642 
3084.176784  	0.031142 
3086.105600  	0.031734 
3088.034416  	0.032190 
3089.963232  	0.032433 
3091.892048  	0.032866 
3093.820864  	0.033233 
3095.749680  	0.034025 
3097.678496  	0.034797 
3099.607312  	0.035317 
3101.536128  	0.035943 
3103.464944  	0.036392 
3105.393760  	0.036732 
3107.322576  	0.037164 
3109.251392  	0.037724 
3111.180208  	0.038028 
3113.109024  	0.038190 
3115.037840  	0.038778 
3116.966656  	0.039591 
3118.895472  	0.040087 
3120.824288  	0.040356 
3122.753104  	0.040766 
3124.681920  	0.041039 
3126.610736  	0.041421 
3128.539552  	0.041713 
3130.468368  	0.041781 
3132.397184  	0.042241 
3134.326000  	0.042680 
3136.254816  	0.043013 
3138.183632  	0.043417 
3140.112448  	0.043710 
3142.041264  	0.044163 
3143.970080  	0.044785 
3145.898896  	0.045176 
3147.827712  	0.045457 
3149.756528  	0.045916 
3151.685344  	0.046189 
3153.614160  	0.046549 
3155.542976  	0.046819 
3157.471792  	0.047297 
3159.400608  	0.047805 
3161.329424  	0.048139 
3163.258240  	0.048475 
3165.187056  	0.048722 
3167.115872  	0.048811 
3169.044688  	0.049150 
3170.973504  	0.049606 
3172.902320  	0.049647 
3174.831136  	0.049678 
3176.759952  	0.049828 
3178.688768  	0.050244 
3180.617584  	0.050427 
3182.546400  	0.050515 
3184.475216  	0.050638 
3186.404032  	0.050799 
3188.332848  	0.050825 
3190.261664  	0.050957 
3192.190480  	0.051060 
3194.119296  	0.051211 
3196.048112  	0.051159 
3197.976928  	0.051457 
3199.905744  	0.051575 
3201.834560  	0.051322 
3203.763376  	0.051087 
3205.692192  	0.050865 
3207.621008  	0.050861 
3209.549824  	0.051023 
3211.478640  	0.050988 
3213.407456  	0.050759 
3215.336272  	0.050886 
3217.265088  	0.050855 
3219.193904  	0.050982 
3221.122720  	0.050982 
3223.051536  	0.050577 
3224.980352  	0.050367 
3226.909168  	0.050475 
3228.837984  	0.050259 
3230.766800  	0.049996 
3232.695616  	0.050174 
3234.624432  	0.050224 
3236.553248  	0.050317 
3238.482064  	0.050398 
3240.410880  	0.050180 
3242.339696  	0.050054 
3244.268512  	0.050184 
3246.197328  	0.050415 
3248.126144  	0.050222 
3250.054960  	0.050372 
3251.983776  	0.050457 
3253.912592  	0.050640 
3255.841408  	0.050854 
3257.770224  	0.050839 
3259.699040  	0.051063 
3261.627856  	0.051343 
3263.556672  	0.051277 
3265.485488  	0.051357 
3267.414304  	0.051475 
3269.343120  	0.051641 
3271.271936  	0.051742 
3273.200752  	0.051764 
3275.129568  	0.051891 
3277.058384  	0.052006 
3278.987200  	0.051947 
3280.916016  	0.051933 
3282.844832  	0.052063 
3284.773648  	0.052300 
3286.702464  	0.052361 
3288.631280  	0.052554 
3290.560096  	0.052747 
3292.488912  	0.052928 
3294.417728  	0.052907 
3296.346544  	0.052849 
3298.275360  	0.053038 
3300.204176  	0.053204 
3302.132992  	0.053132 
3304.061808  	0.053263 
3305.990624  	0.053403 
3307.919440  	0.053631 
3309.848256  	0.053947 
3311.777072  	0.054000 
3313.705888  	0.054161 
3315.634704  	0.054294 
3317.563520  	0.054493 
3319.492336  	0.054652 
3321.421152  	0.054720 
3323.349968  	0.054866 
3325.278784  	0.054991 
3327.207600  	0.055056 
3329.136416  	0.054966 
3331.065232  	0.054895 
3332.994048  	0.055013 
3334.922864  	0.055175 
3336.851680  	0.055236 
3338.780496  	0.055059 
3340.709312  	0.054681 
3342.638128  	0.054615 
3344.566944  	0.054573 
3346.495760  	0.054421 
3348.424576  	0.054301 
3350.353392  	0.054206 
3352.282208  	0.053971 
3354.211024  	0.053676 
3356.139840  	0.053490 
3358.068656  	0.053303 
3359.997472  	0.053043 
3361.926288  	0.052865 
3363.855104  	0.052489 
3365.783920  	0.052406 
3367.712736  	0.052385 
3369.641552  	0.052055 
3371.570368  	0.051722 
3373.499184  	0.051814 
3375.428000  	0.051662 
3377.356816  	0.051349 
3379.285632  	0.051174 
3381.214448  	0.050879 
3383.143264  	0.050628 
3385.072080  	0.050812 
3387.000896  	0.050428 
3388.929712  	0.049812 
3390.858528  	0.049515 
3392.787344  	0.049866 
3394.716160  	0.049648 
3396.644976  	0.049260 
3398.573792  	0.049010 
3400.502608  	0.048249 
3402.431424  	0.047817 
3404.360240  	0.047565 
3406.289056  	0.047212 
3408.217872  	0.046845 
3410.146688  	0.046647 
3412.075504  	0.046400 
3414.004320  	0.046114 
3415.933136  	0.045844 
3417.861952  	0.045364 
3419.790768  	0.045276 
3421.719584  	0.045378 
3423.648400  	0.044798 
3425.577216  	0.043986 
3427.506032  	0.043662 
3429.434848  	0.043419 
3431.363664  	0.043221 
3433.292480  	0.042984 
3435.221296  	0.042580 
3437.150112  	0.042072 
3439.078928  	0.041521 
3441.007744  	0.041050 
3442.936560  	0.041098 
3444.865376  	0.040362 
3446.794192  	0.040608 
3448.723008  	0.040860 
3450.651824  	0.039570 
3452.580640  	0.039078 
3454.509456  	0.038585 
3456.438272  	0.038078 
3458.367088  	0.037628 
3460.295904  	0.037364 
3462.224720  	0.037311 
3464.153536  	0.036715 
3466.082352  	0.035815 
3468.011168  	0.035670 
3469.939984  	0.035211 
3471.868800  	0.034337 
3473.797616  	0.033661 
3475.726432  	0.033481 
3477.655248  	0.032614 
3479.584064  	0.031798 
3481.512880  	0.032080 
3483.441696  	0.032169 
3485.370512  	0.031017 
3487.299328  	0.030533 
3489.228144  	0.030116 
3491.156960  	0.029189 
3493.085776  	0.028582 
3495.014592  	0.028450 
3496.943408  	0.028242 
3498.872224  	0.027358 
3500.801040  	0.026813 
3502.729856  	0.027353 
3504.658672  	0.027418 
3506.587488  	0.025881 
3508.516304  	0.025417 
3510.445120  	0.025805 
3512.373936  	0.024923 
3514.302752  	0.024029 
3516.231568  	0.023503 
3518.160384  	0.023136 
3520.089200  	0.022494 
3522.018016  	0.022232 
3523.946832  	0.023075 
3525.875648  	0.022374 
3527.804464  	0.021820 
3529.733280  	0.021713 
3531.662096  	0.020646 
3533.590912  	0.019286 
3535.519728  	0.019029 
3537.448544  	0.019221 
3539.377360  	0.018242 
3541.306176  	0.017296 
3543.234992  	0.017193 
3545.163808  	0.018482 
3547.092624  	0.018994 
3549.021440  	0.017099 
3550.950256  	0.015660 
3552.879072  	0.016513 
3554.807888  	0.015681 
3556.736704  	0.014068 
3558.665520  	0.013665 
3560.594336  	0.013828 
3562.523152  	0.013058 
3564.451968  	0.012439 
3566.380784  	0.015162 
3568.309600  	0.017396 
3570.238416  	0.013931 
3572.167232  	0.011338 
3574.096048  	0.010462 
3576.024864  	0.010174 
3577.953680  	0.009688 
3579.882496  	0.009335 
3581.811312  	0.008673 
3583.740128  	0.007659 
3585.668944  	0.007207 
3587.597760  	0.009928 
3589.526576  	0.009846 
3591.455392  	0.006487 
3593.384208  	0.005609 
3595.313024  	0.006382 
3597.241840  	0.005474 
3599.170656  	0.004210 
3601.099472  	0.004390 
3603.028288  	0.003537 
3604.957104  	0.001747 
3606.885920  	0.001779 
3608.814736  	0.003169 
3610.743552  	0.002018 
3612.672368  	0.001579 
3614.601184  	0.002091 
3616.530000  	0.000078 
3618.458816  	0.000019 
3620.387632  	0.001121 
3622.316448  	-0.000714 
3624.245264  	-0.002898 
3626.174080  	-0.004331 
3628.102896  	-0.003412 
3630.031712  	0.000648 
3631.960528  	-0.002473 
3633.889344  	-0.004033 
3635.818160  	-0.004803 
3637.746976  	-0.005953 
3639.675792  	-0.006599 
3641.604608  	-0.007043 
3643.533424  	-0.007609 
3645.462240  	-0.009052 
3647.391056  	-0.008166 
3649.319872  	-0.005752 
3651.248688  	-0.004764 
3653.177504  	-0.008155 
3655.106320  	-0.010378 
3657.035136  	-0.009173 
3658.963952  	-0.010024 
3660.892768  	-0.011101 
3662.821584  	-0.011784 
3664.750400  	-0.012523 
3666.679216  	-0.013468 
3668.608032  	-0.013612 
3670.536848  	-0.010949 
3672.465664  	-0.012187 
3674.394480  	-0.014268 
3676.323296  	-0.010356 
3678.252112  	-0.011038 
3680.180928  	-0.012198 
3682.109744  	-0.013111 
3684.038560  	-0.013766 
3685.967376  	-0.014859 
3687.896192  	-0.014827 
3689.825008  	-0.012391 
3691.753824  	-0.012086 
3693.682640  	-0.013060 
3695.611456  	-0.014074 
3697.540272  	-0.014303 
3699.469088  	-0.015162 
3701.397904  	-0.014586 
3703.326720  	-0.013656 
3705.255536  	-0.014410 
3707.184352  	-0.014897 
3709.113168  	-0.014695 
3711.041984  	-0.013052 
3712.970800  	-0.011733 
3714.899616  	-0.012824 
3716.828432  	-0.014093 
3718.757248  	-0.014114 
3720.686064  	-0.014164 
3722.614880  	-0.013619 
3724.543696  	-0.013227 
3726.472512  	-0.012528 
3728.401328  	-0.013433 
3730.330144  	-0.015813 
3732.258960  	-0.016015 
3734.187776  	-0.013809 
3736.116592  	-0.010586 
3738.045408  	-0.011241 
3739.974224  	-0.013027 
3741.903040  	-0.014887 
3743.831856  	-0.015291 
3745.760672  	-0.011631 
3747.689488  	-0.013835 
3749.618304  	-0.013917 
3751.547120  	-0.011115 
3753.475936  	-0.010858 
3755.404752  	-0.012892 
3757.333568  	-0.013468 
3759.262384  	-0.012766 
3761.191200  	-0.012508 
3763.120016  	-0.013818 
3765.048832  	-0.013634 
3766.977648  	-0.013348 
3768.906464  	-0.013790 
3770.835280  	-0.012704 
3772.764096  	-0.013346 
3774.692912  	-0.014303 
3776.621728  	-0.014748 
3778.550544  	-0.014257 
3780.479360  	-0.012877 
3782.408176  	-0.013623 
3784.336992  	-0.013769 
3786.265808  	-0.013378 
3788.194624  	-0.013944 
3790.123440  	-0.014218 
3792.052256  	-0.014400 
3793.981072  	-0.015028 
3795.909888  	-0.014345 
3797.838704  	-0.013059 
3799.767520  	-0.014661 
3801.696336  	-0.012839 
3803.625152  	-0.012361 
3805.553968  	-0.014993 
3807.482784  	-0.013600 
3809.411600  	-0.013167 
3811.340416  	-0.014238 
3813.269232  	-0.015335 
3815.198048  	-0.015032 
3817.126864  	-0.012759 
3819.055680  	-0.014510 
3820.984496  	-0.013558 
3822.913312  	-0.011727 
3824.842128  	-0.013679 
3826.770944  	-0.013669 
3828.699760  	-0.013796 
3830.628576  	-0.014461 
3832.557392  	-0.014154 
3834.486208  	-0.014833 
3836.415024  	-0.015110 
3838.343840  	-0.013389 
3840.272656  	-0.011832 
3842.201472  	-0.012460 
3844.130288  	-0.012622 
3846.059104  	-0.013305 
3847.987920  	-0.014603 
3849.916736  	-0.015555 
3851.845552  	-0.016318 
3853.774368  	-0.011749 
3855.703184  	-0.010190 
3857.632000  	-0.011931 
3859.560816  	-0.013562 
3861.489632  	-0.014052 
3863.418448  	-0.013349 
3865.347264  	-0.011805 
3867.276080  	-0.013414 
3869.204896  	-0.013750 
3871.133712  	-0.011227 
3873.062528  	-0.012794 
3874.991344  	-0.012261 
3876.920160  	-0.013757 
3878.848976  	-0.014838 
3880.777792  	-0.012494 
3882.706608  	-0.012163 
3884.635424  	-0.013299 
3886.564240  	-0.012161 
3888.493056  	-0.014050 
3890.421872  	-0.014624 
3892.350688  	-0.012596 
3894.279504  	-0.012928 
3896.208320  	-0.014369 
3898.137136  	-0.014599 
3900.065952  	-0.013010 
3901.994768  	-0.012304 
3903.923584  	-0.011578 
3905.852400  	-0.011213 
3907.781216  	-0.013047 
3909.710032  	-0.014510 
3911.638848  	-0.014886 
3913.567664  	-0.014773 
3915.496480  	-0.014133 
3917.425296  	-0.012700 
3919.354112  	-0.012740 
3921.282928  	-0.013045 
3923.211744  	-0.013128 
3925.140560  	-0.012511 
3927.069376  	-0.013328 
3928.998192  	-0.013881 
3930.927008  	-0.013122 
3932.855824  	-0.012410 
3934.784640  	-0.013069 
3936.713456  	-0.013892 
3938.642272  	-0.014167 
3940.571088  	-0.014328 
3942.499904  	-0.013083 
3944.428720  	-0.012892 
3946.357536  	-0.013948 
3948.286352  	-0.013356 
3950.215168  	-0.013325 
3952.143984  	-0.014059 
3954.072800  	-0.014460 
3956.001616  	-0.014279 
3957.930432  	-0.013952 
3959.859248  	-0.013813 
3961.788064  	-0.013631 
3963.716880  	-0.013833 
3965.645696  	-0.014348 
3967.574512  	-0.014525 
3969.503328  	-0.014523 
3971.432144  	-0.014404 
3973.360960  	-0.014023 
3975.289776  	-0.013499 
3977.218592  	-0.013680 
3979.147408  	-0.014154 
3981.076224  	-0.014254 
3983.005040  	-0.014192 
3984.933856  	-0.014115 
3986.862672  	-0.014078 
3988.791488  	-0.014183 
3990.720304  	-0.013873 
3992.649120  	-0.013866 
3994.577936  	-0.013943 
3996.506752  	-0.014087 
3998.435568  	-0.014303 
4000.364384  	-0.014350 