##TITLE=No Description
##DATA TYPE=INFRARED SPECTRUM
##XUNITS=1/CM
##YUNITS=Abs
399.264912  	0.456255 
401.193728  	0.441373 
403.122544  	0.431292 
405.051360  	0.424045 
406.980176  	0.422724 
408.908992  	0.421215 
410.837808  	0.432565 
412.766624  	0.428928 
414.695440  	0.420247 
416.624256  	0.420280 
418.553072  	0.435860 
420.481888  	0.436286 
422.410704  	0.429211 
424.339520  	0.423394 
426.268336  	0.415188 
428.197152  	0.408372 
430.125968  	0.413677 
432.054784  	0.413107 
433.983600  	0.414090 
435.912416  	0.412672 
437.841232  	0.406523 
439.770048  	0.403162 
441.698864  	0.407629 
443.627680  	0.403599 
445.556496  	0.402071 
447.485312  	0.399107 
449.414128  	0.398666 
451.342944  	0.402819 
453.271760  	0.406497 
455.200576  	0.402577 
457.129392  	0.401454 
459.058208  	0.401052 
460.987024  	0.403037 
462.915840  	0.397577 
464.844656  	0.396699 
466.773472  	0.400191 
468.702288  	0.401673 
470.631104  	0.395916 
472.559920  	0.397293 
474.488736  	0.396353 
476.417552  	0.398598 
478.346368  	0.397207 
480.275184  	0.397229 
482.204000  	0.397048 
484.132816  	0.393952 
486.061632  	0.391472 
487.990448  	0.390663 
489.919264  	0.392587 
491.848080  	0.395260 
493.776896  	0.396379 
495.705712  	0.396342 
497.634528  	0.391943 
499.563344  	0.389341 
501.492160  	0.385997 
503.420976  	0.386484 
505.349792  	0.385948 
507.278608  	0.386335 
509.207424  	0.384826 
511.136240  	0.387747 
513.065056  	0.389099 
514.993872  	0.391061 
516.922688  	0.392864 
518.851504  	0.393492 
520.780320  	0.394206 
522.709136  	0.394154 
524.637952  	0.391435 
526.566768  	0.390872 
528.495584  	0.388846 
530.424400  	0.384839 
532.353216  	0.380693 
534.282032  	0.377899 
536.210848  	0.373169 
538.139664  	0.366575 
540.068480  	0.361609 
541.997296  	0.359375 
543.926112  	0.356707 
545.854928  	0.354833 
547.783744  	0.351905 
549.712560  	0.351444 
551.641376  	0.347651 
553.570192  	0.344661 
555.499008  	0.341028 
557.427824  	0.339613 
559.356640  	0.336447 
561.285456  	0.334307 
563.214272  	0.331493 
565.143088  	0.327977 
567.071904  	0.324714 
569.000720  	0.323447 
570.929536  	0.320963 
572.858352  	0.318224 
574.787168  	0.315971 
576.715984  	0.313717 
578.644800  	0.310364 
580.573616  	0.307406 
582.502432  	0.303409 
584.431248  	0.299494 
586.360064  	0.295293 
588.288880  	0.292678 
590.217696  	0.291123 
592.146512  	0.290738 
594.075328  	0.288805 
596.004144  	0.287079 
597.932960  	0.285329 
599.861776  	0.284525 
601.790592  	0.283485 
603.719408  	0.283232 
605.648224  	0.282457 
607.577040  	0.281465 
609.505856  	0.280525 
611.434672  	0.279217 
613.363488  	0.277921 
615.292304  	0.277263 
617.221120  	0.276215 
619.149936  	0.276302 
621.078752  	0.275350 
623.007568  	0.274002 
624.936384  	0.273052 
626.865200  	0.272880 
628.794016  	0.272499 
630.722832  	0.272332 
632.651648  	0.273011 
634.580464  	0.273730 
636.509280  	0.274030 
638.438096  	0.274100 
640.366912  	0.273796 
642.295728  	0.272696 
644.224544  	0.270667 
646.153360  	0.268056 
648.082176  	0.264232 
650.010992  	0.261273 
651.939808  	0.258264 
653.868624  	0.255737 
655.797440  	0.252605 
657.726256  	0.249193 
659.655072  	0.245782 
661.583888  	0.242611 
663.512704  	0.239161 
665.441520  	0.234519 
667.370336  	0.230984 
669.299152  	0.230474 
671.227968  	0.225688 
673.156784  	0.222049 
675.085600  	0.220112 
677.014416  	0.217891 
678.943232  	0.216414 
680.872048  	0.215622 
682.800864  	0.214313 
684.729680  	0.212828 
686.658496  	0.211848 
688.587312  	0.211659 
690.516128  	0.211067 
692.444944  	0.210782 
694.373760  	0.209650 
696.302576  	0.208586 
698.231392  	0.207384 
700.160208  	0.205824 
702.089024  	0.203541 
704.017840  	0.201016 
705.946656  	0.198743 
707.875472  	0.197140 
709.804288  	0.195675 
711.733104  	0.194503 
713.661920  	0.193756 
715.590736  	0.192952 
717.519552  	0.192693 
719.448368  	0.193688 
721.377184  	0.195105 
723.306000  	0.196282 
725.234816  	0.197055 
727.163632  	0.196483 
729.092448  	0.194057 
731.021264  	0.190986 
732.950080  	0.187911 
734.878896  	0.185269 
736.807712  	0.182814 
738.736528  	0.180632 
740.665344  	0.179078 
742.594160  	0.178258 
744.522976  	0.177027 
746.451792  	0.175977 
748.380608  	0.174686 
750.309424  	0.173800 
752.238240  	0.173044 
754.167056  	0.172738 
756.095872  	0.172334 
758.024688  	0.171547 
759.953504  	0.171373 
761.882320  	0.172918 
763.811136  	0.174397 
765.739952  	0.173024 
767.668768  	0.170168 
769.597584  	0.168090 
771.526400  	0.168125 
773.455216  	0.170358 
775.384032  	0.174833 
777.312848  	0.180977 
779.241664  	0.185001 
781.170480  	0.184237 
783.099296  	0.179584 
785.028112  	0.174248 
786.956928  	0.168979 
788.885744  	0.164811 
790.814560  	0.161762 
792.743376  	0.160771 
794.672192  	0.160530 
796.601008  	0.159581 
798.529824  	0.156691 
800.458640  	0.152826 
802.387456  	0.150100 
804.316272  	0.148982 
806.245088  	0.148533 
808.173904  	0.148164 
810.102720  	0.148134 
812.031536  	0.148413 
813.960352  	0.148882 
815.889168  	0.150045 
817.817984  	0.151490 
819.746800  	0.152864 
821.675616  	0.153962 
823.604432  	0.155184 
825.533248  	0.156153 
827.462064  	0.157061 
829.390880  	0.157274 
831.319696  	0.157307 
833.248512  	0.156419 
835.177328  	0.154773 
837.106144  	0.152080 
839.034960  	0.149111 
840.963776  	0.145341 
842.892592  	0.141444 
844.821408  	0.137951 
846.750224  	0.134727 
848.679040  	0.132081 
850.607856  	0.129984 
852.536672  	0.128772 
854.465488  	0.127858 
856.394304  	0.127171 
858.323120  	0.126261 
860.251936  	0.125190 
862.180752  	0.123956 
864.109568  	0.122051 
866.038384  	0.120319 
867.967200  	0.118658 
869.896016  	0.117420 
871.824832  	0.117018 
873.753648  	0.117834 
875.682464  	0.118721 
877.611280  	0.120669 
879.540096  	0.123292 
881.468912  	0.126049 
883.397728  	0.128656 
885.326544  	0.130861 
887.255360  	0.132515 
889.184176  	0.132924 
891.112992  	0.132255 
893.041808  	0.130593 
894.970624  	0.128099 
896.899440  	0.124291 
898.828256  	0.119701 
900.757072  	0.115271 
902.685888  	0.111700 
904.614704  	0.109927 
906.543520  	0.110200 
908.472336  	0.112651 
910.401152  	0.115701 
912.329968  	0.119109 
914.258784  	0.122522 
916.187600  	0.125732 
918.116416  	0.128061 
920.045232  	0.129868 
921.974048  	0.131336 
923.902864  	0.132508 
925.831680  	0.133494 
927.760496  	0.134752 
929.689312  	0.136108 
931.618128  	0.137707 
933.546944  	0.138921 
935.475760  	0.139375 
937.404576  	0.139019 
939.333392  	0.138451 
941.262208  	0.138408 
943.191024  	0.139849 
945.119840  	0.143595 
947.048656  	0.150085 
948.977472  	0.159350 
950.906288  	0.170930 
952.835104  	0.184552 
954.763920  	0.199254 
956.692736  	0.212783 
958.621552  	0.224112 
960.550368  	0.231240 
962.479184  	0.234127 
964.408000  	0.231993 
966.336816  	0.225714 
968.265632  	0.215187 
970.194448  	0.202179 
972.123264  	0.187761 
974.052080  	0.173039 
975.980896  	0.158699 
977.909712  	0.145506 
979.838528  	0.134069 
981.767344  	0.124768 
983.696160  	0.118030 
985.624976  	0.113881 
987.553792  	0.113084 
989.482608  	0.115351 
991.411424  	0.120344 
993.340240  	0.127576 
995.269056  	0.135474 
997.197872  	0.143708 
999.126688  	0.151748 
1001.055504  	0.160182 
1002.984320  	0.168024 
1004.913136  	0.175834 
1006.841952  	0.183098 
1008.770768  	0.189632 
1010.699584  	0.194842 
1012.628400  	0.198487 
1014.557216  	0.200476 
1016.486032  	0.200909 
1018.414848  	0.200585 
1020.343664  	0.199909 
1022.272480  	0.199391 
1024.201296  	0.198882 
1026.130112  	0.198388 
1028.058928  	0.199143 
1029.987744  	0.201365 
1031.916560  	0.204702 
1033.845376  	0.208813 
1035.774192  	0.214507 
1037.703008  	0.221509 
1039.631824  	0.231392 
1041.560640  	0.243799 
1043.489456  	0.258379 
1045.418272  	0.272668 
1047.347088  	0.284290 
1049.275904  	0.290122 
1051.204720  	0.290475 
1053.133536  	0.286917 
1055.062352  	0.281454 
1056.991168  	0.275538 
1058.919984  	0.271202 
1060.848800  	0.267641 
1062.777616  	0.264645 
1064.706432  	0.261007 
1066.635248  	0.256778 
1068.564064  	0.251650 
1070.492880  	0.245806 
1072.421696  	0.240397 
1074.350512  	0.237026 
1076.279328  	0.236571 
1078.208144  	0.239705 
1080.136960  	0.243418 
1082.065776  	0.245459 
1083.994592  	0.243662 
1085.923408  	0.238896 
1087.852224  	0.230897 
1089.781040  	0.221530 
1091.709856  	0.211063 
1093.638672  	0.199662 
1095.567488  	0.187378 
1097.496304  	0.175270 
1099.425120  	0.163347 
1101.353936  	0.152100 
1103.282752  	0.141529 
1105.211568  	0.131469 
1107.140384  	0.122417 
1109.069200  	0.114045 
1110.998016  	0.106589 
1112.926832  	0.100176 
1114.855648  	0.094260 
1116.784464  	0.088036 
1118.713280  	0.082098 
1120.642096  	0.076689 
1122.570912  	0.071499 
1124.499728  	0.066659 
1126.428544  	0.062552 
1128.357360  	0.059224 
1130.286176  	0.056244 
1132.214992  	0.053882 
1134.143808  	0.052185 
1136.072624  	0.050871 
1138.001440  	0.049599 
1139.930256  	0.048475 
1141.859072  	0.047077 
1143.787888  	0.045465 
1145.716704  	0.043971 
1147.645520  	0.042740 
1149.574336  	0.042198 
1151.503152  	0.041721 
1153.431968  	0.041652 
1155.360784  	0.042077 
1157.289600  	0.043368 
1159.218416  	0.045131 
1161.147232  	0.047116 
1163.076048  	0.049287 
1165.004864  	0.051480 
1166.933680  	0.053573 
1168.862496  	0.055840 
1170.791312  	0.058514 
1172.720128  	0.061326 
1174.648944  	0.064521 
1176.577760  	0.067744 
1178.506576  	0.071088 
1180.435392  	0.074618 
1182.364208  	0.078154 
1184.293024  	0.082084 
1186.221840  	0.086544 
1188.150656  	0.091619 
1190.079472  	0.097471 
1192.008288  	0.104358 
1193.937104  	0.111953 
1195.865920  	0.119958 
1197.794736  	0.128599 
1199.723552  	0.138122 
1201.652368  	0.147071 
1203.581184  	0.154774 
1205.510000  	0.162168 
1207.438816  	0.168464 
1209.367632  	0.173574 
1211.296448  	0.177241 
1213.225264  	0.179784 
1215.154080  	0.180626 
1217.082896  	0.180372 
1219.011712  	0.179163 
1220.940528  	0.177687 
1222.869344  	0.175481 
1224.798160  	0.172964 
1226.726976  	0.169605 
1228.655792  	0.165939 
1230.584608  	0.161930 
1232.513424  	0.157327 
1234.442240  	0.152276 
1236.371056  	0.147145 
1238.299872  	0.141522 
1240.228688  	0.135289 
1242.157504  	0.129046 
1244.086320  	0.123086 
1246.015136  	0.117162 
1247.943952  	0.111438 
1249.872768  	0.105691 
1251.801584  	0.100254 
1253.730400  	0.094994 
1255.659216  	0.089857 
1257.588032  	0.084855 
1259.516848  	0.080435 
1261.445664  	0.076196 
1263.374480  	0.072304 
1265.303296  	0.068991 
1267.232112  	0.066468 
1269.160928  	0.064739 
1271.089744  	0.063564 
1273.018560  	0.062941 
1274.947376  	0.063103 
1276.876192  	0.063840 
1278.805008  	0.064382 
1280.733824  	0.064261 
1282.662640  	0.062998 
1284.591456  	0.061189 
1286.520272  	0.059775 
1288.449088  	0.059155 
1290.377904  	0.059162 
1292.306720  	0.059929 
1294.235536  	0.060658 
1296.164352  	0.060405 
1298.093168  	0.058814 
1300.021984  	0.056413 
1301.950800  	0.053785 
1303.879616  	0.051003 
1305.808432  	0.048018 
1307.737248  	0.044907 
1309.666064  	0.041850 
1311.594880  	0.039648 
1313.523696  	0.038254 
1315.452512  	0.037143 
1317.381328  	0.036867 
1319.310144  	0.037162 
1321.238960  	0.037328 
1323.167776  	0.037780 
1325.096592  	0.038445 
1327.025408  	0.038782 
1328.954224  	0.038751 
1330.883040  	0.038174 
1332.811856  	0.037001 
1334.740672  	0.036002 
1336.669488  	0.036010 
1338.598304  	0.037176 
1340.527120  	0.037346 
1342.455936  	0.035295 
1344.384752  	0.034572 
1346.313568  	0.034933 
1348.242384  	0.035767 
1350.171200  	0.036930 
1352.100016  	0.038352 
1354.028832  	0.040192 
1355.957648  	0.042221 
1357.886464  	0.043884 
1359.815280  	0.045712 
1361.744096  	0.048850 
1363.672912  	0.052002 
1365.601728  	0.052301 
1367.530544  	0.053529 
1369.459360  	0.055362 
1371.388176  	0.055442 
1373.316992  	0.055643 
1375.245808  	0.055270 
1377.174624  	0.052261 
1379.103440  	0.049670 
1381.032256  	0.047028 
1382.961072  	0.044793 
1384.889888  	0.043047 
1386.818704  	0.043040 
1388.747520  	0.041958 
1390.676336  	0.039151 
1392.605152  	0.037053 
1394.533968  	0.037453 
1396.462784  	0.038391 
1398.391600  	0.038140 
1400.320416  	0.038250 
1402.249232  	0.037147 
1404.178048  	0.038226 
1406.106864  	0.039855 
1408.035680  	0.040264 
1409.964496  	0.041559 
1411.893312  	0.043640 
1413.822128  	0.045278 
1415.750944  	0.047326 
1417.679760  	0.049615 
1419.608576  	0.052643 
1421.537392  	0.051331 
1423.466208  	0.050117 
1425.395024  	0.048883 
1427.323840  	0.045829 
1429.252656  	0.044252 
1431.181472  	0.043053 
1433.110288  	0.041636 
1435.039104  	0.041229 
1436.967920  	0.044818 
1438.896736  	0.045605 
1440.825552  	0.045146 
1442.754368  	0.045584 
1444.683184  	0.045531 
1446.612000  	0.045866 
1448.540816  	0.047058 
1450.469632  	0.046842 
1452.398448  	0.046729 
1454.327264  	0.046173 
1456.256080  	0.047394 
1458.184896  	0.052128 
1460.113712  	0.049331 
1462.042528  	0.046123 
1463.971344  	0.045628 
1465.900160  	0.047844 
1467.828976  	0.047534 
1469.757792  	0.047255 
1471.686608  	0.050893 
1473.615424  	0.060572 
1475.544240  	0.064292 
1477.473056  	0.068202 
1479.401872  	0.069845 
1481.330688  	0.072995 
1483.259504  	0.074917 
1485.188320  	0.075241 
1487.117136  	0.076290 
1489.045952  	0.078682 
1490.974768  	0.078653 
1492.903584  	0.073364 
1494.832400  	0.067873 
1496.761216  	0.064853 
1498.690032  	0.060512 
1500.618848  	0.055231 
1502.547664  	0.049330 
1504.476480  	0.043975 
1506.405296  	0.045139 
1508.334112  	0.049662 
1510.262928  	0.044140 
1512.191744  	0.040407 
1514.120560  	0.038519 
1516.049376  	0.039831 
1517.978192  	0.042120 
1519.907008  	0.041586 
1521.835824  	0.047920 
1523.764640  	0.050188 
1525.693456  	0.052267 
1527.622272  	0.054678 
1529.551088  	0.053079 
1531.479904  	0.050181 
1533.408720  	0.049819 
1535.337536  	0.047078 
1537.266352  	0.041447 
1539.195168  	0.039595 
1541.123984  	0.042125 
1543.052800  	0.040761 
1544.981616  	0.039227 
1546.910432  	0.035896 
1548.839248  	0.034649 
1550.768064  	0.036296 
1552.696880  	0.034743 
1554.625696  	0.036019 
1556.554512  	0.035028 
1558.483328  	0.039167 
1560.412144  	0.049334 
1562.340960  	0.046186 
1564.269776  	0.047051 
1566.198592  	0.051056 
1568.127408  	0.053065 
1570.056224  	0.061857 
1571.985040  	0.065455 
1573.913856  	0.065342 
1575.842672  	0.069707 
1577.771488  	0.075822 
1579.700304  	0.073105 
1581.629120  	0.071778 
1583.557936  	0.071290 
1585.486752  	0.072486 
1587.415568  	0.074612 
1589.344384  	0.078796 
1591.273200  	0.083678 
1593.202016  	0.089774 
1595.130832  	0.096524 
1597.059648  	0.103081 
1598.988464  	0.107833 
1600.917280  	0.112550 
1602.846096  	0.116078 
1604.774912  	0.118081 
1606.703728  	0.117814 
1608.632544  	0.117937 
1610.561360  	0.116419 
1612.490176  	0.114230 
1614.418992  	0.110400 
1616.347808  	0.112527 
1618.276624  	0.117535 
1620.205440  	0.116360 
1622.134256  	0.117381 
1624.063072  	0.126143 
1625.991888  	0.129358 
1627.920704  	0.135205 
1629.849520  	0.141965 
1631.778336  	0.144584 
1633.707152  	0.145156 
1635.635968  	0.155789 
1637.564784  	0.166778 
1639.493600  	0.165117 
1641.422416  	0.165005 
1643.351232  	0.163606 
1645.280048  	0.161357 
1647.208864  	0.168894 
1649.137680  	0.167650 
1651.066496  	0.157197 
1652.995312  	0.160055 
1654.924128  	0.169885 
1656.852944  	0.160617 
1658.781760  	0.154984 
1660.710576  	0.150760 
1662.639392  	0.149936 
1664.568208  	0.147712 
1666.497024  	0.140812 
1668.425840  	0.136706 
1670.354656  	0.136385 
1672.283472  	0.131581 
1674.212288  	0.126187 
1676.141104  	0.126818 
1678.069920  	0.122740 
1679.998736  	0.120301 
1681.927552  	0.116597 
1683.856368  	0.117746 
1685.785184  	0.123052 
1687.714000  	0.117837 
1689.642816  	0.116647 
1691.571632  	0.114660 
1693.500448  	0.110251 
1695.429264  	0.110105 
1697.358080  	0.112862 
1699.286896  	0.108420 
1701.215712  	0.113501 
1703.144528  	0.108030 
1705.073344  	0.104598 
1707.002160  	0.102960 
1708.930976  	0.098016 
1710.859792  	0.092896 
1712.788608  	0.087138 
1714.717424  	0.081513 
1716.646240  	0.075852 
1718.575056  	0.069212 
1720.503872  	0.059674 
1722.432688  	0.051324 
1724.361504  	0.043820 
1726.290320  	0.036823 
1728.219136  	0.031277 
1730.147952  	0.027350 
1732.076768  	0.022959 
1734.005584  	0.021317 
1735.934400  	0.018384 
1737.863216  	0.014445 
1739.792032  	0.012847 
1741.720848  	0.011562 
1743.649664  	0.010774 
1745.578480  	0.009336 
1747.507296  	0.008248 
1749.436112  	0.008707 
1751.364928  	0.008470 
1753.293744  	0.006347 
1755.222560  	0.004422 
1757.151376  	0.005330 
1759.080192  	0.004285 
1761.009008  	0.003671 
1762.937824  	0.003868 
1764.866640  	0.002621 
1766.795456  	0.002098 
1768.724272  	0.002722 
1770.653088  	0.001559 
1772.581904  	0.003270 
1774.510720  	0.003323 
1776.439536  	0.002063 
1778.368352  	0.000869 
1780.297168  	0.001208 
1782.225984  	0.000947 
1784.154800  	0.000617 
1786.083616  	0.000405 
1788.012432  	-0.000467 
1789.941248  	-0.000454 
1791.870064  	0.001108 
1793.798880  	0.001231 
1795.727696  	0.000438 
1797.656512  	-0.000603 
1799.585328  	-0.000869 
1801.514144  	0.000154 
1803.442960  	-0.000251 
1805.371776  	-0.001099 
1807.300592  	-0.001431 
1809.229408  	-0.001673 
1811.158224  	-0.001306 
1813.087040  	-0.001668 
1815.015856  	-0.002551 
1816.944672  	-0.002368 
1818.873488  	-0.002106 
1820.802304  	-0.002122 
1822.731120  	-0.002074 
1824.659936  	-0.001666 
1826.588752  	-0.001569 
1828.517568  	-0.002288 
1830.446384  	-0.001073 
1832.375200  	-0.001754 
1834.304016  	-0.002388 
1836.232832  	-0.002179 
1838.161648  	-0.001983 
1840.090464  	-0.002599 
1842.019280  	-0.003117 
1843.948096  	-0.002240 
1845.876912  	-0.001487 
1847.805728  	-0.002118 
1849.734544  	-0.002574 
1851.663360  	-0.003004 
1853.592176  	-0.002751 
1855.520992  	-0.002879 
1857.449808  	-0.002829 
1859.378624  	-0.003067 
1861.307440  	-0.003034 
1863.236256  	-0.003604 
1865.165072  	-0.003769 
1867.093888  	-0.003406 
1869.022704  	-0.001540 
1870.951520  	-0.001708 
1872.880336  	-0.002898 
1874.809152  	-0.003518 
1876.737968  	-0.003557 
1878.666784  	-0.003625 
1880.595600  	-0.003776 
1882.524416  	-0.003692 
1884.453232  	-0.003305 
1886.382048  	-0.003831 
1888.310864  	-0.003765 
1890.239680  	-0.002977 
1892.168496  	-0.003083 
1894.097312  	-0.003377 
1896.026128  	-0.003467 
1897.954944  	-0.003886 
1899.883760  	-0.003595 
1901.812576  	-0.003421 
1903.741392  	-0.003459 
1905.670208  	-0.004115 
1907.599024  	-0.004457 
1909.527840  	-0.004094 
1911.456656  	-0.003409 
1913.385472  	-0.003445 
1915.314288  	-0.003494 
1917.243104  	-0.003467 
1919.171920  	-0.002639 
1921.100736  	-0.002989 
1923.029552  	-0.002838 
1924.958368  	-0.004150 
1926.887184  	-0.004439 
1928.816000  	-0.004511 
1930.744816  	-0.004451 
1932.673632  	-0.004574 
1934.602448  	-0.004030 
1936.531264  	-0.004189 
1938.460080  	-0.004374 
1940.388896  	-0.004449 
1942.317712  	-0.003554 
1944.246528  	-0.004224 
1946.175344  	-0.004421 
1948.104160  	-0.004529 
1950.032976  	-0.004130 
1951.961792  	-0.004155 
1953.890608  	-0.004405 
1955.819424  	-0.005246 
1957.748240  	-0.005805 
1959.677056  	-0.006033 
1961.605872  	-0.005506 
1963.534688  	-0.005301 
1965.463504  	-0.004563 
1967.392320  	-0.004555 
1969.321136  	-0.005675 
1971.249952  	-0.007145 
1973.178768  	-0.006739 
1975.107584  	-0.005665 
1977.036400  	-0.004579 
1978.965216  	-0.004502 
1980.894032  	-0.004451 
1982.822848  	-0.004981 
1984.751664  	-0.004670 
1986.680480  	-0.004123 
1988.609296  	-0.003156 
1990.538112  	-0.003152 
1992.466928  	-0.002626 
1994.395744  	-0.003962 
1996.324560  	-0.004642 
1998.253376  	-0.004444 
2000.182192  	-0.004660 
2002.111008  	-0.005065 
2004.039824  	-0.004200 
2005.968640  	-0.004370 
2007.897456  	-0.004006 
2009.826272  	-0.004457 
2011.755088  	-0.005052 
2013.683904  	-0.004989 
2015.612720  	-0.003021 
2017.541536  	-0.001989 
2019.470352  	-0.001938 
2021.399168  	-0.003565 
2023.327984  	-0.003946 
2025.256800  	-0.003403 
2027.185616  	-0.001930 
2029.114432  	-0.001912 
2031.043248  	-0.001847 
2032.972064  	-0.001770 
2034.900880  	-0.001474 
2036.829696  	-0.002077 
2038.758512  	-0.001757 
2040.687328  	-0.002898 
2042.616144  	-0.002661 
2044.544960  	-0.002902 
2046.473776  	-0.002503 
2048.402592  	-0.001680 
2050.331408  	-0.001641 
2052.260224  	-0.002053 
2054.189040  	-0.002156 
2056.117856  	-0.002625 
2058.046672  	-0.001836 
2059.975488  	-0.001679 
2061.904304  	-0.001766 
2063.833120  	-0.001499 
2065.761936  	-0.000793 
2067.690752  	-0.001068 
2069.619568  	-0.001556 
2071.548384  	-0.001800 
2073.477200  	-0.001520 
2075.406016  	-0.001155 
2077.334832  	-0.000902 
2079.263648  	-0.000639 
2081.192464  	-0.000144 
2083.121280  	-0.000499 
2085.050096  	-0.000786 
2086.978912  	-0.000927 
2088.907728  	-0.000794 
2090.836544  	-0.000685 
2092.765360  	-0.000550 
2094.694176  	-0.000543 
2096.622992  	-0.000448 
2098.551808  	-0.000445 
2100.480624  	0.000017 
2102.409440  	-0.000021 
2104.338256  	-0.000125 
2106.267072  	-0.000456 
2108.195888  	-0.000415 
2110.124704  	-0.000171 
2112.053520  	0.000063 
2113.982336  	0.000168 
2115.911152  	0.000199 
2117.839968  	-0.000223 
2119.768784  	-0.000380 
2121.697600  	-0.000643 
2123.626416  	-0.000916 
2125.555232  	-0.001244 
2127.484048  	-0.001647 
2129.412864  	-0.001507 
2131.341680  	-0.000827 
2133.270496  	-0.000687 
2135.199312  	-0.000477 
2137.128128  	0.000011 
2139.056944  	0.000559 
2140.985760  	0.000713 
2142.914576  	0.001060 
2144.843392  	-0.000442 
2146.772208  	-0.000760 
2148.701024  	-0.000216 
2150.629840  	-0.000409 
2152.558656  	-0.001226 
2154.487472  	-0.001230 
2156.416288  	-0.000866 
2158.345104  	0.001886 
2160.273920  	0.004368 
2162.202736  	0.003629 
2164.131552  	0.002241 
2166.060368  	0.001917 
2167.989184  	0.001760 
2169.918000  	0.001752 
2171.846816  	0.001489 
2173.775632  	0.001745 
2175.704448  	0.001643 
2177.633264  	0.001676 
2179.562080  	0.000973 
2181.490896  	0.000996 
2183.419712  	0.002021 
2185.348528  	0.002280 
2187.277344  	0.001008 
2189.206160  	0.000626 
2191.134976  	0.000496 
2193.063792  	0.000528 
2194.992608  	0.000770 
2196.921424  	0.000737 
2198.850240  	0.000058 
2200.779056  	0.000028 
2202.707872  	-0.000362 
2204.636688  	-0.000114 
2206.565504  	-0.000061 
2208.494320  	-0.000388 
2210.423136  	-0.000641 
2212.351952  	-0.000259 
2214.280768  	-0.000830 
2216.209584  	-0.001112 
2218.138400  	-0.001196 
2220.067216  	-0.001267 
2221.996032  	-0.000823 
2223.924848  	-0.000042 
2225.853664  	-0.000034 
2227.782480  	0.000071 
2229.711296  	-0.000624 
2231.640112  	-0.000747 
2233.568928  	-0.000800 
2235.497744  	-0.001206 
2237.426560  	-0.001075 
2239.355376  	-0.000805 
2241.284192  	-0.001277 
2243.213008  	-0.001467 
2245.141824  	-0.001052 
2247.070640  	-0.000436 
2248.999456  	-0.000489 
2250.928272  	-0.000626 
2252.857088  	-0.000637 
2254.785904  	-0.000226 
2256.714720  	0.000121 
2258.643536  	0.000213 
2260.572352  	-0.000077 
2262.501168  	-0.000348 
2264.429984  	-0.000141 
2266.358800  	-0.000052 
2268.287616  	-0.000512 
2270.216432  	-0.000718 
2272.145248  	-0.000330 
2274.074064  	0.000124 
2276.002880  	0.000023 
2277.931696  	0.000199 
2279.860512  	0.000312 
2281.789328  	0.000678 
2283.718144  	0.000723 
2285.646960  	0.000706 
2287.575776  	0.000516 
2289.504592  	0.000609 
2291.433408  	0.000748 
2293.362224  	0.000952 
2295.291040  	0.000875 
2297.219856  	0.000994 
2299.148672  	0.001045 
2301.077488  	0.001158 
2303.006304  	0.001587 
2304.935120  	0.001998 
2306.863936  	0.001951 
2308.792752  	0.001987 
2310.721568  	0.002068 
2312.650384  	0.001808 
2314.579200  	0.001104 
2316.508016  	0.001006 
2318.436832  	0.000938 
2320.365648  	0.000961 
2322.294464  	0.001129 
2324.223280  	0.000237 
2326.152096  	-0.001612 
2328.080912  	-0.002716 
2330.009728  	-0.002928 
2331.938544  	-0.003081 
2333.867360  	-0.003823 
2335.796176  	-0.004467 
2337.724992  	-0.005087 
2339.653808  	-0.005056 
2341.582624  	-0.004419 
2343.511440  	-0.003136 
2345.440256  	-0.001097 
2347.369072  	-0.000002 
2349.297888  	-0.001081 
2351.226704  	-0.002945 
2353.155520  	-0.004578 
2355.084336  	-0.005742 
2357.013152  	-0.006057 
2358.941968  	-0.006105 
2360.870784  	-0.006590 
2362.799600  	-0.006686 
2364.728416  	-0.005751 
2366.657232  	-0.004302 
2368.586048  	-0.003172 
2370.514864  	-0.002043 
2372.443680  	-0.000881 
2374.372496  	0.000680 
2376.301312  	0.001731 
2378.230128  	0.002105 
2380.158944  	0.001902 
2382.087760  	0.001490 
2384.016576  	0.000809 
2385.945392  	0.000196 
2387.874208  	-0.000004 
2389.803024  	-0.000253 
2391.731840  	-0.000550 
2393.660656  	-0.000796 
2395.589472  	-0.000794 
2397.518288  	-0.000627 
2399.447104  	-0.000765 
2401.375920  	-0.000800 
2403.304736  	-0.000822 
2405.233552  	-0.000796 
2407.162368  	-0.000862 
2409.091184  	-0.000912 
2411.020000  	-0.001045 
2412.948816  	-0.001034 
2414.877632  	-0.000902 
2416.806448  	-0.000647 
2418.735264  	-0.000540 
2420.664080  	-0.000485 
2422.592896  	-0.000583 
2424.521712  	-0.000582 
2426.450528  	-0.000592 
2428.379344  	-0.000478 
2430.308160  	-0.000321 
2432.236976  	-0.000338 
2434.165792  	-0.000205 
2436.094608  	-0.000028 
2438.023424  	-0.000041 
2439.952240  	-0.000081 
2441.881056  	-0.000045 
2443.809872  	0.000076 
2445.738688  	0.000246 
2447.667504  	0.000449 
2449.596320  	0.000613 
2451.525136  	0.000615 
2453.453952  	0.000583 
2455.382768  	0.000662 
2457.311584  	0.000643 
2459.240400  	0.000560 
2461.169216  	0.000505 
2463.098032  	0.000600 
2465.026848  	0.000607 
2466.955664  	0.000568 
2468.884480  	0.000404 
2470.813296  	0.000416 
2472.742112  	0.000532 
2474.670928  	0.000661 
2476.599744  	0.000861 
2478.528560  	0.001071 
2480.457376  	0.001167 
2482.386192  	0.001262 
2484.315008  	0.001383 
2486.243824  	0.001517 
2488.172640  	0.001625 
2490.101456  	0.001596 
2492.030272  	0.001542 
2493.959088  	0.001590 
2495.887904  	0.001730 
2497.816720  	0.001936 
2499.745536  	0.001915 
2501.674352  	0.002018 
2503.603168  	0.002008 
2505.531984  	0.001898 
2507.460800  	0.001878 
2509.389616  	0.001884 
2511.318432  	0.001863 
2513.247248  	0.001950 
2515.176064  	0.002200 
2517.104880  	0.002214 
2519.033696  	0.002130 
2520.962512  	0.002328 
2522.891328  	0.002510 
2524.820144  	0.002806 
2526.748960  	0.002828 
2528.677776  	0.002854 
2530.606592  	0.002957 
2532.535408  	0.003059 
2534.464224  	0.003112 
2536.393040  	0.003081 
2538.321856  	0.003215 
2540.250672  	0.003266 
2542.179488  	0.003218 
2544.108304  	0.003272 
2546.037120  	0.003291 
2547.965936  	0.003522 
2549.894752  	0.003795 
2551.823568  	0.003924 
2553.752384  	0.003988 
2555.681200  	0.003909 
2557.610016  	0.003952 
2559.538832  	0.004130 
2561.467648  	0.004365 
2563.396464  	0.004597 
2565.325280  	0.004526 
2567.254096  	0.004463 
2569.182912  	0.004515 
2571.111728  	0.004597 
2573.040544  	0.004751 
2574.969360  	0.005010 
2576.898176  	0.005175 
2578.826992  	0.005207 
2580.755808  	0.005248 
2582.684624  	0.005401 
2584.613440  	0.005555 
2586.542256  	0.005720 
2588.471072  	0.005507 
2590.399888  	0.005395 
2592.328704  	0.005726 
2594.257520  	0.006136 
2596.186336  	0.006067 
2598.115152  	0.005963 
2600.043968  	0.006253 
2601.972784  	0.006309 
2603.901600  	0.006410 
2605.830416  	0.006509 
2607.759232  	0.006610 
2609.688048  	0.006683 
2611.616864  	0.006769 
2613.545680  	0.006904 
2615.474496  	0.007230 
2617.403312  	0.007449 
2619.332128  	0.007343 
2621.260944  	0.007374 
2623.189760  	0.007481 
2625.118576  	0.007729 
2627.047392  	0.007804 
2628.976208  	0.008006 
2630.905024  	0.008250 
2632.833840  	0.008316 
2634.762656  	0.008336 
2636.691472  	0.008580 
2638.620288  	0.008786 
2640.549104  	0.008834 
2642.477920  	0.008963 
2644.406736  	0.009083 
2646.335552  	0.009163 
2648.264368  	0.009281 
2650.193184  	0.009484 
2652.122000  	0.009650 
2654.050816  	0.009795 
2655.979632  	0.009946 
2657.908448  	0.009987 
2659.837264  	0.010128 
2661.766080  	0.010330 
2663.694896  	0.010436 
2665.623712  	0.010539 
2667.552528  	0.010614 
2669.481344  	0.010658 
2671.410160  	0.010768 
2673.338976  	0.010998 
2675.267792  	0.011263 
2677.196608  	0.011527 
2679.125424  	0.011687 
2681.054240  	0.011760 
2682.983056  	0.011925 
2684.911872  	0.011991 
2686.840688  	0.011988 
2688.769504  	0.012069 
2690.698320  	0.012200 
2692.627136  	0.012358 
2694.555952  	0.012435 
2696.484768  	0.012498 
2698.413584  	0.012573 
2700.342400  	0.012684 
2702.271216  	0.012891 
2704.200032  	0.013090 
2706.128848  	0.013184 
2708.057664  	0.013324 
2709.986480  	0.013513 
2711.915296  	0.013622 
2713.844112  	0.013714 
2715.772928  	0.013795 
2717.701744  	0.013923 
2719.630560  	0.014116 
2721.559376  	0.014363 
2723.488192  	0.014469 
2725.417008  	0.014570 
2727.345824  	0.014813 
2729.274640  	0.015059 
2731.203456  	0.015118 
2733.132272  	0.015230 
2735.061088  	0.015403 
2736.989904  	0.015422 
2738.918720  	0.015575 
2740.847536  	0.015730 
2742.776352  	0.015853 
2744.705168  	0.015974 
2746.633984  	0.016146 
2748.562800  	0.016339 
2750.491616  	0.016395 
2752.420432  	0.016338 
2754.349248  	0.016271 
2756.278064  	0.016423 
2758.206880  	0.016445 
2760.135696  	0.016345 
2762.064512  	0.016264 
2763.993328  	0.016298 
2765.922144  	0.016436 
2767.850960  	0.016453 
2769.779776  	0.016431 
2771.708592  	0.016458 
2773.637408  	0.016398 
2775.566224  	0.016366 
2777.495040  	0.016347 
2779.423856  	0.016309 
2781.352672  	0.016371 
2783.281488  	0.016454 
2785.210304  	0.016400 
2787.139120  	0.016396 
2789.067936  	0.016384 
2790.996752  	0.016403 
2792.925568  	0.016505 
2794.854384  	0.016575 
2796.783200  	0.016555 
2798.712016  	0.016500 
2800.640832  	0.016488 
2802.569648  	0.016626 
2804.498464  	0.016654 
2806.427280  	0.016627 
2808.356096  	0.016711 
2810.284912  	0.016711 
2812.213728  	0.016626 
2814.142544  	0.016759 
2816.071360  	0.016786 
2818.000176  	0.016800 
2819.928992  	0.016882 
2821.857808  	0.016866 
2823.786624  	0.016778 
2825.715440  	0.016791 
2827.644256  	0.016767 
2829.573072  	0.016684 
2831.501888  	0.016706 
2833.430704  	0.016775 
2835.359520  	0.016751 
2837.288336  	0.016556 
2839.217152  	0.016446 
2841.145968  	0.016375 
2843.074784  	0.016411 
2845.003600  	0.016525 
2846.932416  	0.016528 
2848.861232  	0.016621 
2850.790048  	0.016662 
2852.718864  	0.016687 
2854.647680  	0.016752 
2856.576496  	0.016834 
2858.505312  	0.016951 
2860.434128  	0.017087 
2862.362944  	0.017130 
2864.291760  	0.017186 
2866.220576  	0.017282 
2868.149392  	0.017404 
2870.078208  	0.017531 
2872.007024  	0.017788 
2873.935840  	0.018111 
2875.864656  	0.018375 
2877.793472  	0.018723 
2879.722288  	0.019218 
2881.651104  	0.019678 
2883.579920  	0.019974 
2885.508736  	0.020315 
2887.437552  	0.020664 
2889.366368  	0.020723 
2891.295184  	0.020729 
2893.224000  	0.020737 
2895.152816  	0.020892 
2897.081632  	0.020975 
2899.010448  	0.020693 
2900.939264  	0.020486 
2902.868080  	0.020798 
2904.796896  	0.021149 
2906.725712  	0.021309 
2908.654528  	0.021582 
2910.583344  	0.021991 
2912.512160  	0.022428 
2914.440976  	0.022897 
2916.369792  	0.023397 
2918.298608  	0.023834 
2920.227424  	0.024352 
2922.156240  	0.024884 
2924.085056  	0.025406 
2926.013872  	0.025882 
2927.942688  	0.026457 
2929.871504  	0.027119 
2931.800320  	0.027649 
2933.729136  	0.028385 
2935.657952  	0.029026 
2937.586768  	0.029582 
2939.515584  	0.030166 
2941.444400  	0.030522 
2943.373216  	0.030747 
2945.302032  	0.031085 
2947.230848  	0.031419 
2949.159664  	0.031456 
2951.088480  	0.031266 
2953.017296  	0.031183 
2954.946112  	0.031084 
2956.874928  	0.030887 
2958.803744  	0.030693 
2960.732560  	0.030486 
2962.661376  	0.030319 
2964.590192  	0.030243 
2966.519008  	0.030158 
2968.447824  	0.029882 
2970.376640  	0.029591 
2972.305456  	0.029334 
2974.234272  	0.029517 
2976.163088  	0.029530 
2978.091904  	0.029360 
2980.020720  	0.029277 
2981.949536  	0.029305 
2983.878352  	0.029275 
2985.807168  	0.029124 
2987.735984  	0.029188 
2989.664800  	0.029374 
2991.593616  	0.029874 
2993.522432  	0.030218 
2995.451248  	0.030269 
2997.380064  	0.030731 
2999.308880  	0.031316 
3001.237696  	0.031745 
3003.166512  	0.032275 
3005.095328  	0.032808 
3007.024144  	0.033113 
3008.952960  	0.033460 
3010.881776  	0.034058 
3012.810592  	0.034716 
3014.739408  	0.035217 
3016.668224  	0.035664 
3018.597040  	0.036316 
3020.525856  	0.036895 
3022.454672  	0.037290 
3024.383488  	0.037797 
3026.312304  	0.038448 
3028.241120  	0.038787 
3030.169936  	0.039391 
3032.098752  	0.040222 
3034.027568  	0.040597 
3035.956384  	0.041021 
3037.885200  	0.041466 
3039.814016  	0.042005 
3041.742832  	0.042550 
3043.671648  	0.043081 
3045.600464  	0.043523 
3047.529280  	0.044082 
3049.458096  	0.044873 
3051.386912  	0.045428 
3053.315728  	0.045860 
3055.244544  	0.046432 
3057.173360  	0.047272 
3059.102176  	0.048012 
3061.030992  	0.048668 
3062.959808  	0.049210 
3064.888624  	0.050019 
3066.817440  	0.050848 
3068.746256  	0.051457 
3070.675072  	0.051976 
3072.603888  	0.052688 
3074.532704  	0.053599 
3076.461520  	0.054290 
3078.390336  	0.054942 
3080.319152  	0.055871 
3082.247968  	0.056643 
3084.176784  	0.057211 
3086.105600  	0.057847 
3088.034416  	0.058489 
3089.963232  	0.059055 
3091.892048  	0.059657 
3093.820864  	0.060265 
3095.749680  	0.061253 
3097.678496  	0.062015 
3099.607312  	0.062564 
3101.536128  	0.063614 
3103.464944  	0.064350 
3105.393760  	0.064767 
3107.322576  	0.065400 
3109.251392  	0.066163 
3111.180208  	0.066561 
3113.109024  	0.066832 
3115.037840  	0.067499 
3116.966656  	0.068380 
3118.895472  	0.068914 
3120.824288  	0.069256 
3122.753104  	0.069946 
3124.681920  	0.070366 
3126.610736  	0.070795 
3128.539552  	0.071220 
3130.468368  	0.071253 
3132.397184  	0.071785 
3134.326000  	0.072473 
3136.254816  	0.072751 
3138.183632  	0.073122 
3140.112448  	0.073436 
3142.041264  	0.074004 
3143.970080  	0.074649 
3145.898896  	0.075061 
3147.827712  	0.075477 
3149.756528  	0.075963 
3151.685344  	0.076543 
3153.614160  	0.077075 
3155.542976  	0.077406 
3157.471792  	0.077957 
3159.400608  	0.078503 
3161.329424  	0.078806 
3163.258240  	0.079314 
3165.187056  	0.079794 
3167.115872  	0.079941 
3169.044688  	0.080207 
3170.973504  	0.080491 
3172.902320  	0.080671 
3174.831136  	0.080776 
3176.759952  	0.081110 
3178.688768  	0.081775 
3180.617584  	0.081786 
3182.546400  	0.081760 
3184.475216  	0.081839 
3186.404032  	0.081957 
3188.332848  	0.082065 
3190.261664  	0.082025 
3192.190480  	0.082065 
3194.119296  	0.082110 
3196.048112  	0.081840 
3197.976928  	0.082198 
3199.905744  	0.082360 
3201.834560  	0.081939 
3203.763376  	0.081753 
3205.692192  	0.081440 
3207.621008  	0.081218 
3209.549824  	0.081355 
3211.478640  	0.081274 
3213.407456  	0.081164 
3215.336272  	0.081311 
3217.265088  	0.081031 
3219.193904  	0.081063 
3221.122720  	0.081113 
3223.051536  	0.080609 
3224.980352  	0.080182 
3226.909168  	0.080059 
3228.837984  	0.080116 
3230.766800  	0.080182 
3232.695616  	0.080268 
3234.624432  	0.080102 
3236.553248  	0.080160 
3238.482064  	0.080161 
3240.410880  	0.079897 
3242.339696  	0.079762 
3244.268512  	0.079880 
3246.197328  	0.080171 
3248.126144  	0.080083 
3250.054960  	0.080189 
3251.983776  	0.080345 
3253.912592  	0.080680 
3255.841408  	0.080871 
3257.770224  	0.080873 
3259.699040  	0.081007 
3261.627856  	0.081067 
3263.556672  	0.081017 
3265.485488  	0.081291 
3267.414304  	0.081474 
3269.343120  	0.081722 
3271.271936  	0.081829 
3273.200752  	0.081918 
3275.129568  	0.082093 
3277.058384  	0.082267 
3278.987200  	0.082171 
3280.916016  	0.082131 
3282.844832  	0.082185 
3284.773648  	0.082371 
3286.702464  	0.082506 
3288.631280  	0.082676 
3290.560096  	0.082778 
3292.488912  	0.082891 
3294.417728  	0.082867 
3296.346544  	0.082924 
3298.275360  	0.083310 
3300.204176  	0.083420 
3302.132992  	0.083308 
3304.061808  	0.083485 
3305.990624  	0.083451 
3307.919440  	0.083711 
3309.848256  	0.084124 
3311.777072  	0.084133 
3313.705888  	0.084379 
3315.634704  	0.084755 
3317.563520  	0.084967 
3319.492336  	0.085112 
3321.421152  	0.085096 
3323.349968  	0.085110 
3325.278784  	0.085272 
3327.207600  	0.085393 
3329.136416  	0.085295 
3331.065232  	0.085195 
3332.994048  	0.085054 
3334.922864  	0.085061 
3336.851680  	0.085347 
3338.780496  	0.085280 
3340.709312  	0.084818 
3342.638128  	0.084690 
3344.566944  	0.084302 
3346.495760  	0.083811 
3348.424576  	0.083627 
3350.353392  	0.083661 
3352.282208  	0.083299 
3354.211024  	0.082912 
3356.139840  	0.082746 
3358.068656  	0.082402 
3359.997472  	0.082049 
3361.926288  	0.081923 
3363.855104  	0.081429 
3365.783920  	0.081188 
3367.712736  	0.081109 
3369.641552  	0.080742 
3371.570368  	0.080246 
3373.499184  	0.079976 
3375.428000  	0.079680 
3377.356816  	0.079424 
3379.285632  	0.079326 
3381.214448  	0.079002 
3383.143264  	0.078587 
3385.072080  	0.078540 
3387.000896  	0.078198 
3388.929712  	0.077648 
3390.858528  	0.077113 
3392.787344  	0.077490 
3394.716160  	0.077142 
3396.644976  	0.076636 
3398.573792  	0.076407 
3400.502608  	0.075696 
3402.431424  	0.075172 
3404.360240  	0.074732 
3406.289056  	0.074043 
3408.217872  	0.073372 
3410.146688  	0.073028 
3412.075504  	0.072614 
3414.004320  	0.072333 
3415.933136  	0.071983 
3417.861952  	0.071226 
3419.790768  	0.071096 
3421.719584  	0.071317 
3423.648400  	0.070697 
3425.577216  	0.069802 
3427.506032  	0.069191 
3429.434848  	0.068560 
3431.363664  	0.068317 
3433.292480  	0.067998 
3435.221296  	0.067407 
3437.150112  	0.066615 
3439.078928  	0.066053 
3441.007744  	0.065429 
3442.936560  	0.065296 
3444.865376  	0.064289 
3446.794192  	0.064420 
3448.723008  	0.064718 
3450.651824  	0.063247 
3452.580640  	0.062352 
3454.509456  	0.061781 
3456.438272  	0.061251 
3458.367088  	0.060608 
3460.295904  	0.060055 
3462.224720  	0.059839 
3464.153536  	0.059067 
3466.082352  	0.058121 
3468.011168  	0.057956 
3469.939984  	0.057307 
3471.868800  	0.056205 
3473.797616  	0.055103 
3475.726432  	0.054717 
3477.655248  	0.053694 
3479.584064  	0.052763 
3481.512880  	0.053056 
3483.441696  	0.052891 
3485.370512  	0.051275 
3487.299328  	0.050604 
3489.228144  	0.050336 
3491.156960  	0.049281 
3493.085776  	0.048449 
3495.014592  	0.047990 
3496.943408  	0.047538 
3498.872224  	0.046454 
3500.801040  	0.045749 
3502.729856  	0.046419 
3504.658672  	0.046669 
3506.587488  	0.044624 
3508.516304  	0.043750 
3510.445120  	0.044275 
3512.373936  	0.043246 
3514.302752  	0.042273 
3516.231568  	0.041409 
3518.160384  	0.040724 
3520.089200  	0.039855 
3522.018016  	0.039260 
3523.946832  	0.040070 
3525.875648  	0.039447 
3527.804464  	0.038903 
3529.733280  	0.038481 
3531.662096  	0.037149 
3533.590912  	0.035543 
3535.519728  	0.035201 
3537.448544  	0.035447 
3539.377360  	0.034182 
3541.306176  	0.032875 
3543.234992  	0.032449 
3545.163808  	0.033749 
3547.092624  	0.034650 
3549.021440  	0.032475 
3550.950256  	0.030512 
3552.879072  	0.031567 
3554.807888  	0.030668 
3556.736704  	0.028548 
3558.665520  	0.027879 
3560.594336  	0.028063 
3562.523152  	0.026952 
3564.451968  	0.025570 
3566.380784  	0.028472 
3568.309600  	0.031960 
3570.238416  	0.027975 
3572.167232  	0.024588 
3574.096048  	0.023594 
3576.024864  	0.023078 
3577.953680  	0.022414 
3579.882496  	0.022058 
3581.811312  	0.021049 
3583.740128  	0.019421 
3585.668944  	0.018537 
3587.597760  	0.022582 
3589.526576  	0.022729 
3591.455392  	0.018023 
3593.384208  	0.016795 
3595.313024  	0.018050 
3597.241840  	0.017369 
3599.170656  	0.015574 
3601.099472  	0.015421 
3603.028288  	0.014244 
3604.957104  	0.011942 
3606.885920  	0.011948 
3608.814736  	0.013873 
3610.743552  	0.012147 
3612.672368  	0.011390 
3614.601184  	0.012253 
3616.530000  	0.009357 
3618.458816  	0.009377 
3620.387632  	0.011305 
3622.316448  	0.008668 
3624.245264  	0.005467 
3626.174080  	0.002714 
3628.102896  	0.003791 
3630.031712  	0.010437 
3631.960528  	0.006324 
3633.889344  	0.004259 
3635.818160  	0.003301 
3637.746976  	0.001667 
3639.675792  	0.000760 
3641.604608  	0.000179 
3643.533424  	-0.000995 
3645.462240  	-0.003498 
3647.391056  	-0.001985 
3649.319872  	0.002640 
3651.248688  	0.004265 
3653.177504  	-0.001605 
3655.106320  	-0.004620 
3657.035136  	-0.002087 
3658.963952  	-0.003665 
3660.892768  	-0.005454 
3662.821584  	-0.006355 
3664.750400  	-0.007199 
3666.679216  	-0.008931 
3668.608032  	-0.009234 
3670.536848  	-0.004457 
3672.465664  	-0.007038 
3674.394480  	-0.009751 
3676.323296  	-0.002717 
3678.252112  	-0.004830 
3680.180928  	-0.006713 
3682.109744  	-0.008272 
3684.038560  	-0.009516 
3685.967376  	-0.011522 
3687.896192  	-0.011097 
3689.825008  	-0.006398 
3691.753824  	-0.005579 
3693.682640  	-0.007830 
3695.611456  	-0.009452 
3697.540272  	-0.009693 
3699.469088  	-0.011157 
3701.397904  	-0.009979 
3703.326720  	-0.008368 
3705.255536  	-0.009781 
3707.184352  	-0.011176 
3709.113168  	-0.011358 
3711.041984  	-0.008221 
3712.970800  	-0.005335 
3714.899616  	-0.007621 
3716.828432  	-0.010070 
3718.757248  	-0.010114 
3720.686064  	-0.009978 
3722.614880  	-0.009021 
3724.543696  	-0.008738 
3726.472512  	-0.007657 
3728.401328  	-0.008848 
3730.330144  	-0.012334 
3732.258960  	-0.012415 
3734.187776  	-0.009612 
3736.116592  	-0.004533 
3738.045408  	-0.005609 
3739.974224  	-0.008446 
3741.903040  	-0.011196 
3743.831856  	-0.010750 
3745.760672  	-0.005865 
3747.689488  	-0.010360 
3749.618304  	-0.009827 
3751.547120  	-0.004880 
3753.475936  	-0.004876 
3755.404752  	-0.008577 
3757.333568  	-0.009474 
3759.262384  	-0.007909 
3761.191200  	-0.007313 
3763.120016  	-0.010127 
3765.048832  	-0.009716 
3766.977648  	-0.009110 
3768.906464  	-0.009538 
3770.835280  	-0.007335 
3772.764096  	-0.008456 
3774.692912  	-0.009973 
3776.621728  	-0.010819 
3778.550544  	-0.010145 
3780.479360  	-0.008178 
3782.408176  	-0.009835 
3784.336992  	-0.009749 
3786.265808  	-0.008834 
3788.194624  	-0.009520 
3790.123440  	-0.009829 
3792.052256  	-0.010327 
3793.981072  	-0.011696 
3795.909888  	-0.010564 
3797.838704  	-0.009183 
3799.767520  	-0.011534 
3801.696336  	-0.007222 
3803.625152  	-0.006993 
3805.553968  	-0.010597 
3807.482784  	-0.007571 
3809.411600  	-0.007956 
3811.340416  	-0.010149 
3813.269232  	-0.012221 
3815.198048  	-0.011602 
3817.126864  	-0.008198 
3819.055680  	-0.011170 
3820.984496  	-0.007969 
3822.913312  	-0.005357 
3824.842128  	-0.009228 
3826.770944  	-0.008953 
3828.699760  	-0.009481 
3830.628576  	-0.010891 
3832.557392  	-0.010381 
3834.486208  	-0.011056 
3836.415024  	-0.011026 
3838.343840  	-0.008331 
3840.272656  	-0.006231 
3842.201472  	-0.007429 
3844.130288  	-0.007524 
3846.059104  	-0.008778 
3847.987920  	-0.010902 
3849.916736  	-0.012666 
3851.845552  	-0.013325 
3853.774368  	-0.004095 
3855.703184  	-0.003212 
3857.632000  	-0.006786 
3859.560816  	-0.009693 
3861.489632  	-0.010582 
3863.418448  	-0.009333 
3865.347264  	-0.006857 
3867.276080  	-0.009560 
3869.204896  	-0.009526 
3871.133712  	-0.005457 
3873.062528  	-0.008126 
3874.991344  	-0.007241 
3876.920160  	-0.009782 
3878.848976  	-0.011398 
3880.777792  	-0.007811 
3882.706608  	-0.007935 
3884.635424  	-0.009308 
3886.564240  	-0.006701 
3888.493056  	-0.009905 
3890.421872  	-0.010823 
3892.350688  	-0.007582 
3894.279504  	-0.008190 
3896.208320  	-0.010776 
3898.137136  	-0.011138 
3900.065952  	-0.008621 
3901.994768  	-0.007691 
3903.923584  	-0.006292 
3905.852400  	-0.005735 
3907.781216  	-0.008385 
3909.710032  	-0.010147 
3911.638848  	-0.010546 
3913.567664  	-0.010883 
3915.496480  	-0.010450 
3917.425296  	-0.008219 
3919.354112  	-0.007964 
3921.282928  	-0.008594 
3923.211744  	-0.009060 
3925.140560  	-0.007896 
3927.069376  	-0.008971 
3928.998192  	-0.009830 
3930.927008  	-0.008946 
3932.855824  	-0.007764 
3934.784640  	-0.008451 
3936.713456  	-0.009542 
3938.642272  	-0.009817 
3940.571088  	-0.010234 
3942.499904  	-0.008802 
3944.428720  	-0.008502 
3946.357536  	-0.009852 
3948.286352  	-0.008918 
3950.215168  	-0.008647 
3952.143984  	-0.009598 
3954.072800  	-0.010038 
3956.001616  	-0.009716 
3957.930432  	-0.009416 
3959.859248  	-0.009479 
3961.788064  	-0.009350 
3963.716880  	-0.009425 
3965.645696  	-0.009931 
3967.574512  	-0.010213 
3969.503328  	-0.010181 
3971.432144  	-0.009943 
3973.360960  	-0.009514 
3975.289776  	-0.008990 
3977.218592  	-0.009208 
3979.147408  	-0.009737 
3981.076224  	-0.009920 
3983.005040  	-0.009969 
3984.933856  	-0.009797 
3986.862672  	-0.009716 
3988.791488  	-0.009897 
3990.720304  	-0.009457 
3992.649120  	-0.009456 
3994.577936  	-0.009577 
3996.506752  	-0.009671 
3998.435568  	-0.009963 
4000.364384  	-0.009916 