##TITLE=No Description
##DATA TYPE=INFRARED SPECTRUM
##XUNITS=1/CM
##YUNITS=Abs
399.264912  	0.606716 
401.193728  	0.596022 
403.122544  	0.605697 
405.051360  	0.606854 
406.980176  	0.610091 
408.908992  	0.609101 
410.837808  	0.610997 
412.766624  	0.599117 
414.695440  	0.605237 
416.624256  	0.613938 
418.553072  	0.627059 
420.481888  	0.615788 
422.410704  	0.592647 
424.339520  	0.571574 
426.268336  	0.572786 
428.197152  	0.569087 
430.125968  	0.579618 
432.054784  	0.576932 
433.983600  	0.566292 
435.912416  	0.561118 
437.841232  	0.563489 
439.770048  	0.559953 
441.698864  	0.562417 
443.627680  	0.561578 
445.556496  	0.561640 
447.485312  	0.559649 
449.414128  	0.557763 
451.342944  	0.558485 
453.271760  	0.558828 
455.200576  	0.555495 
457.129392  	0.565198 
459.058208  	0.563152 
460.987024  	0.557799 
462.915840  	0.552686 
464.844656  	0.555385 
466.773472  	0.556048 
468.702288  	0.558539 
470.631104  	0.555988 
472.559920  	0.558779 
474.488736  	0.552313 
476.417552  	0.547971 
478.346368  	0.545055 
480.275184  	0.546533 
482.204000  	0.545298 
484.132816  	0.544553 
486.061632  	0.540277 
487.990448  	0.543003 
489.919264  	0.539063 
491.848080  	0.534869 
493.776896  	0.538747 
495.705712  	0.541356 
497.634528  	0.533626 
499.563344  	0.534482 
501.492160  	0.534658 
503.420976  	0.535634 
505.349792  	0.531730 
507.278608  	0.531485 
509.207424  	0.530411 
511.136240  	0.533817 
513.065056  	0.534322 
514.993872  	0.536841 
516.922688  	0.538667 
518.851504  	0.540668 
520.780320  	0.536929 
522.709136  	0.535491 
524.637952  	0.534425 
526.566768  	0.533119 
528.495584  	0.530182 
530.424400  	0.528032 
532.353216  	0.524043 
534.282032  	0.519834 
536.210848  	0.514156 
538.139664  	0.506513 
540.068480  	0.500616 
541.997296  	0.498992 
543.926112  	0.495793 
545.854928  	0.492647 
547.783744  	0.488672 
549.712560  	0.486917 
551.641376  	0.483269 
553.570192  	0.481336 
555.499008  	0.477486 
557.427824  	0.474834 
559.356640  	0.470472 
561.285456  	0.468204 
563.214272  	0.465075 
565.143088  	0.461785 
567.071904  	0.458078 
569.000720  	0.455909 
570.929536  	0.451935 
572.858352  	0.448879 
574.787168  	0.444932 
576.715984  	0.442334 
578.644800  	0.439632 
580.573616  	0.435989 
582.502432  	0.430105 
584.431248  	0.426154 
586.360064  	0.422793 
588.288880  	0.420716 
590.217696  	0.418520 
592.146512  	0.417104 
594.075328  	0.413684 
596.004144  	0.411604 
597.932960  	0.410163 
599.861776  	0.408711 
601.790592  	0.407176 
603.719408  	0.406396 
605.648224  	0.403837 
607.577040  	0.401588 
609.505856  	0.400429 
611.434672  	0.399570 
613.363488  	0.397164 
615.292304  	0.395671 
617.221120  	0.394176 
619.149936  	0.392557 
621.078752  	0.390313 
623.007568  	0.389335 
624.936384  	0.388023 
626.865200  	0.386583 
628.794016  	0.385216 
630.722832  	0.385126 
632.651648  	0.384923 
634.580464  	0.384875 
636.509280  	0.384213 
638.438096  	0.383369 
640.366912  	0.382290 
642.295728  	0.380725 
644.224544  	0.377789 
646.153360  	0.374389 
648.082176  	0.370331 
650.010992  	0.367164 
651.939808  	0.364271 
653.868624  	0.360782 
655.797440  	0.356579 
657.726256  	0.352791 
659.655072  	0.348732 
661.583888  	0.344690 
663.512704  	0.340368 
665.441520  	0.336824 
667.370336  	0.332433 
669.299152  	0.326837 
671.227968  	0.322718 
673.156784  	0.319232 
675.085600  	0.316653 
677.014416  	0.314219 
678.943232  	0.311618 
680.872048  	0.309737 
682.800864  	0.307685 
684.729680  	0.305777 
686.658496  	0.304332 
688.587312  	0.302816 
690.516128  	0.300938 
692.444944  	0.299910 
694.373760  	0.298257 
696.302576  	0.296488 
698.231392  	0.294287 
700.160208  	0.291441 
702.089024  	0.288761 
704.017840  	0.286794 
705.946656  	0.284417 
707.875472  	0.281909 
709.804288  	0.279492 
711.733104  	0.277778 
713.661920  	0.275554 
715.590736  	0.273367 
717.519552  	0.272344 
719.448368  	0.272905 
721.377184  	0.273504 
723.306000  	0.273174 
725.234816  	0.272441 
727.163632  	0.271102 
729.092448  	0.268374 
731.021264  	0.265174 
732.950080  	0.261534 
734.878896  	0.258264 
736.807712  	0.255131 
738.736528  	0.252198 
740.665344  	0.250221 
742.594160  	0.248751 
744.522976  	0.246709 
746.451792  	0.245453 
748.380608  	0.244010 
750.309424  	0.242322 
752.238240  	0.240847 
754.167056  	0.240294 
756.095872  	0.239070 
758.024688  	0.237661 
759.953504  	0.236929 
761.882320  	0.237549 
763.811136  	0.238302 
765.739952  	0.236477 
767.668768  	0.232431 
769.597584  	0.228932 
771.526400  	0.227385 
773.455216  	0.228212 
775.384032  	0.231604 
777.312848  	0.236510 
779.241664  	0.239716 
781.170480  	0.238200 
783.099296  	0.232875 
785.028112  	0.226492 
786.956928  	0.220434 
788.885744  	0.215673 
790.814560  	0.211767 
792.743376  	0.209386 
794.672192  	0.208487 
796.601008  	0.207390 
798.529824  	0.203658 
800.458640  	0.199071 
802.387456  	0.195496 
804.316272  	0.193519 
806.245088  	0.192453 
808.173904  	0.191326 
810.102720  	0.190230 
812.031536  	0.189541 
813.960352  	0.189294 
815.889168  	0.189601 
817.817984  	0.190037 
819.746800  	0.190863 
821.675616  	0.191357 
823.604432  	0.191512 
825.533248  	0.191828 
827.462064  	0.191885 
829.390880  	0.191383 
831.319696  	0.190926 
833.248512  	0.189653 
835.177328  	0.187696 
837.106144  	0.184603 
839.034960  	0.180884 
840.963776  	0.176471 
842.892592  	0.172117 
844.821408  	0.168094 
846.750224  	0.164650 
848.679040  	0.161289 
850.607856  	0.158593 
852.536672  	0.156942 
854.465488  	0.155717 
856.394304  	0.154429 
858.323120  	0.152747 
860.251936  	0.151076 
862.180752  	0.149643 
864.109568  	0.147643 
866.038384  	0.145547 
867.967200  	0.143456 
869.896016  	0.141495 
871.824832  	0.140319 
873.753648  	0.140319 
875.682464  	0.140867 
877.611280  	0.142165 
879.540096  	0.144256 
881.468912  	0.146618 
883.397728  	0.149013 
885.326544  	0.150931 
887.255360  	0.152043 
889.184176  	0.152118 
891.112992  	0.151308 
893.041808  	0.149752 
894.970624  	0.146958 
896.899440  	0.142551 
898.828256  	0.137628 
900.757072  	0.132807 
902.685888  	0.128561 
904.614704  	0.125752 
906.543520  	0.124985 
908.472336  	0.126010 
910.401152  	0.127960 
912.329968  	0.130478 
914.258784  	0.132978 
916.187600  	0.135299 
918.116416  	0.137170 
920.045232  	0.138533 
921.974048  	0.139420 
923.902864  	0.140162 
925.831680  	0.141027 
927.760496  	0.141905 
929.689312  	0.142824 
931.618128  	0.143915 
933.546944  	0.144747 
935.475760  	0.144762 
937.404576  	0.144163 
939.333392  	0.143030 
941.262208  	0.142177 
943.191024  	0.142675 
945.119840  	0.145010 
947.048656  	0.149470 
948.977472  	0.156589 
950.906288  	0.166261 
952.835104  	0.178358 
954.763920  	0.191972 
956.692736  	0.206080 
958.621552  	0.219331 
960.550368  	0.229518 
962.479184  	0.235881 
964.408000  	0.237268 
966.336816  	0.233921 
968.265632  	0.225511 
970.194448  	0.213429 
972.123264  	0.198873 
974.052080  	0.183039 
975.980896  	0.167290 
977.909712  	0.152654 
979.838528  	0.139568 
981.767344  	0.128694 
983.696160  	0.120395 
985.624976  	0.114647 
987.553792  	0.112123 
989.482608  	0.112647 
991.411424  	0.115840 
993.340240  	0.121074 
995.269056  	0.127504 
997.197872  	0.134368 
999.126688  	0.141435 
1001.055504  	0.148862 
1002.984320  	0.156010 
1004.913136  	0.163459 
1006.841952  	0.170740 
1008.770768  	0.177563 
1010.699584  	0.183312 
1012.628400  	0.187737 
1014.557216  	0.190881 
1016.486032  	0.192762 
1018.414848  	0.193449 
1020.343664  	0.193470 
1022.272480  	0.193243 
1024.201296  	0.192913 
1026.130112  	0.192401 
1028.058928  	0.192886 
1029.987744  	0.194949 
1031.916560  	0.197771 
1033.845376  	0.201342 
1035.774192  	0.206575 
1037.703008  	0.213553 
1039.631824  	0.223496 
1041.560640  	0.237137 
1043.489456  	0.254496 
1045.418272  	0.274082 
1047.347088  	0.294000 
1049.275904  	0.309539 
1051.204720  	0.318751 
1053.133536  	0.322102 
1055.062352  	0.320919 
1056.991168  	0.316991 
1058.919984  	0.313972 
1060.848800  	0.311981 
1062.777616  	0.310562 
1064.706432  	0.308712 
1066.635248  	0.306438 
1068.564064  	0.302242 
1070.492880  	0.295920 
1072.421696  	0.288960 
1074.350512  	0.284894 
1076.279328  	0.284866 
1078.208144  	0.289922 
1080.136960  	0.297684 
1082.065776  	0.304515 
1083.994592  	0.306719 
1085.923408  	0.303573 
1087.852224  	0.295258 
1089.781040  	0.284217 
1091.709856  	0.270658 
1093.638672  	0.255712 
1095.567488  	0.239354 
1097.496304  	0.222991 
1099.425120  	0.206887 
1101.353936  	0.191562 
1103.282752  	0.177102 
1105.211568  	0.163810 
1107.140384  	0.151972 
1109.069200  	0.141424 
1110.998016  	0.131904 
1112.926832  	0.123389 
1114.855648  	0.115689 
1116.784464  	0.107943 
1118.713280  	0.100416 
1120.642096  	0.093414 
1122.570912  	0.087046 
1124.499728  	0.081128 
1126.428544  	0.076098 
1128.357360  	0.071643 
1130.286176  	0.067647 
1132.214992  	0.064492 
1134.143808  	0.062392 
1136.072624  	0.060535 
1138.001440  	0.058716 
1139.930256  	0.057018 
1141.859072  	0.055411 
1143.787888  	0.053506 
1145.716704  	0.051934 
1147.645520  	0.050548 
1149.574336  	0.049627 
1151.503152  	0.048883 
1153.431968  	0.048564 
1155.360784  	0.048677 
1157.289600  	0.049637 
1159.218416  	0.050905 
1161.147232  	0.052693 
1163.076048  	0.054637 
1165.004864  	0.056554 
1166.933680  	0.058184 
1168.862496  	0.060068 
1170.791312  	0.062401 
1172.720128  	0.065123 
1174.648944  	0.067883 
1176.577760  	0.070771 
1178.506576  	0.073939 
1180.435392  	0.077303 
1182.364208  	0.080553 
1184.293024  	0.084272 
1186.221840  	0.088737 
1188.150656  	0.093788 
1190.079472  	0.099468 
1192.008288  	0.106157 
1193.937104  	0.113642 
1195.865920  	0.122165 
1197.794736  	0.131581 
1199.723552  	0.141735 
1201.652368  	0.151981 
1203.581184  	0.161758 
1205.510000  	0.171347 
1207.438816  	0.179969 
1209.367632  	0.187722 
1211.296448  	0.194156 
1213.225264  	0.199182 
1215.154080  	0.202626 
1217.082896  	0.204654 
1219.011712  	0.205281 
1220.940528  	0.205033 
1222.869344  	0.203854 
1224.798160  	0.202192 
1226.726976  	0.199313 
1228.655792  	0.195661 
1230.584608  	0.191303 
1232.513424  	0.186292 
1234.442240  	0.180522 
1236.371056  	0.174415 
1238.299872  	0.167716 
1240.228688  	0.160198 
1242.157504  	0.152676 
1244.086320  	0.145395 
1246.015136  	0.137897 
1247.943952  	0.130584 
1249.872768  	0.123299 
1251.801584  	0.116407 
1253.730400  	0.109790 
1255.659216  	0.103275 
1257.588032  	0.097199 
1259.516848  	0.091722 
1261.445664  	0.086494 
1263.374480  	0.081606 
1265.303296  	0.077436 
1267.232112  	0.074100 
1269.160928  	0.071834 
1271.089744  	0.070329 
1273.018560  	0.069469 
1274.947376  	0.069543 
1276.876192  	0.070464 
1278.805008  	0.071249 
1280.733824  	0.071183 
1282.662640  	0.069736 
1284.591456  	0.067666 
1286.520272  	0.065878 
1288.449088  	0.064826 
1290.377904  	0.064558 
1292.306720  	0.065472 
1294.235536  	0.066441 
1296.164352  	0.066415 
1298.093168  	0.064600 
1300.021984  	0.061878 
1301.950800  	0.058763 
1303.879616  	0.055527 
1305.808432  	0.052139 
1307.737248  	0.048593 
1309.666064  	0.045018 
1311.594880  	0.042692 
1313.523696  	0.040868 
1315.452512  	0.039441 
1317.381328  	0.039115 
1319.310144  	0.039215 
1321.238960  	0.039121 
1323.167776  	0.039652 
1325.096592  	0.040362 
1327.025408  	0.040774 
1328.954224  	0.040617 
1330.883040  	0.039829 
1332.811856  	0.038538 
1334.740672  	0.037599 
1336.669488  	0.037808 
1338.598304  	0.039136 
1340.527120  	0.038406 
1342.455936  	0.035946 
1344.384752  	0.035277 
1346.313568  	0.035706 
1348.242384  	0.036529 
1350.171200  	0.037587 
1352.100016  	0.038997 
1354.028832  	0.041117 
1355.957648  	0.043123 
1357.886464  	0.044869 
1359.815280  	0.047347 
1361.744096  	0.051057 
1363.672912  	0.053285 
1365.601728  	0.053662 
1367.530544  	0.055538 
1369.459360  	0.057679 
1371.388176  	0.058682 
1373.316992  	0.059721 
1375.245808  	0.058597 
1377.174624  	0.055570 
1379.103440  	0.052691 
1381.032256  	0.049700 
1382.961072  	0.047243 
1384.889888  	0.046118 
1386.818704  	0.046056 
1388.747520  	0.043748 
1390.676336  	0.040979 
1392.605152  	0.039592 
1394.533968  	0.039851 
1396.462784  	0.040334 
1398.391600  	0.040054 
1400.320416  	0.038984 
1402.249232  	0.038362 
1404.178048  	0.039739 
1406.106864  	0.040499 
1408.035680  	0.041058 
1409.964496  	0.042765 
1411.893312  	0.044895 
1413.822128  	0.046970 
1415.750944  	0.050325 
1417.679760  	0.053687 
1419.608576  	0.054706 
1421.537392  	0.053524 
1423.466208  	0.053382 
1425.395024  	0.051444 
1427.323840  	0.048879 
1429.252656  	0.047047 
1431.181472  	0.045084 
1433.110288  	0.043992 
1435.039104  	0.044769 
1436.967920  	0.046493 
1438.896736  	0.046633 
1440.825552  	0.047058 
1442.754368  	0.047719 
1444.683184  	0.048023 
1446.612000  	0.048984 
1448.540816  	0.049453 
1450.469632  	0.049370 
1452.398448  	0.049952 
1454.327264  	0.051064 
1456.256080  	0.053570 
1458.184896  	0.053827 
1460.113712  	0.050485 
1462.042528  	0.048727 
1463.971344  	0.048642 
1465.900160  	0.048882 
1467.828976  	0.048622 
1469.757792  	0.049811 
1471.686608  	0.054351 
1473.615424  	0.061666 
1475.544240  	0.065236 
1477.473056  	0.069048 
1479.401872  	0.071908 
1481.330688  	0.075920 
1483.259504  	0.078592 
1485.188320  	0.080892 
1487.117136  	0.083652 
1489.045952  	0.086534 
1490.974768  	0.084013 
1492.903584  	0.079391 
1494.832400  	0.075861 
1496.761216  	0.071709 
1498.690032  	0.065260 
1500.618848  	0.059289 
1502.547664  	0.054159 
1504.476480  	0.051235 
1506.405296  	0.052402 
1508.334112  	0.051384 
1510.262928  	0.046435 
1512.191744  	0.042832 
1514.120560  	0.041870 
1516.049376  	0.044077 
1517.978192  	0.045096 
1519.907008  	0.046202 
1521.835824  	0.050978 
1523.764640  	0.053006 
1525.693456  	0.056153 
1527.622272  	0.057855 
1529.551088  	0.056621 
1531.479904  	0.055508 
1533.408720  	0.054272 
1535.337536  	0.050237 
1537.266352  	0.047731 
1539.195168  	0.046818 
1541.123984  	0.044839 
1543.052800  	0.043363 
1544.981616  	0.041071 
1546.910432  	0.037422 
1548.839248  	0.037146 
1550.768064  	0.037962 
1552.696880  	0.037174 
1554.625696  	0.038567 
1556.554512  	0.039367 
1558.483328  	0.043438 
1560.412144  	0.045419 
1562.340960  	0.045047 
1564.269776  	0.047146 
1566.198592  	0.051090 
1568.127408  	0.054373 
1570.056224  	0.061148 
1571.985040  	0.064718 
1573.913856  	0.067450 
1575.842672  	0.071614 
1577.771488  	0.074975 
1579.700304  	0.073576 
1581.629120  	0.072762 
1583.557936  	0.072118 
1585.486752  	0.072971 
1587.415568  	0.075067 
1589.344384  	0.079251 
1591.273200  	0.084486 
1593.202016  	0.091303 
1595.130832  	0.098850 
1597.059648  	0.106547 
1598.988464  	0.113055 
1600.917280  	0.119747 
1602.846096  	0.125000 
1604.774912  	0.128711 
1606.703728  	0.130278 
1608.632544  	0.130971 
1610.561360  	0.129184 
1612.490176  	0.127464 
1614.418992  	0.125551 
1616.347808  	0.126507 
1618.276624  	0.128256 
1620.205440  	0.129607 
1622.134256  	0.132473 
1624.063072  	0.139826 
1625.991888  	0.144585 
1627.920704  	0.152168 
1629.849520  	0.160244 
1631.778336  	0.167425 
1633.707152  	0.173669 
1635.635968  	0.186089 
1637.564784  	0.196524 
1639.493600  	0.200029 
1641.422416  	0.203709 
1643.351232  	0.207079 
1645.280048  	0.209105 
1647.208864  	0.215219 
1649.137680  	0.214909 
1651.066496  	0.211965 
1652.995312  	0.212048 
1654.924128  	0.215117 
1656.852944  	0.210391 
1658.781760  	0.207118 
1660.710576  	0.204156 
1662.639392  	0.201534 
1664.568208  	0.196854 
1666.497024  	0.192416 
1668.425840  	0.188060 
1670.354656  	0.182551 
1672.283472  	0.176485 
1674.212288  	0.171770 
1676.141104  	0.167178 
1678.069920  	0.163837 
1679.998736  	0.162367 
1681.927552  	0.160820 
1683.856368  	0.159975 
1685.785184  	0.158941 
1687.714000  	0.156863 
1689.642816  	0.156143 
1691.571632  	0.154170 
1693.500448  	0.152779 
1695.429264  	0.152928 
1697.358080  	0.154138 
1699.286896  	0.151751 
1701.215712  	0.150909 
1703.144528  	0.148417 
1705.073344  	0.146110 
1707.002160  	0.142092 
1708.930976  	0.137297 
1710.859792  	0.131589 
1712.788608  	0.125950 
1714.717424  	0.119345 
1716.646240  	0.110146 
1718.575056  	0.094838 
1720.503872  	0.082748 
1722.432688  	0.073273 
1724.361504  	0.062268 
1726.290320  	0.052685 
1728.219136  	0.045770 
1730.147952  	0.040438 
1732.076768  	0.035719 
1734.005584  	0.030763 
1735.934400  	0.024224 
1737.863216  	0.021969 
1739.792032  	0.018875 
1741.720848  	0.016593 
1743.649664  	0.015711 
1745.578480  	0.014328 
1747.507296  	0.013516 
1749.436112  	0.013131 
1751.364928  	0.010873 
1753.293744  	0.008235 
1755.222560  	0.007098 
1757.151376  	0.007325 
1759.080192  	0.006388 
1761.009008  	0.006219 
1762.937824  	0.005039 
1764.866640  	0.003984 
1766.795456  	0.004226 
1768.724272  	0.004829 
1770.653088  	0.004292 
1772.581904  	0.004365 
1774.510720  	0.003553 
1776.439536  	0.002865 
1778.368352  	0.002153 
1780.297168  	0.002372 
1782.225984  	0.001460 
1784.154800  	0.001410 
1786.083616  	0.000670 
1788.012432  	0.000232 
1789.941248  	0.001385 
1791.870064  	0.002563 
1793.798880  	0.001260 
1795.727696  	0.000988 
1797.656512  	0.000170 
1799.585328  	0.000149 
1801.514144  	0.000474 
1803.442960  	-0.000382 
1805.371776  	-0.001237 
1807.300592  	-0.001190 
1809.229408  	-0.001155 
1811.158224  	-0.001055 
1813.087040  	-0.002070 
1815.015856  	-0.002574 
1816.944672  	-0.002193 
1818.873488  	-0.001964 
1820.802304  	-0.002121 
1822.731120  	-0.001528 
1824.659936  	-0.001291 
1826.588752  	-0.001408 
1828.517568  	-0.001522 
1830.446384  	-0.001359 
1832.375200  	-0.002483 
1834.304016  	-0.002622 
1836.232832  	-0.002388 
1838.161648  	-0.002223 
1840.090464  	-0.002701 
1842.019280  	-0.002136 
1843.948096  	-0.001774 
1845.876912  	-0.001645 
1847.805728  	-0.002124 
1849.734544  	-0.002940 
1851.663360  	-0.003506 
1853.592176  	-0.003239 
1855.520992  	-0.003417 
1857.449808  	-0.003196 
1859.378624  	-0.003369 
1861.307440  	-0.003182 
1863.236256  	-0.003634 
1865.165072  	-0.003380 
1867.093888  	-0.002528 
1869.022704  	-0.001586 
1870.951520  	-0.002924 
1872.880336  	-0.003592 
1874.809152  	-0.003958 
1876.737968  	-0.003929 
1878.666784  	-0.004102 
1880.595600  	-0.004237 
1882.524416  	-0.004247 
1884.453232  	-0.003765 
1886.382048  	-0.003965 
1888.310864  	-0.003340 
1890.239680  	-0.003313 
1892.168496  	-0.003512 
1894.097312  	-0.003455 
1896.026128  	-0.003600 
1897.954944  	-0.004350 
1899.883760  	-0.004285 
1901.812576  	-0.004483 
1903.741392  	-0.004421 
1905.670208  	-0.004702 
1907.599024  	-0.004434 
1909.527840  	-0.004248 
1911.456656  	-0.003873 
1913.385472  	-0.003784 
1915.314288  	-0.003054 
1917.243104  	-0.002883 
1919.171920  	-0.002989 
1921.100736  	-0.003530 
1923.029552  	-0.003114 
1924.958368  	-0.004518 
1926.887184  	-0.004932 
1928.816000  	-0.005124 
1930.744816  	-0.004859 
1932.673632  	-0.004817 
1934.602448  	-0.004389 
1936.531264  	-0.004917 
1938.460080  	-0.004424 
1940.388896  	-0.003814 
1942.317712  	-0.003159 
1944.246528  	-0.004608 
1946.175344  	-0.004758 
1948.104160  	-0.004643 
1950.032976  	-0.004638 
1951.961792  	-0.005567 
1953.890608  	-0.005770 
1955.819424  	-0.006212 
1957.748240  	-0.005864 
1959.677056  	-0.005998 
1961.605872  	-0.005799 
1963.534688  	-0.005881 
1965.463504  	-0.004317 
1967.392320  	-0.004896 
1969.321136  	-0.006286 
1971.249952  	-0.007917 
1973.178768  	-0.007761 
1975.107584  	-0.005986 
1977.036400  	-0.003551 
1978.965216  	-0.004233 
1980.894032  	-0.005026 
1982.822848  	-0.005865 
1984.751664  	-0.004981 
1986.680480  	-0.004004 
1988.609296  	-0.002494 
1990.538112  	-0.001996 
1992.466928  	-0.002274 
1994.395744  	-0.004116 
1996.324560  	-0.004258 
1998.253376  	-0.004675 
2000.182192  	-0.005031 
2002.111008  	-0.005884 
2004.039824  	-0.004862 
2005.968640  	-0.004618 
2007.897456  	-0.004541 
2009.826272  	-0.004919 
2011.755088  	-0.004788 
2013.683904  	-0.004803 
2015.612720  	-0.004119 
2017.541536  	-0.003894 
2019.470352  	-0.003442 
2021.399168  	-0.004470 
2023.327984  	-0.003220 
2025.256800  	-0.002884 
2027.185616  	-0.002282 
2029.114432  	-0.002682 
2031.043248  	-0.002963 
2032.972064  	-0.003387 
2034.900880  	-0.002430 
2036.829696  	-0.002436 
2038.758512  	-0.002449 
2040.687328  	-0.003134 
2042.616144  	-0.002654 
2044.544960  	-0.002874 
2046.473776  	-0.002886 
2048.402592  	-0.002776 
2050.331408  	-0.002578 
2052.260224  	-0.002654 
2054.189040  	-0.002681 
2056.117856  	-0.003254 
2058.046672  	-0.002464 
2059.975488  	-0.002312 
2061.904304  	-0.001863 
2063.833120  	-0.001476 
2065.761936  	-0.000911 
2067.690752  	-0.001675 
2069.619568  	-0.002073 
2071.548384  	-0.002299 
2073.477200  	-0.001787 
2075.406016  	-0.001599 
2077.334832  	-0.001416 
2079.263648  	-0.000900 
2081.192464  	-0.000631 
2083.121280  	-0.001290 
2085.050096  	-0.001563 
2086.978912  	-0.001651 
2088.907728  	-0.001160 
2090.836544  	-0.000878 
2092.765360  	-0.000947 
2094.694176  	-0.001142 
2096.622992  	-0.000620 
2098.551808  	-0.000602 
2100.480624  	-0.000993 
2102.409440  	-0.001343 
2104.338256  	-0.000525 
2106.267072  	-0.000270 
2108.195888  	-0.000209 
2110.124704  	-0.000397 
2112.053520  	-0.000268 
2113.982336  	-0.000588 
2115.911152  	-0.001156 
2117.839968  	-0.001434 
2119.768784  	-0.001173 
2121.697600  	-0.001333 
2123.626416  	-0.001396 
2125.555232  	-0.001810 
2127.484048  	-0.001893 
2129.412864  	-0.001606 
2131.341680  	-0.001058 
2133.270496  	-0.000674 
2135.199312  	-0.000352 
2137.128128  	-0.000214 
2139.056944  	0.000070 
2140.985760  	-0.000388 
2142.914576  	0.000047 
2144.843392  	-0.000798 
2146.772208  	-0.001304 
2148.701024  	-0.001276 
2150.629840  	-0.001064 
2152.558656  	-0.000974 
2154.487472  	-0.000742 
2156.416288  	-0.000617 
2158.345104  	0.001694 
2160.273920  	0.004673 
2162.202736  	0.004165 
2164.131552  	0.001847 
2166.060368  	0.002066 
2167.989184  	0.001546 
2169.918000  	-0.000220 
2171.846816  	-0.000649 
2173.775632  	0.000641 
2175.704448  	0.000593 
2177.633264  	0.000405 
2179.562080  	-0.000012 
2181.490896  	0.000538 
2183.419712  	0.000751 
2185.348528  	0.000590 
2187.277344  	0.000003 
2189.206160  	0.000477 
2191.134976  	0.000528 
2193.063792  	-0.000039 
2194.992608  	-0.000968 
2196.921424  	-0.000195 
2198.850240  	-0.000396 
2200.779056  	-0.001362 
2202.707872  	-0.001435 
2204.636688  	-0.000431 
2206.565504  	-0.000837 
2208.494320  	-0.001588 
2210.423136  	-0.001796 
2212.351952  	-0.001193 
2214.280768  	-0.001384 
2216.209584  	-0.001663 
2218.138400  	-0.002295 
2220.067216  	-0.002429 
2221.996032  	-0.002339 
2223.924848  	-0.001391 
2225.853664  	-0.000875 
2227.782480  	-0.000676 
2229.711296  	-0.001666 
2231.640112  	-0.002016 
2233.568928  	-0.002250 
2235.497744  	-0.001527 
2237.426560  	-0.001443 
2239.355376  	-0.001832 
2241.284192  	-0.002253 
2243.213008  	-0.002120 
2245.141824  	-0.002305 
2247.070640  	-0.002020 
2248.999456  	-0.001876 
2250.928272  	-0.001935 
2252.857088  	-0.002166 
2254.785904  	-0.001631 
2256.714720  	-0.001464 
2258.643536  	-0.001427 
2260.572352  	-0.001037 
2262.501168  	-0.000962 
2264.429984  	-0.001107 
2266.358800  	-0.001051 
2268.287616  	-0.001595 
2270.216432  	-0.001766 
2272.145248  	-0.001818 
2274.074064  	-0.001395 
2276.002880  	-0.001545 
2277.931696  	-0.001147 
2279.860512  	-0.000893 
2281.789328  	-0.000582 
2283.718144  	-0.000722 
2285.646960  	-0.000579 
2287.575776  	-0.000429 
2289.504592  	-0.000527 
2291.433408  	-0.000515 
2293.362224  	-0.000263 
2295.291040  	-0.000277 
2297.219856  	-0.000027 
2299.148672  	-0.000019 
2301.077488  	0.000397 
2303.006304  	0.001051 
2304.935120  	0.001452 
2306.863936  	0.001397 
2308.792752  	0.001475 
2310.721568  	0.001469 
2312.650384  	0.001325 
2314.579200  	0.000862 
2316.508016  	0.000852 
2318.436832  	0.000898 
2320.365648  	0.001172 
2322.294464  	0.001009 
2324.223280  	-0.000061 
2326.152096  	-0.001643 
2328.080912  	-0.002707 
2330.009728  	-0.003494 
2331.938544  	-0.003954 
2333.867360  	-0.004794 
2335.796176  	-0.005547 
2337.724992  	-0.005937 
2339.653808  	-0.005987 
2341.582624  	-0.005483 
2343.511440  	-0.004469 
2345.440256  	-0.003238 
2347.369072  	-0.001889 
2349.297888  	-0.001514 
2351.226704  	-0.002779 
2353.155520  	-0.004909 
2355.084336  	-0.006322 
2357.013152  	-0.007492 
2358.941968  	-0.007908 
2360.870784  	-0.008138 
2362.799600  	-0.007846 
2364.728416  	-0.007068 
2366.657232  	-0.006045 
2368.586048  	-0.004719 
2370.514864  	-0.003462 
2372.443680  	-0.002559 
2374.372496  	-0.001179 
2376.301312  	-0.000190 
2378.230128  	0.000207 
2380.158944  	0.000269 
2382.087760  	0.000155 
2384.016576  	-0.000530 
2385.945392  	-0.001187 
2387.874208  	-0.001430 
2389.803024  	-0.001581 
2391.731840  	-0.001889 
2393.660656  	-0.002036 
2395.589472  	-0.002018 
2397.518288  	-0.001915 
2399.447104  	-0.002056 
2401.375920  	-0.002004 
2403.304736  	-0.002244 
2405.233552  	-0.002278 
2407.162368  	-0.002289 
2409.091184  	-0.002195 
2411.020000  	-0.002089 
2412.948816  	-0.002136 
2414.877632  	-0.002142 
2416.806448  	-0.001906 
2418.735264  	-0.001891 
2420.664080  	-0.001857 
2422.592896  	-0.001855 
2424.521712  	-0.001803 
2426.450528  	-0.001773 
2428.379344  	-0.001778 
2430.308160  	-0.001619 
2432.236976  	-0.001470 
2434.165792  	-0.001352 
2436.094608  	-0.001117 
2438.023424  	-0.001113 
2439.952240  	-0.001019 
2441.881056  	-0.000947 
2443.809872  	-0.001025 
2445.738688  	-0.001002 
2447.667504  	-0.000772 
2449.596320  	-0.000561 
2451.525136  	-0.000576 
2453.453952  	-0.000606 
2455.382768  	-0.000660 
2457.311584  	-0.000841 
2459.240400  	-0.000853 
2461.169216  	-0.000721 
2463.098032  	-0.000546 
2465.026848  	-0.000656 
2466.955664  	-0.000800 
2468.884480  	-0.000945 
2470.813296  	-0.000812 
2472.742112  	-0.000571 
2474.670928  	-0.000340 
2476.599744  	-0.000255 
2478.528560  	-0.000056 
2480.457376  	0.000030 
2482.386192  	0.000060 
2484.315008  	0.000032 
2486.243824  	0.000195 
2488.172640  	0.000464 
2490.101456  	0.000708 
2492.030272  	0.000683 
2493.959088  	0.000586 
2495.887904  	0.000657 
2497.816720  	0.001001 
2499.745536  	0.001003 
2501.674352  	0.000923 
2503.603168  	0.000972 
2505.531984  	0.001022 
2507.460800  	0.000927 
2509.389616  	0.001008 
2511.318432  	0.001212 
2513.247248  	0.001379 
2515.176064  	0.001503 
2517.104880  	0.001650 
2519.033696  	0.001458 
2520.962512  	0.001462 
2522.891328  	0.001631 
2524.820144  	0.001913 
2526.748960  	0.001942 
2528.677776  	0.001830 
2530.606592  	0.001810 
2532.535408  	0.002175 
2534.464224  	0.002258 
2536.393040  	0.002189 
2538.321856  	0.002233 
2540.250672  	0.002284 
2542.179488  	0.002443 
2544.108304  	0.002713 
2546.037120  	0.002845 
2547.965936  	0.003121 
2549.894752  	0.003108 
2551.823568  	0.003123 
2553.752384  	0.003342 
2555.681200  	0.003422 
2557.610016  	0.003287 
2559.538832  	0.003356 
2561.467648  	0.003634 
2563.396464  	0.003889 
2565.325280  	0.003890 
2567.254096  	0.003863 
2569.182912  	0.003981 
2571.111728  	0.004230 
2573.040544  	0.004375 
2574.969360  	0.004628 
2576.898176  	0.004833 
2578.826992  	0.004861 
2580.755808  	0.004823 
2582.684624  	0.005078 
2584.613440  	0.005188 
2586.542256  	0.005334 
2588.471072  	0.005304 
2590.399888  	0.005269 
2592.328704  	0.005499 
2594.257520  	0.005666 
2596.186336  	0.005602 
2598.115152  	0.005760 
2600.043968  	0.006085 
2601.972784  	0.006169 
2603.901600  	0.006350 
2605.830416  	0.006388 
2607.759232  	0.006330 
2609.688048  	0.006422 
2611.616864  	0.006726 
2613.545680  	0.007029 
2615.474496  	0.007127 
2617.403312  	0.007294 
2619.332128  	0.007452 
2621.260944  	0.007604 
2623.189760  	0.007695 
2625.118576  	0.007806 
2627.047392  	0.007967 
2628.976208  	0.008255 
2630.905024  	0.008428 
2632.833840  	0.008526 
2634.762656  	0.008583 
2636.691472  	0.008798 
2638.620288  	0.008965 
2640.549104  	0.009204 
2642.477920  	0.009487 
2644.406736  	0.009558 
2646.335552  	0.009612 
2648.264368  	0.009769 
2650.193184  	0.010024 
2652.122000  	0.010277 
2654.050816  	0.010542 
2655.979632  	0.010743 
2657.908448  	0.010803 
2659.837264  	0.010873 
2661.766080  	0.011019 
2663.694896  	0.011270 
2665.623712  	0.011506 
2667.552528  	0.011729 
2669.481344  	0.011768 
2671.410160  	0.011818 
2673.338976  	0.012022 
2675.267792  	0.012374 
2677.196608  	0.012664 
2679.125424  	0.012779 
2681.054240  	0.012825 
2682.983056  	0.012999 
2684.911872  	0.013165 
2686.840688  	0.013254 
2688.769504  	0.013359 
2690.698320  	0.013461 
2692.627136  	0.013535 
2694.555952  	0.013695 
2696.484768  	0.013896 
2698.413584  	0.014013 
2700.342400  	0.014018 
2702.271216  	0.014325 
2704.200032  	0.014677 
2706.128848  	0.014843 
2708.057664  	0.014947 
2709.986480  	0.015064 
2711.915296  	0.015263 
2713.844112  	0.015439 
2715.772928  	0.015546 
2717.701744  	0.015702 
2719.630560  	0.015995 
2721.559376  	0.016173 
2723.488192  	0.016244 
2725.417008  	0.016453 
2727.345824  	0.016632 
2729.274640  	0.016914 
2731.203456  	0.017085 
2733.132272  	0.017233 
2735.061088  	0.017470 
2736.989904  	0.017626 
2738.918720  	0.017773 
2740.847536  	0.017911 
2742.776352  	0.018079 
2744.705168  	0.018342 
2746.633984  	0.018489 
2748.562800  	0.018621 
2750.491616  	0.018707 
2752.420432  	0.018787 
2754.349248  	0.018776 
2756.278064  	0.018782 
2758.206880  	0.018748 
2760.135696  	0.018738 
2762.064512  	0.018748 
2763.993328  	0.018807 
2765.922144  	0.018871 
2767.850960  	0.018993 
2769.779776  	0.019043 
2771.708592  	0.019005 
2773.637408  	0.018912 
2775.566224  	0.018898 
2777.495040  	0.018863 
2779.423856  	0.018804 
2781.352672  	0.018957 
2783.281488  	0.019097 
2785.210304  	0.019029 
2787.139120  	0.019124 
2789.067936  	0.019168 
2790.996752  	0.019058 
2792.925568  	0.018995 
2794.854384  	0.018953 
2796.783200  	0.019023 
2798.712016  	0.019007 
2800.640832  	0.018921 
2802.569648  	0.018987 
2804.498464  	0.019095 
2806.427280  	0.019307 
2808.356096  	0.019448 
2810.284912  	0.019356 
2812.213728  	0.019200 
2814.142544  	0.019289 
2816.071360  	0.019191 
2818.000176  	0.019239 
2819.928992  	0.019438 
2821.857808  	0.019484 
2823.786624  	0.019405 
2825.715440  	0.019397 
2827.644256  	0.019400 
2829.573072  	0.019363 
2831.501888  	0.019414 
2833.430704  	0.019511 
2835.359520  	0.019482 
2837.288336  	0.019279 
2839.217152  	0.019187 
2841.145968  	0.019250 
2843.074784  	0.019196 
2845.003600  	0.019217 
2846.932416  	0.019284 
2848.861232  	0.019515 
2850.790048  	0.019515 
2852.718864  	0.019525 
2854.647680  	0.019617 
2856.576496  	0.019692 
2858.505312  	0.019739 
2860.434128  	0.019879 
2862.362944  	0.019953 
2864.291760  	0.019930 
2866.220576  	0.019933 
2868.149392  	0.020134 
2870.078208  	0.020340 
2872.007024  	0.020585 
2873.935840  	0.021029 
2875.864656  	0.021543 
2877.793472  	0.021895 
2879.722288  	0.022402 
2881.651104  	0.022910 
2883.579920  	0.023329 
2885.508736  	0.023662 
2887.437552  	0.024047 
2889.366368  	0.024291 
2891.295184  	0.024436 
2893.224000  	0.024465 
2895.152816  	0.024584 
2897.081632  	0.024670 
2899.010448  	0.024376 
2900.939264  	0.024057 
2902.868080  	0.024320 
2904.796896  	0.024747 
2906.725712  	0.024967 
2908.654528  	0.025305 
2910.583344  	0.025828 
2912.512160  	0.026272 
2914.440976  	0.026844 
2916.369792  	0.027565 
2918.298608  	0.028179 
2920.227424  	0.028626 
2922.156240  	0.029139 
2924.085056  	0.029849 
2926.013872  	0.030569 
2927.942688  	0.031402 
2929.871504  	0.032189 
2931.800320  	0.032880 
2933.729136  	0.033706 
2935.657952  	0.034444 
2937.586768  	0.035115 
2939.515584  	0.035853 
2941.444400  	0.036413 
2943.373216  	0.036811 
2945.302032  	0.037329 
2947.230848  	0.037721 
2949.159664  	0.037819 
2951.088480  	0.037706 
2953.017296  	0.037674 
2954.946112  	0.037675 
2956.874928  	0.037551 
2958.803744  	0.037355 
2960.732560  	0.037160 
2962.661376  	0.036970 
2964.590192  	0.036782 
2966.519008  	0.036383 
2968.447824  	0.035972 
2970.376640  	0.035742 
2972.305456  	0.035561 
2974.234272  	0.035686 
2976.163088  	0.035784 
2978.091904  	0.035631 
2980.020720  	0.035393 
2981.949536  	0.035181 
2983.878352  	0.035157 
2985.807168  	0.035053 
2987.735984  	0.034949 
2989.664800  	0.034988 
2991.593616  	0.035510 
2993.522432  	0.036041 
2995.451248  	0.036359 
2997.380064  	0.036771 
2999.308880  	0.037336 
3001.237696  	0.037968 
3003.166512  	0.038601 
3005.095328  	0.039019 
3007.024144  	0.039421 
3008.952960  	0.040066 
3010.881776  	0.040777 
3012.810592  	0.041586 
3014.739408  	0.042265 
3016.668224  	0.042824 
3018.597040  	0.043442 
3020.525856  	0.044009 
3022.454672  	0.044553 
3024.383488  	0.045372 
3026.312304  	0.046056 
3028.241120  	0.046482 
3030.169936  	0.047336 
3032.098752  	0.048334 
3034.027568  	0.048819 
3035.956384  	0.049331 
3037.885200  	0.049986 
3039.814016  	0.050746 
3041.742832  	0.051408 
3043.671648  	0.052115 
3045.600464  	0.052902 
3047.529280  	0.053554 
3049.458096  	0.054209 
3051.386912  	0.054840 
3053.315728  	0.055569 
3055.244544  	0.056463 
3057.173360  	0.057338 
3059.102176  	0.058179 
3061.030992  	0.059015 
3062.959808  	0.060096 
3064.888624  	0.061244 
3066.817440  	0.062115 
3068.746256  	0.063053 
3070.675072  	0.063959 
3072.603888  	0.064916 
3074.532704  	0.066136 
3076.461520  	0.067262 
3078.390336  	0.068311 
3080.319152  	0.069453 
3082.247968  	0.070382 
3084.176784  	0.071257 
3086.105600  	0.072362 
3088.034416  	0.073553 
3089.963232  	0.074321 
3091.892048  	0.075114 
3093.820864  	0.076166 
3095.749680  	0.077507 
3097.678496  	0.078711 
3099.607312  	0.079695 
3101.536128  	0.080993 
3103.464944  	0.082168 
3105.393760  	0.083082 
3107.322576  	0.084194 
3109.251392  	0.085265 
3111.180208  	0.086161 
3113.109024  	0.087160 
3115.037840  	0.088038 
3116.966656  	0.089198 
3118.895472  	0.090273 
3120.824288  	0.091063 
3122.753104  	0.091895 
3124.681920  	0.092558 
3126.610736  	0.093374 
3128.539552  	0.094274 
3130.468368  	0.095039 
3132.397184  	0.095859 
3134.326000  	0.096700 
3136.254816  	0.097348 
3138.183632  	0.098179 
3140.112448  	0.099067 
3142.041264  	0.099986 
3143.970080  	0.100900 
3145.898896  	0.101612 
3147.827712  	0.102424 
3149.756528  	0.103548 
3151.685344  	0.104544 
3153.614160  	0.105200 
3155.542976  	0.105814 
3157.471792  	0.106712 
3159.400608  	0.107731 
3161.329424  	0.108618 
3163.258240  	0.109475 
3165.187056  	0.110309 
3167.115872  	0.110906 
3169.044688  	0.111619 
3170.973504  	0.112359 
3172.902320  	0.112984 
3174.831136  	0.113469 
3176.759952  	0.114196 
3178.688768  	0.114948 
3180.617584  	0.115229 
3182.546400  	0.115640 
3184.475216  	0.116009 
3186.404032  	0.116456 
3188.332848  	0.116878 
3190.261664  	0.117014 
3192.190480  	0.117158 
3194.119296  	0.117441 
3196.048112  	0.117571 
3197.976928  	0.117811 
3199.905744  	0.117812 
3201.834560  	0.117493 
3203.763376  	0.117291 
3205.692192  	0.117063 
3207.621008  	0.116874 
3209.549824  	0.116929 
3211.478640  	0.116986 
3213.407456  	0.116903 
3215.336272  	0.116857 
3217.265088  	0.116779 
3219.193904  	0.116820 
3221.122720  	0.117003 
3223.051536  	0.116694 
3224.980352  	0.116303 
3226.909168  	0.116214 
3228.837984  	0.116035 
3230.766800  	0.115863 
3232.695616  	0.115984 
3234.624432  	0.116015 
3236.553248  	0.116063 
3238.482064  	0.116007 
3240.410880  	0.115961 
3242.339696  	0.116015 
3244.268512  	0.116270 
3246.197328  	0.116515 
3248.126144  	0.116496 
3250.054960  	0.116755 
3251.983776  	0.117182 
3253.912592  	0.117775 
3255.841408  	0.118048 
3257.770224  	0.118142 
3259.699040  	0.118445 
3261.627856  	0.118817 
3263.556672  	0.118998 
3265.485488  	0.119223 
3267.414304  	0.119545 
3269.343120  	0.119894 
3271.271936  	0.120048 
3273.200752  	0.120194 
3275.129568  	0.120396 
3277.058384  	0.120564 
3278.987200  	0.120695 
3280.916016  	0.120992 
3282.844832  	0.121317 
3284.773648  	0.121563 
3286.702464  	0.121805 
3288.631280  	0.122032 
3290.560096  	0.122244 
3292.488912  	0.122354 
3294.417728  	0.122589 
3296.346544  	0.123033 
3298.275360  	0.123365 
3300.204176  	0.123556 
3302.132992  	0.123835 
3304.061808  	0.124354 
3305.990624  	0.124847 
3307.919440  	0.125281 
3309.848256  	0.125492 
3311.777072  	0.125882 
3313.705888  	0.126308 
3315.634704  	0.126579 
3317.563520  	0.126876 
3319.492336  	0.127212 
3321.421152  	0.127457 
3323.349968  	0.127653 
3325.278784  	0.127836 
3327.207600  	0.128086 
3329.136416  	0.128124 
3331.065232  	0.128209 
3332.994048  	0.128281 
3334.922864  	0.128436 
3336.851680  	0.128511 
3338.780496  	0.128296 
3340.709312  	0.127913 
3342.638128  	0.127685 
3344.566944  	0.127313 
3346.495760  	0.127104 
3348.424576  	0.127115 
3350.353392  	0.126875 
3352.282208  	0.126405 
3354.211024  	0.125967 
3356.139840  	0.125557 
3358.068656  	0.125172 
3359.997472  	0.124765 
3361.926288  	0.124301 
3363.855104  	0.123783 
3365.783920  	0.123692 
3367.712736  	0.123257 
3369.641552  	0.122425 
3371.570368  	0.121879 
3373.499184  	0.121775 
3375.428000  	0.121598 
3377.356816  	0.121284 
3379.285632  	0.120965 
3381.214448  	0.120449 
3383.143264  	0.119989 
3385.072080  	0.119500 
3387.000896  	0.118968 
3388.929712  	0.118519 
3390.858528  	0.118004 
3392.787344  	0.117892 
3394.716160  	0.117369 
3396.644976  	0.116719 
3398.573792  	0.116122 
3400.502608  	0.115303 
3402.431424  	0.114478 
3404.360240  	0.113774 
3406.289056  	0.113190 
3408.217872  	0.112621 
3410.146688  	0.111746 
3412.075504  	0.110981 
3414.004320  	0.110458 
3415.933136  	0.109835 
3417.861952  	0.109001 
3419.790768  	0.108721 
3421.719584  	0.108510 
3423.648400  	0.107598 
3425.577216  	0.106242 
3427.506032  	0.105342 
3429.434848  	0.104777 
3431.363664  	0.104324 
3433.292480  	0.103591 
3435.221296  	0.102737 
3437.150112  	0.101697 
3439.078928  	0.100803 
3441.007744  	0.100215 
3442.936560  	0.099771 
3444.865376  	0.098801 
3446.794192  	0.098505 
3448.723008  	0.097807 
3450.651824  	0.096185 
3452.580640  	0.095202 
3454.509456  	0.094249 
3456.438272  	0.093096 
3458.367088  	0.092273 
3460.295904  	0.091548 
3462.224720  	0.090780 
3464.153536  	0.089527 
3466.082352  	0.088438 
3468.011168  	0.087485 
3469.939984  	0.086391 
3471.868800  	0.085322 
3473.797616  	0.084262 
3475.726432  	0.083129 
3477.655248  	0.082043 
3479.584064  	0.081275 
3481.512880  	0.080650 
3483.441696  	0.079485 
3485.370512  	0.078039 
3487.299328  	0.077056 
3489.228144  	0.075964 
3491.156960  	0.074479 
3493.085776  	0.073537 
3495.014592  	0.072865 
3496.943408  	0.072120 
3498.872224  	0.070802 
3500.801040  	0.070194 
3502.729856  	0.070154 
3504.658672  	0.069208 
3506.587488  	0.067289 
3508.516304  	0.066262 
3510.445120  	0.065684 
3512.373936  	0.064479 
3514.302752  	0.063313 
3516.231568  	0.062383 
3518.160384  	0.061459 
3520.089200  	0.060386 
3522.018016  	0.059817 
3523.946832  	0.060020 
3525.875648  	0.059160 
3527.804464  	0.057954 
3529.733280  	0.056672 
3531.662096  	0.055329 
3533.590912  	0.053961 
3535.519728  	0.053452 
3537.448544  	0.052751 
3539.377360  	0.051245 
3541.306176  	0.050265 
3543.234992  	0.050326 
3545.163808  	0.050910 
3547.092624  	0.049926 
3549.021440  	0.047661 
3550.950256  	0.046415 
3552.879072  	0.046326 
3554.807888  	0.044770 
3556.736704  	0.043007 
3558.665520  	0.042603 
3560.594336  	0.042546 
3562.523152  	0.041661 
3564.451968  	0.041732 
3566.380784  	0.043670 
3568.309600  	0.042759 
3570.238416  	0.038836 
3572.167232  	0.036476 
3574.096048  	0.035501 
3576.024864  	0.034545 
3577.953680  	0.033386 
3579.882496  	0.032620 
3581.811312  	0.031654 
3583.740128  	0.030778 
3585.668944  	0.030930 
3587.597760  	0.032021 
3589.526576  	0.029836 
3591.455392  	0.026895 
3593.384208  	0.026371 
3595.313024  	0.026495 
3597.241840  	0.025063 
3599.170656  	0.023253 
3601.099472  	0.022331 
3603.028288  	0.020897 
3604.957104  	0.019793 
3606.885920  	0.019978 
3608.814736  	0.019756 
3610.743552  	0.018018 
3612.672368  	0.017624 
3614.601184  	0.017127 
3616.530000  	0.015524 
3618.458816  	0.014932 
3620.387632  	0.013767 
3622.316448  	0.011465 
3624.245264  	0.009914 
3626.174080  	0.009175 
3628.102896  	0.009486 
3630.031712  	0.009744 
3631.960528  	0.007126 
3633.889344  	0.005603 
3635.818160  	0.004524 
3637.746976  	0.003032 
3639.675792  	0.001865 
3641.604608  	0.001347 
3643.533424  	0.000773 
3645.462240  	0.000196 
3647.391056  	0.001448 
3649.319872  	0.001948 
3651.248688  	0.000154 
3653.177504  	-0.003038 
3655.106320  	-0.004567 
3657.035136  	-0.004754 
3658.963952  	-0.006085 
3660.892768  	-0.007306 
3662.821584  	-0.008273 
3664.750400  	-0.008888 
3666.679216  	-0.008864 
3668.608032  	-0.008352 
3670.536848  	-0.007594 
3672.465664  	-0.008829 
3674.394480  	-0.009397 
3676.323296  	-0.008345 
3678.252112  	-0.009528 
3680.180928  	-0.010992 
3682.109744  	-0.012048 
3684.038560  	-0.012538 
3685.967376  	-0.012816 
3687.896192  	-0.012051 
3689.825008  	-0.010704 
3691.753824  	-0.011347 
3693.682640  	-0.012501 
3695.611456  	-0.013225 
3697.540272  	-0.013402 
3699.469088  	-0.013948 
3701.397904  	-0.013426 
3703.326720  	-0.013162 
3705.255536  	-0.013472 
3707.184352  	-0.013258 
3709.113168  	-0.012701 
3711.041984  	-0.011729 
3712.970800  	-0.011523 
3714.899616  	-0.012741 
3716.828432  	-0.013614 
3718.757248  	-0.013174 
3720.686064  	-0.012967 
3722.614880  	-0.012622 
3724.543696  	-0.012113 
3726.472512  	-0.011832 
3728.401328  	-0.012856 
3730.330144  	-0.014047 
3732.258960  	-0.013699 
3734.187776  	-0.011179 
3736.116592  	-0.009148 
3738.045408  	-0.010760 
3739.974224  	-0.012012 
3741.903040  	-0.012658 
3743.831856  	-0.013084 
3745.760672  	-0.011720 
3747.689488  	-0.012280 
3749.618304  	-0.012003 
3751.547120  	-0.010974 
3753.475936  	-0.011731 
3755.404752  	-0.012904 
3757.333568  	-0.013130 
3759.262384  	-0.012567 
3761.191200  	-0.012980 
3763.120016  	-0.013892 
3765.048832  	-0.013540 
3766.977648  	-0.013248 
3768.906464  	-0.013412 
3770.835280  	-0.013187 
3772.764096  	-0.013930 
3774.692912  	-0.014549 
3776.621728  	-0.014733 
3778.550544  	-0.014114 
3780.479360  	-0.013643 
3782.408176  	-0.014174 
3784.336992  	-0.014105 
3786.265808  	-0.014103 
3788.194624  	-0.014521 
3790.123440  	-0.014610 
3792.052256  	-0.014654 
3793.981072  	-0.014841 
3795.909888  	-0.014038 
3797.838704  	-0.012877 
3799.767520  	-0.013134 
3801.696336  	-0.012337 
3803.625152  	-0.013072 
3805.553968  	-0.014275 
3807.482784  	-0.013807 
3809.411600  	-0.014083 
3811.340416  	-0.014599 
3813.269232  	-0.014695 
3815.198048  	-0.014057 
3817.126864  	-0.012948 
3819.055680  	-0.013254 
3820.984496  	-0.012506 
3822.913312  	-0.012393 
3824.842128  	-0.013553 
3826.770944  	-0.013728 
3828.699760  	-0.014007 
3830.628576  	-0.014321 
3832.557392  	-0.014096 
3834.486208  	-0.014064 
3836.415024  	-0.013648 
3838.343840  	-0.012296 
3840.272656  	-0.011777 
3842.201472  	-0.012883 
3844.130288  	-0.013180 
3846.059104  	-0.013860 
3847.987920  	-0.014367 
3849.916736  	-0.013970 
3851.845552  	-0.013249 
3853.774368  	-0.011428 
3855.703184  	-0.011609 
3857.632000  	-0.012768 
3859.560816  	-0.013795 
3861.489632  	-0.013530 
3863.418448  	-0.012700 
3865.347264  	-0.012205 
3867.276080  	-0.013151 
3869.204896  	-0.012521 
3871.133712  	-0.011240 
3873.062528  	-0.012506 
3874.991344  	-0.013085 
3876.920160  	-0.014318 
3878.848976  	-0.014187 
3880.777792  	-0.012085 
3882.706608  	-0.012100 
3884.635424  	-0.012832 
3886.564240  	-0.012918 
3888.493056  	-0.014231 
3890.421872  	-0.014235 
3892.350688  	-0.013320 
3894.279504  	-0.013722 
3896.208320  	-0.014355 
3898.137136  	-0.013625 
3900.065952  	-0.011764 
3901.994768  	-0.011376 
3903.923584  	-0.011554 
3905.852400  	-0.012354 
3907.781216  	-0.014246 
3909.710032  	-0.015294 
3911.638848  	-0.015353 
3913.567664  	-0.015048 
3915.496480  	-0.014156 
3917.425296  	-0.012988 
3919.354112  	-0.013279 
3921.282928  	-0.013665 
3923.211744  	-0.013291 
3925.140560  	-0.012962 
3927.069376  	-0.014029 
3928.998192  	-0.013950 
3930.927008  	-0.012885 
3932.855824  	-0.012822 
3934.784640  	-0.013957 
3936.713456  	-0.014539 
3938.642272  	-0.014527 
3940.571088  	-0.014422 
3942.499904  	-0.013202 
3944.428720  	-0.013299 
3946.357536  	-0.013975 
3948.286352  	-0.013287 
3950.215168  	-0.013786 
3952.143984  	-0.014780 
3954.072800  	-0.014967 
3956.001616  	-0.014754 
3957.930432  	-0.014637 
3959.859248  	-0.014484 
3961.788064  	-0.014191 
3963.716880  	-0.014515 
3965.645696  	-0.015058 
3967.574512  	-0.015157 
3969.503328  	-0.015050 
3971.432144  	-0.014720 
3973.360960  	-0.014319 
3975.289776  	-0.014119 
3977.218592  	-0.014537 
3979.147408  	-0.014932 
3981.076224  	-0.014902 
3983.005040  	-0.014876 
3984.933856  	-0.014867 
3986.862672  	-0.014870 
3988.791488  	-0.014918 
3990.720304  	-0.014571 
3992.649120  	-0.014593 
3994.577936  	-0.014783 
3996.506752  	-0.014898 
3998.435568  	-0.015017 
4000.364384  	-0.015040 