##TITLE=No Description
##DATA TYPE=INFRARED SPECTRUM
##XUNITS=1/CM
##YUNITS=Abs
399.264912  	0.416457 
401.193728  	0.396716 
403.122544  	0.391917 
405.051360  	0.389086 
406.980176  	0.390512 
408.908992  	0.384537 
410.837808  	0.392071 
412.766624  	0.382966 
414.695440  	0.376375 
416.624256  	0.373185 
418.553072  	0.374559 
420.481888  	0.371963 
422.410704  	0.373766 
424.339520  	0.372857 
426.268336  	0.364154 
428.197152  	0.358902 
430.125968  	0.365394 
432.054784  	0.361032 
433.983600  	0.358807 
435.912416  	0.354297 
437.841232  	0.348367 
439.770048  	0.345979 
441.698864  	0.347912 
443.627680  	0.347139 
445.556496  	0.348893 
447.485312  	0.348739 
449.414128  	0.346874 
451.342944  	0.343307 
453.271760  	0.339563 
455.200576  	0.337432 
457.129392  	0.342530 
459.058208  	0.341960 
460.987024  	0.339105 
462.915840  	0.339508 
464.844656  	0.342039 
466.773472  	0.339991 
468.702288  	0.338322 
470.631104  	0.333591 
472.559920  	0.333591 
474.488736  	0.332153 
476.417552  	0.332837 
478.346368  	0.333111 
480.275184  	0.334548 
482.204000  	0.331011 
484.132816  	0.329938 
486.061632  	0.330975 
487.990448  	0.331942 
489.919264  	0.333085 
491.848080  	0.333088 
493.776896  	0.330705 
495.705712  	0.330057 
497.634528  	0.327854 
499.563344  	0.324523 
501.492160  	0.322094 
503.420976  	0.324392 
505.349792  	0.324239 
507.278608  	0.324004 
509.207424  	0.320315 
511.136240  	0.321577 
513.065056  	0.323112 
514.993872  	0.324028 
516.922688  	0.324247 
518.851504  	0.326138 
520.780320  	0.325366 
522.709136  	0.324088 
524.637952  	0.322586 
526.566768  	0.321384 
528.495584  	0.318083 
530.424400  	0.316418 
532.353216  	0.315653 
534.282032  	0.313013 
536.210848  	0.308830 
538.139664  	0.305508 
540.068480  	0.302025 
541.997296  	0.299495 
543.926112  	0.295863 
545.854928  	0.293616 
547.783744  	0.290451 
549.712560  	0.289055 
551.641376  	0.286392 
553.570192  	0.284427 
555.499008  	0.280896 
557.427824  	0.278887 
559.356640  	0.276378 
561.285456  	0.274717 
563.214272  	0.272224 
565.143088  	0.269744 
567.071904  	0.267480 
569.000720  	0.266451 
570.929536  	0.263990 
572.858352  	0.261390 
574.787168  	0.259550 
576.715984  	0.258090 
578.644800  	0.255298 
580.573616  	0.252727 
582.502432  	0.249161 
584.431248  	0.246906 
586.360064  	0.244654 
588.288880  	0.242388 
590.217696  	0.240897 
592.146512  	0.240616 
594.075328  	0.238165 
596.004144  	0.236196 
597.932960  	0.235025 
599.861776  	0.234453 
601.790592  	0.233061 
603.719408  	0.232262 
605.648224  	0.231436 
607.577040  	0.230568 
609.505856  	0.229173 
611.434672  	0.228279 
613.363488  	0.227041 
615.292304  	0.226275 
617.221120  	0.225175 
619.149936  	0.224185 
621.078752  	0.223561 
623.007568  	0.222419 
624.936384  	0.220966 
626.865200  	0.220386 
628.794016  	0.219022 
630.722832  	0.218193 
632.651648  	0.218477 
634.580464  	0.218938 
636.509280  	0.218621 
638.438096  	0.217851 
640.366912  	0.217125 
642.295728  	0.215854 
644.224544  	0.214139 
646.153360  	0.212484 
648.082176  	0.210163 
650.010992  	0.208048 
651.939808  	0.205624 
653.868624  	0.203380 
655.797440  	0.200448 
657.726256  	0.198213 
659.655072  	0.196147 
661.583888  	0.193158 
663.512704  	0.189856 
665.441520  	0.186769 
667.370336  	0.184567 
669.299152  	0.184719 
671.227968  	0.180936 
673.156784  	0.177792 
675.085600  	0.176215 
677.014416  	0.174405 
678.943232  	0.172803 
680.872048  	0.172260 
682.800864  	0.171471 
684.729680  	0.170779 
686.658496  	0.169586 
688.587312  	0.168703 
690.516128  	0.167770 
692.444944  	0.167130 
694.373760  	0.165374 
696.302576  	0.164181 
698.231392  	0.163010 
700.160208  	0.161543 
702.089024  	0.159791 
704.017840  	0.158170 
705.946656  	0.156180 
707.875472  	0.154422 
709.804288  	0.152846 
711.733104  	0.151792 
713.661920  	0.150896 
715.590736  	0.149835 
717.519552  	0.149443 
719.448368  	0.149690 
721.377184  	0.150170 
723.306000  	0.150593 
725.234816  	0.151262 
727.163632  	0.151056 
729.092448  	0.149335 
731.021264  	0.147176 
732.950080  	0.145078 
734.878896  	0.142884 
736.807712  	0.140658 
738.736528  	0.139036 
740.665344  	0.137802 
742.594160  	0.136860 
744.522976  	0.135701 
746.451792  	0.134869 
748.380608  	0.134061 
750.309424  	0.132928 
752.238240  	0.131617 
754.167056  	0.130907 
756.095872  	0.130492 
758.024688  	0.129880 
759.953504  	0.129542 
761.882320  	0.130078 
763.811136  	0.130477 
765.739952  	0.129682 
767.668768  	0.128135 
769.597584  	0.126920 
771.526400  	0.126605 
773.455216  	0.127414 
775.384032  	0.129415 
777.312848  	0.133000 
779.241664  	0.135864 
781.170480  	0.136250 
783.099296  	0.133948 
785.028112  	0.130646 
786.956928  	0.127116 
788.885744  	0.124407 
790.814560  	0.122047 
792.743376  	0.120329 
794.672192  	0.119738 
796.601008  	0.119415 
798.529824  	0.117553 
800.458640  	0.114463 
802.387456  	0.112062 
804.316272  	0.110868 
806.245088  	0.110058 
808.173904  	0.109366 
810.102720  	0.109106 
812.031536  	0.108968 
813.960352  	0.108822 
815.889168  	0.108862 
817.817984  	0.109291 
819.746800  	0.109830 
821.675616  	0.109974 
823.604432  	0.110062 
825.533248  	0.109957 
827.462064  	0.109665 
829.390880  	0.108986 
831.319696  	0.108546 
833.248512  	0.107551 
835.177328  	0.106403 
837.106144  	0.104915 
839.034960  	0.103149 
840.963776  	0.100878 
842.892592  	0.098585 
844.821408  	0.096213 
846.750224  	0.094171 
848.679040  	0.092431 
850.607856  	0.090784 
852.536672  	0.089599 
854.465488  	0.088847 
856.394304  	0.088092 
858.323120  	0.086760 
860.251936  	0.085466 
862.180752  	0.084282 
864.109568  	0.082680 
866.038384  	0.081075 
867.967200  	0.079538 
869.896016  	0.078355 
871.824832  	0.077539 
873.753648  	0.077566 
875.682464  	0.077563 
877.611280  	0.077963 
879.540096  	0.078955 
881.468912  	0.080020 
883.397728  	0.080927 
885.326544  	0.081806 
887.255360  	0.082257 
889.184176  	0.081910 
891.112992  	0.081234 
893.041808  	0.080214 
894.970624  	0.078653 
896.899440  	0.076256 
898.828256  	0.073654 
900.757072  	0.071381 
902.685888  	0.069258 
904.614704  	0.067811 
906.543520  	0.067456 
908.472336  	0.068388 
910.401152  	0.069925 
912.329968  	0.071991 
914.258784  	0.074008 
916.187600  	0.076049 
918.116416  	0.077830 
920.045232  	0.078922 
921.974048  	0.079466 
923.902864  	0.079838 
925.831680  	0.080179 
927.760496  	0.080401 
929.689312  	0.080645 
931.618128  	0.081400 
933.546944  	0.082057 
935.475760  	0.082356 
937.404576  	0.082514 
939.333392  	0.082537 
941.262208  	0.082735 
943.191024  	0.083955 
945.119840  	0.086328 
947.048656  	0.089877 
948.977472  	0.094764 
950.906288  	0.100509 
952.835104  	0.107145 
954.763920  	0.114306 
956.692736  	0.121065 
958.621552  	0.126948 
960.550368  	0.131028 
962.479184  	0.133340 
964.408000  	0.133071 
966.336816  	0.130391 
968.265632  	0.125315 
970.194448  	0.118576 
972.123264  	0.110728 
974.052080  	0.102507 
975.980896  	0.094266 
977.909712  	0.086310 
979.838528  	0.079396 
981.767344  	0.073842 
983.696160  	0.069895 
985.624976  	0.067416 
987.553792  	0.066834 
989.482608  	0.067941 
991.411424  	0.070737 
993.340240  	0.074956 
995.269056  	0.079677 
997.197872  	0.084830 
999.126688  	0.089863 
1001.055504  	0.095095 
1002.984320  	0.099909 
1004.913136  	0.104507 
1006.841952  	0.108559 
1008.770768  	0.112058 
1010.699584  	0.114663 
1012.628400  	0.116450 
1014.557216  	0.117637 
1016.486032  	0.117988 
1018.414848  	0.117825 
1020.343664  	0.117497 
1022.272480  	0.117183 
1024.201296  	0.116536 
1026.130112  	0.115710 
1028.058928  	0.115589 
1029.987744  	0.116368 
1031.916560  	0.117538 
1033.845376  	0.118975 
1035.774192  	0.121128 
1037.703008  	0.124034 
1039.631824  	0.128581 
1041.560640  	0.134419 
1043.489456  	0.141735 
1045.418272  	0.149829 
1047.347088  	0.158528 
1049.275904  	0.165801 
1051.204720  	0.170632 
1053.133536  	0.173312 
1055.062352  	0.173857 
1056.991168  	0.172840 
1058.919984  	0.172022 
1060.848800  	0.170902 
1062.777616  	0.169067 
1064.706432  	0.166176 
1066.635248  	0.163088 
1068.564064  	0.159859 
1070.492880  	0.155913 
1072.421696  	0.151809 
1074.350512  	0.149026 
1076.279328  	0.148021 
1078.208144  	0.148959 
1080.136960  	0.150346 
1082.065776  	0.151465 
1083.994592  	0.151235 
1085.923408  	0.149575 
1087.852224  	0.146337 
1089.781040  	0.142499 
1091.709856  	0.137381 
1093.638672  	0.131178 
1095.567488  	0.124004 
1097.496304  	0.116567 
1099.425120  	0.109103 
1101.353936  	0.101728 
1103.282752  	0.094629 
1105.211568  	0.087697 
1107.140384  	0.081355 
1109.069200  	0.075458 
1110.998016  	0.069980 
1112.926832  	0.064910 
1114.855648  	0.060545 
1116.784464  	0.056280 
1118.713280  	0.051947 
1120.642096  	0.047877 
1122.570912  	0.044227 
1124.499728  	0.040868 
1126.428544  	0.037994 
1128.357360  	0.035294 
1130.286176  	0.032822 
1132.214992  	0.030907 
1134.143808  	0.029338 
1136.072624  	0.027872 
1138.001440  	0.026398 
1139.930256  	0.025260 
1141.859072  	0.024124 
1143.787888  	0.022713 
1145.716704  	0.021655 
1147.645520  	0.020888 
1149.574336  	0.020479 
1151.503152  	0.019948 
1153.431968  	0.019694 
1155.360784  	0.019723 
1157.289600  	0.020485 
1159.218416  	0.021406 
1161.147232  	0.022413 
1163.076048  	0.023563 
1165.004864  	0.024784 
1166.933680  	0.026048 
1168.862496  	0.027497 
1170.791312  	0.029171 
1172.720128  	0.030960 
1174.648944  	0.032750 
1176.577760  	0.034202 
1178.506576  	0.036014 
1180.435392  	0.038061 
1182.364208  	0.040025 
1184.293024  	0.042375 
1186.221840  	0.045137 
1188.150656  	0.048085 
1190.079472  	0.051346 
1192.008288  	0.055310 
1193.937104  	0.059738 
1195.865920  	0.064507 
1197.794736  	0.069606 
1199.723552  	0.075250 
1201.652368  	0.080837 
1203.581184  	0.086127 
1205.510000  	0.091087 
1207.438816  	0.095434 
1209.367632  	0.099382 
1211.296448  	0.102562 
1213.225264  	0.104877 
1215.154080  	0.106069 
1217.082896  	0.106756 
1219.011712  	0.106672 
1220.940528  	0.106414 
1222.869344  	0.105659 
1224.798160  	0.104669 
1226.726976  	0.103101 
1228.655792  	0.101091 
1230.584608  	0.099025 
1232.513424  	0.096600 
1234.442240  	0.093919 
1236.371056  	0.091070 
1238.299872  	0.087784 
1240.228688  	0.083814 
1242.157504  	0.079879 
1244.086320  	0.076278 
1246.015136  	0.072404 
1247.943952  	0.068505 
1249.872768  	0.064458 
1251.801584  	0.060658 
1253.730400  	0.057058 
1255.659216  	0.053493 
1257.588032  	0.049970 
1259.516848  	0.046907 
1261.445664  	0.043935 
1263.374480  	0.041069 
1265.303296  	0.038687 
1267.232112  	0.037044 
1269.160928  	0.035946 
1271.089744  	0.035044 
1273.018560  	0.034440 
1274.947376  	0.034356 
1276.876192  	0.034661 
1278.805008  	0.034723 
1280.733824  	0.034355 
1282.662640  	0.033232 
1284.591456  	0.031963 
1286.520272  	0.031152 
1288.449088  	0.030638 
1290.377904  	0.030139 
1292.306720  	0.030156 
1294.235536  	0.030206 
1296.164352  	0.029818 
1298.093168  	0.028588 
1300.021984  	0.027087 
1301.950800  	0.025414 
1303.879616  	0.023629 
1305.808432  	0.021994 
1307.737248  	0.020532 
1309.666064  	0.019051 
1311.594880  	0.018205 
1313.523696  	0.017648 
1315.452512  	0.016891 
1317.381328  	0.016838 
1319.310144  	0.017132 
1321.238960  	0.016931 
1323.167776  	0.016932 
1325.096592  	0.017205 
1327.025408  	0.017407 
1328.954224  	0.017487 
1330.883040  	0.017273 
1332.811856  	0.016578 
1334.740672  	0.016199 
1336.669488  	0.016814 
1338.598304  	0.018224 
1340.527120  	0.017715 
1342.455936  	0.015056 
1344.384752  	0.014169 
1346.313568  	0.014399 
1348.242384  	0.014968 
1350.171200  	0.015783 
1352.100016  	0.016794 
1354.028832  	0.018221 
1355.957648  	0.019721 
1357.886464  	0.020923 
1359.815280  	0.022496 
1361.744096  	0.025263 
1363.672912  	0.026777 
1365.601728  	0.025963 
1367.530544  	0.026506 
1369.459360  	0.027286 
1371.388176  	0.027048 
1373.316992  	0.027605 
1375.245808  	0.027080 
1377.174624  	0.024542 
1379.103440  	0.022746 
1381.032256  	0.020787 
1382.961072  	0.019082 
1384.889888  	0.018181 
1386.818704  	0.018741 
1388.747520  	0.017632 
1390.676336  	0.015465 
1392.605152  	0.014449 
1394.533968  	0.015492 
1396.462784  	0.016345 
1398.391600  	0.016038 
1400.320416  	0.015453 
1402.249232  	0.014603 
1404.178048  	0.015836 
1406.106864  	0.016723 
1408.035680  	0.016943 
1409.964496  	0.018244 
1411.893312  	0.019729 
1413.822128  	0.020753 
1415.750944  	0.022782 
1417.679760  	0.025260 
1419.608576  	0.026481 
1421.537392  	0.024536 
1423.466208  	0.023874 
1425.395024  	0.022624 
1427.323840  	0.020539 
1429.252656  	0.019954 
1431.181472  	0.019234 
1433.110288  	0.018324 
1435.039104  	0.018491 
1436.967920  	0.020176 
1438.896736  	0.019211 
1440.825552  	0.018375 
1442.754368  	0.018319 
1444.683184  	0.018108 
1446.612000  	0.018592 
1448.540816  	0.019200 
1450.469632  	0.018808 
1452.398448  	0.019145 
1454.327264  	0.019726 
1456.256080  	0.022399 
1458.184896  	0.024965 
1460.113712  	0.021605 
1462.042528  	0.019397 
1463.971344  	0.019969 
1465.900160  	0.021816 
1467.828976  	0.021842 
1469.757792  	0.022632 
1471.686608  	0.027045 
1473.615424  	0.034170 
1475.544240  	0.035782 
1477.473056  	0.037149 
1479.401872  	0.037516 
1481.330688  	0.039341 
1483.259504  	0.039914 
1485.188320  	0.040019 
1487.117136  	0.041328 
1489.045952  	0.043464 
1490.974768  	0.041856 
1492.903584  	0.037100 
1494.832400  	0.034048 
1496.761216  	0.033124 
1498.690032  	0.030534 
1500.618848  	0.027210 
1502.547664  	0.023718 
1504.476480  	0.021238 
1506.405296  	0.024833 
1508.334112  	0.027546 
1510.262928  	0.021954 
1512.191744  	0.018356 
1514.120560  	0.017177 
1516.049376  	0.019096 
1517.978192  	0.020013 
1519.907008  	0.019730 
1521.835824  	0.023607 
1523.764640  	0.023899 
1525.693456  	0.025157 
1527.622272  	0.026327 
1529.551088  	0.025009 
1531.479904  	0.023993 
1533.408720  	0.025004 
1535.337536  	0.023081 
1537.266352  	0.020031 
1539.195168  	0.020261 
1541.123984  	0.021885 
1543.052800  	0.020148 
1544.981616  	0.018187 
1546.910432  	0.014508 
1548.839248  	0.014020 
1550.768064  	0.015169 
1552.696880  	0.014015 
1554.625696  	0.015224 
1556.554512  	0.015163 
1558.483328  	0.019074 
1560.412144  	0.022796 
1562.340960  	0.020240 
1564.269776  	0.021063 
1566.198592  	0.023845 
1568.127408  	0.025727 
1570.056224  	0.031612 
1571.985040  	0.033287 
1573.913856  	0.033386 
1575.842672  	0.036774 
1577.771488  	0.040039 
1579.700304  	0.037552 
1581.629120  	0.036495 
1583.557936  	0.036123 
1585.486752  	0.036727 
1587.415568  	0.038006 
1589.344384  	0.040735 
1591.273200  	0.043801 
1593.202016  	0.047725 
1595.130832  	0.052082 
1597.059648  	0.056040 
1598.988464  	0.058702 
1600.917280  	0.061562 
1602.846096  	0.063663 
1604.774912  	0.064553 
1606.703728  	0.064367 
1608.632544  	0.064545 
1610.561360  	0.063446 
1612.490176  	0.061990 
1614.418992  	0.059864 
1616.347808  	0.062247 
1618.276624  	0.065614 
1620.205440  	0.064821 
1622.134256  	0.066243 
1624.063072  	0.072609 
1625.991888  	0.074631 
1627.920704  	0.078951 
1629.849520  	0.083455 
1631.778336  	0.085403 
1633.707152  	0.086682 
1635.635968  	0.096186 
1637.564784  	0.103968 
1639.493600  	0.102169 
1641.422416  	0.102236 
1643.351232  	0.101523 
1645.280048  	0.100979 
1647.208864  	0.108341 
1649.137680  	0.106376 
1651.066496  	0.098143 
1652.995312  	0.102303 
1654.924128  	0.108964 
1656.852944  	0.100503 
1658.781760  	0.095710 
1660.710576  	0.092731 
1662.639392  	0.092845 
1664.568208  	0.091186 
1666.497024  	0.086315 
1668.425840  	0.084610 
1670.354656  	0.085650 
1672.283472  	0.082207 
1674.212288  	0.078684 
1676.141104  	0.079771 
1678.069920  	0.076944 
1679.998736  	0.076290 
1681.927552  	0.074269 
1683.856368  	0.075965 
1685.785184  	0.078870 
1687.714000  	0.074404 
1689.642816  	0.073293 
1691.571632  	0.071006 
1693.500448  	0.067459 
1695.429264  	0.067883 
1697.358080  	0.069633 
1699.286896  	0.065871 
1701.215712  	0.067833 
1703.144528  	0.062751 
1705.073344  	0.059844 
1707.002160  	0.057602 
1708.930976  	0.053251 
1710.859792  	0.049522 
1712.788608  	0.046022 
1714.717424  	0.043394 
1716.646240  	0.040549 
1718.575056  	0.035485 
1720.503872  	0.028618 
1722.432688  	0.023711 
1724.361504  	0.019293 
1726.290320  	0.015118 
1728.219136  	0.012469 
1730.147952  	0.011035 
1732.076768  	0.008951 
1734.005584  	0.007945 
1735.934400  	0.004838 
1737.863216  	0.002563 
1739.792032  	0.001386 
1741.720848  	0.000583 
1743.649664  	0.000740 
1745.578480  	-0.000024 
1747.507296  	-0.000190 
1749.436112  	0.000148 
1751.364928  	-0.001033 
1753.293744  	-0.003406 
1755.222560  	-0.004377 
1757.151376  	-0.003499 
1759.080192  	-0.004161 
1761.009008  	-0.004345 
1762.937824  	-0.004751 
1764.866640  	-0.005844 
1766.795456  	-0.005564 
1768.724272  	-0.004638 
1770.653088  	-0.005006 
1772.581904  	-0.004342 
1774.510720  	-0.004820 
1776.439536  	-0.005734 
1778.368352  	-0.006517 
1780.297168  	-0.006085 
1782.225984  	-0.006506 
1784.154800  	-0.006657 
1786.083616  	-0.007047 
1788.012432  	-0.007542 
1789.941248  	-0.006735 
1791.870064  	-0.005366 
1793.798880  	-0.006004 
1795.727696  	-0.006578 
1797.656512  	-0.007390 
1799.585328  	-0.007354 
1801.514144  	-0.006566 
1803.442960  	-0.007316 
1805.371776  	-0.008202 
1807.300592  	-0.008241 
1809.229408  	-0.008046 
1811.158224  	-0.007808 
1813.087040  	-0.008405 
1815.015856  	-0.009181 
1816.944672  	-0.008743 
1818.873488  	-0.008426 
1820.802304  	-0.008463 
1822.731120  	-0.008248 
1824.659936  	-0.007826 
1826.588752  	-0.007907 
1828.517568  	-0.008182 
1830.446384  	-0.007729 
1832.375200  	-0.008580 
1834.304016  	-0.008809 
1836.232832  	-0.008668 
1838.161648  	-0.008628 
1840.090464  	-0.009155 
1842.019280  	-0.008884 
1843.948096  	-0.007829 
1845.876912  	-0.007762 
1847.805728  	-0.008765 
1849.734544  	-0.009493 
1851.663360  	-0.009756 
1853.592176  	-0.009555 
1855.520992  	-0.009724 
1857.449808  	-0.009565 
1859.378624  	-0.009779 
1861.307440  	-0.009786 
1863.236256  	-0.010079 
1865.165072  	-0.009763 
1867.093888  	-0.008783 
1869.022704  	-0.007455 
1870.951520  	-0.008529 
1872.880336  	-0.009854 
1874.809152  	-0.010312 
1876.737968  	-0.010261 
1878.666784  	-0.010370 
1880.595600  	-0.010671 
1882.524416  	-0.010446 
1884.453232  	-0.009900 
1886.382048  	-0.010117 
1888.310864  	-0.009533 
1890.239680  	-0.009239 
1892.168496  	-0.009599 
1894.097312  	-0.009640 
1896.026128  	-0.009974 
1897.954944  	-0.010364 
1899.883760  	-0.010273 
1901.812576  	-0.010356 
1903.741392  	-0.010203 
1905.670208  	-0.010539 
1907.599024  	-0.010446 
1909.527840  	-0.009999 
1911.456656  	-0.009669 
1913.385472  	-0.009634 
1915.314288  	-0.009739 
1917.243104  	-0.009627 
1919.171920  	-0.009127 
1921.100736  	-0.009329 
1923.029552  	-0.009288 
1924.958368  	-0.010627 
1926.887184  	-0.010915 
1928.816000  	-0.011219 
1930.744816  	-0.011163 
1932.673632  	-0.010811 
1934.602448  	-0.010144 
1936.531264  	-0.010056 
1938.460080  	-0.010169 
1940.388896  	-0.009967 
1942.317712  	-0.009155 
1944.246528  	-0.010226 
1946.175344  	-0.010319 
1948.104160  	-0.010141 
1950.032976  	-0.010357 
1951.961792  	-0.010731 
1953.890608  	-0.010821 
1955.819424  	-0.010993 
1957.748240  	-0.011272 
1959.677056  	-0.011955 
1961.605872  	-0.011395 
1963.534688  	-0.010762 
1965.463504  	-0.009775 
1967.392320  	-0.009524 
1969.321136  	-0.009846 
1971.249952  	-0.011455 
1973.178768  	-0.011829 
1975.107584  	-0.010983 
1977.036400  	-0.009612 
1978.965216  	-0.009094 
1980.894032  	-0.009571 
1982.822848  	-0.010153 
1984.751664  	-0.009375 
1986.680480  	-0.008996 
1988.609296  	-0.008469 
1990.538112  	-0.008226 
1992.466928  	-0.007661 
1994.395744  	-0.009046 
1996.324560  	-0.010342 
1998.253376  	-0.010235 
2000.182192  	-0.010609 
2002.111008  	-0.011090 
2004.039824  	-0.009589 
2005.968640  	-0.009749 
2007.897456  	-0.010093 
2009.826272  	-0.009926 
2011.755088  	-0.009600 
2013.683904  	-0.010251 
2015.612720  	-0.009420 
2017.541536  	-0.008472 
2019.470352  	-0.007770 
2021.399168  	-0.009869 
2023.327984  	-0.011279 
2025.256800  	-0.010538 
2027.185616  	-0.008574 
2029.114432  	-0.008323 
2031.043248  	-0.008001 
2032.972064  	-0.008187 
2034.900880  	-0.007894 
2036.829696  	-0.007640 
2038.758512  	-0.007496 
2040.687328  	-0.008355 
2042.616144  	-0.008948 
2044.544960  	-0.009743 
2046.473776  	-0.009490 
2048.402592  	-0.008566 
2050.331408  	-0.008461 
2052.260224  	-0.008560 
2054.189040  	-0.008787 
2056.117856  	-0.009541 
2058.046672  	-0.009274 
2059.975488  	-0.008903 
2061.904304  	-0.008188 
2063.833120  	-0.007753 
2065.761936  	-0.007788 
2067.690752  	-0.008609 
2069.619568  	-0.008617 
2071.548384  	-0.008775 
2073.477200  	-0.008985 
2075.406016  	-0.008790 
2077.334832  	-0.007973 
2079.263648  	-0.007419 
2081.192464  	-0.007515 
2083.121280  	-0.008080 
2085.050096  	-0.008212 
2086.978912  	-0.008424 
2088.907728  	-0.007949 
2090.836544  	-0.007641 
2092.765360  	-0.008251 
2094.694176  	-0.008230 
2096.622992  	-0.007462 
2098.551808  	-0.007463 
2100.480624  	-0.007608 
2102.409440  	-0.008059 
2104.338256  	-0.008206 
2106.267072  	-0.008228 
2108.195888  	-0.007915 
2110.124704  	-0.007732 
2112.053520  	-0.007348 
2113.982336  	-0.007229 
2115.911152  	-0.007658 
2117.839968  	-0.008198 
2119.768784  	-0.008001 
2121.697600  	-0.007828 
2123.626416  	-0.008260 
2125.555232  	-0.008713 
2127.484048  	-0.008872 
2129.412864  	-0.008815 
2131.341680  	-0.008380 
2133.270496  	-0.007913 
2135.199312  	-0.007726 
2137.128128  	-0.007725 
2139.056944  	-0.006971 
2140.985760  	-0.007232 
2142.914576  	-0.007545 
2144.843392  	-0.008534 
2146.772208  	-0.008434 
2148.701024  	-0.008220 
2150.629840  	-0.007617 
2152.558656  	-0.006859 
2154.487472  	-0.006664 
2156.416288  	-0.007621 
2158.345104  	-0.005813 
2160.273920  	-0.003284 
2162.202736  	-0.003835 
2164.131552  	-0.005237 
2166.060368  	-0.005380 
2167.989184  	-0.005546 
2169.918000  	-0.005884 
2171.846816  	-0.005622 
2173.775632  	-0.005605 
2175.704448  	-0.006048 
2177.633264  	-0.005833 
2179.562080  	-0.006544 
2181.490896  	-0.006123 
2183.419712  	-0.005353 
2185.348528  	-0.005217 
2187.277344  	-0.006504 
2189.206160  	-0.006819 
2191.134976  	-0.006344 
2193.063792  	-0.006721 
2194.992608  	-0.006993 
2196.921424  	-0.006684 
2198.850240  	-0.007218 
2200.779056  	-0.007656 
2202.707872  	-0.007513 
2204.636688  	-0.006889 
2206.565504  	-0.006978 
2208.494320  	-0.007316 
2210.423136  	-0.007739 
2212.351952  	-0.007651 
2214.280768  	-0.007988 
2216.209584  	-0.007510 
2218.138400  	-0.007701 
2220.067216  	-0.008065 
2221.996032  	-0.008361 
2223.924848  	-0.008036 
2225.853664  	-0.007808 
2227.782480  	-0.007276 
2229.711296  	-0.007829 
2231.640112  	-0.008451 
2233.568928  	-0.008964 
2235.497744  	-0.008493 
2237.426560  	-0.008215 
2239.355376  	-0.008276 
2241.284192  	-0.009066 
2243.213008  	-0.009208 
2245.141824  	-0.008992 
2247.070640  	-0.008791 
2248.999456  	-0.008823 
2250.928272  	-0.008683 
2252.857088  	-0.008694 
2254.785904  	-0.008329 
2256.714720  	-0.008019 
2258.643536  	-0.007938 
2260.572352  	-0.007928 
2262.501168  	-0.007707 
2264.429984  	-0.007688 
2266.358800  	-0.007997 
2268.287616  	-0.008312 
2270.216432  	-0.008535 
2272.145248  	-0.008520 
2274.074064  	-0.007877 
2276.002880  	-0.007956 
2277.931696  	-0.007948 
2279.860512  	-0.007841 
2281.789328  	-0.007928 
2283.718144  	-0.007948 
2285.646960  	-0.007545 
2287.575776  	-0.007472 
2289.504592  	-0.007488 
2291.433408  	-0.007274 
2293.362224  	-0.006908 
2295.291040  	-0.007094 
2297.219856  	-0.006877 
2299.148672  	-0.006562 
2301.077488  	-0.006324 
2303.006304  	-0.005894 
2304.935120  	-0.005525 
2306.863936  	-0.005539 
2308.792752  	-0.005463 
2310.721568  	-0.005256 
2312.650384  	-0.005457 
2314.579200  	-0.006225 
2316.508016  	-0.006555 
2318.436832  	-0.006187 
2320.365648  	-0.005953 
2322.294464  	-0.006318 
2324.223280  	-0.007335 
2326.152096  	-0.008837 
2328.080912  	-0.009993 
2330.009728  	-0.010365 
2331.938544  	-0.010544 
2333.867360  	-0.011306 
2335.796176  	-0.011943 
2337.724992  	-0.012262 
2339.653808  	-0.012536 
2341.582624  	-0.012313 
2343.511440  	-0.011130 
2345.440256  	-0.009417 
2347.369072  	-0.008400 
2349.297888  	-0.008544 
2351.226704  	-0.009847 
2353.155520  	-0.011556 
2355.084336  	-0.012822 
2357.013152  	-0.013200 
2358.941968  	-0.013301 
2360.870784  	-0.014085 
2362.799600  	-0.014125 
2364.728416  	-0.012909 
2366.657232  	-0.012025 
2368.586048  	-0.010972 
2370.514864  	-0.009695 
2372.443680  	-0.008574 
2374.372496  	-0.007509 
2376.301312  	-0.006923 
2378.230128  	-0.006483 
2380.158944  	-0.006331 
2382.087760  	-0.006736 
2384.016576  	-0.007540 
2385.945392  	-0.008160 
2387.874208  	-0.008415 
2389.803024  	-0.008765 
2391.731840  	-0.009100 
2393.660656  	-0.009197 
2395.589472  	-0.009228 
2397.518288  	-0.009155 
2399.447104  	-0.009020 
2401.375920  	-0.008987 
2403.304736  	-0.009293 
2405.233552  	-0.009435 
2407.162368  	-0.009431 
2409.091184  	-0.009364 
2411.020000  	-0.009346 
2412.948816  	-0.009362 
2414.877632  	-0.009365 
2416.806448  	-0.009208 
2418.735264  	-0.009148 
2420.664080  	-0.009153 
2422.592896  	-0.009122 
2424.521712  	-0.009113 
2426.450528  	-0.009105 
2428.379344  	-0.009051 
2430.308160  	-0.009036 
2432.236976  	-0.009075 
2434.165792  	-0.008980 
2436.094608  	-0.008870 
2438.023424  	-0.008830 
2439.952240  	-0.008734 
2441.881056  	-0.008678 
2443.809872  	-0.008737 
2445.738688  	-0.008722 
2447.667504  	-0.008519 
2449.596320  	-0.008272 
2451.525136  	-0.008352 
2453.453952  	-0.008490 
2455.382768  	-0.008392 
2457.311584  	-0.008415 
2459.240400  	-0.008543 
2461.169216  	-0.008549 
2463.098032  	-0.008380 
2465.026848  	-0.008463 
2466.955664  	-0.008682 
2468.884480  	-0.008787 
2470.813296  	-0.008893 
2472.742112  	-0.008855 
2474.670928  	-0.008624 
2476.599744  	-0.008272 
2478.528560  	-0.008072 
2480.457376  	-0.008179 
2482.386192  	-0.008128 
2484.315008  	-0.008155 
2486.243824  	-0.008159 
2488.172640  	-0.008016 
2490.101456  	-0.007831 
2492.030272  	-0.007715 
2493.959088  	-0.007899 
2495.887904  	-0.008106 
2497.816720  	-0.007861 
2499.745536  	-0.007720 
2501.674352  	-0.007799 
2503.603168  	-0.007801 
2505.531984  	-0.007659 
2507.460800  	-0.007747 
2509.389616  	-0.007923 
2511.318432  	-0.007985 
2513.247248  	-0.007677 
2515.176064  	-0.007543 
2517.104880  	-0.007732 
2519.033696  	-0.007967 
2520.962512  	-0.007808 
2522.891328  	-0.007720 
2524.820144  	-0.007477 
2526.748960  	-0.007496 
2528.677776  	-0.007590 
2530.606592  	-0.007489 
2532.535408  	-0.007223 
2534.464224  	-0.007180 
2536.393040  	-0.007397 
2538.321856  	-0.007366 
2540.250672  	-0.007175 
2542.179488  	-0.007158 
2544.108304  	-0.007085 
2546.037120  	-0.007037 
2547.965936  	-0.007072 
2549.894752  	-0.007066 
2551.823568  	-0.006834 
2553.752384  	-0.006688 
2555.681200  	-0.006777 
2557.610016  	-0.006839 
2559.538832  	-0.006842 
2561.467648  	-0.006626 
2563.396464  	-0.006420 
2565.325280  	-0.006515 
2567.254096  	-0.006706 
2569.182912  	-0.006710 
2571.111728  	-0.006649 
2573.040544  	-0.006590 
2574.969360  	-0.006419 
2576.898176  	-0.006282 
2578.826992  	-0.006461 
2580.755808  	-0.006540 
2582.684624  	-0.006368 
2584.613440  	-0.006260 
2586.542256  	-0.006153 
2588.471072  	-0.006138 
2590.399888  	-0.006178 
2592.328704  	-0.005941 
2594.257520  	-0.005783 
2596.186336  	-0.005978 
2598.115152  	-0.006059 
2600.043968  	-0.005854 
2601.972784  	-0.005719 
2603.901600  	-0.005688 
2605.830416  	-0.005799 
2607.759232  	-0.005879 
2609.688048  	-0.005847 
2611.616864  	-0.005700 
2613.545680  	-0.005507 
2615.474496  	-0.005408 
2617.403312  	-0.005296 
2619.332128  	-0.005268 
2621.260944  	-0.005414 
2623.189760  	-0.005419 
2625.118576  	-0.005255 
2627.047392  	-0.005285 
2628.976208  	-0.005234 
2630.905024  	-0.005148 
2632.833840  	-0.005130 
2634.762656  	-0.005157 
2636.691472  	-0.005044 
2638.620288  	-0.004958 
2640.549104  	-0.004910 
2642.477920  	-0.004750 
2644.406736  	-0.004800 
2646.335552  	-0.004875 
2648.264368  	-0.004829 
2650.193184  	-0.004800 
2652.122000  	-0.004729 
2654.050816  	-0.004659 
2655.979632  	-0.004586 
2657.908448  	-0.004492 
2659.837264  	-0.004413 
2661.766080  	-0.004427 
2663.694896  	-0.004404 
2665.623712  	-0.004365 
2667.552528  	-0.004274 
2669.481344  	-0.004295 
2671.410160  	-0.004278 
2673.338976  	-0.004106 
2675.267792  	-0.003925 
2677.196608  	-0.003848 
2679.125424  	-0.003837 
2681.054240  	-0.003762 
2682.983056  	-0.003602 
2684.911872  	-0.003567 
2686.840688  	-0.003594 
2688.769504  	-0.003574 
2690.698320  	-0.003506 
2692.627136  	-0.003483 
2694.555952  	-0.003464 
2696.484768  	-0.003368 
2698.413584  	-0.003297 
2700.342400  	-0.003402 
2702.271216  	-0.003275 
2704.200032  	-0.003043 
2706.128848  	-0.002979 
2708.057664  	-0.002906 
2709.986480  	-0.002909 
2711.915296  	-0.002889 
2713.844112  	-0.002742 
2715.772928  	-0.002656 
2717.701744  	-0.002712 
2719.630560  	-0.002570 
2721.559376  	-0.002397 
2723.488192  	-0.002326 
2725.417008  	-0.002204 
2727.345824  	-0.002141 
2729.274640  	-0.002004 
2731.203456  	-0.001950 
2733.132272  	-0.001930 
2735.061088  	-0.001890 
2736.989904  	-0.001954 
2738.918720  	-0.001887 
2740.847536  	-0.001755 
2742.776352  	-0.001661 
2744.705168  	-0.001591 
2746.633984  	-0.001508 
2748.562800  	-0.001413 
2750.491616  	-0.001481 
2752.420432  	-0.001461 
2754.349248  	-0.001490 
2756.278064  	-0.001530 
2758.206880  	-0.001637 
2760.135696  	-0.001676 
2762.064512  	-0.001586 
2763.993328  	-0.001489 
2765.922144  	-0.001440 
2767.850960  	-0.001382 
2769.779776  	-0.001360 
2771.708592  	-0.001379 
2773.637408  	-0.001436 
2775.566224  	-0.001455 
2777.495040  	-0.001424 
2779.423856  	-0.001317 
2781.352672  	-0.001152 
2783.281488  	-0.001082 
2785.210304  	-0.001139 
2787.139120  	-0.001029 
2789.067936  	-0.000954 
2790.996752  	-0.000954 
2792.925568  	-0.000919 
2794.854384  	-0.000907 
2796.783200  	-0.000849 
2798.712016  	-0.000860 
2800.640832  	-0.000890 
2802.569648  	-0.000745 
2804.498464  	-0.000635 
2806.427280  	-0.000541 
2808.356096  	-0.000463 
2810.284912  	-0.000486 
2812.213728  	-0.000495 
2814.142544  	-0.000417 
2816.071360  	-0.000409 
2818.000176  	-0.000362 
2819.928992  	-0.000336 
2821.857808  	-0.000426 
2823.786624  	-0.000570 
2825.715440  	-0.000553 
2827.644256  	-0.000524 
2829.573072  	-0.000517 
2831.501888  	-0.000431 
2833.430704  	-0.000421 
2835.359520  	-0.000521 
2837.288336  	-0.000637 
2839.217152  	-0.000683 
2841.145968  	-0.000776 
2843.074784  	-0.000866 
2845.003600  	-0.000917 
2846.932416  	-0.000938 
2848.861232  	-0.000788 
2850.790048  	-0.000818 
2852.718864  	-0.000960 
2854.647680  	-0.001056 
2856.576496  	-0.001020 
2858.505312  	-0.001045 
2860.434128  	-0.000983 
2862.362944  	-0.001028 
2864.291760  	-0.001110 
2866.220576  	-0.001102 
2868.149392  	-0.001071 
2870.078208  	-0.001092 
2872.007024  	-0.001010 
2873.935840  	-0.000749 
2875.864656  	-0.000510 
2877.793472  	-0.000396 
2879.722288  	-0.000087 
2881.651104  	0.000165 
2883.579920  	0.000310 
2885.508736  	0.000330 
2887.437552  	0.000348 
2889.366368  	0.000393 
2891.295184  	0.000406 
2893.224000  	0.000432 
2895.152816  	0.000610 
2897.081632  	0.000777 
2899.010448  	0.000471 
2900.939264  	0.000176 
2902.868080  	0.000379 
2904.796896  	0.000697 
2906.725712  	0.000843 
2908.654528  	0.000961 
2910.583344  	0.001139 
2912.512160  	0.001319 
2914.440976  	0.001596 
2916.369792  	0.001989 
2918.298608  	0.002166 
2920.227424  	0.002372 
2922.156240  	0.002764 
2924.085056  	0.003238 
2926.013872  	0.003502 
2927.942688  	0.003868 
2929.871504  	0.004281 
2931.800320  	0.004555 
2933.729136  	0.004941 
2935.657952  	0.005383 
2937.586768  	0.005639 
2939.515584  	0.005756 
2941.444400  	0.005920 
2943.373216  	0.006078 
2945.302032  	0.006225 
2947.230848  	0.006295 
2949.159664  	0.006197 
2951.088480  	0.006101 
2953.017296  	0.006049 
2954.946112  	0.005918 
2956.874928  	0.005787 
2958.803744  	0.005612 
2960.732560  	0.005502 
2962.661376  	0.005505 
2964.590192  	0.005368 
2966.519008  	0.005145 
2968.447824  	0.004833 
2970.376640  	0.004579 
2972.305456  	0.004409 
2974.234272  	0.004516 
2976.163088  	0.004501 
2978.091904  	0.004325 
2980.020720  	0.004317 
2981.949536  	0.004327 
2983.878352  	0.004250 
2985.807168  	0.004098 
2987.735984  	0.004057 
2989.664800  	0.004189 
2991.593616  	0.004660 
2993.522432  	0.004984 
2995.451248  	0.005145 
2997.380064  	0.005354 
2999.308880  	0.005743 
3001.237696  	0.006076 
3003.166512  	0.006470 
3005.095328  	0.006847 
3007.024144  	0.007016 
3008.952960  	0.007342 
3010.881776  	0.007937 
3012.810592  	0.008457 
3014.739408  	0.008715 
3016.668224  	0.008901 
3018.597040  	0.009158 
3020.525856  	0.009562 
3022.454672  	0.009933 
3024.383488  	0.010224 
3026.312304  	0.010566 
3028.241120  	0.010750 
3030.169936  	0.011057 
3032.098752  	0.011474 
3034.027568  	0.011720 
3035.956384  	0.012134 
3037.885200  	0.012344 
3039.814016  	0.012484 
3041.742832  	0.012631 
3043.671648  	0.012944 
3045.600464  	0.013203 
3047.529280  	0.013431 
3049.458096  	0.013816 
3051.386912  	0.013968 
3053.315728  	0.014084 
3055.244544  	0.014450 
3057.173360  	0.014881 
3059.102176  	0.015202 
3061.030992  	0.015440 
3062.959808  	0.015659 
3064.888624  	0.016157 
3066.817440  	0.016794 
3068.746256  	0.017190 
3070.675072  	0.017320 
3072.603888  	0.017615 
3074.532704  	0.017985 
3076.461520  	0.018398 
3078.390336  	0.018861 
3080.319152  	0.019338 
3082.247968  	0.019644 
3084.176784  	0.019913 
3086.105600  	0.020282 
3088.034416  	0.020649 
3089.963232  	0.020824 
3091.892048  	0.021095 
3093.820864  	0.021407 
3095.749680  	0.021967 
3097.678496  	0.022433 
3099.607312  	0.022868 
3101.536128  	0.023372 
3103.464944  	0.023682 
3105.393760  	0.023891 
3107.322576  	0.024290 
3109.251392  	0.024659 
3111.180208  	0.024849 
3113.109024  	0.024958 
3115.037840  	0.025237 
3116.966656  	0.025785 
3118.895472  	0.026136 
3120.824288  	0.026246 
3122.753104  	0.026742 
3124.681920  	0.026968 
3126.610736  	0.027156 
3128.539552  	0.027378 
3130.468368  	0.027494 
3132.397184  	0.028019 
3134.326000  	0.028395 
3136.254816  	0.028459 
3138.183632  	0.028701 
3140.112448  	0.028957 
3142.041264  	0.029277 
3143.970080  	0.029598 
3145.898896  	0.029709 
3147.827712  	0.029969 
3149.756528  	0.030429 
3151.685344  	0.030692 
3153.614160  	0.030803 
3155.542976  	0.030907 
3157.471792  	0.031296 
3159.400608  	0.031741 
3161.329424  	0.031936 
3163.258240  	0.032211 
3165.187056  	0.032378 
3167.115872  	0.032413 
3169.044688  	0.032709 
3170.973504  	0.033004 
3172.902320  	0.033174 
3174.831136  	0.033239 
3176.759952  	0.033438 
3178.688768  	0.033831 
3180.617584  	0.033865 
3182.546400  	0.033949 
3184.475216  	0.034086 
3186.404032  	0.034207 
3188.332848  	0.034162 
3190.261664  	0.034054 
3192.190480  	0.034160 
3194.119296  	0.034414 
3196.048112  	0.034265 
3197.976928  	0.034459 
3199.905744  	0.034602 
3201.834560  	0.034683 
3203.763376  	0.034615 
3205.692192  	0.034272 
3207.621008  	0.034273 
3209.549824  	0.034638 
3211.478640  	0.034534 
3213.407456  	0.034375 
3215.336272  	0.034472 
3217.265088  	0.034245 
3219.193904  	0.034492 
3221.122720  	0.034560 
3223.051536  	0.034171 
3224.980352  	0.033966 
3226.909168  	0.034021 
3228.837984  	0.033771 
3230.766800  	0.033498 
3232.695616  	0.033626 
3234.624432  	0.033554 
3236.553248  	0.033659 
3238.482064  	0.033771 
3240.410880  	0.033501 
3242.339696  	0.033275 
3244.268512  	0.033325 
3246.197328  	0.033398 
3248.126144  	0.033222 
3250.054960  	0.033372 
3251.983776  	0.033468 
3253.912592  	0.033677 
3255.841408  	0.033909 
3257.770224  	0.033992 
3259.699040  	0.034031 
3261.627856  	0.034032 
3263.556672  	0.033965 
3265.485488  	0.034117 
3267.414304  	0.034156 
3269.343120  	0.034223 
3271.271936  	0.034302 
3273.200752  	0.034471 
3275.129568  	0.034611 
3277.058384  	0.034632 
3278.987200  	0.034466 
3280.916016  	0.034417 
3282.844832  	0.034428 
3284.773648  	0.034535 
3286.702464  	0.034711 
3288.631280  	0.034968 
3290.560096  	0.034978 
3292.488912  	0.034868 
3294.417728  	0.034874 
3296.346544  	0.035054 
3298.275360  	0.035348 
3300.204176  	0.035379 
3302.132992  	0.035277 
3304.061808  	0.035436 
3305.990624  	0.035642 
3307.919440  	0.035903 
3309.848256  	0.036119 
3311.777072  	0.036182 
3313.705888  	0.036360 
3315.634704  	0.036573 
3317.563520  	0.036761 
3319.492336  	0.036821 
3321.421152  	0.036869 
3323.349968  	0.036979 
3325.278784  	0.037128 
3327.207600  	0.037196 
3329.136416  	0.037069 
3331.065232  	0.036912 
3332.994048  	0.036869 
3334.922864  	0.037111 
3336.851680  	0.037377 
3338.780496  	0.037155 
3340.709312  	0.036848 
3342.638128  	0.036869 
3344.566944  	0.036674 
3346.495760  	0.036363 
3348.424576  	0.036318 
3350.353392  	0.036298 
3352.282208  	0.036117 
3354.211024  	0.035908 
3356.139840  	0.035718 
3358.068656  	0.035451 
3359.997472  	0.035331 
3361.926288  	0.035056 
3363.855104  	0.034711 
3365.783920  	0.034707 
3367.712736  	0.034638 
3369.641552  	0.034434 
3371.570368  	0.034091 
3373.499184  	0.033938 
3375.428000  	0.033878 
3377.356816  	0.033781 
3379.285632  	0.033541 
3381.214448  	0.033276 
3383.143264  	0.033219 
3385.072080  	0.033288 
3387.000896  	0.032858 
3388.929712  	0.032560 
3390.858528  	0.032341 
3392.787344  	0.032513 
3394.716160  	0.032181 
3396.644976  	0.031974 
3398.573792  	0.031903 
3400.502608  	0.031226 
3402.431424  	0.030690 
3404.360240  	0.030499 
3406.289056  	0.030201 
3408.217872  	0.029782 
3410.146688  	0.029569 
3412.075504  	0.029493 
3414.004320  	0.029386 
3415.933136  	0.029142 
3417.861952  	0.028679 
3419.790768  	0.028901 
3421.719584  	0.029284 
3423.648400  	0.028698 
3425.577216  	0.027973 
3427.506032  	0.027641 
3429.434848  	0.027466 
3431.363664  	0.027531 
3433.292480  	0.027307 
3435.221296  	0.026776 
3437.150112  	0.026306 
3439.078928  	0.026017 
3441.007744  	0.025780 
3442.936560  	0.025877 
3444.865376  	0.025310 
3446.794192  	0.025807 
3448.723008  	0.025958 
3450.651824  	0.024733 
3452.580640  	0.024220 
3454.509456  	0.023973 
3456.438272  	0.023631 
3458.367088  	0.023166 
3460.295904  	0.022869 
3462.224720  	0.022947 
3464.153536  	0.022444 
3466.082352  	0.021677 
3468.011168  	0.021515 
3469.939984  	0.021122 
3471.868800  	0.020474 
3473.797616  	0.019949 
3475.726432  	0.019960 
3477.655248  	0.019463 
3479.584064  	0.019136 
3481.512880  	0.019626 
3483.441696  	0.019390 
3485.370512  	0.018106 
3487.299328  	0.017619 
3489.228144  	0.017270 
3491.156960  	0.016461 
3493.085776  	0.015987 
3495.014592  	0.016156 
3496.943408  	0.016196 
3498.872224  	0.015536 
3500.801040  	0.015358 
3502.729856  	0.015997 
3504.658672  	0.015971 
3506.587488  	0.014469 
3508.516304  	0.014189 
3510.445120  	0.014538 
3512.373936  	0.013681 
3514.302752  	0.013060 
3516.231568  	0.012647 
3518.160384  	0.012154 
3520.089200  	0.011519 
3522.018016  	0.011768 
3523.946832  	0.012930 
3525.875648  	0.012496 
3527.804464  	0.012098 
3529.733280  	0.011681 
3531.662096  	0.010522 
3533.590912  	0.009478 
3535.519728  	0.009569 
3537.448544  	0.009630 
3539.377360  	0.008524 
3541.306176  	0.008026 
3543.234992  	0.008470 
3545.163808  	0.010048 
3547.092624  	0.010519 
3549.021440  	0.008386 
3550.950256  	0.007247 
3552.879072  	0.008334 
3554.807888  	0.007317 
3556.736704  	0.005777 
3558.665520  	0.005863 
3560.594336  	0.006564 
3562.523152  	0.006111 
3564.451968  	0.006092 
3566.380784  	0.009315 
3568.309600  	0.010693 
3570.238416  	0.006754 
3572.167232  	0.004286 
3574.096048  	0.003731 
3576.024864  	0.003374 
3577.953680  	0.002871 
3579.882496  	0.002781 
3581.811312  	0.002149 
3583.740128  	0.001489 
3585.668944  	0.001908 
3587.597760  	0.005071 
3589.526576  	0.004041 
3591.455392  	0.000753 
3593.384208  	0.000647 
3595.313024  	0.001679 
3597.241840  	0.000680 
3599.170656  	-0.000611 
3601.099472  	-0.000664 
3603.028288  	-0.001562 
3604.957104  	-0.002676 
3606.885920  	-0.001810 
3608.814736  	-0.000339 
3610.743552  	-0.001568 
3612.672368  	-0.001580 
3614.601184  	-0.001306 
3616.530000  	-0.003055 
3618.458816  	-0.002482 
3620.387632  	-0.002050 
3622.316448  	-0.004477 
3624.245264  	-0.006245 
3626.174080  	-0.006826 
3628.102896  	-0.005090 
3630.031712  	-0.002165 
3631.960528  	-0.005643 
3633.889344  	-0.007129 
3635.818160  	-0.007912 
3637.746976  	-0.008872 
3639.675792  	-0.009397 
3641.604608  	-0.009566 
3643.533424  	-0.010039 
3645.462240  	-0.010445 
3647.391056  	-0.007978 
3649.319872  	-0.005519 
3651.248688  	-0.006518 
3653.177504  	-0.010562 
3655.106320  	-0.012151 
3657.035136  	-0.011123 
3658.963952  	-0.012270 
3660.892768  	-0.013288 
3662.821584  	-0.013798 
3664.750400  	-0.014145 
3666.679216  	-0.014273 
3668.608032  	-0.013304 
3670.536848  	-0.011072 
3672.465664  	-0.012595 
3674.394480  	-0.012975 
3676.323296  	-0.010002 
3678.252112  	-0.011930 
3680.180928  	-0.013222 
3682.109744  	-0.014260 
3684.038560  	-0.014692 
3685.967376  	-0.015203 
3687.896192  	-0.013973 
3689.825008  	-0.011464 
3691.753824  	-0.012219 
3693.682640  	-0.013794 
3695.611456  	-0.014569 
3697.540272  	-0.014747 
3699.469088  	-0.015378 
3701.397904  	-0.014528 
3703.326720  	-0.013873 
3705.255536  	-0.014455 
3707.184352  	-0.014640 
3709.113168  	-0.014129 
3711.041984  	-0.012142 
3712.970800  	-0.011498 
3714.899616  	-0.013252 
3716.828432  	-0.014525 
3718.757248  	-0.014196 
3720.686064  	-0.013891 
3722.614880  	-0.013232 
3724.543696  	-0.012791 
3726.472512  	-0.012304 
3728.401328  	-0.013424 
3730.330144  	-0.014891 
3732.258960  	-0.014119 
3734.187776  	-0.011264 
3736.116592  	-0.008360 
3738.045408  	-0.010708 
3739.974224  	-0.012738 
3741.903040  	-0.013673 
3743.831856  	-0.013055 
3745.760672  	-0.010633 
3747.689488  	-0.012522 
3749.618304  	-0.011960 
3751.547120  	-0.010005 
3753.475936  	-0.011019 
3755.404752  	-0.013005 
3757.333568  	-0.013371 
3759.262384  	-0.012727 
3761.191200  	-0.013108 
3763.120016  	-0.014454 
3765.048832  	-0.013865 
3766.977648  	-0.013496 
3768.906464  	-0.013659 
3770.835280  	-0.013220 
3772.764096  	-0.014155 
3774.692912  	-0.015009 
3776.621728  	-0.015316 
3778.550544  	-0.014517 
3780.479360  	-0.013583 
3782.408176  	-0.014504 
3784.336992  	-0.014361 
3786.265808  	-0.013996 
3788.194624  	-0.014445 
3790.123440  	-0.014687 
3792.052256  	-0.014997 
3793.981072  	-0.015357 
3795.909888  	-0.014164 
3797.838704  	-0.012953 
3799.767520  	-0.013723 
3801.696336  	-0.011942 
3803.625152  	-0.012604 
3805.553968  	-0.014491 
3807.482784  	-0.013547 
3809.411600  	-0.013938 
3811.340416  	-0.014842 
3813.269232  	-0.015321 
3815.198048  	-0.014373 
3817.126864  	-0.012450 
3819.055680  	-0.013285 
3820.984496  	-0.011964 
3822.913312  	-0.011866 
3824.842128  	-0.013855 
3826.770944  	-0.013839 
3828.699760  	-0.014125 
3830.628576  	-0.014549 
3832.557392  	-0.014049 
3834.486208  	-0.014061 
3836.415024  	-0.013590 
3838.343840  	-0.012126 
3840.272656  	-0.011329 
3842.201472  	-0.012281 
3844.130288  	-0.012609 
3846.059104  	-0.013560 
3847.987920  	-0.014595 
3849.916736  	-0.014712 
3851.845552  	-0.013808 
3853.774368  	-0.009802 
3855.703184  	-0.010185 
3857.632000  	-0.012174 
3859.560816  	-0.013780 
3861.489632  	-0.013826 
3863.418448  	-0.012813 
3865.347264  	-0.011804 
3867.276080  	-0.013340 
3869.204896  	-0.012746 
3871.133712  	-0.010924 
3873.062528  	-0.012513 
3874.991344  	-0.012756 
3876.920160  	-0.014298 
3878.848976  	-0.014443 
3880.777792  	-0.011997 
3882.706608  	-0.012175 
3884.635424  	-0.012865 
3886.564240  	-0.012603 
3888.493056  	-0.014551 
3890.421872  	-0.014464 
3892.350688  	-0.012938 
3894.279504  	-0.013697 
3896.208320  	-0.014714 
3898.137136  	-0.014060 
3900.065952  	-0.012111 
3901.994768  	-0.011418 
3903.923584  	-0.010868 
3905.852400  	-0.011474 
3907.781216  	-0.013731 
3909.710032  	-0.015088 
3911.638848  	-0.015397 
3913.567664  	-0.015380 
3915.496480  	-0.014498 
3917.425296  	-0.012936 
3919.354112  	-0.013182 
3921.282928  	-0.013719 
3923.211744  	-0.013523 
3925.140560  	-0.012965 
3927.069376  	-0.014020 
3928.998192  	-0.014247 
3930.927008  	-0.013204 
3932.855824  	-0.012773 
3934.784640  	-0.013933 
3936.713456  	-0.014809 
3938.642272  	-0.014968 
3940.571088  	-0.014867 
3942.499904  	-0.013425 
3944.428720  	-0.013360 
3946.357536  	-0.014159 
3948.286352  	-0.013391 
3950.215168  	-0.013662 
3952.143984  	-0.014754 
3954.072800  	-0.015373 
3956.001616  	-0.015330 
3957.930432  	-0.014932 
3959.859248  	-0.014560 
3961.788064  	-0.014270 
3963.716880  	-0.014554 
3965.645696  	-0.015131 
3967.574512  	-0.015281 
3969.503328  	-0.015313 
3971.432144  	-0.015211 
3973.360960  	-0.014712 
3975.289776  	-0.014167 
3977.218592  	-0.014373 
3979.147408  	-0.014866 
3981.076224  	-0.014968 
3983.005040  	-0.015020 
3984.933856  	-0.015033 
3986.862672  	-0.014988 
3988.791488  	-0.015026 
3990.720304  	-0.014635 
3992.649120  	-0.014709 
3994.577936  	-0.014996 
3996.506752  	-0.015234 
3998.435568  	-0.015318 
4000.364384  	-0.015275 