##TITLE=No Description
##DATA TYPE=INFRARED SPECTRUM
##XUNITS=1/CM
##YUNITS=Abs
399.264912  	0.405384 
401.193728  	0.397931 
403.122544  	0.389031 
405.051360  	0.380937 
406.980176  	0.377511 
408.908992  	0.370516 
410.837808  	0.374098 
412.766624  	0.368340 
414.695440  	0.369986 
416.624256  	0.371226 
418.553072  	0.378534 
420.481888  	0.372193 
422.410704  	0.363427 
424.339520  	0.356486 
426.268336  	0.351510 
428.197152  	0.349119 
430.125968  	0.348761 
432.054784  	0.341921 
433.983600  	0.343576 
435.912416  	0.343303 
437.841232  	0.339911 
439.770048  	0.336476 
441.698864  	0.336340 
443.627680  	0.334546 
445.556496  	0.335477 
447.485312  	0.331595 
449.414128  	0.325898 
451.342944  	0.326304 
453.271760  	0.329858 
455.200576  	0.324794 
457.129392  	0.320347 
459.058208  	0.318629 
460.987024  	0.323480 
462.915840  	0.324086 
464.844656  	0.320973 
466.773472  	0.317205 
468.702288  	0.312561 
470.631104  	0.309433 
472.559920  	0.315600 
474.488736  	0.314720 
476.417552  	0.311875 
478.346368  	0.309068 
480.275184  	0.306299 
482.204000  	0.306231 
484.132816  	0.310783 
486.061632  	0.310308 
487.990448  	0.305961 
489.919264  	0.303780 
491.848080  	0.303164 
493.776896  	0.302781 
495.705712  	0.303731 
497.634528  	0.301227 
499.563344  	0.299365 
501.492160  	0.300868 
503.420976  	0.303101 
505.349792  	0.298564 
507.278608  	0.296098 
509.207424  	0.293056 
511.136240  	0.293935 
513.065056  	0.295656 
514.993872  	0.298493 
516.922688  	0.298333 
518.851504  	0.299915 
520.780320  	0.298632 
522.709136  	0.296924 
524.637952  	0.294963 
526.566768  	0.293093 
528.495584  	0.290954 
530.424400  	0.290407 
532.353216  	0.288647 
534.282032  	0.285758 
536.210848  	0.284411 
538.139664  	0.282495 
540.068480  	0.278918 
541.997296  	0.277683 
543.926112  	0.275941 
545.854928  	0.275014 
547.783744  	0.273054 
549.712560  	0.271997 
551.641376  	0.269425 
553.570192  	0.268912 
555.499008  	0.267697 
557.427824  	0.265377 
559.356640  	0.262281 
561.285456  	0.261101 
563.214272  	0.259884 
565.143088  	0.258166 
567.071904  	0.256668 
569.000720  	0.255840 
570.929536  	0.254168 
572.858352  	0.252793 
574.787168  	0.250787 
576.715984  	0.248699 
578.644800  	0.246503 
580.573616  	0.244702 
582.502432  	0.241901 
584.431248  	0.239651 
586.360064  	0.237577 
588.288880  	0.236420 
590.217696  	0.235529 
592.146512  	0.234748 
594.075328  	0.232890 
596.004144  	0.231813 
597.932960  	0.230504 
599.861776  	0.229813 
601.790592  	0.228382 
603.719408  	0.227411 
605.648224  	0.225682 
607.577040  	0.224145 
609.505856  	0.222999 
611.434672  	0.221882 
613.363488  	0.220717 
615.292304  	0.220214 
617.221120  	0.219000 
619.149936  	0.218167 
621.078752  	0.216972 
623.007568  	0.215903 
624.936384  	0.215001 
626.865200  	0.214317 
628.794016  	0.213342 
630.722832  	0.212809 
632.651648  	0.212301 
634.580464  	0.211789 
636.509280  	0.211032 
638.438096  	0.210486 
640.366912  	0.209854 
642.295728  	0.208747 
644.224544  	0.207143 
646.153360  	0.205389 
648.082176  	0.203306 
650.010992  	0.201462 
651.939808  	0.199268 
653.868624  	0.197564 
655.797440  	0.195372 
657.726256  	0.193748 
659.655072  	0.191987 
661.583888  	0.189984 
663.512704  	0.187734 
665.441520  	0.184446 
667.370336  	0.182729 
669.299152  	0.184827 
671.227968  	0.180715 
673.156784  	0.177259 
675.085600  	0.175707 
677.014416  	0.174058 
678.943232  	0.172539 
680.872048  	0.171758 
682.800864  	0.170863 
684.729680  	0.170083 
686.658496  	0.168682 
688.587312  	0.168092 
690.516128  	0.167118 
692.444944  	0.166115 
694.373760  	0.164737 
696.302576  	0.163766 
698.231392  	0.162426 
700.160208  	0.160647 
702.089024  	0.158513 
704.017840  	0.157173 
705.946656  	0.155700 
707.875472  	0.153561 
709.804288  	0.152023 
711.733104  	0.151478 
713.661920  	0.150784 
715.590736  	0.149471 
717.519552  	0.148554 
719.448368  	0.148243 
721.377184  	0.148068 
723.306000  	0.147539 
725.234816  	0.147155 
727.163632  	0.146454 
729.092448  	0.145007 
731.021264  	0.143445 
732.950080  	0.141526 
734.878896  	0.139910 
736.807712  	0.138389 
738.736528  	0.137277 
740.665344  	0.136223 
742.594160  	0.135220 
744.522976  	0.134070 
746.451792  	0.133131 
748.380608  	0.132107 
750.309424  	0.131130 
752.238240  	0.129777 
754.167056  	0.128641 
756.095872  	0.127882 
758.024688  	0.127011 
759.953504  	0.126414 
761.882320  	0.126339 
763.811136  	0.126078 
765.739952  	0.124769 
767.668768  	0.122979 
769.597584  	0.121445 
771.526400  	0.120457 
773.455216  	0.120415 
775.384032  	0.121095 
777.312848  	0.122647 
779.241664  	0.124084 
781.170480  	0.123676 
783.099296  	0.121297 
785.028112  	0.118336 
786.956928  	0.115486 
788.885744  	0.113517 
790.814560  	0.111440 
792.743376  	0.109996 
794.672192  	0.109230 
796.601008  	0.108612 
798.529824  	0.106745 
800.458640  	0.104358 
802.387456  	0.102354 
804.316272  	0.101127 
806.245088  	0.100196 
808.173904  	0.099019 
810.102720  	0.098317 
812.031536  	0.097729 
813.960352  	0.096891 
815.889168  	0.096325 
817.817984  	0.095938 
819.746800  	0.095808 
821.675616  	0.095458 
823.604432  	0.094811 
825.533248  	0.094490 
827.462064  	0.094377 
829.390880  	0.093769 
831.319696  	0.093226 
833.248512  	0.092507 
835.177328  	0.091522 
837.106144  	0.089978 
839.034960  	0.088453 
840.963776  	0.086620 
842.892592  	0.084511 
844.821408  	0.082613 
846.750224  	0.080942 
848.679040  	0.079417 
850.607856  	0.077909 
852.536672  	0.076944 
854.465488  	0.076134 
856.394304  	0.075285 
858.323120  	0.074163 
860.251936  	0.073096 
862.180752  	0.072145 
864.109568  	0.070730 
866.038384  	0.069408 
867.967200  	0.068073 
869.896016  	0.067007 
871.824832  	0.066133 
873.753648  	0.065844 
875.682464  	0.065585 
877.611280  	0.065904 
879.540096  	0.066670 
881.468912  	0.067419 
883.397728  	0.068212 
885.326544  	0.068916 
887.255360  	0.069494 
889.184176  	0.069572 
891.112992  	0.069095 
893.041808  	0.068363 
894.970624  	0.067342 
896.899440  	0.065438 
898.828256  	0.063177 
900.757072  	0.061187 
902.685888  	0.059585 
904.614704  	0.058448 
906.543520  	0.057880 
908.472336  	0.058215 
910.401152  	0.059063 
912.329968  	0.060202 
914.258784  	0.061143 
916.187600  	0.062123 
918.116416  	0.062883 
920.045232  	0.063274 
921.974048  	0.063384 
923.902864  	0.063599 
925.831680  	0.063732 
927.760496  	0.063908 
929.689312  	0.064073 
931.618128  	0.064384 
933.546944  	0.064542 
935.475760  	0.064359 
937.404576  	0.064029 
939.333392  	0.063528 
941.262208  	0.063108 
943.191024  	0.063282 
945.119840  	0.064197 
947.048656  	0.065922 
948.977472  	0.068617 
950.906288  	0.072093 
952.835104  	0.076433 
954.763920  	0.081469 
956.692736  	0.086443 
958.621552  	0.091191 
960.550368  	0.094784 
962.479184  	0.096964 
964.408000  	0.097531 
966.336816  	0.096352 
968.265632  	0.093010 
970.194448  	0.088295 
972.123264  	0.082407 
974.052080  	0.076066 
975.980896  	0.069615 
977.909712  	0.063482 
979.838528  	0.058038 
981.767344  	0.053370 
983.696160  	0.049812 
985.624976  	0.047305 
987.553792  	0.046142 
989.482608  	0.046047 
991.411424  	0.047134 
993.340240  	0.049339 
995.269056  	0.051725 
997.197872  	0.054382 
999.126688  	0.057188 
1001.055504  	0.060221 
1002.984320  	0.062953 
1004.913136  	0.065699 
1006.841952  	0.068350 
1008.770768  	0.070910 
1010.699584  	0.072984 
1012.628400  	0.074578 
1014.557216  	0.075774 
1016.486032  	0.076548 
1018.414848  	0.076807 
1020.343664  	0.076712 
1022.272480  	0.076656 
1024.201296  	0.076325 
1026.130112  	0.075710 
1028.058928  	0.075632 
1029.987744  	0.076374 
1031.916560  	0.077131 
1033.845376  	0.078026 
1035.774192  	0.079373 
1037.703008  	0.081078 
1039.631824  	0.084034 
1041.560640  	0.088547 
1043.489456  	0.094234 
1045.418272  	0.100545 
1047.347088  	0.107279 
1049.275904  	0.112594 
1051.204720  	0.116048 
1053.133536  	0.117625 
1055.062352  	0.117602 
1056.991168  	0.116568 
1058.919984  	0.115792 
1060.848800  	0.115509 
1062.777616  	0.115071 
1064.706432  	0.114071 
1066.635248  	0.113161 
1068.564064  	0.112399 
1070.492880  	0.110376 
1072.421696  	0.107834 
1074.350512  	0.106113 
1076.279328  	0.105668 
1078.208144  	0.107553 
1080.136960  	0.110501 
1082.065776  	0.113018 
1083.994592  	0.114382 
1085.923408  	0.114270 
1087.852224  	0.112254 
1089.781040  	0.109239 
1091.709856  	0.105183 
1093.638672  	0.100211 
1095.567488  	0.094222 
1097.496304  	0.088119 
1099.425120  	0.082034 
1101.353936  	0.075887 
1103.282752  	0.070185 
1105.211568  	0.064635 
1107.140384  	0.059507 
1109.069200  	0.054774 
1110.998016  	0.050503 
1112.926832  	0.046655 
1114.855648  	0.043465 
1116.784464  	0.040187 
1118.713280  	0.036979 
1120.642096  	0.033870 
1122.570912  	0.030983 
1124.499728  	0.028356 
1126.428544  	0.026058 
1128.357360  	0.024130 
1130.286176  	0.022494 
1132.214992  	0.021178 
1134.143808  	0.020112 
1136.072624  	0.019234 
1138.001440  	0.018344 
1139.930256  	0.017628 
1141.859072  	0.016898 
1143.787888  	0.016133 
1145.716704  	0.015581 
1147.645520  	0.014850 
1149.574336  	0.014355 
1151.503152  	0.013847 
1153.431968  	0.013541 
1155.360784  	0.013488 
1157.289600  	0.013872 
1159.218416  	0.014447 
1161.147232  	0.015201 
1163.076048  	0.016073 
1165.004864  	0.016851 
1166.933680  	0.017565 
1168.862496  	0.018434 
1170.791312  	0.019436 
1172.720128  	0.020615 
1174.648944  	0.021816 
1176.577760  	0.022845 
1178.506576  	0.024156 
1180.435392  	0.025674 
1182.364208  	0.026957 
1184.293024  	0.028513 
1186.221840  	0.030440 
1188.150656  	0.032444 
1190.079472  	0.034542 
1192.008288  	0.037286 
1193.937104  	0.040499 
1195.865920  	0.043957 
1197.794736  	0.047541 
1199.723552  	0.051497 
1201.652368  	0.055493 
1203.581184  	0.059233 
1205.510000  	0.062987 
1207.438816  	0.066366 
1209.367632  	0.069482 
1211.296448  	0.072107 
1213.225264  	0.074105 
1215.154080  	0.075297 
1217.082896  	0.075935 
1219.011712  	0.076177 
1220.940528  	0.076254 
1222.869344  	0.075982 
1224.798160  	0.075577 
1226.726976  	0.074554 
1228.655792  	0.073287 
1230.584608  	0.072031 
1232.513424  	0.070357 
1234.442240  	0.068372 
1236.371056  	0.066233 
1238.299872  	0.063860 
1240.228688  	0.060862 
1242.157504  	0.057918 
1244.086320  	0.055288 
1246.015136  	0.052365 
1247.943952  	0.049298 
1249.872768  	0.046319 
1251.801584  	0.043589 
1253.730400  	0.040883 
1255.659216  	0.038156 
1257.588032  	0.035580 
1259.516848  	0.033437 
1261.445664  	0.031185 
1263.374480  	0.028937 
1265.303296  	0.027125 
1267.232112  	0.025766 
1269.160928  	0.024854 
1271.089744  	0.024249 
1273.018560  	0.023641 
1274.947376  	0.023379 
1276.876192  	0.023644 
1278.805008  	0.023894 
1280.733824  	0.023759 
1282.662640  	0.022944 
1284.591456  	0.022104 
1286.520272  	0.021682 
1288.449088  	0.021379 
1290.377904  	0.020948 
1292.306720  	0.021122 
1294.235536  	0.021432 
1296.164352  	0.021499 
1298.093168  	0.020702 
1300.021984  	0.019536 
1301.950800  	0.018244 
1303.879616  	0.016867 
1305.808432  	0.015471 
1307.737248  	0.014107 
1309.666064  	0.012599 
1311.594880  	0.012008 
1313.523696  	0.011728 
1315.452512  	0.011004 
1317.381328  	0.011044 
1319.310144  	0.011200 
1321.238960  	0.010601 
1323.167776  	0.010350 
1325.096592  	0.010455 
1327.025408  	0.010514 
1328.954224  	0.010536 
1330.883040  	0.010296 
1332.811856  	0.009651 
1334.740672  	0.009386 
1336.669488  	0.010426 
1338.598304  	0.012558 
1340.527120  	0.012158 
1342.455936  	0.009092 
1344.384752  	0.008105 
1346.313568  	0.008213 
1348.242384  	0.008661 
1350.171200  	0.009149 
1352.100016  	0.009728 
1354.028832  	0.010912 
1355.957648  	0.011953 
1357.886464  	0.012627 
1359.815280  	0.014058 
1361.744096  	0.017043 
1363.672912  	0.018148 
1365.601728  	0.016502 
1367.530544  	0.017050 
1369.459360  	0.018107 
1371.388176  	0.018020 
1373.316992  	0.019255 
1375.245808  	0.019196 
1377.174624  	0.016722 
1379.103440  	0.015142 
1381.032256  	0.013399 
1382.961072  	0.012003 
1384.889888  	0.011704 
1386.818704  	0.013180 
1388.747520  	0.012058 
1390.676336  	0.009662 
1392.605152  	0.008937 
1394.533968  	0.010652 
1396.462784  	0.011507 
1398.391600  	0.011019 
1400.320416  	0.009648 
1402.249232  	0.008252 
1404.178048  	0.009507 
1406.106864  	0.009960 
1408.035680  	0.009485 
1409.964496  	0.010460 
1411.893312  	0.011620 
1413.822128  	0.012298 
1415.750944  	0.014613 
1417.679760  	0.017827 
1419.608576  	0.018995 
1421.537392  	0.016544 
1423.466208  	0.016313 
1425.395024  	0.015360 
1427.323840  	0.013412 
1429.252656  	0.013382 
1431.181472  	0.012838 
1433.110288  	0.011938 
1435.039104  	0.012579 
1436.967920  	0.014721 
1438.896736  	0.013138 
1440.825552  	0.012231 
1442.754368  	0.012356 
1444.683184  	0.012361 
1446.612000  	0.013336 
1448.540816  	0.014258 
1450.469632  	0.013504 
1452.398448  	0.013817 
1454.327264  	0.014788 
1456.256080  	0.018699 
1458.184896  	0.021113 
1460.113712  	0.016205 
1462.042528  	0.013125 
1463.971344  	0.013570 
1465.900160  	0.014632 
1467.828976  	0.013631 
1469.757792  	0.013805 
1471.686608  	0.018282 
1473.615424  	0.024149 
1475.544240  	0.024173 
1477.473056  	0.024241 
1479.401872  	0.024097 
1481.330688  	0.026022 
1483.259504  	0.026716 
1485.188320  	0.027376 
1487.117136  	0.029811 
1489.045952  	0.033301 
1490.974768  	0.032331 
1492.903584  	0.027309 
1494.832400  	0.024877 
1496.761216  	0.025102 
1498.690032  	0.023018 
1500.618848  	0.019825 
1502.547664  	0.016571 
1504.476480  	0.014947 
1506.405296  	0.021280 
1508.334112  	0.024496 
1510.262928  	0.017715 
1512.191744  	0.013650 
1514.120560  	0.012637 
1516.049376  	0.015286 
1517.978192  	0.016077 
1519.907008  	0.015734 
1521.835824  	0.019848 
1523.764640  	0.019026 
1525.693456  	0.019943 
1527.622272  	0.020433 
1529.551088  	0.018354 
1531.479904  	0.017462 
1533.408720  	0.019221 
1535.337536  	0.016859 
1537.266352  	0.014023 
1539.195168  	0.016030 
1541.123984  	0.019226 
1543.052800  	0.017379 
1544.981616  	0.014990 
1546.910432  	0.010328 
1548.839248  	0.009986 
1550.768064  	0.011192 
1552.696880  	0.009889 
1554.625696  	0.011227 
1556.554512  	0.011226 
1558.483328  	0.016326 
1560.412144  	0.017588 
1562.340960  	0.013179 
1564.269776  	0.013161 
1566.198592  	0.014715 
1568.127408  	0.016040 
1570.056224  	0.020752 
1571.985040  	0.020826 
1573.913856  	0.020531 
1575.842672  	0.024138 
1577.771488  	0.026828 
1579.700304  	0.024069 
1581.629120  	0.023073 
1583.557936  	0.022763 
1585.486752  	0.023174 
1587.415568  	0.024003 
1589.344384  	0.025930 
1591.273200  	0.027932 
1593.202016  	0.030651 
1595.130832  	0.033894 
1597.059648  	0.036664 
1598.988464  	0.038578 
1600.917280  	0.041210 
1602.846096  	0.043464 
1604.774912  	0.044609 
1606.703728  	0.045017 
1608.632544  	0.045885 
1610.561360  	0.045203 
1612.490176  	0.043771 
1614.418992  	0.042018 
1616.347808  	0.044664 
1618.276624  	0.047160 
1620.205440  	0.045382 
1622.134256  	0.046267 
1624.063072  	0.051153 
1625.991888  	0.051731 
1627.920704  	0.054907 
1629.849520  	0.057947 
1631.778336  	0.058708 
1633.707152  	0.059614 
1635.635968  	0.069220 
1637.564784  	0.075860 
1639.493600  	0.073383 
1641.422416  	0.073439 
1643.351232  	0.073128 
1645.280048  	0.073736 
1647.208864  	0.082955 
1649.137680  	0.081195 
1651.066496  	0.073447 
1652.995312  	0.080073 
1654.924128  	0.087474 
1656.852944  	0.078847 
1658.781760  	0.074939 
1660.710576  	0.073184 
1662.639392  	0.074500 
1664.568208  	0.073356 
1666.497024  	0.068967 
1668.425840  	0.068351 
1670.354656  	0.070189 
1672.283472  	0.066545 
1674.212288  	0.063185 
1676.141104  	0.064431 
1678.069920  	0.061501 
1679.998736  	0.061137 
1681.927552  	0.059497 
1683.856368  	0.062598 
1685.785184  	0.064979 
1687.714000  	0.060115 
1689.642816  	0.059339 
1691.571632  	0.057187 
1693.500448  	0.054145 
1695.429264  	0.056221 
1697.358080  	0.059836 
1699.286896  	0.057005 
1701.215712  	0.060605 
1703.144528  	0.055895 
1705.073344  	0.054534 
1707.002160  	0.053460 
1708.930976  	0.049731 
1710.859792  	0.046932 
1712.788608  	0.044602 
1714.717424  	0.043482 
1716.646240  	0.041921 
1718.575056  	0.036943 
1720.503872  	0.029126 
1722.432688  	0.023871 
1724.361504  	0.019374 
1726.290320  	0.014734 
1728.219136  	0.012230 
1730.147952  	0.011368 
1732.076768  	0.009763 
1734.005584  	0.009181 
1735.934400  	0.005194 
1737.863216  	0.002672 
1739.792032  	0.001751 
1741.720848  	0.000737 
1743.649664  	0.001140 
1745.578480  	0.000416 
1747.507296  	0.000698 
1749.436112  	0.001388 
1751.364928  	-0.000001 
1753.293744  	-0.003188 
1755.222560  	-0.004328 
1757.151376  	-0.003253 
1759.080192  	-0.004001 
1761.009008  	-0.003972 
1762.937824  	-0.004440 
1764.866640  	-0.005847 
1766.795456  	-0.005374 
1768.724272  	-0.004411 
1770.653088  	-0.004431 
1772.581904  	-0.003215 
1774.510720  	-0.004301 
1776.439536  	-0.005602 
1778.368352  	-0.006287 
1780.297168  	-0.005664 
1782.225984  	-0.006374 
1784.154800  	-0.006699 
1786.083616  	-0.007146 
1788.012432  	-0.007680 
1789.941248  	-0.006287 
1791.870064  	-0.004400 
1793.798880  	-0.005522 
1795.727696  	-0.006310 
1797.656512  	-0.007075 
1799.585328  	-0.006860 
1801.514144  	-0.006039 
1803.442960  	-0.007314 
1805.371776  	-0.008289 
1807.300592  	-0.008216 
1809.229408  	-0.007962 
1811.158224  	-0.007563 
1813.087040  	-0.008368 
1815.015856  	-0.009397 
1816.944672  	-0.009005 
1818.873488  	-0.008858 
1820.802304  	-0.008759 
1822.731120  	-0.008170 
1824.659936  	-0.007470 
1826.588752  	-0.007783 
1828.517568  	-0.007787 
1830.446384  	-0.007306 
1832.375200  	-0.008646 
1834.304016  	-0.009158 
1836.232832  	-0.008864 
1838.161648  	-0.008633 
1840.090464  	-0.008962 
1842.019280  	-0.008573 
1843.948096  	-0.007397 
1845.876912  	-0.007459 
1847.805728  	-0.008380 
1849.734544  	-0.009303 
1851.663360  	-0.009754 
1853.592176  	-0.009560 
1855.520992  	-0.009596 
1857.449808  	-0.009482 
1859.378624  	-0.009821 
1861.307440  	-0.009798 
1863.236256  	-0.009894 
1865.165072  	-0.009461 
1867.093888  	-0.008063 
1869.022704  	-0.006435 
1870.951520  	-0.007998 
1872.880336  	-0.009617 
1874.809152  	-0.010169 
1876.737968  	-0.010303 
1878.666784  	-0.010295 
1880.595600  	-0.010388 
1882.524416  	-0.010310 
1884.453232  	-0.010066 
1886.382048  	-0.010215 
1888.310864  	-0.009395 
1890.239680  	-0.008968 
1892.168496  	-0.009545 
1894.097312  	-0.009218 
1896.026128  	-0.009334 
1897.954944  	-0.010010 
1899.883760  	-0.010113 
1901.812576  	-0.010008 
1903.741392  	-0.010070 
1905.670208  	-0.010395 
1907.599024  	-0.010227 
1909.527840  	-0.009560 
1911.456656  	-0.009303 
1913.385472  	-0.009701 
1915.314288  	-0.009857 
1917.243104  	-0.009259 
1919.171920  	-0.008771 
1921.100736  	-0.008873 
1923.029552  	-0.008508 
1924.958368  	-0.010429 
1926.887184  	-0.011311 
1928.816000  	-0.011580 
1930.744816  	-0.011222 
1932.673632  	-0.010775 
1934.602448  	-0.010535 
1936.531264  	-0.010958 
1938.460080  	-0.010969 
1940.388896  	-0.010334 
1942.317712  	-0.008891 
1944.246528  	-0.009998 
1946.175344  	-0.010626 
1948.104160  	-0.010777 
1950.032976  	-0.011282 
1951.961792  	-0.011981 
1953.890608  	-0.012172 
1955.819424  	-0.012085 
1957.748240  	-0.011534 
1959.677056  	-0.011548 
1961.605872  	-0.012037 
1963.534688  	-0.011518 
1965.463504  	-0.009861 
1967.392320  	-0.010422 
1969.321136  	-0.011110 
1971.249952  	-0.012041 
1973.178768  	-0.011928 
1975.107584  	-0.010439 
1977.036400  	-0.009536 
1978.965216  	-0.009531 
1980.894032  	-0.010417 
1982.822848  	-0.011330 
1984.751664  	-0.010622 
1986.680480  	-0.009717 
1988.609296  	-0.009074 
1990.538112  	-0.009089 
1992.466928  	-0.008427 
1994.395744  	-0.009758 
1996.324560  	-0.010326 
1998.253376  	-0.009731 
2000.182192  	-0.010369 
2002.111008  	-0.011045 
2004.039824  	-0.010956 
2005.968640  	-0.011181 
2007.897456  	-0.010288 
2009.826272  	-0.009671 
2011.755088  	-0.010114 
2013.683904  	-0.010495 
2015.612720  	-0.010051 
2017.541536  	-0.009750 
2019.470352  	-0.010485 
2021.399168  	-0.011418 
2023.327984  	-0.010532 
2025.256800  	-0.009881 
2027.185616  	-0.009145 
2029.114432  	-0.009132 
2031.043248  	-0.009786 
2032.972064  	-0.009873 
2034.900880  	-0.008606 
2036.829696  	-0.008441 
2038.758512  	-0.009304 
2040.687328  	-0.009903 
2042.616144  	-0.009874 
2044.544960  	-0.009654 
2046.473776  	-0.009406 
2048.402592  	-0.009145 
2050.331408  	-0.009273 
2052.260224  	-0.009398 
2054.189040  	-0.009182 
2056.117856  	-0.009566 
2058.046672  	-0.009887 
2059.975488  	-0.009594 
2061.904304  	-0.008710 
2063.833120  	-0.008309 
2065.761936  	-0.008367 
2067.690752  	-0.008808 
2069.619568  	-0.009288 
2071.548384  	-0.009923 
2073.477200  	-0.009120 
2075.406016  	-0.008709 
2077.334832  	-0.008911 
2079.263648  	-0.008602 
2081.192464  	-0.008518 
2083.121280  	-0.008718 
2085.050096  	-0.008881 
2086.978912  	-0.009219 
2088.907728  	-0.009161 
2090.836544  	-0.009021 
2092.765360  	-0.009071 
2094.694176  	-0.008963 
2096.622992  	-0.008371 
2098.551808  	-0.008670 
2100.480624  	-0.008607 
2102.409440  	-0.008483 
2104.338256  	-0.008462 
2106.267072  	-0.008596 
2108.195888  	-0.009009 
2110.124704  	-0.008944 
2112.053520  	-0.008428 
2113.982336  	-0.008308 
2115.911152  	-0.008417 
2117.839968  	-0.008840 
2119.768784  	-0.008871 
2121.697600  	-0.008758 
2123.626416  	-0.009192 
2125.555232  	-0.009872 
2127.484048  	-0.010261 
2129.412864  	-0.009674 
2131.341680  	-0.008935 
2133.270496  	-0.008692 
2135.199312  	-0.008588 
2137.128128  	-0.008416 
2139.056944  	-0.007903 
2140.985760  	-0.007961 
2142.914576  	-0.007928 
2144.843392  	-0.009128 
2146.772208  	-0.009007 
2148.701024  	-0.008494 
2150.629840  	-0.009167 
2152.558656  	-0.008776 
2154.487472  	-0.007810 
2156.416288  	-0.008615 
2158.345104  	-0.006887 
2160.273920  	-0.004714 
2162.202736  	-0.005310 
2164.131552  	-0.006525 
2166.060368  	-0.006215 
2167.989184  	-0.006589 
2169.918000  	-0.007895 
2171.846816  	-0.007936 
2173.775632  	-0.007137 
2175.704448  	-0.007230 
2177.633264  	-0.006985 
2179.562080  	-0.007386 
2181.490896  	-0.007200 
2183.419712  	-0.006669 
2185.348528  	-0.007190 
2187.277344  	-0.007890 
2189.206160  	-0.007630 
2191.134976  	-0.007521 
2193.063792  	-0.007754 
2194.992608  	-0.008030 
2196.921424  	-0.007942 
2198.850240  	-0.008474 
2200.779056  	-0.009086 
2202.707872  	-0.009085 
2204.636688  	-0.008088 
2206.565504  	-0.008398 
2208.494320  	-0.009370 
2210.423136  	-0.009376 
2212.351952  	-0.008780 
2214.280768  	-0.008234 
2216.209584  	-0.007926 
2218.138400  	-0.008693 
2220.067216  	-0.009030 
2221.996032  	-0.009364 
2223.924848  	-0.009122 
2225.853664  	-0.008579 
2227.782480  	-0.008605 
2229.711296  	-0.009297 
2231.640112  	-0.009326 
2233.568928  	-0.009658 
2235.497744  	-0.009934 
2237.426560  	-0.009618 
2239.355376  	-0.009407 
2241.284192  	-0.009573 
2243.213008  	-0.009427 
2245.141824  	-0.009348 
2247.070640  	-0.009038 
2248.999456  	-0.008973 
2250.928272  	-0.009047 
2252.857088  	-0.009062 
2254.785904  	-0.008865 
2256.714720  	-0.008489 
2258.643536  	-0.008423 
2260.572352  	-0.008439 
2262.501168  	-0.008552 
2264.429984  	-0.008498 
2266.358800  	-0.008645 
2268.287616  	-0.009033 
2270.216432  	-0.009281 
2272.145248  	-0.009320 
2274.074064  	-0.008632 
2276.002880  	-0.008396 
2277.931696  	-0.008335 
2279.860512  	-0.008447 
2281.789328  	-0.008421 
2283.718144  	-0.008115 
2285.646960  	-0.007785 
2287.575776  	-0.007856 
2289.504592  	-0.007753 
2291.433408  	-0.007449 
2293.362224  	-0.007124 
2295.291040  	-0.007168 
2297.219856  	-0.006928 
2299.148672  	-0.006652 
2301.077488  	-0.006318 
2303.006304  	-0.005791 
2304.935120  	-0.005325 
2306.863936  	-0.005228 
2308.792752  	-0.005194 
2310.721568  	-0.005050 
2312.650384  	-0.005265 
2314.579200  	-0.005847 
2316.508016  	-0.005731 
2318.436832  	-0.005476 
2320.365648  	-0.005348 
2322.294464  	-0.005548 
2324.223280  	-0.006594 
2326.152096  	-0.008144 
2328.080912  	-0.009191 
2330.009728  	-0.009512 
2331.938544  	-0.010023 
2333.867360  	-0.010889 
2335.796176  	-0.011455 
2337.724992  	-0.011826 
2339.653808  	-0.012097 
2341.582624  	-0.011681 
2343.511440  	-0.010424 
2345.440256  	-0.008818 
2347.369072  	-0.007882 
2349.297888  	-0.007889 
2351.226704  	-0.008925 
2353.155520  	-0.010719 
2355.084336  	-0.011854 
2357.013152  	-0.012067 
2358.941968  	-0.012286 
2360.870784  	-0.012791 
2362.799600  	-0.012633 
2364.728416  	-0.011876 
2366.657232  	-0.011109 
2368.586048  	-0.010085 
2370.514864  	-0.008866 
2372.443680  	-0.007758 
2374.372496  	-0.006756 
2376.301312  	-0.006042 
2378.230128  	-0.005789 
2380.158944  	-0.006075 
2382.087760  	-0.006830 
2384.016576  	-0.007815 
2385.945392  	-0.008496 
2387.874208  	-0.008735 
2389.803024  	-0.009080 
2391.731840  	-0.009425 
2393.660656  	-0.009534 
2395.589472  	-0.009375 
2397.518288  	-0.009358 
2399.447104  	-0.009471 
2401.375920  	-0.009553 
2403.304736  	-0.009831 
2405.233552  	-0.009835 
2407.162368  	-0.009712 
2409.091184  	-0.009610 
2411.020000  	-0.009701 
2412.948816  	-0.009824 
2414.877632  	-0.009771 
2416.806448  	-0.009568 
2418.735264  	-0.009540 
2420.664080  	-0.009343 
2422.592896  	-0.009376 
2424.521712  	-0.009593 
2426.450528  	-0.009639 
2428.379344  	-0.009588 
2430.308160  	-0.009441 
2432.236976  	-0.009239 
2434.165792  	-0.009053 
2436.094608  	-0.008917 
2438.023424  	-0.008852 
2439.952240  	-0.008774 
2441.881056  	-0.008947 
2443.809872  	-0.009140 
2445.738688  	-0.009160 
2447.667504  	-0.009179 
2449.596320  	-0.008952 
2451.525136  	-0.008828 
2453.453952  	-0.008942 
2455.382768  	-0.008954 
2457.311584  	-0.008908 
2459.240400  	-0.008930 
2461.169216  	-0.008850 
2463.098032  	-0.008838 
2465.026848  	-0.009005 
2466.955664  	-0.009170 
2468.884480  	-0.009378 
2470.813296  	-0.009287 
2472.742112  	-0.008947 
2474.670928  	-0.008752 
2476.599744  	-0.008664 
2478.528560  	-0.008551 
2480.457376  	-0.008286 
2482.386192  	-0.008094 
2484.315008  	-0.008393 
2486.243824  	-0.008630 
2488.172640  	-0.008256 
2490.101456  	-0.007895 
2492.030272  	-0.007924 
2493.959088  	-0.008106 
2495.887904  	-0.008252 
2497.816720  	-0.008211 
2499.745536  	-0.008237 
2501.674352  	-0.008316 
2503.603168  	-0.008229 
2505.531984  	-0.008000 
2507.460800  	-0.008098 
2509.389616  	-0.008391 
2511.318432  	-0.008528 
2513.247248  	-0.008292 
2515.176064  	-0.008085 
2517.104880  	-0.008088 
2519.033696  	-0.008193 
2520.962512  	-0.007975 
2522.891328  	-0.007899 
2524.820144  	-0.007738 
2526.748960  	-0.007777 
2528.677776  	-0.007836 
2530.606592  	-0.007692 
2532.535408  	-0.007565 
2534.464224  	-0.007738 
2536.393040  	-0.007868 
2538.321856  	-0.007760 
2540.250672  	-0.007630 
2542.179488  	-0.007542 
2544.108304  	-0.007371 
2546.037120  	-0.007229 
2547.965936  	-0.007123 
2549.894752  	-0.007018 
2551.823568  	-0.007006 
2553.752384  	-0.006866 
2555.681200  	-0.006943 
2557.610016  	-0.007085 
2559.538832  	-0.007103 
2561.467648  	-0.006847 
2563.396464  	-0.006750 
2565.325280  	-0.006923 
2567.254096  	-0.007061 
2569.182912  	-0.007061 
2571.111728  	-0.006859 
2573.040544  	-0.006842 
2574.969360  	-0.006703 
2576.898176  	-0.006518 
2578.826992  	-0.006585 
2580.755808  	-0.006573 
2582.684624  	-0.006297 
2584.613440  	-0.006272 
2586.542256  	-0.006155 
2588.471072  	-0.006229 
2590.399888  	-0.006437 
2592.328704  	-0.006328 
2594.257520  	-0.006074 
2596.186336  	-0.006160 
2598.115152  	-0.006301 
2600.043968  	-0.006212 
2601.972784  	-0.006091 
2603.901600  	-0.005900 
2605.830416  	-0.005914 
2607.759232  	-0.005963 
2609.688048  	-0.005970 
2611.616864  	-0.005782 
2613.545680  	-0.005721 
2615.474496  	-0.005610 
2617.403312  	-0.005362 
2619.332128  	-0.005294 
2621.260944  	-0.005424 
2623.189760  	-0.005462 
2625.118576  	-0.005343 
2627.047392  	-0.005313 
2628.976208  	-0.005215 
2630.905024  	-0.005094 
2632.833840  	-0.005105 
2634.762656  	-0.005134 
2636.691472  	-0.005034 
2638.620288  	-0.005004 
2640.549104  	-0.004910 
2642.477920  	-0.004737 
2644.406736  	-0.004792 
2646.335552  	-0.004837 
2648.264368  	-0.004770 
2650.193184  	-0.004604 
2652.122000  	-0.004444 
2654.050816  	-0.004395 
2655.979632  	-0.004421 
2657.908448  	-0.004438 
2659.837264  	-0.004385 
2661.766080  	-0.004300 
2663.694896  	-0.004301 
2665.623712  	-0.004335 
2667.552528  	-0.004242 
2669.481344  	-0.004183 
2671.410160  	-0.004159 
2673.338976  	-0.004064 
2675.267792  	-0.003884 
2677.196608  	-0.003741 
2679.125424  	-0.003697 
2681.054240  	-0.003662 
2682.983056  	-0.003596 
2684.911872  	-0.003553 
2686.840688  	-0.003556 
2688.769504  	-0.003559 
2690.698320  	-0.003501 
2692.627136  	-0.003403 
2694.555952  	-0.003366 
2696.484768  	-0.003331 
2698.413584  	-0.003235 
2700.342400  	-0.003258 
2702.271216  	-0.003239 
2704.200032  	-0.003128 
2706.128848  	-0.002997 
2708.057664  	-0.002872 
2709.986480  	-0.002880 
2711.915296  	-0.002861 
2713.844112  	-0.002709 
2715.772928  	-0.002659 
2717.701744  	-0.002671 
2719.630560  	-0.002517 
2721.559376  	-0.002401 
2723.488192  	-0.002370 
2725.417008  	-0.002263 
2727.345824  	-0.002159 
2729.274640  	-0.002011 
2731.203456  	-0.002019 
2733.132272  	-0.002034 
2735.061088  	-0.002000 
2736.989904  	-0.002012 
2738.918720  	-0.001928 
2740.847536  	-0.001800 
2742.776352  	-0.001726 
2744.705168  	-0.001653 
2746.633984  	-0.001701 
2748.562800  	-0.001548 
2750.491616  	-0.001413 
2752.420432  	-0.001480 
2754.349248  	-0.001586 
2756.278064  	-0.001596 
2758.206880  	-0.001630 
2760.135696  	-0.001625 
2762.064512  	-0.001699 
2763.993328  	-0.001662 
2765.922144  	-0.001541 
2767.850960  	-0.001545 
2769.779776  	-0.001523 
2771.708592  	-0.001530 
2773.637408  	-0.001520 
2775.566224  	-0.001501 
2777.495040  	-0.001556 
2779.423856  	-0.001502 
2781.352672  	-0.001393 
2783.281488  	-0.001372 
2785.210304  	-0.001409 
2787.139120  	-0.001341 
2789.067936  	-0.001386 
2790.996752  	-0.001469 
2792.925568  	-0.001533 
2794.854384  	-0.001546 
2796.783200  	-0.001462 
2798.712016  	-0.001419 
2800.640832  	-0.001424 
2802.569648  	-0.001344 
2804.498464  	-0.001290 
2806.427280  	-0.001223 
2808.356096  	-0.001107 
2810.284912  	-0.001173 
2812.213728  	-0.001323 
2814.142544  	-0.001355 
2816.071360  	-0.001425 
2818.000176  	-0.001371 
2819.928992  	-0.001204 
2821.857808  	-0.001311 
2823.786624  	-0.001451 
2825.715440  	-0.001392 
2827.644256  	-0.001391 
2829.573072  	-0.001452 
2831.501888  	-0.001438 
2833.430704  	-0.001384 
2835.359520  	-0.001342 
2837.288336  	-0.001387 
2839.217152  	-0.001488 
2841.145968  	-0.001545 
2843.074784  	-0.001614 
2845.003600  	-0.001726 
2846.932416  	-0.001811 
2848.861232  	-0.001705 
2850.790048  	-0.001643 
2852.718864  	-0.001638 
2854.647680  	-0.001716 
2856.576496  	-0.001800 
2858.505312  	-0.001862 
2860.434128  	-0.001831 
2862.362944  	-0.001914 
2864.291760  	-0.002004 
2866.220576  	-0.001989 
2868.149392  	-0.002027 
2870.078208  	-0.002073 
2872.007024  	-0.001871 
2873.935840  	-0.001767 
2875.864656  	-0.001773 
2877.793472  	-0.001662 
2879.722288  	-0.001450 
2881.651104  	-0.001344 
2883.579920  	-0.001220 
2885.508736  	-0.001054 
2887.437552  	-0.000980 
2889.366368  	-0.000992 
2891.295184  	-0.000909 
2893.224000  	-0.000850 
2895.152816  	-0.000747 
2897.081632  	-0.000754 
2899.010448  	-0.001097 
2900.939264  	-0.001434 
2902.868080  	-0.001233 
2904.796896  	-0.000868 
2906.725712  	-0.000782 
2908.654528  	-0.000673 
2910.583344  	-0.000429 
2912.512160  	-0.000272 
2914.440976  	0.000020 
2916.369792  	0.000485 
2918.298608  	0.000737 
2920.227424  	0.000873 
2922.156240  	0.001108 
2924.085056  	0.001368 
2926.013872  	0.001539 
2927.942688  	0.001881 
2929.871504  	0.002417 
2931.800320  	0.002757 
2933.729136  	0.003079 
2935.657952  	0.003397 
2937.586768  	0.003604 
2939.515584  	0.003760 
2941.444400  	0.003884 
2943.373216  	0.004066 
2945.302032  	0.004395 
2947.230848  	0.004556 
2949.159664  	0.004410 
2951.088480  	0.004152 
2953.017296  	0.004038 
2954.946112  	0.003969 
2956.874928  	0.003976 
2958.803744  	0.003872 
2960.732560  	0.003690 
2962.661376  	0.003641 
2964.590192  	0.003520 
2966.519008  	0.003243 
2968.447824  	0.002936 
2970.376640  	0.002708 
2972.305456  	0.002544 
2974.234272  	0.002749 
2976.163088  	0.002844 
2978.091904  	0.002674 
2980.020720  	0.002612 
2981.949536  	0.002633 
2983.878352  	0.002584 
2985.807168  	0.002335 
2987.735984  	0.002207 
2989.664800  	0.002339 
2991.593616  	0.002865 
2993.522432  	0.003200 
2995.451248  	0.003352 
2997.380064  	0.003542 
2999.308880  	0.003840 
3001.237696  	0.004161 
3003.166512  	0.004579 
3005.095328  	0.004914 
3007.024144  	0.005078 
3008.952960  	0.005505 
3010.881776  	0.006079 
3012.810592  	0.006580 
3014.739408  	0.006902 
3016.668224  	0.007124 
3018.597040  	0.007330 
3020.525856  	0.007657 
3022.454672  	0.007910 
3024.383488  	0.008222 
3026.312304  	0.008637 
3028.241120  	0.008899 
3030.169936  	0.009282 
3032.098752  	0.009797 
3034.027568  	0.009931 
3035.956384  	0.010153 
3037.885200  	0.010398 
3039.814016  	0.010709 
3041.742832  	0.010898 
3043.671648  	0.011234 
3045.600464  	0.011658 
3047.529280  	0.011929 
3049.458096  	0.012109 
3051.386912  	0.012197 
3053.315728  	0.012419 
3055.244544  	0.012735 
3057.173360  	0.013225 
3059.102176  	0.013568 
3061.030992  	0.013876 
3062.959808  	0.014201 
3064.888624  	0.014688 
3066.817440  	0.015032 
3068.746256  	0.015203 
3070.675072  	0.015513 
3072.603888  	0.015955 
3074.532704  	0.016366 
3076.461520  	0.016776 
3078.390336  	0.017139 
3080.319152  	0.017623 
3082.247968  	0.018007 
3084.176784  	0.018259 
3086.105600  	0.018618 
3088.034416  	0.019116 
3089.963232  	0.019294 
3091.892048  	0.019521 
3093.820864  	0.019835 
3095.749680  	0.020320 
3097.678496  	0.020777 
3099.607312  	0.021240 
3101.536128  	0.021794 
3103.464944  	0.021990 
3105.393760  	0.022161 
3107.322576  	0.022746 
3109.251392  	0.023235 
3111.180208  	0.023256 
3113.109024  	0.023340 
3115.037840  	0.023799 
3116.966656  	0.024556 
3118.895472  	0.024961 
3120.824288  	0.025101 
3122.753104  	0.025478 
3124.681920  	0.025723 
3126.610736  	0.025919 
3128.539552  	0.026117 
3130.468368  	0.026254 
3132.397184  	0.026719 
3134.326000  	0.027013 
3136.254816  	0.027105 
3138.183632  	0.027442 
3140.112448  	0.027804 
3142.041264  	0.028139 
3143.970080  	0.028511 
3145.898896  	0.028737 
3147.827712  	0.028870 
3149.756528  	0.029351 
3151.685344  	0.029696 
3153.614160  	0.029859 
3155.542976  	0.030083 
3157.471792  	0.030446 
3159.400608  	0.030710 
3161.329424  	0.030973 
3163.258240  	0.031380 
3165.187056  	0.031579 
3167.115872  	0.031589 
3169.044688  	0.032042 
3170.973504  	0.032358 
3172.902320  	0.032412 
3174.831136  	0.032477 
3176.759952  	0.032756 
3178.688768  	0.033148 
3180.617584  	0.033211 
3182.546400  	0.033257 
3184.475216  	0.033468 
3186.404032  	0.033614 
3188.332848  	0.033596 
3190.261664  	0.033607 
3192.190480  	0.033725 
3194.119296  	0.033771 
3196.048112  	0.033739 
3197.976928  	0.034281 
3199.905744  	0.034415 
3201.834560  	0.034142 
3203.763376  	0.034016 
3205.692192  	0.033887 
3207.621008  	0.033890 
3209.549824  	0.034182 
3211.478640  	0.034169 
3213.407456  	0.033947 
3215.336272  	0.034001 
3217.265088  	0.033945 
3219.193904  	0.034135 
3221.122720  	0.034299 
3223.051536  	0.034104 
3224.980352  	0.033856 
3226.909168  	0.033722 
3228.837984  	0.033470 
3230.766800  	0.033248 
3232.695616  	0.033467 
3234.624432  	0.033545 
3236.553248  	0.033562 
3238.482064  	0.033623 
3240.410880  	0.033466 
3242.339696  	0.033377 
3244.268512  	0.033600 
3246.197328  	0.033714 
3248.126144  	0.033467 
3250.054960  	0.033707 
3251.983776  	0.033913 
3253.912592  	0.034153 
3255.841408  	0.034257 
3257.770224  	0.034228 
3259.699040  	0.034352 
3261.627856  	0.034639 
3263.556672  	0.034544 
3265.485488  	0.034542 
3267.414304  	0.034549 
3269.343120  	0.034645 
3271.271936  	0.034733 
3273.200752  	0.034982 
3275.129568  	0.035162 
3277.058384  	0.035206 
3278.987200  	0.035141 
3280.916016  	0.035214 
3282.844832  	0.035343 
3284.773648  	0.035478 
3286.702464  	0.035456 
3288.631280  	0.035586 
3290.560096  	0.035695 
3292.488912  	0.035820 
3294.417728  	0.035958 
3296.346544  	0.035983 
3298.275360  	0.036136 
3300.204176  	0.036183 
3302.132992  	0.036061 
3304.061808  	0.036281 
3305.990624  	0.036400 
3307.919440  	0.036691 
3309.848256  	0.036963 
3311.777072  	0.036936 
3313.705888  	0.037137 
3315.634704  	0.037180 
3317.563520  	0.037373 
3319.492336  	0.037674 
3321.421152  	0.037916 
3323.349968  	0.038077 
3325.278784  	0.038036 
3327.207600  	0.038068 
3329.136416  	0.037877 
3331.065232  	0.037774 
3332.994048  	0.037988 
3334.922864  	0.038281 
3336.851680  	0.038420 
3338.780496  	0.038272 
3340.709312  	0.038019 
3342.638128  	0.038131 
3344.566944  	0.037943 
3346.495760  	0.037517 
3348.424576  	0.037408 
3350.353392  	0.037480 
3352.282208  	0.037313 
3354.211024  	0.037281 
3356.139840  	0.037300 
3358.068656  	0.037051 
3359.997472  	0.036641 
3361.926288  	0.036526 
3363.855104  	0.036403 
3365.783920  	0.036481 
3367.712736  	0.036347 
3369.641552  	0.035980 
3371.570368  	0.035660 
3373.499184  	0.035718 
3375.428000  	0.035706 
3377.356816  	0.035537 
3379.285632  	0.035468 
3381.214448  	0.035300 
3383.143264  	0.035077 
3385.072080  	0.035207 
3387.000896  	0.034871 
3388.929712  	0.034322 
3390.858528  	0.034030 
3392.787344  	0.034564 
3394.716160  	0.034334 
3396.644976  	0.034210 
3398.573792  	0.034064 
3400.502608  	0.033248 
3402.431424  	0.032821 
3404.360240  	0.032635 
3406.289056  	0.032264 
3408.217872  	0.031993 
3410.146688  	0.031870 
3412.075504  	0.031553 
3414.004320  	0.031458 
3415.933136  	0.031375 
3417.861952  	0.031045 
3419.790768  	0.031313 
3421.719584  	0.031681 
3423.648400  	0.031052 
3425.577216  	0.030178 
3427.506032  	0.029693 
3429.434848  	0.029380 
3431.363664  	0.029461 
3433.292480  	0.029333 
3435.221296  	0.028973 
3437.150112  	0.028488 
3439.078928  	0.028039 
3441.007744  	0.027916 
3442.936560  	0.028184 
3444.865376  	0.027575 
3446.794192  	0.028137 
3448.723008  	0.028191 
3450.651824  	0.026785 
3452.580640  	0.026229 
3454.509456  	0.025921 
3456.438272  	0.025574 
3458.367088  	0.025210 
3460.295904  	0.025198 
3462.224720  	0.025322 
3464.153536  	0.024670 
3466.082352  	0.023949 
3468.011168  	0.023728 
3469.939984  	0.023405 
3471.868800  	0.022871 
3473.797616  	0.022228 
3475.726432  	0.021958 
3477.655248  	0.021253 
3479.584064  	0.021014 
3481.512880  	0.021649 
3483.441696  	0.021432 
3485.370512  	0.020115 
3487.299328  	0.019757 
3489.228144  	0.019457 
3491.156960  	0.018608 
3493.085776  	0.018135 
3495.014592  	0.018184 
3496.943408  	0.018216 
3498.872224  	0.017409 
3500.801040  	0.017400 
3502.729856  	0.018402 
3504.658672  	0.018143 
3506.587488  	0.016298 
3508.516304  	0.016167 
3510.445120  	0.016684 
3512.373936  	0.015593 
3514.302752  	0.014818 
3516.231568  	0.014381 
3518.160384  	0.014141 
3520.089200  	0.013512 
3522.018016  	0.013736 
3523.946832  	0.015126 
3525.875648  	0.014732 
3527.804464  	0.014326 
3529.733280  	0.013682 
3531.662096  	0.012328 
3533.590912  	0.011123 
3535.519728  	0.011454 
3537.448544  	0.011544 
3539.377360  	0.010131 
3541.306176  	0.009552 
3543.234992  	0.010371 
3545.163808  	0.012415 
3547.092624  	0.012706 
3549.021440  	0.010205 
3550.950256  	0.008983 
3552.879072  	0.009948 
3554.807888  	0.008608 
3556.736704  	0.007016 
3558.665520  	0.007174 
3560.594336  	0.007911 
3562.523152  	0.007374 
3564.451968  	0.007857 
3566.380784  	0.011918 
3568.309600  	0.012921 
3570.238416  	0.008081 
3572.167232  	0.005253 
3574.096048  	0.004582 
3576.024864  	0.004390 
3577.953680  	0.004038 
3579.882496  	0.003854 
3581.811312  	0.003129 
3583.740128  	0.002485 
3585.668944  	0.003307 
3587.597760  	0.007156 
3589.526576  	0.005483 
3591.455392  	0.001596 
3593.384208  	0.001652 
3595.313024  	0.002780 
3597.241840  	0.001857 
3599.170656  	0.000739 
3601.099472  	0.000705 
3603.028288  	-0.000611 
3604.957104  	-0.002074 
3606.885920  	-0.000718 
3608.814736  	0.001185 
3610.743552  	-0.000366 
3612.672368  	-0.000294 
3614.601184  	-0.000022 
3616.530000  	-0.001820 
3618.458816  	-0.001002 
3620.387632  	-0.000774 
3622.316448  	-0.003793 
3624.245264  	-0.005798 
3626.174080  	-0.006112 
3628.102896  	-0.003378 
3630.031712  	-0.000434 
3631.960528  	-0.004996 
3633.889344  	-0.006841 
3635.818160  	-0.007981 
3637.746976  	-0.008870 
3639.675792  	-0.009144 
3641.604608  	-0.009159 
3643.533424  	-0.009549 
3645.462240  	-0.009650 
3647.391056  	-0.006073 
3649.319872  	-0.003152 
3651.248688  	-0.004884 
3653.177504  	-0.009886 
3655.106320  	-0.011516 
3657.035136  	-0.010692 
3658.963952  	-0.012308 
3660.892768  	-0.013391 
3662.821584  	-0.014004 
3664.750400  	-0.014356 
3666.679216  	-0.014288 
3668.608032  	-0.012744 
3670.536848  	-0.010068 
3672.465664  	-0.012066 
3674.394480  	-0.011905 
3676.323296  	-0.008487 
3678.252112  	-0.011180 
3680.180928  	-0.012946 
3682.109744  	-0.014734 
3684.038560  	-0.015279 
3685.967376  	-0.015264 
3687.896192  	-0.013589 
3689.825008  	-0.011106 
3691.753824  	-0.012158 
3693.682640  	-0.014138 
3695.611456  	-0.015004 
3697.540272  	-0.015196 
3699.469088  	-0.015655 
3701.397904  	-0.014543 
3703.326720  	-0.014062 
3705.255536  	-0.014870 
3707.184352  	-0.014938 
3709.113168  	-0.013698 
3711.041984  	-0.010830 
3712.970800  	-0.010779 
3714.899616  	-0.013391 
3716.828432  	-0.014913 
3718.757248  	-0.014376 
3720.686064  	-0.013901 
3722.614880  	-0.012840 
3724.543696  	-0.012335 
3726.472512  	-0.011779 
3728.401328  	-0.013451 
3730.330144  	-0.015166 
3732.258960  	-0.013759 
3734.187776  	-0.010072 
3736.116592  	-0.007096 
3738.045408  	-0.010286 
3739.974224  	-0.012262 
3741.903040  	-0.013114 
3743.831856  	-0.012327 
3745.760672  	-0.010184 
3747.689488  	-0.011991 
3749.618304  	-0.010430 
3751.547120  	-0.007997 
3753.475936  	-0.010269 
3755.404752  	-0.012984 
3757.333568  	-0.013173 
3759.262384  	-0.012375 
3761.191200  	-0.013268 
3763.120016  	-0.014955 
3765.048832  	-0.013901 
3766.977648  	-0.013606 
3768.906464  	-0.013856 
3770.835280  	-0.013382 
3772.764096  	-0.014740 
3774.692912  	-0.015772 
3776.621728  	-0.015876 
3778.550544  	-0.014706 
3780.479360  	-0.013916 
3782.408176  	-0.014937 
3784.336992  	-0.014547 
3786.265808  	-0.014383 
3788.194624  	-0.015228 
3790.123440  	-0.015638 
3792.052256  	-0.015860 
3793.981072  	-0.016079 
3795.909888  	-0.014353 
3797.838704  	-0.012953 
3799.767520  	-0.013459 
3801.696336  	-0.011043 
3803.625152  	-0.012662 
3805.553968  	-0.014621 
3807.482784  	-0.013455 
3809.411600  	-0.014542 
3811.340416  	-0.015590 
3813.269232  	-0.015890 
3815.198048  	-0.014185 
3817.126864  	-0.012141 
3819.055680  	-0.012942 
3820.984496  	-0.010887 
3822.913312  	-0.011661 
3824.842128  	-0.014128 
3826.770944  	-0.013976 
3828.699760  	-0.014590 
3830.628576  	-0.014957 
3832.557392  	-0.014276 
3834.486208  	-0.014164 
3836.415024  	-0.013270 
3838.343840  	-0.011117 
3840.272656  	-0.010559 
3842.201472  	-0.012066 
3844.130288  	-0.012755 
3846.059104  	-0.014161 
3847.987920  	-0.015114 
3849.916736  	-0.014661 
3851.845552  	-0.012584 
3853.774368  	-0.007710 
3855.703184  	-0.009793 
3857.632000  	-0.012557 
3859.560816  	-0.014229 
3861.489632  	-0.013571 
3863.418448  	-0.012037 
3865.347264  	-0.011258 
3867.276080  	-0.013215 
3869.204896  	-0.011868 
3871.133712  	-0.010182 
3873.062528  	-0.012281 
3874.991344  	-0.012760 
3876.920160  	-0.014987 
3878.848976  	-0.014763 
3880.777792  	-0.011862 
3882.706608  	-0.012410 
3884.635424  	-0.012903 
3886.564240  	-0.012537 
3888.493056  	-0.015036 
3890.421872  	-0.014695 
3892.350688  	-0.012867 
3894.279504  	-0.013992 
3896.208320  	-0.015235 
3898.137136  	-0.014150 
3900.065952  	-0.011642 
3901.994768  	-0.010772 
3903.923584  	-0.010369 
3905.852400  	-0.011680 
3907.781216  	-0.014528 
3909.710032  	-0.016102 
3911.638848  	-0.016426 
3913.567664  	-0.016251 
3915.496480  	-0.014814 
3917.425296  	-0.012882 
3919.354112  	-0.013230 
3921.282928  	-0.013938 
3923.211744  	-0.013792 
3925.140560  	-0.013119 
3927.069376  	-0.014643 
3928.998192  	-0.014785 
3930.927008  	-0.013375 
3932.855824  	-0.012976 
3934.784640  	-0.014549 
3936.713456  	-0.015467 
3938.642272  	-0.015663 
3940.571088  	-0.015564 
3942.499904  	-0.013902 
3944.428720  	-0.014009 
3946.357536  	-0.014843 
3948.286352  	-0.013766 
3950.215168  	-0.014077 
3952.143984  	-0.015381 
3954.072800  	-0.016030 
3956.001616  	-0.015797 
3957.930432  	-0.015300 
3959.859248  	-0.015065 
3961.788064  	-0.014950 
3963.716880  	-0.015370 
3965.645696  	-0.015980 
3967.574512  	-0.016112 
3969.503328  	-0.015968 
3971.432144  	-0.015704 
3973.360960  	-0.015305 
3975.289776  	-0.014933 
3977.218592  	-0.015369 
3979.147408  	-0.015874 
3981.076224  	-0.015849 
3983.005040  	-0.015904 
3984.933856  	-0.015812 
3986.862672  	-0.015605 
3988.791488  	-0.015473 
3990.720304  	-0.015281 
3992.649120  	-0.015513 
3994.577936  	-0.015667 
3996.506752  	-0.015881 
3998.435568  	-0.016047 
4000.364384  	-0.016006 