##TITLE=No Description
##DATA TYPE=INFRARED SPECTRUM
##XUNITS=1/CM
##YUNITS=Abs
399.264912  	0.632987 
401.193728  	0.619302 
403.122544  	0.615574 
405.051360  	0.610329 
406.980176  	0.611297 
408.908992  	0.593553 
410.837808  	0.601232 
412.766624  	0.600169 
414.695440  	0.595699 
416.624256  	0.604119 
418.553072  	0.629467 
420.481888  	0.620063 
422.410704  	0.610077 
424.339520  	0.605692 
426.268336  	0.598900 
428.197152  	0.584536 
430.125968  	0.576884 
432.054784  	0.566630 
433.983600  	0.571385 
435.912416  	0.568722 
437.841232  	0.565691 
439.770048  	0.560227 
441.698864  	0.564038 
443.627680  	0.557385 
445.556496  	0.554412 
447.485312  	0.554886 
449.414128  	0.556687 
451.342944  	0.553916 
453.271760  	0.557039 
455.200576  	0.555066 
457.129392  	0.553723 
459.058208  	0.547255 
460.987024  	0.554824 
462.915840  	0.553065 
464.844656  	0.555583 
466.773472  	0.556750 
468.702288  	0.554612 
470.631104  	0.553276 
472.559920  	0.557777 
474.488736  	0.552904 
476.417552  	0.553290 
478.346368  	0.548832 
480.275184  	0.545786 
482.204000  	0.541830 
484.132816  	0.545990 
486.061632  	0.542861 
487.990448  	0.542667 
489.919264  	0.544221 
491.848080  	0.543292 
493.776896  	0.535087 
495.705712  	0.534155 
497.634528  	0.531949 
499.563344  	0.532432 
501.492160  	0.534825 
503.420976  	0.534501 
505.349792  	0.528027 
507.278608  	0.528603 
509.207424  	0.529222 
511.136240  	0.533655 
513.065056  	0.532466 
514.993872  	0.535553 
516.922688  	0.537665 
518.851504  	0.538831 
520.780320  	0.539286 
522.709136  	0.540226 
524.637952  	0.537195 
526.566768  	0.535071 
528.495584  	0.530240 
530.424400  	0.526055 
532.353216  	0.521065 
534.282032  	0.517592 
536.210848  	0.511789 
538.139664  	0.507095 
540.068480  	0.500878 
541.997296  	0.496872 
543.926112  	0.493914 
545.854928  	0.492307 
547.783744  	0.488028 
549.712560  	0.485707 
551.641376  	0.481396 
553.570192  	0.479496 
555.499008  	0.475803 
557.427824  	0.473105 
559.356640  	0.469982 
561.285456  	0.468097 
563.214272  	0.463739 
565.143088  	0.459426 
567.071904  	0.455359 
569.000720  	0.453156 
570.929536  	0.450425 
572.858352  	0.448391 
574.787168  	0.445142 
576.715984  	0.441828 
578.644800  	0.437732 
580.573616  	0.434585 
582.502432  	0.429131 
584.431248  	0.425078 
586.360064  	0.420947 
588.288880  	0.417673 
590.217696  	0.415238 
592.146512  	0.413864 
594.075328  	0.411023 
596.004144  	0.409137 
597.932960  	0.407937 
599.861776  	0.406929 
601.790592  	0.404383 
603.719408  	0.402844 
605.648224  	0.401186 
607.577040  	0.399680 
609.505856  	0.397932 
611.434672  	0.396682 
613.363488  	0.394600 
615.292304  	0.394221 
617.221120  	0.392575 
619.149936  	0.390176 
621.078752  	0.388129 
623.007568  	0.387171 
624.936384  	0.386120 
626.865200  	0.384589 
628.794016  	0.382682 
630.722832  	0.382974 
632.651648  	0.383095 
634.580464  	0.382412 
636.509280  	0.382723 
638.438096  	0.382783 
640.366912  	0.381359 
642.295728  	0.380036 
644.224544  	0.377384 
646.153360  	0.373969 
648.082176  	0.370027 
650.010992  	0.366611 
651.939808  	0.362986 
653.868624  	0.360163 
655.797440  	0.356160 
657.726256  	0.352275 
659.655072  	0.347743 
661.583888  	0.342988 
663.512704  	0.338684 
665.441520  	0.335891 
667.370336  	0.333910 
669.299152  	0.329008 
671.227968  	0.322606 
673.156784  	0.318281 
675.085600  	0.315297 
677.014416  	0.312496 
678.943232  	0.309657 
680.872048  	0.307804 
682.800864  	0.306085 
684.729680  	0.304730 
686.658496  	0.302819 
688.587312  	0.301013 
690.516128  	0.299467 
692.444944  	0.298647 
694.373760  	0.296707 
696.302576  	0.294876 
698.231392  	0.292553 
700.160208  	0.289892 
702.089024  	0.287531 
704.017840  	0.284911 
705.946656  	0.282292 
707.875472  	0.280047 
709.804288  	0.277244 
711.733104  	0.275092 
713.661920  	0.273116 
715.590736  	0.271828 
717.519552  	0.270983 
719.448368  	0.271053 
721.377184  	0.271260 
723.306000  	0.271490 
725.234816  	0.271474 
727.163632  	0.270314 
729.092448  	0.267452 
731.021264  	0.264112 
732.950080  	0.260516 
734.878896  	0.256865 
736.807712  	0.253578 
738.736528  	0.250959 
740.665344  	0.248880 
742.594160  	0.247292 
744.522976  	0.245397 
746.451792  	0.243871 
748.380608  	0.241995 
750.309424  	0.240665 
752.238240  	0.239513 
754.167056  	0.238642 
756.095872  	0.237467 
758.024688  	0.235952 
759.953504  	0.235241 
761.882320  	0.235835 
763.811136  	0.236291 
765.739952  	0.234714 
767.668768  	0.231015 
769.597584  	0.227743 
771.526400  	0.226564 
773.455216  	0.227545 
775.384032  	0.230374 
777.312848  	0.235267 
779.241664  	0.239124 
781.170480  	0.238238 
783.099296  	0.232848 
785.028112  	0.226179 
786.956928  	0.220251 
788.885744  	0.215496 
790.814560  	0.211638 
792.743376  	0.209530 
794.672192  	0.208503 
796.601008  	0.207197 
798.529824  	0.203681 
800.458640  	0.199068 
802.387456  	0.195551 
804.316272  	0.193195 
806.245088  	0.191973 
808.173904  	0.191100 
810.102720  	0.190262 
812.031536  	0.189802 
813.960352  	0.189448 
815.889168  	0.189140 
817.817984  	0.189531 
819.746800  	0.190548 
821.675616  	0.191288 
823.604432  	0.191774 
825.533248  	0.192131 
827.462064  	0.192139 
829.390880  	0.191351 
831.319696  	0.190539 
833.248512  	0.189221 
835.177328  	0.187227 
837.106144  	0.184171 
839.034960  	0.180695 
840.963776  	0.176598 
842.892592  	0.172400 
844.821408  	0.168267 
846.750224  	0.164456 
848.679040  	0.161198 
850.607856  	0.158575 
852.536672  	0.156965 
854.465488  	0.155688 
856.394304  	0.154644 
858.323120  	0.153190 
860.251936  	0.151692 
862.180752  	0.150183 
864.109568  	0.147932 
866.038384  	0.145402 
867.967200  	0.143042 
869.896016  	0.141239 
871.824832  	0.140325 
873.753648  	0.140393 
875.682464  	0.141020 
877.611280  	0.142420 
879.540096  	0.144321 
881.468912  	0.146612 
883.397728  	0.148959 
885.326544  	0.150679 
887.255360  	0.151714 
889.184176  	0.151763 
891.112992  	0.150910 
893.041808  	0.149537 
894.970624  	0.146935 
896.899440  	0.142734 
898.828256  	0.137515 
900.757072  	0.132569 
902.685888  	0.128492 
904.614704  	0.125754 
906.543520  	0.124831 
908.472336  	0.125873 
910.401152  	0.127803 
912.329968  	0.130294 
914.258784  	0.132945 
916.187600  	0.135412 
918.116416  	0.137392 
920.045232  	0.138806 
921.974048  	0.139833 
923.902864  	0.140744 
925.831680  	0.141354 
927.760496  	0.142156 
929.689312  	0.143084 
931.618128  	0.144346 
933.546944  	0.145193 
935.475760  	0.145400 
937.404576  	0.144980 
939.333392  	0.143879 
941.262208  	0.143052 
943.191024  	0.143505 
945.119840  	0.145847 
947.048656  	0.150467 
948.977472  	0.157936 
950.906288  	0.167803 
952.835104  	0.179860 
954.763920  	0.193705 
956.692736  	0.207922 
958.621552  	0.221336 
960.550368  	0.231713 
962.479184  	0.238127 
964.408000  	0.239368 
966.336816  	0.235752 
968.265632  	0.227408 
970.194448  	0.215308 
972.123264  	0.200381 
974.052080  	0.184346 
975.980896  	0.168525 
977.909712  	0.153715 
979.838528  	0.140750 
981.767344  	0.129901 
983.696160  	0.121590 
985.624976  	0.115869 
987.553792  	0.113265 
989.482608  	0.113833 
991.411424  	0.117230 
993.340240  	0.122648 
995.269056  	0.129093 
997.197872  	0.136269 
999.126688  	0.143606 
1001.055504  	0.151099 
1002.984320  	0.158398 
1004.913136  	0.165939 
1006.841952  	0.173334 
1008.770768  	0.180285 
1010.699584  	0.186100 
1012.628400  	0.190634 
1014.557216  	0.193748 
1016.486032  	0.195253 
1018.414848  	0.195675 
1020.343664  	0.195687 
1022.272480  	0.195496 
1024.201296  	0.195073 
1026.130112  	0.194363 
1028.058928  	0.194782 
1029.987744  	0.196794 
1031.916560  	0.199578 
1033.845376  	0.203150 
1035.774192  	0.208229 
1037.703008  	0.215317 
1039.631824  	0.225635 
1041.560640  	0.239294 
1043.489456  	0.256842 
1045.418272  	0.276901 
1047.347088  	0.296931 
1049.275904  	0.312791 
1051.204720  	0.322375 
1053.133536  	0.325285 
1055.062352  	0.323751 
1056.991168  	0.319917 
1058.919984  	0.317110 
1060.848800  	0.315020 
1062.777616  	0.313658 
1064.706432  	0.311424 
1066.635248  	0.308620 
1068.564064  	0.304009 
1070.492880  	0.297402 
1072.421696  	0.290369 
1074.350512  	0.286163 
1076.279328  	0.286065 
1078.208144  	0.291111 
1080.136960  	0.298433 
1082.065776  	0.304907 
1083.994592  	0.306739 
1085.923408  	0.303522 
1087.852224  	0.295206 
1089.781040  	0.284057 
1091.709856  	0.270603 
1093.638672  	0.255710 
1095.567488  	0.239628 
1097.496304  	0.223282 
1099.425120  	0.207123 
1101.353936  	0.192025 
1103.282752  	0.177681 
1105.211568  	0.164507 
1107.140384  	0.152734 
1109.069200  	0.142152 
1110.998016  	0.132464 
1112.926832  	0.123590 
1114.855648  	0.115777 
1116.784464  	0.108256 
1118.713280  	0.100991 
1120.642096  	0.094154 
1122.570912  	0.087762 
1124.499728  	0.081646 
1126.428544  	0.076577 
1128.357360  	0.071998 
1130.286176  	0.068001 
1132.214992  	0.064891 
1134.143808  	0.062671 
1136.072624  	0.060915 
1138.001440  	0.059062 
1139.930256  	0.057345 
1141.859072  	0.055850 
1143.787888  	0.053960 
1145.716704  	0.052201 
1147.645520  	0.050660 
1149.574336  	0.049681 
1151.503152  	0.048782 
1153.431968  	0.048576 
1155.360784  	0.048711 
1157.289600  	0.049559 
1159.218416  	0.050777 
1161.147232  	0.052536 
1163.076048  	0.054565 
1165.004864  	0.056448 
1166.933680  	0.058179 
1168.862496  	0.060182 
1170.791312  	0.062480 
1172.720128  	0.065287 
1174.648944  	0.068261 
1176.577760  	0.071071 
1178.506576  	0.074208 
1180.435392  	0.077480 
1182.364208  	0.080600 
1184.293024  	0.084355 
1186.221840  	0.088829 
1188.150656  	0.093876 
1190.079472  	0.099329 
1192.008288  	0.105906 
1193.937104  	0.113465 
1195.865920  	0.121988 
1197.794736  	0.131242 
1199.723552  	0.141294 
1201.652368  	0.151533 
1203.581184  	0.161445 
1205.510000  	0.170962 
1207.438816  	0.179676 
1209.367632  	0.187417 
1211.296448  	0.193936 
1213.225264  	0.198930 
1215.154080  	0.202206 
1217.082896  	0.204317 
1219.011712  	0.204892 
1220.940528  	0.204696 
1222.869344  	0.203459 
1224.798160  	0.201654 
1226.726976  	0.198846 
1228.655792  	0.195107 
1230.584608  	0.190591 
1232.513424  	0.185645 
1234.442240  	0.180278 
1236.371056  	0.174381 
1238.299872  	0.167585 
1240.228688  	0.160016 
1242.157504  	0.152500 
1244.086320  	0.145325 
1246.015136  	0.137798 
1247.943952  	0.130436 
1249.872768  	0.123150 
1251.801584  	0.116239 
1253.730400  	0.109688 
1255.659216  	0.103300 
1257.588032  	0.097197 
1259.516848  	0.091706 
1261.445664  	0.086485 
1263.374480  	0.081480 
1265.303296  	0.077275 
1267.232112  	0.074072 
1269.160928  	0.071884 
1271.089744  	0.070387 
1273.018560  	0.069477 
1274.947376  	0.069551 
1276.876192  	0.070453 
1278.805008  	0.071151 
1280.733824  	0.071119 
1282.662640  	0.069608 
1284.591456  	0.067534 
1286.520272  	0.065886 
1288.449088  	0.064915 
1290.377904  	0.064530 
1292.306720  	0.065262 
1294.235536  	0.066201 
1296.164352  	0.066307 
1298.093168  	0.064548 
1300.021984  	0.061805 
1301.950800  	0.058754 
1303.879616  	0.055635 
1305.808432  	0.052258 
1307.737248  	0.048713 
1309.666064  	0.045187 
1311.594880  	0.043045 
1313.523696  	0.041476 
1315.452512  	0.040044 
1317.381328  	0.039775 
1319.310144  	0.039838 
1321.238960  	0.039495 
1323.167776  	0.039868 
1325.096592  	0.040625 
1327.025408  	0.041051 
1328.954224  	0.040944 
1330.883040  	0.040256 
1332.811856  	0.038951 
1334.740672  	0.038195 
1336.669488  	0.038928 
1338.598304  	0.040895 
1340.527120  	0.039934 
1342.455936  	0.036621 
1344.384752  	0.035727 
1346.313568  	0.036204 
1348.242384  	0.037035 
1350.171200  	0.037979 
1352.100016  	0.039357 
1354.028832  	0.041549 
1355.957648  	0.043576 
1357.886464  	0.045372 
1359.815280  	0.048074 
1361.744096  	0.052415 
1363.672912  	0.054481 
1365.601728  	0.054094 
1367.530544  	0.056009 
1369.459360  	0.058055 
1371.388176  	0.059029 
1373.316992  	0.060680 
1375.245808  	0.059421 
1377.174624  	0.055799 
1379.103440  	0.052878 
1381.032256  	0.049728 
1382.961072  	0.047169 
1384.889888  	0.046231 
1386.818704  	0.046938 
1388.747520  	0.044513 
1390.676336  	0.041331 
1392.605152  	0.040152 
1394.533968  	0.041196 
1396.462784  	0.041633 
1398.391600  	0.041131 
1400.320416  	0.039552 
1402.249232  	0.038598 
1404.178048  	0.040308 
1406.106864  	0.040988 
1408.035680  	0.041293 
1409.964496  	0.043149 
1411.893312  	0.045366 
1413.822128  	0.047295 
1415.750944  	0.051005 
1417.679760  	0.055299 
1419.608576  	0.056104 
1421.537392  	0.053945 
1423.466208  	0.053985 
1425.395024  	0.051637 
1427.323840  	0.048921 
1429.252656  	0.047535 
1431.181472  	0.045422 
1433.110288  	0.044138 
1435.039104  	0.045441 
1436.967920  	0.047594 
1438.896736  	0.046686 
1440.825552  	0.046657 
1442.754368  	0.047262 
1444.683184  	0.047686 
1446.612000  	0.048929 
1448.540816  	0.049411 
1450.469632  	0.049064 
1452.398448  	0.049869 
1454.327264  	0.051540 
1456.256080  	0.055658 
1458.184896  	0.056076 
1460.113712  	0.050921 
1462.042528  	0.048464 
1463.971344  	0.049070 
1465.900160  	0.049355 
1467.828976  	0.048579 
1469.757792  	0.050188 
1471.686608  	0.056338 
1473.615424  	0.064055 
1475.544240  	0.066937 
1477.473056  	0.070056 
1479.401872  	0.072636 
1481.330688  	0.076705 
1483.259504  	0.079064 
1485.188320  	0.081664 
1487.117136  	0.085284 
1489.045952  	0.089003 
1490.974768  	0.085579 
1492.903584  	0.079868 
1494.832400  	0.076881 
1496.761216  	0.073441 
1498.690032  	0.066724 
1500.618848  	0.060274 
1502.547664  	0.055012 
1504.476480  	0.052762 
1506.405296  	0.056819 
1508.334112  	0.055813 
1510.262928  	0.048830 
1512.191744  	0.044268 
1514.120560  	0.043273 
1516.049376  	0.046307 
1517.978192  	0.047190 
1519.907008  	0.048356 
1521.835824  	0.054056 
1523.764640  	0.055204 
1525.693456  	0.057993 
1527.622272  	0.059269 
1529.551088  	0.057551 
1531.479904  	0.056664 
1533.408720  	0.056136 
1535.337536  	0.051192 
1537.266352  	0.048719 
1539.195168  	0.049713 
1541.123984  	0.048830 
1543.052800  	0.046085 
1544.981616  	0.042939 
1546.910432  	0.038051 
1548.839248  	0.037887 
1550.768064  	0.038828 
1552.696880  	0.037779 
1554.625696  	0.039821 
1556.554512  	0.041008 
1558.483328  	0.047251 
1560.412144  	0.047728 
1562.340960  	0.045770 
1564.269776  	0.047705 
1566.198592  	0.051515 
1568.127408  	0.055345 
1570.056224  	0.062349 
1571.985040  	0.065249 
1573.913856  	0.068472 
1575.842672  	0.073470 
1577.771488  	0.075932 
1579.700304  	0.073919 
1581.629120  	0.072972 
1583.557936  	0.072255 
1585.486752  	0.072970 
1587.415568  	0.075029 
1589.344384  	0.079424 
1591.273200  	0.084754 
1593.202016  	0.091698 
1595.130832  	0.099281 
1597.059648  	0.106739 
1598.988464  	0.113200 
1600.917280  	0.120161 
1602.846096  	0.125440 
1604.774912  	0.128810 
1606.703728  	0.130408 
1608.632544  	0.131044 
1610.561360  	0.129039 
1612.490176  	0.127285 
1614.418992  	0.126228 
1616.347808  	0.127664 
1618.276624  	0.127922 
1620.205440  	0.129582 
1622.134256  	0.133519 
1624.063072  	0.140359 
1625.991888  	0.145033 
1627.920704  	0.152839 
1629.849520  	0.160546 
1631.778336  	0.168285 
1633.707152  	0.176032 
1635.635968  	0.188888 
1637.564784  	0.197185 
1639.493600  	0.200896 
1641.422416  	0.204813 
1643.351232  	0.209107 
1645.280048  	0.212867 
1647.208864  	0.218269 
1649.137680  	0.216289 
1651.066496  	0.215356 
1652.995312  	0.216168 
1654.924128  	0.214549 
1656.852944  	0.210018 
1658.781760  	0.207145 
1660.710576  	0.204815 
1662.639392  	0.201901 
1664.568208  	0.196051 
1666.497024  	0.192405 
1668.425840  	0.189378 
1670.354656  	0.183336 
1672.283472  	0.176655 
1674.212288  	0.172521 
1676.141104  	0.167020 
1678.069920  	0.163557 
1679.998736  	0.163056 
1681.927552  	0.162380 
1683.856368  	0.162434 
1685.785184  	0.159160 
1687.714000  	0.157069 
1689.642816  	0.156078 
1691.571632  	0.153334 
1693.500448  	0.152319 
1695.429264  	0.153531 
1697.358080  	0.154553 
1699.286896  	0.152903 
1701.215712  	0.150711 
1703.144528  	0.147602 
1705.073344  	0.145788 
1707.002160  	0.140836 
1708.930976  	0.135287 
1710.859792  	0.129541 
1712.788608  	0.124040 
1714.717424  	0.118375 
1716.646240  	0.110431 
1718.575056  	0.094824 
1720.503872  	0.081296 
1722.432688  	0.071757 
1724.361504  	0.060811 
1726.290320  	0.051238 
1728.219136  	0.044866 
1730.147952  	0.040388 
1732.076768  	0.036070 
1734.005584  	0.032434 
1735.934400  	0.025006 
1737.863216  	0.022129 
1739.792032  	0.019598 
1741.720848  	0.017518 
1743.649664  	0.016954 
1745.578480  	0.015491 
1747.507296  	0.015085 
1749.436112  	0.015397 
1751.364928  	0.012970 
1753.293744  	0.009288 
1755.222560  	0.007839 
1757.151376  	0.008603 
1759.080192  	0.007287 
1761.009008  	0.007240 
1762.937824  	0.006179 
1764.866640  	0.004630 
1766.795456  	0.005170 
1768.724272  	0.006257 
1770.653088  	0.005932 
1772.581904  	0.006773 
1774.510720  	0.005162 
1776.439536  	0.003870 
1778.368352  	0.002970 
1780.297168  	0.003624 
1782.225984  	0.002645 
1784.154800  	0.002382 
1786.083616  	0.001585 
1788.012432  	0.001085 
1789.941248  	0.002541 
1791.870064  	0.004498 
1793.798880  	0.002939 
1795.727696  	0.002192 
1797.656512  	0.001203 
1799.585328  	0.001292 
1801.514144  	0.001958 
1803.442960  	0.000786 
1805.371776  	-0.000404 
1807.300592  	-0.000296 
1809.229408  	-0.000207 
1811.158224  	0.000068 
1813.087040  	-0.001051 
1815.015856  	-0.001872 
1816.944672  	-0.001410 
1818.873488  	-0.001227 
1820.802304  	-0.001299 
1822.731120  	-0.000583 
1824.659936  	0.000083 
1826.588752  	-0.000178 
1828.517568  	-0.000144 
1830.446384  	0.000359 
1832.375200  	-0.001401 
1834.304016  	-0.001665 
1836.232832  	-0.001342 
1838.161648  	-0.001110 
1840.090464  	-0.001655 
1842.019280  	-0.000915 
1843.948096  	0.000280 
1845.876912  	0.000293 
1847.805728  	-0.000785 
1849.734544  	-0.001884 
1851.663360  	-0.002795 
1853.592176  	-0.002629 
1855.520992  	-0.002608 
1857.449808  	-0.002238 
1859.378624  	-0.002531 
1861.307440  	-0.002449 
1863.236256  	-0.002955 
1865.165072  	-0.002396 
1867.093888  	-0.000769 
1869.022704  	0.000877 
1870.951520  	-0.001165 
1872.880336  	-0.002552 
1874.809152  	-0.003235 
1876.737968  	-0.003241 
1878.666784  	-0.003433 
1880.595600  	-0.003557 
1882.524416  	-0.003378 
1884.453232  	-0.002785 
1886.382048  	-0.003191 
1888.310864  	-0.002289 
1890.239680  	-0.001879 
1892.168496  	-0.002301 
1894.097312  	-0.002246 
1896.026128  	-0.002314 
1897.954944  	-0.003072 
1899.883760  	-0.003034 
1901.812576  	-0.003277 
1903.741392  	-0.003415 
1905.670208  	-0.003849 
1907.599024  	-0.003299 
1909.527840  	-0.002595 
1911.456656  	-0.002318 
1913.385472  	-0.002723 
1915.314288  	-0.002652 
1917.243104  	-0.002599 
1919.171920  	-0.002439 
1921.100736  	-0.002430 
1923.029552  	-0.001799 
1924.958368  	-0.003821 
1926.887184  	-0.004308 
1928.816000  	-0.004585 
1930.744816  	-0.004287 
1932.673632  	-0.003886 
1934.602448  	-0.002868 
1936.531264  	-0.003453 
1938.460080  	-0.003559 
1940.388896  	-0.002743 
1942.317712  	-0.000954 
1944.246528  	-0.002616 
1946.175344  	-0.003386 
1948.104160  	-0.003551 
1950.032976  	-0.002890 
1951.961792  	-0.003533 
1953.890608  	-0.004179 
1955.819424  	-0.004852 
1957.748240  	-0.004685 
1959.677056  	-0.005100 
1961.605872  	-0.004455 
1963.534688  	-0.005214 
1965.463504  	-0.003979 
1967.392320  	-0.003353 
1969.321136  	-0.003842 
1971.249952  	-0.005729 
1973.178768  	-0.006689 
1975.107584  	-0.006244 
1977.036400  	-0.003290 
1978.965216  	-0.002815 
1980.894032  	-0.003374 
1982.822848  	-0.003764 
1984.751664  	-0.003202 
1986.680480  	-0.003210 
1988.609296  	-0.002500 
1990.538112  	-0.002379 
1992.466928  	-0.001544 
1994.395744  	-0.003231 
1996.324560  	-0.003947 
1998.253376  	-0.003817 
2000.182192  	-0.003389 
2002.111008  	-0.005112 
2004.039824  	-0.005032 
2005.968640  	-0.005363 
2007.897456  	-0.004245 
2009.826272  	-0.003681 
2011.755088  	-0.003863 
2013.683904  	-0.004779 
2015.612720  	-0.003217 
2017.541536  	-0.002240 
2019.470352  	-0.002257 
2021.399168  	-0.003876 
2023.327984  	-0.003135 
2025.256800  	-0.002315 
2027.185616  	-0.001431 
2029.114432  	-0.002120 
2031.043248  	-0.001879 
2032.972064  	-0.002938 
2034.900880  	-0.002269 
2036.829696  	-0.002226 
2038.758512  	-0.001191 
2040.687328  	-0.001973 
2042.616144  	-0.002812 
2044.544960  	-0.003238 
2046.473776  	-0.002577 
2048.402592  	-0.001572 
2050.331408  	-0.000879 
2052.260224  	-0.001314 
2054.189040  	-0.001178 
2056.117856  	-0.001924 
2058.046672  	-0.001788 
2059.975488  	-0.001864 
2061.904304  	-0.001345 
2063.833120  	-0.000788 
2065.761936  	-0.000260 
2067.690752  	-0.001281 
2069.619568  	-0.001458 
2071.548384  	-0.001745 
2073.477200  	-0.001602 
2075.406016  	-0.001024 
2077.334832  	-0.000213 
2079.263648  	-0.000264 
2081.192464  	-0.000369 
2083.121280  	-0.001036 
2085.050096  	-0.001162 
2086.978912  	-0.001359 
2088.907728  	-0.000927 
2090.836544  	-0.000483 
2092.765360  	-0.000557 
2094.694176  	-0.000791 
2096.622992  	-0.000433 
2098.551808  	-0.000560 
2100.480624  	-0.000656 
2102.409440  	-0.000602 
2104.338256  	-0.000381 
2106.267072  	-0.000667 
2108.195888  	-0.000464 
2110.124704  	-0.000659 
2112.053520  	-0.000308 
2113.982336  	0.000053 
2115.911152  	-0.000114 
2117.839968  	-0.000759 
2119.768784  	-0.000913 
2121.697600  	-0.001082 
2123.626416  	-0.000820 
2125.555232  	-0.000953 
2127.484048  	-0.001252 
2129.412864  	-0.001465 
2131.341680  	-0.000773 
2133.270496  	-0.000681 
2135.199312  	-0.000701 
2137.128128  	-0.000163 
2139.056944  	0.000601 
2140.985760  	0.000330 
2142.914576  	0.000196 
2144.843392  	-0.001043 
2146.772208  	-0.001152 
2148.701024  	-0.000632 
2150.629840  	-0.000119 
2152.558656  	-0.000792 
2154.487472  	-0.000826 
2156.416288  	-0.000735 
2158.345104  	0.001775 
2160.273920  	0.003672 
2162.202736  	0.002794 
2164.131552  	0.001951 
2166.060368  	0.003139 
2167.989184  	0.001971 
2169.918000  	0.000492 
2171.846816  	0.000509 
2173.775632  	0.000910 
2175.704448  	0.000369 
2177.633264  	0.001546 
2179.562080  	0.000598 
2181.490896  	0.000858 
2183.419712  	0.001829 
2185.348528  	0.001363 
2187.277344  	0.000427 
2189.206160  	0.000570 
2191.134976  	0.000094 
2193.063792  	0.000140 
2194.992608  	-0.000045 
2196.921424  	0.000398 
2198.850240  	-0.000062 
2200.779056  	-0.000946 
2202.707872  	-0.001487 
2204.636688  	-0.000880 
2206.565504  	-0.000929 
2208.494320  	-0.001095 
2210.423136  	-0.001251 
2212.351952  	-0.000848 
2214.280768  	-0.001111 
2216.209584  	-0.000913 
2218.138400  	-0.001572 
2220.067216  	-0.001832 
2221.996032  	-0.001879 
2223.924848  	-0.001233 
2225.853664  	-0.001239 
2227.782480  	-0.000782 
2229.711296  	-0.001249 
2231.640112  	-0.001822 
2233.568928  	-0.002268 
2235.497744  	-0.002045 
2237.426560  	-0.001744 
2239.355376  	-0.001621 
2241.284192  	-0.002468 
2243.213008  	-0.002708 
2245.141824  	-0.002690 
2247.070640  	-0.002601 
2248.999456  	-0.002098 
2250.928272  	-0.001661 
2252.857088  	-0.001823 
2254.785904  	-0.001624 
2256.714720  	-0.001376 
2258.643536  	-0.000759 
2260.572352  	-0.000504 
2262.501168  	-0.000854 
2264.429984  	-0.000938 
2266.358800  	-0.000665 
2268.287616  	-0.001055 
2270.216432  	-0.001096 
2272.145248  	-0.001015 
2274.074064  	-0.000588 
2276.002880  	-0.000772 
2277.931696  	-0.000527 
2279.860512  	-0.000559 
2281.789328  	-0.000527 
2283.718144  	-0.000363 
2285.646960  	-0.000018 
2287.575776  	0.000110 
2289.504592  	0.000450 
2291.433408  	0.000609 
2293.362224  	0.000910 
2295.291040  	0.000981 
2297.219856  	0.001349 
2299.148672  	0.001748 
2301.077488  	0.002295 
2303.006304  	0.002874 
2304.935120  	0.003531 
2306.863936  	0.004021 
2308.792752  	0.004504 
2310.721568  	0.004675 
2312.650384  	0.004486 
2314.579200  	0.004143 
2316.508016  	0.004615 
2318.436832  	0.005200 
2320.365648  	0.005527 
2322.294464  	0.005735 
2324.223280  	0.005241 
2326.152096  	0.003699 
2328.080912  	0.002863 
2330.009728  	0.002483 
2331.938544  	0.001960 
2333.867360  	0.000852 
2335.796176  	0.000071 
2337.724992  	-0.000298 
2339.653808  	-0.000162 
2341.582624  	0.000552 
2343.511440  	0.001913 
2345.440256  	0.003049 
2347.369072  	0.003375 
2349.297888  	0.003149 
2351.226704  	0.002525 
2353.155520  	0.001347 
2355.084336  	0.000827 
2357.013152  	0.000430 
2358.941968  	0.000595 
2360.870784  	0.000461 
2362.799600  	0.000721 
2364.728416  	0.001382 
2366.657232  	0.001817 
2368.586048  	0.001825 
2370.514864  	0.002427 
2372.443680  	0.003022 
2374.372496  	0.003536 
2376.301312  	0.003588 
2378.230128  	0.003325 
2380.158944  	0.002618 
2382.087760  	0.001681 
2384.016576  	0.000459 
2385.945392  	-0.000557 
2387.874208  	-0.001173 
2389.803024  	-0.001524 
2391.731840  	-0.001889 
2393.660656  	-0.002020 
2395.589472  	-0.001956 
2397.518288  	-0.001851 
2399.447104  	-0.001874 
2401.375920  	-0.001821 
2403.304736  	-0.002048 
2405.233552  	-0.002119 
2407.162368  	-0.002191 
2409.091184  	-0.002049 
2411.020000  	-0.001988 
2412.948816  	-0.002170 
2414.877632  	-0.002121 
2416.806448  	-0.001702 
2418.735264  	-0.001584 
2420.664080  	-0.001604 
2422.592896  	-0.001719 
2424.521712  	-0.001748 
2426.450528  	-0.001883 
2428.379344  	-0.001797 
2430.308160  	-0.001707 
2432.236976  	-0.001684 
2434.165792  	-0.001409 
2436.094608  	-0.001181 
2438.023424  	-0.001146 
2439.952240  	-0.001132 
2441.881056  	-0.001328 
2443.809872  	-0.001359 
2445.738688  	-0.001151 
2447.667504  	-0.000778 
2449.596320  	-0.000643 
2451.525136  	-0.000644 
2453.453952  	-0.000600 
2455.382768  	-0.000485 
2457.311584  	-0.000615 
2459.240400  	-0.000882 
2461.169216  	-0.000885 
2463.098032  	-0.000682 
2465.026848  	-0.000677 
2466.955664  	-0.000740 
2468.884480  	-0.000951 
2470.813296  	-0.000889 
2472.742112  	-0.000695 
2474.670928  	-0.000520 
2476.599744  	-0.000284 
2478.528560  	-0.000193 
2480.457376  	-0.000030 
2482.386192  	0.000127 
2484.315008  	0.000017 
2486.243824  	0.000083 
2488.172640  	0.000388 
2490.101456  	0.000663 
2492.030272  	0.000805 
2493.959088  	0.000634 
2495.887904  	0.000375 
2497.816720  	0.000644 
2499.745536  	0.000951 
2501.674352  	0.000936 
2503.603168  	0.000859 
2505.531984  	0.000922 
2507.460800  	0.000801 
2509.389616  	0.000879 
2511.318432  	0.000801 
2513.247248  	0.000868 
2515.176064  	0.001075 
2517.104880  	0.001178 
2519.033696  	0.001039 
2520.962512  	0.001093 
2522.891328  	0.001301 
2524.820144  	0.001612 
2526.748960  	0.001617 
2528.677776  	0.001640 
2530.606592  	0.001583 
2532.535408  	0.001827 
2534.464224  	0.001799 
2536.393040  	0.001715 
2538.321856  	0.001888 
2540.250672  	0.002074 
2542.179488  	0.002151 
2544.108304  	0.002225 
2546.037120  	0.002204 
2547.965936  	0.002468 
2549.894752  	0.002821 
2551.823568  	0.003076 
2553.752384  	0.003056 
2555.681200  	0.002959 
2557.610016  	0.003094 
2559.538832  	0.003229 
2561.467648  	0.003283 
2563.396464  	0.003469 
2565.325280  	0.003554 
2567.254096  	0.003526 
2569.182912  	0.003433 
2571.111728  	0.003566 
2573.040544  	0.003856 
2574.969360  	0.004066 
2576.898176  	0.004098 
2578.826992  	0.004094 
2580.755808  	0.004101 
2582.684624  	0.004401 
2584.613440  	0.004511 
2586.542256  	0.004629 
2588.471072  	0.004827 
2590.399888  	0.004928 
2592.328704  	0.005088 
2594.257520  	0.005198 
2596.186336  	0.004982 
2598.115152  	0.005139 
2600.043968  	0.005423 
2601.972784  	0.005472 
2603.901600  	0.005673 
2605.830416  	0.005776 
2607.759232  	0.005785 
2609.688048  	0.005915 
2611.616864  	0.006115 
2613.545680  	0.006237 
2615.474496  	0.006366 
2617.403312  	0.006620 
2619.332128  	0.006720 
2621.260944  	0.006744 
2623.189760  	0.006828 
2625.118576  	0.007082 
2627.047392  	0.007258 
2628.976208  	0.007504 
2630.905024  	0.007653 
2632.833840  	0.007736 
2634.762656  	0.007780 
2636.691472  	0.007964 
2638.620288  	0.008087 
2640.549104  	0.008282 
2642.477920  	0.008569 
2644.406736  	0.008709 
2646.335552  	0.008832 
2648.264368  	0.009079 
2650.193184  	0.009313 
2652.122000  	0.009506 
2654.050816  	0.009669 
2655.979632  	0.009774 
2657.908448  	0.009845 
2659.837264  	0.010008 
2661.766080  	0.010155 
2663.694896  	0.010317 
2665.623712  	0.010519 
2667.552528  	0.010756 
2669.481344  	0.010811 
2671.410160  	0.010902 
2673.338976  	0.011040 
2675.267792  	0.011205 
2677.196608  	0.011414 
2679.125424  	0.011637 
2681.054240  	0.011774 
2682.983056  	0.011977 
2684.911872  	0.012169 
2686.840688  	0.012262 
2688.769504  	0.012346 
2690.698320  	0.012499 
2692.627136  	0.012623 
2694.555952  	0.012720 
2696.484768  	0.012981 
2698.413584  	0.013107 
2700.342400  	0.013099 
2702.271216  	0.013338 
2704.200032  	0.013584 
2706.128848  	0.013751 
2708.057664  	0.013923 
2709.986480  	0.013961 
2711.915296  	0.014101 
2713.844112  	0.014284 
2715.772928  	0.014371 
2717.701744  	0.014516 
2719.630560  	0.014782 
2721.559376  	0.015070 
2723.488192  	0.015274 
2725.417008  	0.015482 
2727.345824  	0.015617 
2729.274640  	0.015831 
2731.203456  	0.016014 
2733.132272  	0.016047 
2735.061088  	0.016208 
2736.989904  	0.016402 
2738.918720  	0.016576 
2740.847536  	0.016695 
2742.776352  	0.016843 
2744.705168  	0.017013 
2746.633984  	0.017177 
2748.562800  	0.017350 
2750.491616  	0.017420 
2752.420432  	0.017431 
2754.349248  	0.017544 
2756.278064  	0.017589 
2758.206880  	0.017506 
2760.135696  	0.017495 
2762.064512  	0.017524 
2763.993328  	0.017560 
2765.922144  	0.017638 
2767.850960  	0.017711 
2769.779776  	0.017705 
2771.708592  	0.017736 
2773.637408  	0.017666 
2775.566224  	0.017713 
2777.495040  	0.017729 
2779.423856  	0.017658 
2781.352672  	0.017766 
2783.281488  	0.017874 
2785.210304  	0.017821 
2787.139120  	0.017796 
2789.067936  	0.017817 
2790.996752  	0.017880 
2792.925568  	0.017848 
2794.854384  	0.017736 
2796.783200  	0.017764 
2798.712016  	0.017832 
2800.640832  	0.017823 
2802.569648  	0.017897 
2804.498464  	0.017987 
2806.427280  	0.018031 
2808.356096  	0.018149 
2810.284912  	0.018055 
2812.213728  	0.017935 
2814.142544  	0.018087 
2816.071360  	0.018047 
2818.000176  	0.018006 
2819.928992  	0.018183 
2821.857808  	0.018197 
2823.786624  	0.018086 
2825.715440  	0.018216 
2827.644256  	0.018300 
2829.573072  	0.018216 
2831.501888  	0.018200 
2833.430704  	0.018148 
2835.359520  	0.018076 
2837.288336  	0.018057 
2839.217152  	0.017925 
2841.145968  	0.017869 
2843.074784  	0.017879 
2845.003600  	0.017874 
2846.932416  	0.017845 
2848.861232  	0.017939 
2850.790048  	0.018033 
2852.718864  	0.018107 
2854.647680  	0.018082 
2856.576496  	0.018170 
2858.505312  	0.018299 
2860.434128  	0.018455 
2862.362944  	0.018392 
2864.291760  	0.018415 
2866.220576  	0.018604 
2868.149392  	0.018716 
2870.078208  	0.018847 
2872.007024  	0.019097 
2873.935840  	0.019452 
2875.864656  	0.019896 
2877.793472  	0.020298 
2879.722288  	0.020770 
2881.651104  	0.021150 
2883.579920  	0.021619 
2885.508736  	0.022101 
2887.437552  	0.022352 
2889.366368  	0.022464 
2891.295184  	0.022636 
2893.224000  	0.022700 
2895.152816  	0.022806 
2897.081632  	0.022989 
2899.010448  	0.022738 
2900.939264  	0.022385 
2902.868080  	0.022603 
2904.796896  	0.022950 
2906.725712  	0.023140 
2908.654528  	0.023504 
2910.583344  	0.023965 
2912.512160  	0.024363 
2914.440976  	0.024889 
2916.369792  	0.025586 
2918.298608  	0.026107 
2920.227424  	0.026473 
2922.156240  	0.027076 
2924.085056  	0.027817 
2926.013872  	0.028441 
2927.942688  	0.029179 
2929.871504  	0.030045 
2931.800320  	0.030757 
2933.729136  	0.031601 
2935.657952  	0.032372 
2937.586768  	0.033026 
2939.515584  	0.033680 
2941.444400  	0.034146 
2943.373216  	0.034522 
2945.302032  	0.035081 
2947.230848  	0.035509 
2949.159664  	0.035533 
2951.088480  	0.035426 
2953.017296  	0.035494 
2954.946112  	0.035509 
2956.874928  	0.035347 
2958.803744  	0.035000 
2960.732560  	0.034838 
2962.661376  	0.034694 
2964.590192  	0.034449 
2966.519008  	0.034136 
2968.447824  	0.033760 
2970.376640  	0.033437 
2972.305456  	0.033136 
2974.234272  	0.033232 
2976.163088  	0.033284 
2978.091904  	0.033127 
2980.020720  	0.033093 
2981.949536  	0.033080 
2983.878352  	0.032883 
2985.807168  	0.032634 
2987.735984  	0.032620 
2989.664800  	0.032739 
2991.593616  	0.033360 
2993.522432  	0.033896 
2995.451248  	0.034085 
2997.380064  	0.034463 
2999.308880  	0.035010 
3001.237696  	0.035541 
3003.166512  	0.036118 
3005.095328  	0.036610 
3007.024144  	0.037093 
3008.952960  	0.037834 
3010.881776  	0.038657 
3012.810592  	0.039313 
3014.739408  	0.039972 
3016.668224  	0.040483 
3018.597040  	0.040961 
3020.525856  	0.041531 
3022.454672  	0.042214 
3024.383488  	0.043032 
3026.312304  	0.043711 
3028.241120  	0.044199 
3030.169936  	0.044926 
3032.098752  	0.045853 
3034.027568  	0.046321 
3035.956384  	0.046800 
3037.885200  	0.047342 
3039.814016  	0.048108 
3041.742832  	0.048846 
3043.671648  	0.049536 
3045.600464  	0.050214 
3047.529280  	0.050807 
3049.458096  	0.051550 
3051.386912  	0.052223 
3053.315728  	0.052885 
3055.244544  	0.053703 
3057.173360  	0.054652 
3059.102176  	0.055472 
3061.030992  	0.056247 
3062.959808  	0.056983 
3064.888624  	0.058064 
3066.817440  	0.059116 
3068.746256  	0.060145 
3070.675072  	0.061037 
3072.603888  	0.061981 
3074.532704  	0.063174 
3076.461520  	0.064264 
3078.390336  	0.065300 
3080.319152  	0.066334 
3082.247968  	0.067038 
3084.176784  	0.067794 
3086.105600  	0.068926 
3088.034416  	0.070019 
3089.963232  	0.070898 
3091.892048  	0.071932 
3093.820864  	0.072904 
3095.749680  	0.074068 
3097.678496  	0.075216 
3099.607312  	0.076481 
3101.536128  	0.077853 
3103.464944  	0.078788 
3105.393760  	0.079552 
3107.322576  	0.080571 
3109.251392  	0.081719 
3111.180208  	0.082701 
3113.109024  	0.083455 
3115.037840  	0.084490 
3116.966656  	0.085726 
3118.895472  	0.086662 
3120.824288  	0.087259 
3122.753104  	0.088130 
3124.681920  	0.088951 
3126.610736  	0.089637 
3128.539552  	0.090271 
3130.468368  	0.091013 
3132.397184  	0.091979 
3134.326000  	0.092772 
3136.254816  	0.093329 
3138.183632  	0.094255 
3140.112448  	0.095100 
3142.041264  	0.095971 
3143.970080  	0.096950 
3145.898896  	0.097813 
3147.827712  	0.098591 
3149.756528  	0.099566 
3151.685344  	0.100325 
3153.614160  	0.101054 
3155.542976  	0.101821 
3157.471792  	0.102763 
3159.400608  	0.103554 
3161.329424  	0.104353 
3163.258240  	0.105380 
3165.187056  	0.106219 
3167.115872  	0.106666 
3169.044688  	0.107287 
3170.973504  	0.108089 
3172.902320  	0.108707 
3174.831136  	0.109328 
3176.759952  	0.109987 
3178.688768  	0.110498 
3180.617584  	0.110783 
3182.546400  	0.111333 
3184.475216  	0.111913 
3186.404032  	0.112289 
3188.332848  	0.112491 
3190.261664  	0.112666 
3192.190480  	0.112879 
3194.119296  	0.113078 
3196.048112  	0.112985 
3197.976928  	0.113239 
3199.905744  	0.113410 
3201.834560  	0.113488 
3203.763376  	0.113224 
3205.692192  	0.112730 
3207.621008  	0.112803 
3209.549824  	0.113035 
3211.478640  	0.112986 
3213.407456  	0.112930 
3215.336272  	0.112918 
3217.265088  	0.112808 
3219.193904  	0.112971 
3221.122720  	0.112851 
3223.051536  	0.112439 
3224.980352  	0.112212 
3226.909168  	0.112073 
3228.837984  	0.111764 
3230.766800  	0.111611 
3232.695616  	0.111820 
3234.624432  	0.111940 
3236.553248  	0.111992 
3238.482064  	0.111954 
3240.410880  	0.111863 
3242.339696  	0.111982 
3244.268512  	0.112231 
3246.197328  	0.112219 
3248.126144  	0.112264 
3250.054960  	0.112724 
3251.983776  	0.113024 
3253.912592  	0.113496 
3255.841408  	0.113770 
3257.770224  	0.113682 
3259.699040  	0.113871 
3261.627856  	0.114347 
3263.556672  	0.114607 
3265.485488  	0.114831 
3267.414304  	0.115066 
3269.343120  	0.115342 
3271.271936  	0.115643 
3273.200752  	0.116016 
3275.129568  	0.116170 
3277.058384  	0.116329 
3278.987200  	0.116464 
3280.916016  	0.116677 
3282.844832  	0.116976 
3284.773648  	0.117170 
3286.702464  	0.117307 
3288.631280  	0.117704 
3290.560096  	0.118055 
3292.488912  	0.118120 
3294.417728  	0.118191 
3296.346544  	0.118363 
3298.275360  	0.118711 
3300.204176  	0.119216 
3302.132992  	0.119573 
3304.061808  	0.119999 
3305.990624  	0.120494 
3307.919440  	0.121132 
3309.848256  	0.121364 
3311.777072  	0.121516 
3313.705888  	0.121936 
3315.634704  	0.122319 
3317.563520  	0.122604 
3319.492336  	0.122709 
3321.421152  	0.122946 
3323.349968  	0.123260 
3325.278784  	0.123611 
3327.207600  	0.123969 
3329.136416  	0.123865 
3331.065232  	0.123795 
3332.994048  	0.123883 
3334.922864  	0.123976 
3336.851680  	0.124090 
3338.780496  	0.124041 
3340.709312  	0.123656 
3342.638128  	0.123646 
3344.566944  	0.123450 
3346.495760  	0.122880 
3348.424576  	0.122555 
3350.353392  	0.122347 
3352.282208  	0.121937 
3354.211024  	0.121752 
3356.139840  	0.121662 
3358.068656  	0.121270 
3359.997472  	0.120766 
3361.926288  	0.120229 
3363.855104  	0.119747 
3365.783920  	0.119619 
3367.712736  	0.119233 
3369.641552  	0.118654 
3371.570368  	0.118280 
3373.499184  	0.117971 
3375.428000  	0.117532 
3377.356816  	0.117169 
3379.285632  	0.116694 
3381.214448  	0.116144 
3383.143264  	0.115918 
3385.072080  	0.115656 
3387.000896  	0.114928 
3388.929712  	0.114423 
3390.858528  	0.114086 
3392.787344  	0.114089 
3394.716160  	0.113508 
3396.644976  	0.113028 
3398.573792  	0.112405 
3400.502608  	0.111454 
3402.431424  	0.110482 
3404.360240  	0.109729 
3406.289056  	0.109108 
3408.217872  	0.108586 
3410.146688  	0.107897 
3412.075504  	0.107178 
3414.004320  	0.106671 
3415.933136  	0.106198 
3417.861952  	0.105571 
3419.790768  	0.105391 
3421.719584  	0.104945 
3423.648400  	0.103817 
3425.577216  	0.102685 
3427.506032  	0.102062 
3429.434848  	0.101549 
3431.363664  	0.101038 
3433.292480  	0.100279 
3435.221296  	0.099417 
3437.150112  	0.098596 
3439.078928  	0.097847 
3441.007744  	0.097143 
3442.936560  	0.096575 
3444.865376  	0.095736 
3446.794192  	0.095674 
3448.723008  	0.094516 
3450.651824  	0.092626 
3452.580640  	0.091720 
3454.509456  	0.090894 
3456.438272  	0.090205 
3458.367088  	0.089576 
3460.295904  	0.088810 
3462.224720  	0.088000 
3464.153536  	0.086643 
3466.082352  	0.085412 
3468.011168  	0.084521 
3469.939984  	0.083526 
3471.868800  	0.082319 
3473.797616  	0.081261 
3475.726432  	0.080293 
3477.655248  	0.079084 
3479.584064  	0.078350 
3481.512880  	0.078171 
3483.441696  	0.076946 
3485.370512  	0.075138 
3487.299328  	0.074386 
3489.228144  	0.073393 
3491.156960  	0.071846 
3493.085776  	0.070903 
3495.014592  	0.070385 
3496.943408  	0.069601 
3498.872224  	0.068398 
3500.801040  	0.068263 
3502.729856  	0.068531 
3504.658672  	0.067215 
3506.587488  	0.064995 
3508.516304  	0.064364 
3510.445120  	0.063922 
3512.373936  	0.062206 
3514.302752  	0.060860 
3516.231568  	0.059950 
3518.160384  	0.059234 
3520.089200  	0.058479 
3522.018016  	0.058340 
3523.946832  	0.058728 
3525.875648  	0.057774 
3527.804464  	0.056766 
3529.733280  	0.055374 
3531.662096  	0.053541 
3533.590912  	0.051932 
3535.519728  	0.051598 
3537.448544  	0.050996 
3539.377360  	0.049377 
3541.306176  	0.048432 
3543.234992  	0.048948 
3545.163808  	0.050183 
3547.092624  	0.049263 
3549.021440  	0.046361 
3550.950256  	0.045072 
3552.879072  	0.045128 
3554.807888  	0.043290 
3556.736704  	0.041500 
3558.665520  	0.041437 
3560.594336  	0.041499 
3562.523152  	0.040588 
3564.451968  	0.041020 
3566.380784  	0.044244 
3568.309600  	0.043252 
3570.238416  	0.038006 
3572.167232  	0.035158 
3574.096048  	0.034215 
3576.024864  	0.033539 
3577.953680  	0.032588 
3579.882496  	0.031832 
3581.811312  	0.030805 
3583.740128  	0.030011 
3585.668944  	0.030945 
3587.597760  	0.033259 
3589.526576  	0.030026 
3591.455392  	0.026535 
3593.384208  	0.026608 
3595.313024  	0.026782 
3597.241840  	0.024920 
3599.170656  	0.023432 
3601.099472  	0.022721 
3603.028288  	0.020540 
3604.957104  	0.019135 
3606.885920  	0.020285 
3608.814736  	0.020853 
3610.743552  	0.018755 
3612.672368  	0.018631 
3614.601184  	0.017902 
3616.530000  	0.015857 
3618.458816  	0.016284 
3620.387632  	0.015307 
3622.316448  	0.011944 
3624.245264  	0.010006 
3626.174080  	0.009597 
3628.102896  	0.011421 
3630.031712  	0.012247 
3631.960528  	0.007957 
3633.889344  	0.006159 
3635.818160  	0.004419 
3637.746976  	0.002891 
3639.675792  	0.001962 
3641.604608  	0.001451 
3643.533424  	0.000686 
3645.462240  	0.000365 
3647.391056  	0.003501 
3649.319872  	0.005599 
3651.248688  	0.002737 
3653.177504  	-0.002611 
3655.106320  	-0.004362 
3657.035136  	-0.003930 
3658.963952  	-0.005719 
3660.892768  	-0.006968 
3662.821584  	-0.007820 
3664.750400  	-0.008606 
3666.679216  	-0.009027 
3668.608032  	-0.007680 
3670.536848  	-0.005221 
3672.465664  	-0.007648 
3674.394480  	-0.007413 
3676.323296  	-0.004397 
3678.252112  	-0.007432 
3680.180928  	-0.009469 
3682.109744  	-0.011208 
3684.038560  	-0.011895 
3685.967376  	-0.012225 
3687.896192  	-0.010432 
3689.825008  	-0.007976 
3691.753824  	-0.009212 
3693.682640  	-0.011431 
3695.611456  	-0.012429 
3697.540272  	-0.012674 
3699.469088  	-0.013275 
3701.397904  	-0.011961 
3703.326720  	-0.011694 
3705.255536  	-0.012715 
3707.184352  	-0.012701 
3709.113168  	-0.011353 
3711.041984  	-0.008556 
3712.970800  	-0.008786 
3714.899616  	-0.011443 
3716.828432  	-0.012835 
3718.757248  	-0.012264 
3720.686064  	-0.011774 
3722.614880  	-0.010713 
3724.543696  	-0.009909 
3726.472512  	-0.009319 
3728.401328  	-0.011423 
3730.330144  	-0.013256 
3732.258960  	-0.011762 
3734.187776  	-0.008011 
3736.116592  	-0.004966 
3738.045408  	-0.008290 
3739.974224  	-0.010477 
3741.903040  	-0.011706 
3743.831856  	-0.010954 
3745.760672  	-0.008606 
3747.689488  	-0.010538 
3749.618304  	-0.009148 
3751.547120  	-0.006789 
3753.475936  	-0.008987 
3755.404752  	-0.011626 
3757.333568  	-0.011710 
3759.262384  	-0.010806 
3761.191200  	-0.011593 
3763.120016  	-0.013440 
3765.048832  	-0.012781 
3766.977648  	-0.012569 
3768.906464  	-0.012246 
3770.835280  	-0.011717 
3772.764096  	-0.013458 
3774.692912  	-0.014455 
3776.621728  	-0.014614 
3778.550544  	-0.013333 
3780.479360  	-0.012354 
3782.408176  	-0.013436 
3784.336992  	-0.013054 
3786.265808  	-0.012954 
3788.194624  	-0.013784 
3790.123440  	-0.014148 
3792.052256  	-0.014480 
3793.981072  	-0.014653 
3795.909888  	-0.012746 
3797.838704  	-0.011565 
3799.767520  	-0.012169 
3801.696336  	-0.009491 
3803.625152  	-0.011264 
3805.553968  	-0.013430 
3807.482784  	-0.012281 
3809.411600  	-0.013263 
3811.340416  	-0.014250 
3813.269232  	-0.014671 
3815.198048  	-0.012987 
3817.126864  	-0.011028 
3819.055680  	-0.012039 
3820.984496  	-0.009786 
3822.913312  	-0.010228 
3824.842128  	-0.012613 
3826.770944  	-0.012462 
3828.699760  	-0.013167 
3830.628576  	-0.013440 
3832.557392  	-0.012785 
3834.486208  	-0.013056 
3836.415024  	-0.012289 
3838.343840  	-0.010099 
3840.272656  	-0.008997 
3842.201472  	-0.010607 
3844.130288  	-0.011536 
3846.059104  	-0.013103 
3847.987920  	-0.014015 
3849.916736  	-0.013420 
3851.845552  	-0.011212 
3853.774368  	-0.006470 
3855.703184  	-0.008403 
3857.632000  	-0.011041 
3859.560816  	-0.012947 
3861.489632  	-0.012522 
3863.418448  	-0.010822 
3865.347264  	-0.009736 
3867.276080  	-0.011944 
3869.204896  	-0.010603 
3871.133712  	-0.008746 
3873.062528  	-0.011060 
3874.991344  	-0.011572 
3876.920160  	-0.013863 
3878.848976  	-0.013676 
3880.777792  	-0.010697 
3882.706608  	-0.011090 
3884.635424  	-0.011407 
3886.564240  	-0.011160 
3888.493056  	-0.013884 
3890.421872  	-0.013283 
3892.350688  	-0.011374 
3894.279504  	-0.012750 
3896.208320  	-0.014115 
3898.137136  	-0.012975 
3900.065952  	-0.010344 
3901.994768  	-0.009395 
3903.923584  	-0.008735 
3905.852400  	-0.010065 
3907.781216  	-0.013333 
3909.710032  	-0.014956 
3911.638848  	-0.015009 
3913.567664  	-0.014894 
3915.496480  	-0.013630 
3917.425296  	-0.011800 
3919.354112  	-0.012072 
3921.282928  	-0.012705 
3923.211744  	-0.012357 
3925.140560  	-0.011667 
3927.069376  	-0.013442 
3928.998192  	-0.013644 
3930.927008  	-0.012074 
3932.855824  	-0.011534 
3934.784640  	-0.013125 
3936.713456  	-0.014054 
3938.642272  	-0.014165 
3940.571088  	-0.014088 
3942.499904  	-0.012424 
3944.428720  	-0.012504 
3946.357536  	-0.013511 
3948.286352  	-0.012553 
3950.215168  	-0.012940 
3952.143984  	-0.014243 
3954.072800  	-0.014645 
3956.001616  	-0.014277 
3957.930432  	-0.014081 
3959.859248  	-0.013923 
3961.788064  	-0.013564 
3963.716880  	-0.014050 
3965.645696  	-0.014735 
3967.574512  	-0.014700 
3969.503328  	-0.014530 
3971.432144  	-0.014309 
3973.360960  	-0.013970 
3975.289776  	-0.013618 
3977.218592  	-0.013925 
3979.147408  	-0.014610 
3981.076224  	-0.014783 
3983.005040  	-0.014763 
3984.933856  	-0.014676 
3986.862672  	-0.014488 
3988.791488  	-0.014465 
3990.720304  	-0.014152 
3992.649120  	-0.014309 
3994.577936  	-0.014507 
3996.506752  	-0.014668 
3998.435568  	-0.014780 
4000.364384  	-0.014769 