##TITLE=No Description
##DATA TYPE=INFRARED SPECTRUM
##XUNITS=1/CM
##YUNITS=Abs
399.264912  	0.584403 
401.193728  	0.571535 
403.122544  	0.573463 
405.051360  	0.550542 
406.980176  	0.549930 
408.908992  	0.553955 
410.837808  	0.567317 
412.766624  	0.581977 
414.695440  	0.578133 
416.624256  	0.559521 
418.553072  	0.564389 
420.481888  	0.551559 
422.410704  	0.547745 
424.339520  	0.547235 
426.268336  	0.550790 
428.197152  	0.551903 
430.125968  	0.549227 
432.054784  	0.547333 
433.983600  	0.547984 
435.912416  	0.542697 
437.841232  	0.543300 
439.770048  	0.532381 
441.698864  	0.526589 
443.627680  	0.524257 
445.556496  	0.528270 
447.485312  	0.524003 
449.414128  	0.519756 
451.342944  	0.516116 
453.271760  	0.522933 
455.200576  	0.523618 
457.129392  	0.526068 
459.058208  	0.521228 
460.987024  	0.520658 
462.915840  	0.520137 
464.844656  	0.520978 
466.773472  	0.521205 
468.702288  	0.519946 
470.631104  	0.515687 
472.559920  	0.521369 
474.488736  	0.520784 
476.417552  	0.522351 
478.346368  	0.517584 
480.275184  	0.513764 
482.204000  	0.512183 
484.132816  	0.513856 
486.061632  	0.510998 
487.990448  	0.509389 
489.919264  	0.508913 
491.848080  	0.507231 
493.776896  	0.504348 
495.705712  	0.502091 
497.634528  	0.498401 
499.563344  	0.499755 
501.492160  	0.500213 
503.420976  	0.500073 
505.349792  	0.496740 
507.278608  	0.498044 
509.207424  	0.500337 
511.136240  	0.504188 
513.065056  	0.501821 
514.993872  	0.502828 
516.922688  	0.503487 
518.851504  	0.503987 
520.780320  	0.502822 
522.709136  	0.502139 
524.637952  	0.497782 
526.566768  	0.495512 
528.495584  	0.494432 
530.424400  	0.493910 
532.353216  	0.487672 
534.282032  	0.482581 
536.210848  	0.479239 
538.139664  	0.476475 
540.068480  	0.469889 
541.997296  	0.464826 
543.926112  	0.462146 
545.854928  	0.460874 
547.783744  	0.457352 
549.712560  	0.455637 
551.641376  	0.452675 
553.570192  	0.451043 
555.499008  	0.446874 
557.427824  	0.442703 
559.356640  	0.438355 
561.285456  	0.437220 
563.214272  	0.434588 
565.143088  	0.430982 
567.071904  	0.427650 
569.000720  	0.425881 
570.929536  	0.423610 
572.858352  	0.421021 
574.787168  	0.417956 
576.715984  	0.414740 
578.644800  	0.409787 
580.573616  	0.406357 
582.502432  	0.401621 
584.431248  	0.397744 
586.360064  	0.394328 
588.288880  	0.391815 
590.217696  	0.389967 
592.146512  	0.388745 
594.075328  	0.386481 
596.004144  	0.385035 
597.932960  	0.383359 
599.861776  	0.381713 
601.790592  	0.379707 
603.719408  	0.378659 
605.648224  	0.377216 
607.577040  	0.375511 
609.505856  	0.373385 
611.434672  	0.372284 
613.363488  	0.370299 
615.292304  	0.369218 
617.221120  	0.367447 
619.149936  	0.365918 
621.078752  	0.363888 
623.007568  	0.363035 
624.936384  	0.361892 
626.865200  	0.360255 
628.794016  	0.359096 
630.722832  	0.359383 
632.651648  	0.358754 
634.580464  	0.358221 
636.509280  	0.358382 
638.438096  	0.357929 
640.366912  	0.356382 
642.295728  	0.354908 
644.224544  	0.352891 
646.153360  	0.349956 
648.082176  	0.345468 
650.010992  	0.341976 
651.939808  	0.339111 
653.868624  	0.336321 
655.797440  	0.332415 
657.726256  	0.328721 
659.655072  	0.324943 
661.583888  	0.321193 
663.512704  	0.317453 
665.441520  	0.313152 
667.370336  	0.308453 
669.299152  	0.305987 
671.227968  	0.301723 
673.156784  	0.297485 
675.085600  	0.294588 
677.014416  	0.292130 
678.943232  	0.290162 
680.872048  	0.288824 
682.800864  	0.287036 
684.729680  	0.285120 
686.658496  	0.283066 
688.587312  	0.282222 
690.516128  	0.280854 
692.444944  	0.279421 
694.373760  	0.277688 
696.302576  	0.276310 
698.231392  	0.274382 
700.160208  	0.272228 
702.089024  	0.269335 
704.017840  	0.266941 
705.946656  	0.264622 
707.875472  	0.262215 
709.804288  	0.259835 
711.733104  	0.258391 
713.661920  	0.256356 
715.590736  	0.254598 
717.519552  	0.253844 
719.448368  	0.254105 
721.377184  	0.254248 
723.306000  	0.254147 
725.234816  	0.254404 
727.163632  	0.253232 
729.092448  	0.250246 
731.021264  	0.247073 
732.950080  	0.243876 
734.878896  	0.240865 
736.807712  	0.237744 
738.736528  	0.235202 
740.665344  	0.233263 
742.594160  	0.232083 
744.522976  	0.230384 
746.451792  	0.229030 
748.380608  	0.227217 
750.309424  	0.225755 
752.238240  	0.224607 
754.167056  	0.224056 
756.095872  	0.223118 
758.024688  	0.221605 
759.953504  	0.221046 
761.882320  	0.221764 
763.811136  	0.222193 
765.739952  	0.220524 
767.668768  	0.217166 
769.597584  	0.214015 
771.526400  	0.212635 
773.455216  	0.213760 
775.384032  	0.216753 
777.312848  	0.221114 
779.241664  	0.224194 
781.170480  	0.223252 
783.099296  	0.218277 
785.028112  	0.212215 
786.956928  	0.206328 
788.885744  	0.202016 
790.814560  	0.198717 
792.743376  	0.196598 
794.672192  	0.195382 
796.601008  	0.194060 
798.529824  	0.191122 
800.458640  	0.187300 
802.387456  	0.183751 
804.316272  	0.181730 
806.245088  	0.180584 
808.173904  	0.179557 
810.102720  	0.178958 
812.031536  	0.178521 
813.960352  	0.178324 
815.889168  	0.178534 
817.817984  	0.178900 
819.746800  	0.179104 
821.675616  	0.179626 
823.604432  	0.180412 
825.533248  	0.180688 
827.462064  	0.180626 
829.390880  	0.180004 
831.319696  	0.179773 
833.248512  	0.178633 
835.177328  	0.176665 
837.106144  	0.173837 
839.034960  	0.170680 
840.963776  	0.166808 
842.892592  	0.162782 
844.821408  	0.158867 
846.750224  	0.155450 
848.679040  	0.152765 
850.607856  	0.150494 
852.536672  	0.148737 
854.465488  	0.147445 
856.394304  	0.146773 
858.323120  	0.145457 
860.251936  	0.143659 
862.180752  	0.142086 
864.109568  	0.139971 
866.038384  	0.137975 
867.967200  	0.135883 
869.896016  	0.134482 
871.824832  	0.133761 
873.753648  	0.133810 
875.682464  	0.134324 
877.611280  	0.135713 
879.540096  	0.137346 
881.468912  	0.139473 
883.397728  	0.141680 
885.326544  	0.143517 
887.255360  	0.144871 
889.184176  	0.145162 
891.112992  	0.144382 
893.041808  	0.142747 
894.970624  	0.140291 
896.899440  	0.136424 
898.828256  	0.131572 
900.757072  	0.126870 
902.685888  	0.122811 
904.614704  	0.120351 
906.543520  	0.119709 
908.472336  	0.120776 
910.401152  	0.122872 
912.329968  	0.125319 
914.258784  	0.127558 
916.187600  	0.129774 
918.116416  	0.131547 
920.045232  	0.132927 
921.974048  	0.133742 
923.902864  	0.134260 
925.831680  	0.134858 
927.760496  	0.135650 
929.689312  	0.136571 
931.618128  	0.137640 
933.546944  	0.138316 
935.475760  	0.138259 
937.404576  	0.137750 
939.333392  	0.136690 
941.262208  	0.135905 
943.191024  	0.136216 
945.119840  	0.138385 
947.048656  	0.142728 
948.977472  	0.149526 
950.906288  	0.158428 
952.835104  	0.169642 
954.763920  	0.182578 
956.692736  	0.195494 
958.621552  	0.207700 
960.550368  	0.217211 
962.479184  	0.223135 
964.408000  	0.224377 
966.336816  	0.221185 
968.265632  	0.213294 
970.194448  	0.202076 
972.123264  	0.188319 
974.052080  	0.173729 
975.980896  	0.159201 
977.909712  	0.145458 
979.838528  	0.133546 
981.767344  	0.123534 
983.696160  	0.115766 
985.624976  	0.110570 
987.553792  	0.108444 
989.482608  	0.109072 
991.411424  	0.112246 
993.340240  	0.117512 
995.269056  	0.123636 
997.197872  	0.130354 
999.126688  	0.137166 
1001.055504  	0.144268 
1002.984320  	0.150919 
1004.913136  	0.157969 
1006.841952  	0.164972 
1008.770768  	0.171435 
1010.699584  	0.176744 
1012.628400  	0.180797 
1014.557216  	0.183740 
1016.486032  	0.185305 
1018.414848  	0.185904 
1020.343664  	0.186099 
1022.272480  	0.185923 
1024.201296  	0.185457 
1026.130112  	0.184941 
1028.058928  	0.185322 
1029.987744  	0.186994 
1031.916560  	0.189490 
1033.845376  	0.192723 
1035.774192  	0.197433 
1037.703008  	0.203712 
1039.631824  	0.212910 
1041.560640  	0.225189 
1043.489456  	0.240914 
1045.418272  	0.258838 
1047.347088  	0.276957 
1049.275904  	0.290620 
1051.204720  	0.298971 
1053.133536  	0.301882 
1055.062352  	0.301039 
1056.991168  	0.297670 
1058.919984  	0.294808 
1060.848800  	0.292614 
1062.777616  	0.291103 
1064.706432  	0.288868 
1066.635248  	0.286278 
1068.564064  	0.282438 
1070.492880  	0.276612 
1072.421696  	0.270214 
1074.350512  	0.266266 
1076.279328  	0.266287 
1078.208144  	0.270647 
1080.136960  	0.277061 
1082.065776  	0.282984 
1083.994592  	0.284654 
1085.923408  	0.281834 
1087.852224  	0.274527 
1089.781040  	0.264644 
1091.709856  	0.252448 
1093.638672  	0.239040 
1095.567488  	0.223943 
1097.496304  	0.209013 
1099.425120  	0.194309 
1101.353936  	0.180274 
1103.282752  	0.167094 
1105.211568  	0.154936 
1107.140384  	0.143936 
1109.069200  	0.133843 
1110.998016  	0.124896 
1112.926832  	0.116926 
1114.855648  	0.109647 
1116.784464  	0.102497 
1118.713280  	0.095775 
1120.642096  	0.089450 
1122.570912  	0.083378 
1124.499728  	0.077795 
1126.428544  	0.073073 
1128.357360  	0.068872 
1130.286176  	0.065145 
1132.214992  	0.062254 
1134.143808  	0.060181 
1136.072624  	0.058505 
1138.001440  	0.056760 
1139.930256  	0.055243 
1141.859072  	0.053798 
1143.787888  	0.051995 
1145.716704  	0.050317 
1147.645520  	0.049007 
1149.574336  	0.048351 
1151.503152  	0.047510 
1153.431968  	0.047149 
1155.360784  	0.047438 
1157.289600  	0.048482 
1159.218416  	0.049522 
1161.147232  	0.051026 
1163.076048  	0.053022 
1165.004864  	0.054975 
1166.933680  	0.056594 
1168.862496  	0.058363 
1170.791312  	0.060507 
1172.720128  	0.062983 
1174.648944  	0.065700 
1176.577760  	0.068277 
1178.506576  	0.071216 
1180.435392  	0.074513 
1182.364208  	0.077679 
1184.293024  	0.081282 
1186.221840  	0.085387 
1188.150656  	0.089922 
1190.079472  	0.095242 
1192.008288  	0.101621 
1193.937104  	0.108881 
1195.865920  	0.116982 
1197.794736  	0.125676 
1199.723552  	0.135144 
1201.652368  	0.145063 
1203.581184  	0.154394 
1205.510000  	0.163102 
1207.438816  	0.170939 
1209.367632  	0.177850 
1211.296448  	0.183503 
1213.225264  	0.188153 
1215.154080  	0.190987 
1217.082896  	0.192791 
1219.011712  	0.193280 
1220.940528  	0.193033 
1222.869344  	0.191778 
1224.798160  	0.190038 
1226.726976  	0.187133 
1228.655792  	0.183756 
1230.584608  	0.179853 
1232.513424  	0.175182 
1234.442240  	0.169935 
1236.371056  	0.164343 
1238.299872  	0.158183 
1240.228688  	0.151320 
1242.157504  	0.144361 
1244.086320  	0.137528 
1246.015136  	0.130590 
1247.943952  	0.123837 
1249.872768  	0.117042 
1251.801584  	0.110591 
1253.730400  	0.104446 
1255.659216  	0.098619 
1257.588032  	0.093049 
1259.516848  	0.088043 
1261.445664  	0.083014 
1263.374480  	0.078411 
1265.303296  	0.074606 
1267.232112  	0.071602 
1269.160928  	0.069437 
1271.089744  	0.068065 
1273.018560  	0.067282 
1274.947376  	0.067335 
1276.876192  	0.068222 
1278.805008  	0.068909 
1280.733824  	0.068880 
1282.662640  	0.067510 
1284.591456  	0.065492 
1286.520272  	0.063821 
1288.449088  	0.062964 
1290.377904  	0.062714 
1292.306720  	0.063410 
1294.235536  	0.064263 
1296.164352  	0.064161 
1298.093168  	0.062438 
1300.021984  	0.059956 
1301.950800  	0.057208 
1303.879616  	0.054128 
1305.808432  	0.050965 
1307.737248  	0.047721 
1309.666064  	0.044370 
1311.594880  	0.042171 
1313.523696  	0.040740 
1315.452512  	0.039377 
1317.381328  	0.039030 
1319.310144  	0.039236 
1321.238960  	0.039111 
1323.167776  	0.039501 
1325.096592  	0.040173 
1327.025408  	0.040472 
1328.954224  	0.040421 
1330.883040  	0.039738 
1332.811856  	0.038398 
1334.740672  	0.037467 
1336.669488  	0.037870 
1338.598304  	0.039517 
1340.527120  	0.039238 
1342.455936  	0.036457 
1344.384752  	0.035488 
1346.313568  	0.035744 
1348.242384  	0.036486 
1350.171200  	0.037563 
1352.100016  	0.038902 
1354.028832  	0.040831 
1355.957648  	0.042870 
1357.886464  	0.044464 
1359.815280  	0.046570 
1361.744096  	0.050268 
1363.672912  	0.052882 
1365.601728  	0.052813 
1367.530544  	0.054334 
1369.459360  	0.056446 
1371.388176  	0.057107 
1373.316992  	0.058140 
1375.245808  	0.057502 
1377.174624  	0.054211 
1379.103440  	0.051534 
1381.032256  	0.048670 
1382.961072  	0.046311 
1384.889888  	0.044937 
1386.818704  	0.045369 
1388.747520  	0.043613 
1390.676336  	0.040485 
1392.605152  	0.038698 
1394.533968  	0.039553 
1396.462784  	0.040324 
1398.391600  	0.039897 
1400.320416  	0.039146 
1402.249232  	0.037899 
1404.178048  	0.039195 
1406.106864  	0.040309 
1408.035680  	0.040636 
1409.964496  	0.042217 
1411.893312  	0.044295 
1413.822128  	0.046095 
1415.750944  	0.048897 
1417.679760  	0.052300 
1419.608576  	0.054762 
1421.537392  	0.052890 
1423.466208  	0.052201 
1425.395024  	0.050592 
1427.323840  	0.047688 
1429.252656  	0.046293 
1431.181472  	0.044800 
1433.110288  	0.043278 
1435.039104  	0.043553 
1436.967920  	0.046615 
1438.896736  	0.046504 
1440.825552  	0.046145 
1442.754368  	0.046669 
1444.683184  	0.046801 
1446.612000  	0.047559 
1448.540816  	0.048492 
1450.469632  	0.048205 
1452.398448  	0.048533 
1454.327264  	0.049025 
1456.256080  	0.052084 
1458.184896  	0.054885 
1460.113712  	0.050510 
1462.042528  	0.047367 
1463.971344  	0.047299 
1465.900160  	0.048547 
1467.828976  	0.047796 
1469.757792  	0.048024 
1471.686608  	0.052704 
1473.615424  	0.061461 
1475.544240  	0.064445 
1477.473056  	0.067705 
1479.401872  	0.069721 
1481.330688  	0.073412 
1483.259504  	0.075594 
1485.188320  	0.077041 
1487.117136  	0.079580 
1489.045952  	0.083121 
1490.974768  	0.081949 
1492.903584  	0.076464 
1494.832400  	0.072152 
1496.761216  	0.069198 
1498.690032  	0.063801 
1500.618848  	0.057862 
1502.547664  	0.052098 
1504.476480  	0.048218 
1506.405296  	0.051405 
1508.334112  	0.053774 
1510.262928  	0.047049 
1512.191744  	0.042731 
1514.120560  	0.041174 
1516.049376  	0.043357 
1517.978192  	0.044923 
1519.907008  	0.044987 
1521.835824  	0.051209 
1523.764640  	0.052723 
1525.693456  	0.055014 
1527.622272  	0.057073 
1529.551088  	0.055481 
1531.479904  	0.053508 
1533.408720  	0.053355 
1535.337536  	0.049742 
1537.266352  	0.045516 
1539.195168  	0.045307 
1541.123984  	0.046457 
1543.052800  	0.044172 
1544.981616  	0.041848 
1546.910432  	0.037588 
1548.839248  	0.036687 
1550.768064  	0.037967 
1552.696880  	0.036552 
1554.625696  	0.038013 
1556.554512  	0.037821 
1558.483328  	0.043202 
1560.412144  	0.048625 
1562.340960  	0.045369 
1564.269776  	0.046472 
1566.198592  	0.050079 
1568.127408  	0.052584 
1570.056224  	0.060388 
1571.985040  	0.063241 
1573.913856  	0.064518 
1575.842672  	0.069491 
1577.771488  	0.074026 
1579.700304  	0.071456 
1581.629120  	0.070278 
1583.557936  	0.069602 
1585.486752  	0.070413 
1587.415568  	0.072244 
1589.344384  	0.076211 
1591.273200  	0.081178 
1593.202016  	0.087605 
1595.130832  	0.094594 
1597.059648  	0.101535 
1598.988464  	0.107248 
1600.917280  	0.113428 
1602.846096  	0.118267 
1604.774912  	0.121520 
1606.703728  	0.122661 
1608.632544  	0.123449 
1610.561360  	0.122040 
1612.490176  	0.120152 
1614.418992  	0.117540 
1616.347808  	0.119428 
1618.276624  	0.122207 
1620.205440  	0.122168 
1622.134256  	0.124400 
1624.063072  	0.132442 
1625.991888  	0.136370 
1627.920704  	0.143483 
1629.849520  	0.151147 
1631.778336  	0.156572 
1633.707152  	0.161167 
1635.635968  	0.174342 
1637.564784  	0.185335 
1639.493600  	0.186796 
1641.422416  	0.189299 
1643.351232  	0.191192 
1645.280048  	0.192572 
1647.208864  	0.200776 
1649.137680  	0.199438 
1651.066496  	0.193643 
1652.995312  	0.197143 
1654.924128  	0.202396 
1656.852944  	0.194804 
1658.781760  	0.190502 
1660.710576  	0.187343 
1662.639392  	0.185802 
1664.568208  	0.181799 
1666.497024  	0.176276 
1668.425840  	0.172545 
1670.354656  	0.169574 
1672.283472  	0.163522 
1674.212288  	0.158394 
1676.141104  	0.155963 
1678.069920  	0.151772 
1679.998736  	0.149931 
1681.927552  	0.147591 
1683.856368  	0.148648 
1685.785184  	0.149940 
1687.714000  	0.145877 
1689.642816  	0.144894 
1691.571632  	0.142579 
1693.500448  	0.139762 
1695.429264  	0.140628 
1697.358080  	0.142741 
1699.286896  	0.139520 
1701.215712  	0.141086 
1703.144528  	0.136832 
1705.073344  	0.134507 
1707.002160  	0.131245 
1708.930976  	0.125841 
1710.859792  	0.120102 
1712.788608  	0.114356 
1714.717424  	0.108587 
1716.646240  	0.101459 
1718.575056  	0.089691 
1720.503872  	0.077379 
1722.432688  	0.067964 
1724.361504  	0.058328 
1726.290320  	0.049466 
1728.219136  	0.042926 
1730.147952  	0.038243 
1732.076768  	0.033478 
1734.005584  	0.030918 
1735.934400  	0.025466 
1737.863216  	0.021590 
1739.792032  	0.019169 
1741.720848  	0.017220 
1743.649664  	0.016392 
1745.578480  	0.014824 
1747.507296  	0.014050 
1749.436112  	0.014365 
1751.364928  	0.012924 
1753.293744  	0.009844 
1755.222560  	0.008042 
1757.151376  	0.008958 
1759.080192  	0.007657 
1761.009008  	0.007361 
1762.937824  	0.007012 
1764.866640  	0.005339 
1766.795456  	0.005205 
1768.724272  	0.006076 
1770.653088  	0.005323 
1772.581904  	0.006788 
1774.510720  	0.006002 
1776.439536  	0.004557 
1778.368352  	0.003420 
1780.297168  	0.004013 
1782.225984  	0.003263 
1784.154800  	0.002865 
1786.083616  	0.002435 
1788.012432  	0.001696 
1789.941248  	0.002355 
1791.870064  	0.004297 
1793.798880  	0.003691 
1795.727696  	0.002671 
1797.656512  	0.001606 
1799.585328  	0.001631 
1801.514144  	0.002578 
1803.442960  	0.001710 
1805.371776  	0.000615 
1807.300592  	0.000437 
1809.229408  	0.000394 
1811.158224  	0.000917 
1813.087040  	0.000241 
1815.015856  	-0.000852 
1816.944672  	-0.000448 
1818.873488  	-0.000122 
1820.802304  	-0.000439 
1822.731120  	-0.000237 
1824.659936  	0.000424 
1826.588752  	0.000374 
1828.517568  	-0.000094 
1830.446384  	0.001031 
1832.375200  	-0.000263 
1834.304016  	-0.000855 
1836.232832  	-0.000525 
1838.161648  	-0.000253 
1840.090464  	-0.000803 
1842.019280  	-0.000847 
1843.948096  	0.000311 
1845.876912  	0.000943 
1847.805728  	-0.000139 
1849.734544  	-0.000929 
1851.663360  	-0.001532 
1853.592176  	-0.001261 
1855.520992  	-0.001654 
1857.449808  	-0.001645 
1859.378624  	-0.001943 
1861.307440  	-0.001732 
1863.236256  	-0.002108 
1865.165072  	-0.001960 
1867.093888  	-0.000875 
1869.022704  	0.001105 
1870.951520  	-0.000073 
1872.880336  	-0.001580 
1874.809152  	-0.002321 
1876.737968  	-0.002408 
1878.666784  	-0.002401 
1880.595600  	-0.002455 
1882.524416  	-0.002546 
1884.453232  	-0.002290 
1886.382048  	-0.002678 
1888.310864  	-0.001977 
1890.239680  	-0.001243 
1892.168496  	-0.001496 
1894.097312  	-0.001476 
1896.026128  	-0.001605 
1897.954944  	-0.002195 
1899.883760  	-0.002152 
1901.812576  	-0.002395 
1903.741392  	-0.002328 
1905.670208  	-0.002535 
1907.599024  	-0.002738 
1909.527840  	-0.002333 
1911.456656  	-0.001875 
1913.385472  	-0.002136 
1915.314288  	-0.002217 
1917.243104  	-0.001876 
1919.171920  	-0.000749 
1921.100736  	-0.001391 
1923.029552  	-0.001265 
1924.958368  	-0.002656 
1926.887184  	-0.003223 
1928.816000  	-0.003623 
1930.744816  	-0.003502 
1932.673632  	-0.003172 
1934.602448  	-0.002689 
1936.531264  	-0.002803 
1938.460080  	-0.002658 
1940.388896  	-0.002760 
1942.317712  	-0.001748 
1944.246528  	-0.002793 
1946.175344  	-0.002923 
1948.104160  	-0.003419 
1950.032976  	-0.003500 
1951.961792  	-0.003796 
1953.890608  	-0.003724 
1955.819424  	-0.004006 
1957.748240  	-0.004666 
1959.677056  	-0.005085 
1961.605872  	-0.004160 
1963.534688  	-0.003846 
1965.463504  	-0.002725 
1967.392320  	-0.003046 
1969.321136  	-0.003643 
1971.249952  	-0.005380 
1973.178768  	-0.005118 
1975.107584  	-0.004331 
1977.036400  	-0.002723 
1978.965216  	-0.002109 
1980.894032  	-0.002311 
1982.822848  	-0.002766 
1984.751664  	-0.002221 
1986.680480  	-0.002369 
1988.609296  	-0.001644 
1990.538112  	-0.001755 
1992.466928  	-0.001602 
1994.395744  	-0.003558 
1996.324560  	-0.003274 
1998.253376  	-0.003011 
2000.182192  	-0.003630 
2002.111008  	-0.004499 
2004.039824  	-0.003835 
2005.968640  	-0.004300 
2007.897456  	-0.002935 
2009.826272  	-0.002324 
2011.755088  	-0.002341 
2013.683904  	-0.002043 
2015.612720  	-0.001451 
2017.541536  	-0.001945 
2019.470352  	-0.002063 
2021.399168  	-0.003541 
2023.327984  	-0.003123 
2025.256800  	-0.001937 
2027.185616  	-0.000273 
2029.114432  	0.000073 
2031.043248  	0.000204 
2032.972064  	-0.000140 
2034.900880  	0.000162 
2036.829696  	-0.000030 
2038.758512  	0.000142 
2040.687328  	-0.000617 
2042.616144  	-0.000459 
2044.544960  	-0.001018 
2046.473776  	-0.000125 
2048.402592  	0.001119 
2050.331408  	0.001522 
2052.260224  	0.000044 
2054.189040  	-0.000589 
2056.117856  	-0.000897 
2058.046672  	-0.000569 
2059.975488  	-0.000294 
2061.904304  	0.000081 
2063.833120  	0.000265 
2065.761936  	0.000692 
2067.690752  	0.000277 
2069.619568  	0.000104 
2071.548384  	-0.000145 
2073.477200  	0.000443 
2075.406016  	0.000903 
2077.334832  	0.001021 
2079.263648  	0.001339 
2081.192464  	0.001394 
2083.121280  	0.000874 
2085.050096  	0.000737 
2086.978912  	0.000372 
2088.907728  	0.000760 
2090.836544  	0.000846 
2092.765360  	0.000858 
2094.694176  	0.000992 
2096.622992  	0.001305 
2098.551808  	0.001055 
2100.480624  	0.000991 
2102.409440  	0.000901 
2104.338256  	0.001331 
2106.267072  	0.001438 
2108.195888  	0.001683 
2110.124704  	0.001584 
2112.053520  	0.001888 
2113.982336  	0.001592 
2115.911152  	0.001235 
2117.839968  	0.000808 
2119.768784  	0.000861 
2121.697600  	0.000906 
2123.626416  	0.000665 
2125.555232  	-0.000077 
2127.484048  	-0.000254 
2129.412864  	-0.000109 
2131.341680  	0.000243 
2133.270496  	0.000190 
2135.199312  	0.000751 
2137.128128  	0.001441 
2139.056944  	0.002147 
2140.985760  	0.002170 
2142.914576  	0.002273 
2144.843392  	0.001400 
2146.772208  	0.001413 
2148.701024  	0.001141 
2150.629840  	0.000521 
2152.558656  	0.000737 
2154.487472  	0.001542 
2156.416288  	0.001672 
2158.345104  	0.004250 
2160.273920  	0.007208 
2162.202736  	0.005900 
2164.131552  	0.003808 
2166.060368  	0.004463 
2167.989184  	0.004458 
2169.918000  	0.003374 
2171.846816  	0.002976 
2173.775632  	0.003560 
2175.704448  	0.003221 
2177.633264  	0.004062 
2179.562080  	0.003934 
2181.490896  	0.004607 
2183.419712  	0.004247 
2185.348528  	0.002865 
2187.277344  	0.002869 
2189.206160  	0.003597 
2191.134976  	0.003750 
2193.063792  	0.003445 
2194.992608  	0.002979 
2196.921424  	0.002834 
2198.850240  	0.002105 
2200.779056  	0.001494 
2202.707872  	0.001280 
2204.636688  	0.001836 
2206.565504  	0.001826 
2208.494320  	0.001462 
2210.423136  	0.001312 
2212.351952  	0.001808 
2214.280768  	0.001238 
2216.209584  	0.001148 
2218.138400  	0.000779 
2220.067216  	0.000907 
2221.996032  	0.000777 
2223.924848  	0.001351 
2225.853664  	0.001819 
2227.782480  	0.001993 
2229.711296  	0.001231 
2231.640112  	0.001191 
2233.568928  	0.000692 
2235.497744  	0.000331 
2237.426560  	0.000497 
2239.355376  	0.000952 
2241.284192  	0.000605 
2243.213008  	0.000493 
2245.141824  	0.000617 
2247.070640  	0.000558 
2248.999456  	0.000385 
2250.928272  	0.000389 
2252.857088  	0.000425 
2254.785904  	0.000602 
2256.714720  	0.001047 
2258.643536  	0.001545 
2260.572352  	0.001575 
2262.501168  	0.001365 
2264.429984  	0.001210 
2266.358800  	0.001343 
2268.287616  	0.001172 
2270.216432  	0.000871 
2272.145248  	0.000998 
2274.074064  	0.001548 
2276.002880  	0.001393 
2277.931696  	0.001644 
2279.860512  	0.001913 
2281.789328  	0.002090 
2283.718144  	0.002100 
2285.646960  	0.002571 
2287.575776  	0.002595 
2289.504592  	0.002551 
2291.433408  	0.002482 
2293.362224  	0.002656 
2295.291040  	0.002687 
2297.219856  	0.003028 
2299.148672  	0.003192 
2301.077488  	0.003146 
2303.006304  	0.003369 
2304.935120  	0.003944 
2306.863936  	0.004306 
2308.792752  	0.004476 
2310.721568  	0.004566 
2312.650384  	0.004300 
2314.579200  	0.003550 
2316.508016  	0.003448 
2318.436832  	0.003866 
2320.365648  	0.004263 
2322.294464  	0.004249 
2324.223280  	0.003327 
2326.152096  	0.001222 
2328.080912  	-0.000244 
2330.009728  	-0.000521 
2331.938544  	-0.000758 
2333.867360  	-0.001547 
2335.796176  	-0.002085 
2337.724992  	-0.002527 
2339.653808  	-0.003003 
2341.582624  	-0.002621 
2343.511440  	-0.001002 
2345.440256  	0.001091 
2347.369072  	0.002081 
2349.297888  	0.001251 
2351.226704  	-0.000436 
2353.155520  	-0.002052 
2355.084336  	-0.002991 
2357.013152  	-0.003631 
2358.941968  	-0.003715 
2360.870784  	-0.003679 
2362.799600  	-0.003025 
2364.728416  	-0.001942 
2366.657232  	-0.001216 
2368.586048  	-0.000444 
2370.514864  	0.000790 
2372.443680  	0.001625 
2374.372496  	0.002728 
2376.301312  	0.003667 
2378.230128  	0.004159 
2380.158944  	0.003967 
2382.087760  	0.003188 
2384.016576  	0.002319 
2385.945392  	0.001555 
2387.874208  	0.001106 
2389.803024  	0.000705 
2391.731840  	0.000552 
2393.660656  	0.000600 
2395.589472  	0.000559 
2397.518288  	0.000488 
2399.447104  	0.000422 
2401.375920  	0.000587 
2403.304736  	0.000530 
2405.233552  	0.000420 
2407.162368  	0.000458 
2409.091184  	0.000390 
2411.020000  	0.000254 
2412.948816  	0.000338 
2414.877632  	0.000490 
2416.806448  	0.000656 
2418.735264  	0.000756 
2420.664080  	0.000842 
2422.592896  	0.000949 
2424.521712  	0.000996 
2426.450528  	0.000767 
2428.379344  	0.000668 
2430.308160  	0.000966 
2432.236976  	0.001358 
2434.165792  	0.001600 
2436.094608  	0.001567 
2438.023424  	0.001439 
2439.952240  	0.001531 
2441.881056  	0.001509 
2443.809872  	0.001501 
2445.738688  	0.001475 
2447.667504  	0.001606 
2449.596320  	0.001893 
2451.525136  	0.001926 
2453.453952  	0.001878 
2455.382768  	0.001952 
2457.311584  	0.001889 
2459.240400  	0.001848 
2461.169216  	0.001867 
2463.098032  	0.002100 
2465.026848  	0.002239 
2466.955664  	0.002162 
2468.884480  	0.001834 
2470.813296  	0.001699 
2472.742112  	0.002003 
2474.670928  	0.002141 
2476.599744  	0.002346 
2478.528560  	0.002604 
2480.457376  	0.002619 
2482.386192  	0.002848 
2484.315008  	0.002965 
2486.243824  	0.003022 
2488.172640  	0.003147 
2490.101456  	0.003339 
2492.030272  	0.003372 
2493.959088  	0.003107 
2495.887904  	0.002867 
2497.816720  	0.003173 
2499.745536  	0.003349 
2501.674352  	0.003532 
2503.603168  	0.003533 
2505.531984  	0.003489 
2507.460800  	0.003480 
2509.389616  	0.003537 
2511.318432  	0.003554 
2513.247248  	0.003833 
2515.176064  	0.003971 
2517.104880  	0.003741 
2519.033696  	0.003670 
2520.962512  	0.003891 
2522.891328  	0.003931 
2524.820144  	0.004185 
2526.748960  	0.004403 
2528.677776  	0.004503 
2530.606592  	0.004404 
2532.535408  	0.004450 
2534.464224  	0.004451 
2536.393040  	0.004545 
2538.321856  	0.004559 
2540.250672  	0.004624 
2542.179488  	0.004870 
2544.108304  	0.005132 
2546.037120  	0.005344 
2547.965936  	0.005441 
2549.894752  	0.005508 
2551.823568  	0.005639 
2553.752384  	0.005716 
2555.681200  	0.005804 
2557.610016  	0.005826 
2559.538832  	0.005711 
2561.467648  	0.005962 
2563.396464  	0.006343 
2565.325280  	0.006307 
2567.254096  	0.006257 
2569.182912  	0.006285 
2571.111728  	0.006431 
2573.040544  	0.006667 
2574.969360  	0.006917 
2576.898176  	0.007190 
2578.826992  	0.007141 
2580.755808  	0.007001 
2582.684624  	0.007192 
2584.613440  	0.007392 
2586.542256  	0.007743 
2588.471072  	0.007647 
2590.399888  	0.007564 
2592.328704  	0.007755 
2594.257520  	0.007950 
2596.186336  	0.007822 
2598.115152  	0.008045 
2600.043968  	0.008442 
2601.972784  	0.008429 
2603.901600  	0.008302 
2605.830416  	0.008311 
2607.759232  	0.008497 
2609.688048  	0.008590 
2611.616864  	0.008665 
2613.545680  	0.008798 
2615.474496  	0.009097 
2617.403312  	0.009460 
2619.332128  	0.009515 
2621.260944  	0.009420 
2623.189760  	0.009528 
2625.118576  	0.009808 
2627.047392  	0.009953 
2628.976208  	0.010078 
2630.905024  	0.010145 
2632.833840  	0.010261 
2634.762656  	0.010401 
2636.691472  	0.010600 
2638.620288  	0.010749 
2640.549104  	0.010896 
2642.477920  	0.011106 
2644.406736  	0.011190 
2646.335552  	0.011331 
2648.264368  	0.011498 
2650.193184  	0.011682 
2652.122000  	0.011791 
2654.050816  	0.011928 
2655.979632  	0.012181 
2657.908448  	0.012353 
2659.837264  	0.012462 
2661.766080  	0.012530 
2663.694896  	0.012652 
2665.623712  	0.012788 
2667.552528  	0.012972 
2669.481344  	0.013043 
2671.410160  	0.013058 
2673.338976  	0.013218 
2675.267792  	0.013495 
2677.196608  	0.013836 
2679.125424  	0.014016 
2681.054240  	0.014070 
2682.983056  	0.014219 
2684.911872  	0.014296 
2686.840688  	0.014354 
2688.769504  	0.014489 
2690.698320  	0.014640 
2692.627136  	0.014787 
2694.555952  	0.014885 
2696.484768  	0.015011 
2698.413584  	0.015070 
2700.342400  	0.015123 
2702.271216  	0.015373 
2704.200032  	0.015709 
2706.128848  	0.015835 
2708.057664  	0.015975 
2709.986480  	0.016158 
2711.915296  	0.016237 
2713.844112  	0.016312 
2715.772928  	0.016472 
2717.701744  	0.016663 
2719.630560  	0.016884 
2721.559376  	0.017039 
2723.488192  	0.017134 
2725.417008  	0.017342 
2727.345824  	0.017536 
2729.274640  	0.017842 
2731.203456  	0.018011 
2733.132272  	0.018167 
2735.061088  	0.018327 
2736.989904  	0.018355 
2738.918720  	0.018522 
2740.847536  	0.018711 
2742.776352  	0.018862 
2744.705168  	0.018993 
2746.633984  	0.019079 
2748.562800  	0.019337 
2750.491616  	0.019475 
2752.420432  	0.019408 
2754.349248  	0.019366 
2756.278064  	0.019416 
2758.206880  	0.019377 
2760.135696  	0.019363 
2762.064512  	0.019392 
2763.993328  	0.019469 
2765.922144  	0.019536 
2767.850960  	0.019553 
2769.779776  	0.019586 
2771.708592  	0.019590 
2773.637408  	0.019484 
2775.566224  	0.019500 
2777.495040  	0.019548 
2779.423856  	0.019564 
2781.352672  	0.019594 
2783.281488  	0.019587 
2785.210304  	0.019582 
2787.139120  	0.019653 
2789.067936  	0.019683 
2790.996752  	0.019689 
2792.925568  	0.019633 
2794.854384  	0.019633 
2796.783200  	0.019714 
2798.712016  	0.019702 
2800.640832  	0.019699 
2802.569648  	0.019817 
2804.498464  	0.019882 
2806.427280  	0.019896 
2808.356096  	0.019935 
2810.284912  	0.019935 
2812.213728  	0.019869 
2814.142544  	0.019878 
2816.071360  	0.019815 
2818.000176  	0.019911 
2819.928992  	0.020136 
2821.857808  	0.020149 
2823.786624  	0.019994 
2825.715440  	0.019941 
2827.644256  	0.019939 
2829.573072  	0.019979 
2831.501888  	0.020073 
2833.430704  	0.020058 
2835.359520  	0.020012 
2837.288336  	0.020034 
2839.217152  	0.019991 
2841.145968  	0.019852 
2843.074784  	0.019806 
2845.003600  	0.019879 
2846.932416  	0.019896 
2848.861232  	0.020061 
2850.790048  	0.020139 
2852.718864  	0.020142 
2854.647680  	0.020185 
2856.576496  	0.020246 
2858.505312  	0.020316 
2860.434128  	0.020473 
2862.362944  	0.020516 
2864.291760  	0.020563 
2866.220576  	0.020631 
2868.149392  	0.020640 
2870.078208  	0.020726 
2872.007024  	0.021069 
2873.935840  	0.021507 
2875.864656  	0.021775 
2877.793472  	0.022124 
2879.722288  	0.022592 
2881.651104  	0.023024 
2883.579920  	0.023446 
2885.508736  	0.023722 
2887.437552  	0.024045 
2889.366368  	0.024244 
2891.295184  	0.024349 
2893.224000  	0.024436 
2895.152816  	0.024585 
2897.081632  	0.024609 
2899.010448  	0.024295 
2900.939264  	0.024026 
2902.868080  	0.024374 
2904.796896  	0.024794 
2906.725712  	0.024956 
2908.654528  	0.025269 
2910.583344  	0.025684 
2912.512160  	0.026041 
2914.440976  	0.026516 
2916.369792  	0.027155 
2918.298608  	0.027718 
2920.227424  	0.028192 
2922.156240  	0.028731 
2924.085056  	0.029342 
2926.013872  	0.029956 
2927.942688  	0.030730 
2929.871504  	0.031507 
2931.800320  	0.032161 
2933.729136  	0.032955 
2935.657952  	0.033635 
2937.586768  	0.034175 
2939.515584  	0.034658 
2941.444400  	0.035031 
2943.373216  	0.035509 
2945.302032  	0.036082 
2947.230848  	0.036476 
2949.159664  	0.036482 
2951.088480  	0.036389 
2953.017296  	0.036478 
2954.946112  	0.036377 
2956.874928  	0.036047 
2958.803744  	0.035761 
2960.732560  	0.035701 
2962.661376  	0.035628 
2964.590192  	0.035430 
2966.519008  	0.035190 
2968.447824  	0.034749 
2970.376640  	0.034400 
2972.305456  	0.034150 
2974.234272  	0.034282 
2976.163088  	0.034343 
2978.091904  	0.034150 
2980.020720  	0.033999 
2981.949536  	0.033994 
2983.878352  	0.033966 
2985.807168  	0.033824 
2987.735984  	0.033653 
2989.664800  	0.033751 
2991.593616  	0.034306 
2993.522432  	0.034616 
2995.451248  	0.034787 
2997.380064  	0.035272 
2999.308880  	0.035915 
3001.237696  	0.036314 
3003.166512  	0.036876 
3005.095328  	0.037493 
3007.024144  	0.037866 
3008.952960  	0.038508 
3010.881776  	0.039276 
3012.810592  	0.039926 
3014.739408  	0.040491 
3016.668224  	0.040965 
3018.597040  	0.041549 
3020.525856  	0.042175 
3022.454672  	0.042676 
3024.383488  	0.043249 
3026.312304  	0.043995 
3028.241120  	0.044496 
3030.169936  	0.045271 
3032.098752  	0.046095 
3034.027568  	0.046479 
3035.956384  	0.047111 
3037.885200  	0.047630 
3039.814016  	0.048162 
3041.742832  	0.048650 
3043.671648  	0.049343 
3045.600464  	0.050112 
3047.529280  	0.050695 
3049.458096  	0.051580 
3051.386912  	0.052192 
3053.315728  	0.052682 
3055.244544  	0.053388 
3057.173360  	0.054168 
3059.102176  	0.054900 
3061.030992  	0.055735 
3062.959808  	0.056593 
3064.888624  	0.057669 
3066.817440  	0.058724 
3068.746256  	0.059462 
3070.675072  	0.060134 
3072.603888  	0.061098 
3074.532704  	0.062192 
3076.461520  	0.063045 
3078.390336  	0.063933 
3080.319152  	0.065013 
3082.247968  	0.065815 
3084.176784  	0.066670 
3086.105600  	0.067716 
3088.034416  	0.068726 
3089.963232  	0.069416 
3091.892048  	0.070289 
3093.820864  	0.071267 
3095.749680  	0.072392 
3097.678496  	0.073456 
3099.607312  	0.074382 
3101.536128  	0.075552 
3103.464944  	0.076533 
3105.393760  	0.077280 
3107.322576  	0.078130 
3109.251392  	0.079004 
3111.180208  	0.079766 
3113.109024  	0.080450 
3115.037840  	0.081399 
3116.966656  	0.082484 
3118.895472  	0.083340 
3120.824288  	0.084176 
3122.753104  	0.085061 
3124.681920  	0.085608 
3126.610736  	0.086180 
3128.539552  	0.086791 
3130.468368  	0.087351 
3132.397184  	0.088269 
3134.326000  	0.089010 
3136.254816  	0.089535 
3138.183632  	0.090345 
3140.112448  	0.091089 
3142.041264  	0.091966 
3143.970080  	0.092965 
3145.898896  	0.093637 
3147.827712  	0.094308 
3149.756528  	0.095225 
3151.685344  	0.095885 
3153.614160  	0.096557 
3155.542976  	0.097264 
3157.471792  	0.098042 
3159.400608  	0.098846 
3161.329424  	0.099655 
3163.258240  	0.100545 
3165.187056  	0.101188 
3167.115872  	0.101592 
3169.044688  	0.102409 
3170.973504  	0.103129 
3172.902320  	0.103416 
3174.831136  	0.103665 
3176.759952  	0.104155 
3178.688768  	0.104945 
3180.617584  	0.105326 
3182.546400  	0.105523 
3184.475216  	0.105835 
3186.404032  	0.106307 
3188.332848  	0.106478 
3190.261664  	0.106523 
3192.190480  	0.106767 
3194.119296  	0.106937 
3196.048112  	0.106908 
3197.976928  	0.107249 
3199.905744  	0.107457 
3201.834560  	0.107313 
3203.763376  	0.107088 
3205.692192  	0.106764 
3207.621008  	0.106741 
3209.549824  	0.107110 
3211.478640  	0.107153 
3213.407456  	0.106814 
3215.336272  	0.106835 
3217.265088  	0.106748 
3219.193904  	0.106802 
3221.122720  	0.106847 
3223.051536  	0.106469 
3224.980352  	0.106210 
3226.909168  	0.106127 
3228.837984  	0.105788 
3230.766800  	0.105557 
3232.695616  	0.105871 
3234.624432  	0.106022 
3236.553248  	0.105926 
3238.482064  	0.105978 
3240.410880  	0.105949 
3242.339696  	0.105863 
3244.268512  	0.106010 
3246.197328  	0.106231 
3248.126144  	0.106070 
3250.054960  	0.106298 
3251.983776  	0.106793 
3253.912592  	0.107329 
3255.841408  	0.107742 
3257.770224  	0.107901 
3259.699040  	0.108275 
3261.627856  	0.108446 
3263.556672  	0.108403 
3265.485488  	0.108611 
3267.414304  	0.108852 
3269.343120  	0.108994 
3271.271936  	0.109090 
3273.200752  	0.109481 
3275.129568  	0.109750 
3277.058384  	0.109797 
3278.987200  	0.109913 
3280.916016  	0.110021 
3282.844832  	0.110359 
3284.773648  	0.110572 
3286.702464  	0.110609 
3288.631280  	0.110985 
3290.560096  	0.111261 
3292.488912  	0.111368 
3294.417728  	0.111538 
3296.346544  	0.111800 
3298.275360  	0.112171 
3300.204176  	0.112426 
3302.132992  	0.112526 
3304.061808  	0.112863 
3305.990624  	0.113116 
3307.919440  	0.113670 
3309.848256  	0.113998 
3311.777072  	0.114024 
3313.705888  	0.114308 
3315.634704  	0.114761 
3317.563520  	0.115182 
3319.492336  	0.115404 
3321.421152  	0.115590 
3323.349968  	0.115729 
3325.278784  	0.115838 
3327.207600  	0.115965 
3329.136416  	0.115921 
3331.065232  	0.115876 
3332.994048  	0.115933 
3334.922864  	0.116186 
3336.851680  	0.116374 
3338.780496  	0.116207 
3340.709312  	0.115756 
3342.638128  	0.115611 
3344.566944  	0.115516 
3346.495760  	0.115119 
3348.424576  	0.114883 
3350.353392  	0.114782 
3352.282208  	0.114330 
3354.211024  	0.113934 
3356.139840  	0.113679 
3358.068656  	0.113332 
3359.997472  	0.113080 
3361.926288  	0.112810 
3363.855104  	0.112261 
3365.783920  	0.111773 
3367.712736  	0.111340 
3369.641552  	0.110857 
3371.570368  	0.110352 
3373.499184  	0.110309 
3375.428000  	0.110232 
3377.356816  	0.109772 
3379.285632  	0.109393 
3381.214448  	0.108888 
3383.143264  	0.108462 
3385.072080  	0.108393 
3387.000896  	0.107758 
3388.929712  	0.106947 
3390.858528  	0.106517 
3392.787344  	0.106701 
3394.716160  	0.106215 
3396.644976  	0.105893 
3398.573792  	0.105458 
3400.502608  	0.104417 
3402.431424  	0.103570 
3404.360240  	0.103037 
3406.289056  	0.102316 
3408.217872  	0.101733 
3410.146688  	0.101298 
3412.075504  	0.100718 
3414.004320  	0.100213 
3415.933136  	0.099707 
3417.861952  	0.099035 
3419.790768  	0.098845 
3421.719584  	0.098538 
3423.648400  	0.097678 
3425.577216  	0.096517 
3427.506032  	0.095611 
3429.434848  	0.095037 
3431.363664  	0.094684 
3433.292480  	0.094165 
3435.221296  	0.093554 
3437.150112  	0.092756 
3439.078928  	0.092098 
3441.007744  	0.091339 
3442.936560  	0.090762 
3444.865376  	0.089672 
3446.794192  	0.089856 
3448.723008  	0.089502 
3450.651824  	0.087834 
3452.580640  	0.086791 
3454.509456  	0.085741 
3456.438272  	0.084881 
3458.367088  	0.084283 
3460.295904  	0.083627 
3462.224720  	0.083122 
3464.153536  	0.082050 
3466.082352  	0.080834 
3468.011168  	0.080075 
3469.939984  	0.079271 
3471.868800  	0.078084 
3473.797616  	0.076929 
3475.726432  	0.076250 
3477.655248  	0.074921 
3479.584064  	0.073968 
3481.512880  	0.074092 
3483.441696  	0.073319 
3485.370512  	0.071532 
3487.299328  	0.070710 
3489.228144  	0.069825 
3491.156960  	0.068404 
3493.085776  	0.067456 
3495.014592  	0.066923 
3496.943408  	0.066482 
3498.872224  	0.065273 
3500.801040  	0.064697 
3502.729856  	0.065116 
3504.658672  	0.064450 
3506.587488  	0.062264 
3508.516304  	0.061651 
3510.445120  	0.061613 
3512.373936  	0.059940 
3514.302752  	0.058669 
3516.231568  	0.057868 
3518.160384  	0.057139 
3520.089200  	0.056035 
3522.018016  	0.055543 
3523.946832  	0.056316 
3525.875648  	0.055435 
3527.804464  	0.054661 
3529.733280  	0.053752 
3531.662096  	0.052057 
3533.590912  	0.050478 
3535.519728  	0.050234 
3537.448544  	0.049939 
3539.377360  	0.048147 
3541.306176  	0.046798 
3543.234992  	0.046825 
3545.163808  	0.048270 
3547.092624  	0.048268 
3549.021440  	0.045340 
3550.950256  	0.043737 
3552.879072  	0.044441 
3554.807888  	0.042837 
3556.736704  	0.040739 
3558.665520  	0.040212 
3560.594336  	0.040047 
3562.523152  	0.038980 
3564.451968  	0.038707 
3566.380784  	0.042194 
3568.309600  	0.043441 
3570.238416  	0.038454 
3572.167232  	0.035115 
3574.096048  	0.033965 
3576.024864  	0.033333 
3577.953680  	0.032540 
3579.882496  	0.031969 
3581.811312  	0.030755 
3583.740128  	0.029375 
3585.668944  	0.029542 
3587.597760  	0.032982 
3589.526576  	0.031141 
3591.455392  	0.026807 
3593.384208  	0.026187 
3595.313024  	0.026760 
3597.241840  	0.025211 
3599.170656  	0.023537 
3601.099472  	0.023342 
3603.028288  	0.021612 
3604.957104  	0.019407 
3606.885920  	0.019972 
3608.814736  	0.021609 
3610.743552  	0.019333 
3612.672368  	0.018979 
3614.601184  	0.019213 
3616.530000  	0.016558 
3618.458816  	0.016766 
3620.387632  	0.017226 
3622.316448  	0.013760 
3624.245264  	0.010869 
3626.174080  	0.009185 
3628.102896  	0.011079 
3630.031712  	0.015397 
3631.960528  	0.010615 
3633.889344  	0.008379 
3635.818160  	0.006722 
3637.746976  	0.005035 
3639.675792  	0.004158 
3641.604608  	0.003340 
3643.533424  	0.002087 
3645.462240  	0.000633 
3647.391056  	0.003053 
3649.319872  	0.006882 
3651.248688  	0.006552 
3653.177504  	0.000375 
3655.106320  	-0.002173 
3657.035136  	-0.000565 
3658.963952  	-0.002384 
3660.892768  	-0.003879 
3662.821584  	-0.004869 
3664.750400  	-0.005866 
3666.679216  	-0.006869 
3668.608032  	-0.006171 
3670.536848  	-0.002295 
3672.465664  	-0.005356 
3674.394480  	-0.006661 
3676.323296  	-0.001061 
3678.252112  	-0.003865 
3680.180928  	-0.005917 
3682.109744  	-0.007661 
3684.038560  	-0.008674 
3685.967376  	-0.009946 
3687.896192  	-0.008506 
3689.825008  	-0.004450 
3691.753824  	-0.004905 
3693.682640  	-0.007499 
3695.611456  	-0.009049 
3697.540272  	-0.009230 
3699.469088  	-0.010104 
3701.397904  	-0.008807 
3703.326720  	-0.008016 
3705.255536  	-0.009332 
3707.184352  	-0.010092 
3709.113168  	-0.009405 
3711.041984  	-0.005805 
3712.970800  	-0.004445 
3714.899616  	-0.007322 
3716.828432  	-0.009383 
3718.757248  	-0.009200 
3720.686064  	-0.008966 
3722.614880  	-0.007797 
3724.543696  	-0.007268 
3726.472512  	-0.006549 
3728.401328  	-0.008442 
3730.330144  	-0.011105 
3732.258960  	-0.009834 
3734.187776  	-0.006041 
3736.116592  	-0.001724 
3738.045408  	-0.004525 
3739.974224  	-0.007278 
3741.903040  	-0.009379 
3743.831856  	-0.008512 
3745.760672  	-0.004514 
3747.689488  	-0.008047 
3749.618304  	-0.007016 
3751.547120  	-0.003297 
3753.475936  	-0.004601 
3755.404752  	-0.008004 
3757.333568  	-0.008464 
3759.262384  	-0.007142 
3761.191200  	-0.007436 
3763.120016  	-0.009882 
3765.048832  	-0.009228 
3766.977648  	-0.008846 
3768.906464  	-0.008980 
3770.835280  	-0.007362 
3772.764096  	-0.008704 
3774.692912  	-0.010203 
3776.621728  	-0.010813 
3778.550544  	-0.009826 
3780.479360  	-0.008144 
3782.408176  	-0.009710 
3784.336992  	-0.009545 
3786.265808  	-0.008868 
3788.194624  	-0.009626 
3790.123440  	-0.010110 
3792.052256  	-0.010558 
3793.981072  	-0.011381 
3795.909888  	-0.009803 
3797.838704  	-0.008295 
3799.767520  	-0.009785 
3801.696336  	-0.005720 
3803.625152  	-0.006525 
3805.553968  	-0.009712 
3807.482784  	-0.007494 
3809.411600  	-0.008529 
3811.340416  	-0.010398 
3813.269232  	-0.011819 
3815.198048  	-0.010273 
3817.126864  	-0.007094 
3819.055680  	-0.009275 
3820.984496  	-0.006141 
3822.913312  	-0.005325 
3824.842128  	-0.008933 
3826.770944  	-0.008715 
3828.699760  	-0.009576 
3830.628576  	-0.010500 
3832.557392  	-0.009701 
3834.486208  	-0.010059 
3836.415024  	-0.009593 
3838.343840  	-0.006692 
3840.272656  	-0.005036 
3842.201472  	-0.006665 
3844.130288  	-0.007208 
3846.059104  	-0.008910 
3847.987920  	-0.010737 
3849.916736  	-0.011413 
3851.845552  	-0.010138 
3853.774368  	-0.001900 
3855.703184  	-0.002994 
3857.632000  	-0.006599 
3859.560816  	-0.009339 
3861.489632  	-0.009581 
3863.418448  	-0.007891 
3865.347264  	-0.006001 
3867.276080  	-0.008790 
3869.204896  	-0.007893 
3871.133712  	-0.004585 
3873.062528  	-0.006995 
3874.991344  	-0.006871 
3876.920160  	-0.009867 
3878.848976  	-0.010640 
3880.777792  	-0.006820 
3882.706608  	-0.007492 
3884.635424  	-0.008343 
3886.564240  	-0.006450 
3888.493056  	-0.009777 
3890.421872  	-0.009789 
3892.350688  	-0.007010 
3894.279504  	-0.008436 
3896.208320  	-0.010659 
3898.137136  	-0.010141 
3900.065952  	-0.007362 
3901.994768  	-0.006392 
3903.923584  	-0.005272 
3905.852400  	-0.005682 
3907.781216  	-0.008669 
3909.710032  	-0.010450 
3911.638848  	-0.010782 
3913.567664  	-0.010878 
3915.496480  	-0.010003 
3917.425296  	-0.007857 
3919.354112  	-0.007879 
3921.282928  	-0.008635 
3923.211744  	-0.008643 
3925.140560  	-0.007519 
3927.069376  	-0.009030 
3928.998192  	-0.009730 
3930.927008  	-0.008307 
3932.855824  	-0.007156 
3934.784640  	-0.008569 
3936.713456  	-0.009733 
3938.642272  	-0.009971 
3940.571088  	-0.010155 
3942.499904  	-0.008385 
3944.428720  	-0.008381 
3946.357536  	-0.009769 
3948.286352  	-0.008673 
3950.215168  	-0.008659 
3952.143984  	-0.009834 
3954.072800  	-0.010368 
3956.001616  	-0.010119 
3957.930432  	-0.009738 
3959.859248  	-0.009582 
3961.788064  	-0.009252 
3963.716880  	-0.009547 
3965.645696  	-0.010372 
3967.574512  	-0.010593 
3969.503328  	-0.010367 
3971.432144  	-0.010176 
3973.360960  	-0.009714 
3975.289776  	-0.009139 
3977.218592  	-0.009448 
3979.147408  	-0.010033 
3981.076224  	-0.010197 
3983.005040  	-0.010124 
3984.933856  	-0.010066 
3986.862672  	-0.010051 
3988.791488  	-0.010114 
3990.720304  	-0.009679 
3992.649120  	-0.009856 
3994.577936  	-0.009949 
3996.506752  	-0.009932 
3998.435568  	-0.010169 
4000.364384  	-0.010215 