##TITLE=No Description
##DATA TYPE=INFRARED SPECTRUM
##XUNITS=1/CM
##YUNITS=Abs
399.264912  	0.357064 
401.193728  	0.333292 
403.122544  	0.337553 
405.051360  	0.338961 
406.980176  	0.340492 
408.908992  	0.331333 
410.837808  	0.332109 
412.766624  	0.329689 
414.695440  	0.324727 
416.624256  	0.327351 
418.553072  	0.343184 
420.481888  	0.334650 
422.410704  	0.332808 
424.339520  	0.334382 
426.268336  	0.326065 
428.197152  	0.316312 
430.125968  	0.312700 
432.054784  	0.306280 
433.983600  	0.308152 
435.912416  	0.310158 
437.841232  	0.304722 
439.770048  	0.298775 
441.698864  	0.301102 
443.627680  	0.300394 
445.556496  	0.299838 
447.485312  	0.296172 
449.414128  	0.295481 
451.342944  	0.293940 
453.271760  	0.295576 
455.200576  	0.291320 
457.129392  	0.290367 
459.058208  	0.290277 
460.987024  	0.292790 
462.915840  	0.291964 
464.844656  	0.290368 
466.773472  	0.285624 
468.702288  	0.281583 
470.631104  	0.283000 
472.559920  	0.286407 
474.488736  	0.280517 
476.417552  	0.279329 
478.346368  	0.276282 
480.275184  	0.275548 
482.204000  	0.276162 
484.132816  	0.277313 
486.061632  	0.277237 
487.990448  	0.276142 
489.919264  	0.277191 
491.848080  	0.277926 
493.776896  	0.275956 
495.705712  	0.274351 
497.634528  	0.270919 
499.563344  	0.270619 
501.492160  	0.271077 
503.420976  	0.271779 
505.349792  	0.268381 
507.278608  	0.268671 
509.207424  	0.267148 
511.136240  	0.267549 
513.065056  	0.266548 
514.993872  	0.267381 
516.922688  	0.268664 
518.851504  	0.269998 
520.780320  	0.266544 
522.709136  	0.264693 
524.637952  	0.264314 
526.566768  	0.264774 
528.495584  	0.262521 
530.424400  	0.260422 
532.353216  	0.258008 
534.282032  	0.256610 
536.210848  	0.255033 
538.139664  	0.252162 
540.068480  	0.249669 
541.997296  	0.247870 
543.926112  	0.246583 
545.854928  	0.245824 
547.783744  	0.244229 
549.712560  	0.244081 
551.641376  	0.241740 
553.570192  	0.240388 
555.499008  	0.238853 
557.427824  	0.236562 
559.356640  	0.233441 
561.285456  	0.232711 
563.214272  	0.231699 
565.143088  	0.229900 
567.071904  	0.227467 
569.000720  	0.226510 
570.929536  	0.225369 
572.858352  	0.223376 
574.787168  	0.221788 
576.715984  	0.221118 
578.644800  	0.219503 
580.573616  	0.217439 
582.502432  	0.214313 
584.431248  	0.212162 
586.360064  	0.209936 
588.288880  	0.207882 
590.217696  	0.206895 
592.146512  	0.206767 
594.075328  	0.204813 
596.004144  	0.203202 
597.932960  	0.201329 
599.861776  	0.201360 
601.790592  	0.200653 
603.719408  	0.199720 
605.648224  	0.199063 
607.577040  	0.198308 
609.505856  	0.196731 
611.434672  	0.195633 
613.363488  	0.194422 
615.292304  	0.194043 
617.221120  	0.193156 
619.149936  	0.192345 
621.078752  	0.191119 
623.007568  	0.190321 
624.936384  	0.189570 
626.865200  	0.188613 
628.794016  	0.187652 
630.722832  	0.187177 
632.651648  	0.187050 
634.580464  	0.186718 
636.509280  	0.186384 
638.438096  	0.185650 
640.366912  	0.184680 
642.295728  	0.183757 
644.224544  	0.182580 
646.153360  	0.181170 
648.082176  	0.178944 
650.010992  	0.177930 
651.939808  	0.176267 
653.868624  	0.173957 
655.797440  	0.171252 
657.726256  	0.169548 
659.655072  	0.168386 
661.583888  	0.166513 
663.512704  	0.164110 
665.441520  	0.160840 
667.370336  	0.159416 
669.299152  	0.161883 
671.227968  	0.157812 
673.156784  	0.154621 
675.085600  	0.153436 
677.014416  	0.151697 
678.943232  	0.150139 
680.872048  	0.149502 
682.800864  	0.148986 
684.729680  	0.147985 
686.658496  	0.146965 
688.587312  	0.146357 
690.516128  	0.145344 
692.444944  	0.144712 
694.373760  	0.143614 
696.302576  	0.142471 
698.231392  	0.140996 
700.160208  	0.139553 
702.089024  	0.137754 
704.017840  	0.136533 
705.946656  	0.135278 
707.875472  	0.133429 
709.804288  	0.132343 
711.733104  	0.131630 
713.661920  	0.130651 
715.590736  	0.129687 
717.519552  	0.128930 
719.448368  	0.128888 
721.377184  	0.129241 
723.306000  	0.129014 
725.234816  	0.128686 
727.163632  	0.128105 
729.092448  	0.126953 
731.021264  	0.125528 
732.950080  	0.123712 
734.878896  	0.121983 
736.807712  	0.120479 
738.736528  	0.119135 
740.665344  	0.118185 
742.594160  	0.117774 
744.522976  	0.116800 
746.451792  	0.115940 
748.380608  	0.114728 
750.309424  	0.113544 
752.238240  	0.112756 
754.167056  	0.112299 
756.095872  	0.111772 
758.024688  	0.111120 
759.953504  	0.110688 
761.882320  	0.110789 
763.811136  	0.111193 
765.739952  	0.110274 
767.668768  	0.108618 
769.597584  	0.107039 
771.526400  	0.106288 
773.455216  	0.106692 
775.384032  	0.108093 
777.312848  	0.110217 
779.241664  	0.111600 
781.170480  	0.111123 
783.099296  	0.108591 
785.028112  	0.105832 
786.956928  	0.103163 
788.885744  	0.101176 
790.814560  	0.099331 
792.743376  	0.098339 
794.672192  	0.097794 
796.601008  	0.097109 
798.529824  	0.095468 
800.458640  	0.093201 
802.387456  	0.091278 
804.316272  	0.089963 
806.245088  	0.089156 
808.173904  	0.088262 
810.102720  	0.087834 
812.031536  	0.087618 
813.960352  	0.087281 
815.889168  	0.087004 
817.817984  	0.086961 
819.746800  	0.087110 
821.675616  	0.087109 
823.604432  	0.086975 
825.533248  	0.086610 
827.462064  	0.086373 
829.390880  	0.085990 
831.319696  	0.085827 
833.248512  	0.085314 
835.177328  	0.084321 
837.106144  	0.082968 
839.034960  	0.081585 
840.963776  	0.079596 
842.892592  	0.077610 
844.821408  	0.075722 
846.750224  	0.073906 
848.679040  	0.072308 
850.607856  	0.071077 
852.536672  	0.070279 
854.465488  	0.069698 
856.394304  	0.069089 
858.323120  	0.067925 
860.251936  	0.066941 
862.180752  	0.066058 
864.109568  	0.064717 
866.038384  	0.063428 
867.967200  	0.062265 
869.896016  	0.061256 
871.824832  	0.060409 
873.753648  	0.060435 
875.682464  	0.060555 
877.611280  	0.061088 
879.540096  	0.061762 
881.468912  	0.062589 
883.397728  	0.063558 
885.326544  	0.064516 
887.255360  	0.065247 
889.184176  	0.065260 
891.112992  	0.064835 
893.041808  	0.064125 
894.970624  	0.063207 
896.899440  	0.061450 
898.828256  	0.059244 
900.757072  	0.057159 
902.685888  	0.055353 
904.614704  	0.054276 
906.543520  	0.054201 
908.472336  	0.054858 
910.401152  	0.055591 
912.329968  	0.056853 
914.258784  	0.058161 
916.187600  	0.059558 
918.116416  	0.060445 
920.045232  	0.060929 
921.974048  	0.061211 
923.902864  	0.061552 
925.831680  	0.061657 
927.760496  	0.061804 
929.689312  	0.062205 
931.618128  	0.062782 
933.546944  	0.063214 
935.475760  	0.063081 
937.404576  	0.062770 
939.333392  	0.062398 
941.262208  	0.062199 
943.191024  	0.062669 
945.119840  	0.063878 
947.048656  	0.066014 
948.977472  	0.069305 
950.906288  	0.073362 
952.835104  	0.078256 
954.763920  	0.083859 
956.692736  	0.089346 
958.621552  	0.094402 
960.550368  	0.098101 
962.479184  	0.100652 
964.408000  	0.101186 
966.336816  	0.099626 
968.265632  	0.096114 
970.194448  	0.091351 
972.123264  	0.085314 
974.052080  	0.078543 
975.980896  	0.071904 
977.909712  	0.065523 
979.838528  	0.059958 
981.767344  	0.055225 
983.696160  	0.051583 
985.624976  	0.049154 
987.553792  	0.048290 
989.482608  	0.048644 
991.411424  	0.050152 
993.340240  	0.052740 
995.269056  	0.055600 
997.197872  	0.058745 
999.126688  	0.061828 
1001.055504  	0.065104 
1002.984320  	0.068092 
1004.913136  	0.071238 
1006.841952  	0.074167 
1008.770768  	0.076965 
1010.699584  	0.079223 
1012.628400  	0.081052 
1014.557216  	0.082373 
1016.486032  	0.083009 
1018.414848  	0.083370 
1020.343664  	0.083362 
1022.272480  	0.083365 
1024.201296  	0.083067 
1026.130112  	0.082514 
1028.058928  	0.082544 
1029.987744  	0.083377 
1031.916560  	0.084149 
1033.845376  	0.085078 
1035.774192  	0.086511 
1037.703008  	0.088573 
1039.631824  	0.092147 
1041.560640  	0.096676 
1043.489456  	0.102496 
1045.418272  	0.109107 
1047.347088  	0.116038 
1049.275904  	0.121142 
1051.204720  	0.124332 
1053.133536  	0.125754 
1055.062352  	0.125407 
1056.991168  	0.124079 
1058.919984  	0.123157 
1060.848800  	0.122682 
1062.777616  	0.121864 
1064.706432  	0.120494 
1066.635248  	0.119277 
1068.564064  	0.118206 
1070.492880  	0.116037 
1072.421696  	0.113230 
1074.350512  	0.111284 
1076.279328  	0.110898 
1078.208144  	0.112529 
1080.136960  	0.114911 
1082.065776  	0.117263 
1083.994592  	0.118052 
1085.923408  	0.117171 
1087.852224  	0.114532 
1089.781040  	0.111312 
1091.709856  	0.107002 
1093.638672  	0.101640 
1095.567488  	0.095538 
1097.496304  	0.089549 
1099.425120  	0.083363 
1101.353936  	0.077126 
1103.282752  	0.071283 
1105.211568  	0.065714 
1107.140384  	0.060607 
1109.069200  	0.055933 
1110.998016  	0.051763 
1112.926832  	0.047887 
1114.855648  	0.044514 
1116.784464  	0.041015 
1118.713280  	0.037642 
1120.642096  	0.034753 
1122.570912  	0.031894 
1124.499728  	0.029118 
1126.428544  	0.026819 
1128.357360  	0.024845 
1130.286176  	0.023024 
1132.214992  	0.021649 
1134.143808  	0.020631 
1136.072624  	0.019764 
1138.001440  	0.018923 
1139.930256  	0.018131 
1141.859072  	0.017240 
1143.787888  	0.016306 
1145.716704  	0.015525 
1147.645520  	0.014854 
1149.574336  	0.014394 
1151.503152  	0.013797 
1153.431968  	0.013567 
1155.360784  	0.013672 
1157.289600  	0.014326 
1159.218416  	0.014986 
1161.147232  	0.015635 
1163.076048  	0.016560 
1165.004864  	0.017542 
1166.933680  	0.018506 
1168.862496  	0.019444 
1170.791312  	0.020638 
1172.720128  	0.021991 
1174.648944  	0.023395 
1176.577760  	0.024501 
1178.506576  	0.025955 
1180.435392  	0.027587 
1182.364208  	0.029218 
1184.293024  	0.031090 
1186.221840  	0.033172 
1188.150656  	0.035438 
1190.079472  	0.037887 
1192.008288  	0.040847 
1193.937104  	0.044098 
1195.865920  	0.047680 
1197.794736  	0.051676 
1199.723552  	0.056002 
1201.652368  	0.060178 
1203.581184  	0.064081 
1205.510000  	0.067931 
1207.438816  	0.071360 
1209.367632  	0.074541 
1211.296448  	0.077101 
1213.225264  	0.079037 
1215.154080  	0.080104 
1217.082896  	0.080898 
1219.011712  	0.081142 
1220.940528  	0.081084 
1222.869344  	0.080643 
1224.798160  	0.080176 
1226.726976  	0.079039 
1228.655792  	0.077520 
1230.584608  	0.076014 
1232.513424  	0.074114 
1234.442240  	0.072015 
1236.371056  	0.069911 
1238.299872  	0.067463 
1240.228688  	0.064315 
1242.157504  	0.061272 
1244.086320  	0.058544 
1246.015136  	0.055424 
1247.943952  	0.052393 
1249.872768  	0.049233 
1251.801584  	0.046360 
1253.730400  	0.043650 
1255.659216  	0.041009 
1257.588032  	0.038430 
1259.516848  	0.036211 
1261.445664  	0.033813 
1263.374480  	0.031477 
1265.303296  	0.029599 
1267.232112  	0.028308 
1269.160928  	0.027424 
1271.089744  	0.026779 
1273.018560  	0.026279 
1274.947376  	0.026047 
1276.876192  	0.026320 
1278.805008  	0.026600 
1280.733824  	0.026553 
1282.662640  	0.025677 
1284.591456  	0.024708 
1286.520272  	0.024226 
1288.449088  	0.023964 
1290.377904  	0.023504 
1292.306720  	0.023538 
1294.235536  	0.023833 
1296.164352  	0.023892 
1298.093168  	0.023072 
1300.021984  	0.021779 
1301.950800  	0.020349 
1303.879616  	0.018910 
1305.808432  	0.017560 
1307.737248  	0.016202 
1309.666064  	0.014669 
1311.594880  	0.013965 
1313.523696  	0.013639 
1315.452512  	0.012959 
1317.381328  	0.012958 
1319.310144  	0.013135 
1321.238960  	0.012622 
1323.167776  	0.012385 
1325.096592  	0.012513 
1327.025408  	0.012650 
1328.954224  	0.012722 
1330.883040  	0.012387 
1332.811856  	0.011639 
1334.740672  	0.011379 
1336.669488  	0.012438 
1338.598304  	0.014620 
1340.527120  	0.014348 
1342.455936  	0.011147 
1344.384752  	0.010059 
1346.313568  	0.010206 
1348.242384  	0.010754 
1350.171200  	0.011311 
1352.100016  	0.011875 
1354.028832  	0.013003 
1355.957648  	0.014246 
1357.886464  	0.015128 
1359.815280  	0.016508 
1361.744096  	0.019552 
1363.672912  	0.020930 
1365.601728  	0.019234 
1367.530544  	0.019606 
1369.459360  	0.020652 
1371.388176  	0.020613 
1373.316992  	0.021807 
1375.245808  	0.021766 
1377.174624  	0.019203 
1379.103440  	0.017619 
1381.032256  	0.015764 
1382.961072  	0.014252 
1384.889888  	0.013813 
1386.818704  	0.015336 
1388.747520  	0.014201 
1390.676336  	0.011652 
1392.605152  	0.010729 
1394.533968  	0.012556 
1396.462784  	0.013768 
1398.391600  	0.013340 
1400.320416  	0.012036 
1402.249232  	0.010462 
1404.178048  	0.011736 
1406.106864  	0.012388 
1408.035680  	0.011938 
1409.964496  	0.012926 
1411.893312  	0.014214 
1413.822128  	0.014955 
1415.750944  	0.017060 
1417.679760  	0.020195 
1419.608576  	0.021758 
1421.537392  	0.019321 
1423.466208  	0.019096 
1425.395024  	0.018098 
1427.323840  	0.015825 
1429.252656  	0.015787 
1431.181472  	0.015353 
1433.110288  	0.014378 
1435.039104  	0.014773 
1436.967920  	0.017227 
1438.896736  	0.015715 
1440.825552  	0.014638 
1442.754368  	0.014732 
1444.683184  	0.014717 
1446.612000  	0.015654 
1448.540816  	0.016698 
1450.469632  	0.015992 
1452.398448  	0.016087 
1454.327264  	0.016753 
1456.256080  	0.020710 
1458.184896  	0.023991 
1460.113712  	0.018939 
1462.042528  	0.015486 
1463.971344  	0.016051 
1465.900160  	0.017543 
1467.828976  	0.016406 
1469.757792  	0.016356 
1471.686608  	0.020804 
1473.615424  	0.027221 
1475.544240  	0.027554 
1477.473056  	0.027804 
1479.401872  	0.027488 
1481.330688  	0.029448 
1483.259504  	0.030198 
1485.188320  	0.030689 
1487.117136  	0.032962 
1489.045952  	0.036549 
1490.974768  	0.035791 
1492.903584  	0.030283 
1494.832400  	0.027461 
1496.761216  	0.027776 
1498.690032  	0.025595 
1500.618848  	0.022205 
1502.547664  	0.018690 
1504.476480  	0.016614 
1506.405296  	0.022821 
1508.334112  	0.027115 
1510.262928  	0.020059 
1512.191744  	0.015675 
1514.120560  	0.014441 
1516.049376  	0.017152 
1517.978192  	0.018223 
1519.907008  	0.017594 
1521.835824  	0.022165 
1523.764640  	0.021495 
1525.693456  	0.022402 
1527.622272  	0.023020 
1529.551088  	0.020769 
1531.479904  	0.019491 
1533.408720  	0.021420 
1535.337536  	0.019200 
1537.266352  	0.015802 
1539.195168  	0.017436 
1541.123984  	0.021271 
1543.052800  	0.019603 
1544.981616  	0.017342 
1546.910432  	0.012401 
1548.839248  	0.011813 
1550.768064  	0.013111 
1552.696880  	0.011562 
1554.625696  	0.012957 
1556.554512  	0.012848 
1558.483328  	0.018376 
1560.412144  	0.021043 
1562.340960  	0.016054 
1564.269776  	0.015920 
1566.198592  	0.017626 
1568.127408  	0.018865 
1570.056224  	0.024226 
1571.985040  	0.024328 
1573.913856  	0.023763 
1575.842672  	0.027819 
1577.771488  	0.031075 
1579.700304  	0.027823 
1581.629120  	0.026698 
1583.557936  	0.026397 
1585.486752  	0.026880 
1587.415568  	0.027740 
1589.344384  	0.029730 
1591.273200  	0.031981 
1593.202016  	0.035055 
1595.130832  	0.038497 
1597.059648  	0.041248 
1598.988464  	0.043179 
1600.917280  	0.045918 
1602.846096  	0.048171 
1604.774912  	0.049314 
1606.703728  	0.049648 
1608.632544  	0.050455 
1610.561360  	0.049671 
1612.490176  	0.048108 
1614.418992  	0.045904 
1616.347808  	0.048891 
1618.276624  	0.052036 
1620.205440  	0.049804 
1622.134256  	0.050703 
1624.063072  	0.056432 
1625.991888  	0.056935 
1627.920704  	0.060221 
1629.849520  	0.063379 
1631.778336  	0.063744 
1633.707152  	0.064073 
1635.635968  	0.074199 
1637.564784  	0.081624 
1639.493600  	0.078387 
1641.422416  	0.077959 
1643.351232  	0.076993 
1645.280048  	0.077025 
1647.208864  	0.086878 
1649.137680  	0.084748 
1651.066496  	0.075468 
1652.995312  	0.082655 
1654.924128  	0.091625 
1656.852944  	0.081817 
1658.781760  	0.077179 
1660.710576  	0.075012 
1662.639392  	0.076567 
1664.568208  	0.075467 
1666.497024  	0.070400 
1668.425840  	0.069610 
1670.354656  	0.072046 
1672.283472  	0.068286 
1674.212288  	0.064695 
1676.141104  	0.066483 
1678.069920  	0.063078 
1679.998736  	0.062745 
1681.927552  	0.060840 
1683.856368  	0.063885 
1685.785184  	0.067396 
1687.714000  	0.062202 
1689.642816  	0.061235 
1691.571632  	0.058887 
1693.500448  	0.055282 
1695.429264  	0.057338 
1697.358080  	0.061157 
1699.286896  	0.057536 
1701.215712  	0.061750 
1703.144528  	0.056561 
1705.073344  	0.054767 
1707.002160  	0.053802 
1708.930976  	0.049799 
1710.859792  	0.046750 
1712.788608  	0.044075 
1714.717424  	0.042842 
1716.646240  	0.041458 
1718.575056  	0.037220 
1720.503872  	0.029352 
1722.432688  	0.023971 
1724.361504  	0.019707 
1726.290320  	0.015136 
1728.219136  	0.012592 
1730.147952  	0.011812 
1732.076768  	0.010155 
1734.005584  	0.009825 
1735.934400  	0.006116 
1737.863216  	0.003337 
1739.792032  	0.002560 
1741.720848  	0.001562 
1743.649664  	0.001889 
1745.578480  	0.001000 
1747.507296  	0.001041 
1749.436112  	0.001841 
1751.364928  	0.000718 
1753.293744  	-0.002532 
1755.222560  	-0.003817 
1757.151376  	-0.002703 
1759.080192  	-0.003526 
1761.009008  	-0.003505 
1762.937824  	-0.003822 
1764.866640  	-0.005360 
1766.795456  	-0.004920 
1768.724272  	-0.003799 
1770.653088  	-0.003837 
1772.581904  	-0.002632 
1774.510720  	-0.003650 
1776.439536  	-0.004917 
1778.368352  	-0.005721 
1780.297168  	-0.005097 
1782.225984  	-0.005790 
1784.154800  	-0.006140 
1786.083616  	-0.006523 
1788.012432  	-0.007180 
1789.941248  	-0.005868 
1791.870064  	-0.003770 
1793.798880  	-0.004722 
1795.727696  	-0.005500 
1797.656512  	-0.006419 
1799.585328  	-0.006564 
1801.514144  	-0.005558 
1803.442960  	-0.006595 
1805.371776  	-0.007636 
1807.300592  	-0.007658 
1809.229408  	-0.007400 
1811.158224  	-0.006984 
1813.087040  	-0.007865 
1815.015856  	-0.008795 
1816.944672  	-0.008222 
1818.873488  	-0.008065 
1820.802304  	-0.008155 
1822.731120  	-0.007789 
1824.659936  	-0.006969 
1826.588752  	-0.007249 
1828.517568  	-0.007151 
1830.446384  	-0.006313 
1832.375200  	-0.007919 
1834.304016  	-0.008571 
1836.232832  	-0.008154 
1838.161648  	-0.007855 
1840.090464  	-0.008350 
1842.019280  	-0.008105 
1843.948096  	-0.006760 
1845.876912  	-0.006438 
1847.805728  	-0.007402 
1849.734544  	-0.008529 
1851.663360  	-0.009111 
1853.592176  	-0.009019 
1855.520992  	-0.009200 
1857.449808  	-0.008939 
1859.378624  	-0.009057 
1861.307440  	-0.009044 
1863.236256  	-0.009308 
1865.165072  	-0.008994 
1867.093888  	-0.007522 
1869.022704  	-0.006208 
1870.951520  	-0.007740 
1872.880336  	-0.009186 
1874.809152  	-0.009777 
1876.737968  	-0.009948 
1878.666784  	-0.009764 
1880.595600  	-0.009952 
1882.524416  	-0.010019 
1884.453232  	-0.009652 
1886.382048  	-0.009776 
1888.310864  	-0.008898 
1890.239680  	-0.008286 
1892.168496  	-0.008970 
1894.097312  	-0.008971 
1896.026128  	-0.009069 
1897.954944  	-0.009527 
1899.883760  	-0.009569 
1901.812576  	-0.009587 
1903.741392  	-0.009544 
1905.670208  	-0.009652 
1907.599024  	-0.009694 
1909.527840  	-0.009416 
1911.456656  	-0.009271 
1913.385472  	-0.009512 
1915.314288  	-0.009508 
1917.243104  	-0.009245 
1919.171920  	-0.008544 
1921.100736  	-0.008587 
1923.029552  	-0.008371 
1924.958368  	-0.009994 
1926.887184  	-0.010460 
1928.816000  	-0.010617 
1930.744816  	-0.010681 
1932.673632  	-0.010546 
1934.602448  	-0.010178 
1936.531264  	-0.010246 
1938.460080  	-0.010379 
1940.388896  	-0.010122 
1942.317712  	-0.008564 
1944.246528  	-0.009116 
1946.175344  	-0.009754 
1948.104160  	-0.009931 
1950.032976  	-0.009630 
1951.961792  	-0.010200 
1953.890608  	-0.010644 
1955.819424  	-0.011214 
1957.748240  	-0.011880 
1959.677056  	-0.011494 
1961.605872  	-0.010871 
1963.534688  	-0.011101 
1965.463504  	-0.010316 
1967.392320  	-0.009615 
1969.321136  	-0.010533 
1971.249952  	-0.011875 
1973.178768  	-0.011913 
1975.107584  	-0.010961 
1977.036400  	-0.009893 
1978.965216  	-0.010448 
1980.894032  	-0.011184 
1982.822848  	-0.010960 
1984.751664  	-0.010878 
1986.680480  	-0.010013 
1988.609296  	-0.009217 
1990.538112  	-0.008921 
1992.466928  	-0.007811 
1994.395744  	-0.009444 
1996.324560  	-0.010590 
1998.253376  	-0.010883 
2000.182192  	-0.010866 
2002.111008  	-0.010957 
2004.039824  	-0.010427 
2005.968640  	-0.010707 
2007.897456  	-0.010977 
2009.826272  	-0.010553 
2011.755088  	-0.009733 
2013.683904  	-0.010051 
2015.612720  	-0.010907 
2017.541536  	-0.011556 
2019.470352  	-0.011055 
2021.399168  	-0.010882 
2023.327984  	-0.010635 
2025.256800  	-0.010644 
2027.185616  	-0.009669 
2029.114432  	-0.009199 
2031.043248  	-0.010075 
2032.972064  	-0.010745 
2034.900880  	-0.009799 
2036.829696  	-0.009266 
2038.758512  	-0.008981 
2040.687328  	-0.009877 
2042.616144  	-0.010047 
2044.544960  	-0.009971 
2046.473776  	-0.009439 
2048.402592  	-0.009024 
2050.331408  	-0.009302 
2052.260224  	-0.009428 
2054.189040  	-0.008979 
2056.117856  	-0.009111 
2058.046672  	-0.008928 
2059.975488  	-0.008796 
2061.904304  	-0.008670 
2063.833120  	-0.008634 
2065.761936  	-0.008401 
2067.690752  	-0.009140 
2069.619568  	-0.009149 
2071.548384  	-0.009222 
2073.477200  	-0.008831 
2075.406016  	-0.008332 
2077.334832  	-0.007995 
2079.263648  	-0.007718 
2081.192464  	-0.007923 
2083.121280  	-0.008484 
2085.050096  	-0.008383 
2086.978912  	-0.008525 
2088.907728  	-0.008612 
2090.836544  	-0.008427 
2092.765360  	-0.008698 
2094.694176  	-0.008440 
2096.622992  	-0.007874 
2098.551808  	-0.008128 
2100.480624  	-0.008374 
2102.409440  	-0.008608 
2104.338256  	-0.008464 
2106.267072  	-0.008001 
2108.195888  	-0.008005 
2110.124704  	-0.008125 
2112.053520  	-0.007817 
2113.982336  	-0.007701 
2115.911152  	-0.007763 
2117.839968  	-0.008075 
2119.768784  	-0.008021 
2121.697600  	-0.008254 
2123.626416  	-0.008819 
2125.555232  	-0.009151 
2127.484048  	-0.009204 
2129.412864  	-0.009120 
2131.341680  	-0.008493 
2133.270496  	-0.007877 
2135.199312  	-0.007978 
2137.128128  	-0.007739 
2139.056944  	-0.007070 
2140.985760  	-0.007452 
2142.914576  	-0.008137 
2144.843392  	-0.008766 
2146.772208  	-0.008096 
2148.701024  	-0.007616 
2150.629840  	-0.008125 
2152.558656  	-0.008246 
2154.487472  	-0.007824 
2156.416288  	-0.008309 
2158.345104  	-0.007064 
2160.273920  	-0.004506 
2162.202736  	-0.004475 
2164.131552  	-0.005570 
2166.060368  	-0.005074 
2167.989184  	-0.006055 
2169.918000  	-0.007366 
2171.846816  	-0.007316 
2173.775632  	-0.006843 
2175.704448  	-0.006694 
2177.633264  	-0.006397 
2179.562080  	-0.006893 
2181.490896  	-0.006627 
2183.419712  	-0.005964 
2185.348528  	-0.006387 
2187.277344  	-0.007504 
2189.206160  	-0.007765 
2191.134976  	-0.007863 
2193.063792  	-0.008191 
2194.992608  	-0.008343 
2196.921424  	-0.007784 
2198.850240  	-0.008452 
2200.779056  	-0.009147 
2202.707872  	-0.008993 
2204.636688  	-0.008216 
2206.565504  	-0.008670 
2208.494320  	-0.009119 
2210.423136  	-0.009276 
2212.351952  	-0.008687 
2214.280768  	-0.008605 
2216.209584  	-0.008613 
2218.138400  	-0.008726 
2220.067216  	-0.009195 
2221.996032  	-0.009337 
2223.924848  	-0.009146 
2225.853664  	-0.008862 
2227.782480  	-0.008691 
2229.711296  	-0.009520 
2231.640112  	-0.009735 
2233.568928  	-0.009581 
2235.497744  	-0.009287 
2237.426560  	-0.009164 
2239.355376  	-0.009217 
2241.284192  	-0.009600 
2243.213008  	-0.009705 
2245.141824  	-0.009215 
2247.070640  	-0.009270 
2248.999456  	-0.009345 
2250.928272  	-0.009208 
2252.857088  	-0.009330 
2254.785904  	-0.009024 
2256.714720  	-0.008464 
2258.643536  	-0.007874 
2260.572352  	-0.007858 
2262.501168  	-0.008255 
2264.429984  	-0.008058 
2266.358800  	-0.008013 
2268.287616  	-0.008469 
2270.216432  	-0.008479 
2272.145248  	-0.008297 
2274.074064  	-0.007757 
2276.002880  	-0.007921 
2277.931696  	-0.007847 
2279.860512  	-0.007821 
2281.789328  	-0.007902 
2283.718144  	-0.007845 
2285.646960  	-0.007518 
2287.575776  	-0.007304 
2289.504592  	-0.007071 
2291.433408  	-0.006970 
2293.362224  	-0.006739 
2295.291040  	-0.006665 
2297.219856  	-0.006422 
2299.148672  	-0.006151 
2301.077488  	-0.005819 
2303.006304  	-0.005329 
2304.935120  	-0.005019 
2306.863936  	-0.004955 
2308.792752  	-0.004736 
2310.721568  	-0.004423 
2312.650384  	-0.004641 
2314.579200  	-0.005271 
2316.508016  	-0.005255 
2318.436832  	-0.004933 
2320.365648  	-0.004808 
2322.294464  	-0.005039 
2324.223280  	-0.006205 
2326.152096  	-0.007816 
2328.080912  	-0.008746 
2330.009728  	-0.009068 
2331.938544  	-0.009699 
2333.867360  	-0.010603 
2335.796176  	-0.011262 
2337.724992  	-0.011790 
2339.653808  	-0.011847 
2341.582624  	-0.011442 
2343.511440  	-0.010143 
2345.440256  	-0.008190 
2347.369072  	-0.007119 
2349.297888  	-0.007321 
2351.226704  	-0.008708 
2353.155520  	-0.010451 
2355.084336  	-0.011462 
2357.013152  	-0.012022 
2358.941968  	-0.012326 
2360.870784  	-0.012754 
2362.799600  	-0.012063 
2364.728416  	-0.011132 
2366.657232  	-0.010445 
2368.586048  	-0.009427 
2370.514864  	-0.008141 
2372.443680  	-0.007064 
2374.372496  	-0.006107 
2376.301312  	-0.005628 
2378.230128  	-0.005299 
2380.158944  	-0.005421 
2382.087760  	-0.005981 
2384.016576  	-0.006870 
2385.945392  	-0.007733 
2387.874208  	-0.008093 
2389.803024  	-0.008445 
2391.731840  	-0.008829 
2393.660656  	-0.008903 
2395.589472  	-0.008893 
2397.518288  	-0.008873 
2399.447104  	-0.008933 
2401.375920  	-0.009072 
2403.304736  	-0.009238 
2405.233552  	-0.009126 
2407.162368  	-0.009095 
2409.091184  	-0.009219 
2411.020000  	-0.009363 
2412.948816  	-0.009411 
2414.877632  	-0.009370 
2416.806448  	-0.009236 
2418.735264  	-0.009128 
2420.664080  	-0.008959 
2422.592896  	-0.008937 
2424.521712  	-0.008929 
2426.450528  	-0.008835 
2428.379344  	-0.008752 
2430.308160  	-0.008702 
2432.236976  	-0.008755 
2434.165792  	-0.008602 
2436.094608  	-0.008380 
2438.023424  	-0.008306 
2439.952240  	-0.008249 
2441.881056  	-0.008406 
2443.809872  	-0.008640 
2445.738688  	-0.008694 
2447.667504  	-0.008568 
2449.596320  	-0.008361 
2451.525136  	-0.008235 
2453.453952  	-0.008296 
2455.382768  	-0.008355 
2457.311584  	-0.008179 
2459.240400  	-0.008081 
2461.169216  	-0.008101 
2463.098032  	-0.008075 
2465.026848  	-0.008103 
2466.955664  	-0.008214 
2468.884480  	-0.008363 
2470.813296  	-0.008513 
2472.742112  	-0.008505 
2474.670928  	-0.008366 
2476.599744  	-0.008107 
2478.528560  	-0.007849 
2480.457376  	-0.007725 
2482.386192  	-0.007638 
2484.315008  	-0.007766 
2486.243824  	-0.007749 
2488.172640  	-0.007541 
2490.101456  	-0.007481 
2492.030272  	-0.007610 
2493.959088  	-0.007574 
2495.887904  	-0.007579 
2497.816720  	-0.007378 
2499.745536  	-0.007409 
2501.674352  	-0.007613 
2503.603168  	-0.007575 
2505.531984  	-0.007531 
2507.460800  	-0.007687 
2509.389616  	-0.007835 
2511.318432  	-0.007808 
2513.247248  	-0.007542 
2515.176064  	-0.007395 
2517.104880  	-0.007499 
2519.033696  	-0.007681 
2520.962512  	-0.007670 
2522.891328  	-0.007614 
2524.820144  	-0.007318 
2526.748960  	-0.007085 
2528.677776  	-0.007184 
2530.606592  	-0.007261 
2532.535408  	-0.007107 
2534.464224  	-0.007150 
2536.393040  	-0.007408 
2538.321856  	-0.007369 
2540.250672  	-0.007143 
2542.179488  	-0.007003 
2544.108304  	-0.006849 
2546.037120  	-0.006801 
2547.965936  	-0.006644 
2549.894752  	-0.006507 
2551.823568  	-0.006394 
2553.752384  	-0.006453 
2555.681200  	-0.006633 
2557.610016  	-0.006658 
2559.538832  	-0.006663 
2561.467648  	-0.006499 
2563.396464  	-0.006320 
2565.325280  	-0.006371 
2567.254096  	-0.006378 
2569.182912  	-0.006341 
2571.111728  	-0.006236 
2573.040544  	-0.006224 
2574.969360  	-0.006040 
2576.898176  	-0.005982 
2578.826992  	-0.006153 
2580.755808  	-0.006202 
2582.684624  	-0.006084 
2584.613440  	-0.006105 
2586.542256  	-0.005859 
2588.471072  	-0.005789 
2590.399888  	-0.005897 
2592.328704  	-0.005722 
2594.257520  	-0.005563 
2596.186336  	-0.005793 
2598.115152  	-0.005842 
2600.043968  	-0.005495 
2601.972784  	-0.005321 
2603.901600  	-0.005281 
2605.830416  	-0.005329 
2607.759232  	-0.005228 
2609.688048  	-0.005169 
2611.616864  	-0.005200 
2613.545680  	-0.005185 
2615.474496  	-0.005097 
2617.403312  	-0.004919 
2619.332128  	-0.004833 
2621.260944  	-0.004900 
2623.189760  	-0.004916 
2625.118576  	-0.004859 
2627.047392  	-0.004820 
2628.976208  	-0.004597 
2630.905024  	-0.004362 
2632.833840  	-0.004381 
2634.762656  	-0.004579 
2636.691472  	-0.004547 
2638.620288  	-0.004378 
2640.549104  	-0.004176 
2642.477920  	-0.004010 
2644.406736  	-0.004029 
2646.335552  	-0.004131 
2648.264368  	-0.004084 
2650.193184  	-0.003939 
2652.122000  	-0.003870 
2654.050816  	-0.003779 
2655.979632  	-0.003753 
2657.908448  	-0.003654 
2659.837264  	-0.003608 
2661.766080  	-0.003540 
2663.694896  	-0.003473 
2665.623712  	-0.003471 
2667.552528  	-0.003391 
2669.481344  	-0.003384 
2671.410160  	-0.003406 
2673.338976  	-0.003274 
2675.267792  	-0.003107 
2677.196608  	-0.002991 
2679.125424  	-0.002938 
2681.054240  	-0.002895 
2682.983056  	-0.002753 
2684.911872  	-0.002716 
2686.840688  	-0.002724 
2688.769504  	-0.002721 
2690.698320  	-0.002700 
2692.627136  	-0.002615 
2694.555952  	-0.002544 
2696.484768  	-0.002496 
2698.413584  	-0.002490 
2700.342400  	-0.002479 
2702.271216  	-0.002352 
2704.200032  	-0.002228 
2706.128848  	-0.002168 
2708.057664  	-0.002120 
2709.986480  	-0.002109 
2711.915296  	-0.002031 
2713.844112  	-0.001869 
2715.772928  	-0.001751 
2717.701744  	-0.001697 
2719.630560  	-0.001584 
2721.559376  	-0.001491 
2723.488192  	-0.001465 
2725.417008  	-0.001393 
2727.345824  	-0.001236 
2729.274640  	-0.001030 
2731.203456  	-0.001052 
2733.132272  	-0.001174 
2735.061088  	-0.001119 
2736.989904  	-0.001064 
2738.918720  	-0.000947 
2740.847536  	-0.000902 
2742.776352  	-0.000890 
2744.705168  	-0.000811 
2746.633984  	-0.000748 
2748.562800  	-0.000644 
2750.491616  	-0.000648 
2752.420432  	-0.000721 
2754.349248  	-0.000822 
2756.278064  	-0.000804 
2758.206880  	-0.000744 
2760.135696  	-0.000745 
2762.064512  	-0.000767 
2763.993328  	-0.000748 
2765.922144  	-0.000643 
2767.850960  	-0.000575 
2769.779776  	-0.000597 
2771.708592  	-0.000644 
2773.637408  	-0.000702 
2775.566224  	-0.000729 
2777.495040  	-0.000700 
2779.423856  	-0.000624 
2781.352672  	-0.000500 
2783.281488  	-0.000498 
2785.210304  	-0.000566 
2787.139120  	-0.000566 
2789.067936  	-0.000580 
2790.996752  	-0.000538 
2792.925568  	-0.000521 
2794.854384  	-0.000569 
2796.783200  	-0.000625 
2798.712016  	-0.000645 
2800.640832  	-0.000576 
2802.569648  	-0.000454 
2804.498464  	-0.000362 
2806.427280  	-0.000295 
2808.356096  	-0.000192 
2810.284912  	-0.000249 
2812.213728  	-0.000386 
2814.142544  	-0.000306 
2816.071360  	-0.000358 
2818.000176  	-0.000311 
2819.928992  	-0.000207 
2821.857808  	-0.000265 
2823.786624  	-0.000335 
2825.715440  	-0.000369 
2827.644256  	-0.000389 
2829.573072  	-0.000432 
2831.501888  	-0.000382 
2833.430704  	-0.000349 
2835.359520  	-0.000403 
2837.288336  	-0.000551 
2839.217152  	-0.000573 
2841.145968  	-0.000631 
2843.074784  	-0.000677 
2845.003600  	-0.000644 
2846.932416  	-0.000652 
2848.861232  	-0.000651 
2850.790048  	-0.000729 
2852.718864  	-0.000736 
2854.647680  	-0.000732 
2856.576496  	-0.000719 
2858.505312  	-0.000849 
2860.434128  	-0.000861 
2862.362944  	-0.000848 
2864.291760  	-0.000980 
2866.220576  	-0.001017 
2868.149392  	-0.001050 
2870.078208  	-0.001110 
2872.007024  	-0.000957 
2873.935840  	-0.000751 
2875.864656  	-0.000648 
2877.793472  	-0.000619 
2879.722288  	-0.000443 
2881.651104  	-0.000201 
2883.579920  	-0.000083 
2885.508736  	-0.000064 
2887.437552  	0.000007 
2889.366368  	0.000103 
2891.295184  	0.000157 
2893.224000  	0.000131 
2895.152816  	0.000184 
2897.081632  	0.000294 
2899.010448  	-0.000029 
2900.939264  	-0.000396 
2902.868080  	-0.000092 
2904.796896  	0.000291 
2906.725712  	0.000315 
2908.654528  	0.000376 
2910.583344  	0.000685 
2912.512160  	0.000921 
2914.440976  	0.001226 
2916.369792  	0.001636 
2918.298608  	0.001872 
2920.227424  	0.002110 
2922.156240  	0.002334 
2924.085056  	0.002600 
2926.013872  	0.002921 
2927.942688  	0.003307 
2929.871504  	0.003629 
2931.800320  	0.003860 
2933.729136  	0.004210 
2935.657952  	0.004560 
2937.586768  	0.004814 
2939.515584  	0.005021 
2941.444400  	0.005195 
2943.373216  	0.005334 
2945.302032  	0.005567 
2947.230848  	0.005695 
2949.159664  	0.005699 
2951.088480  	0.005561 
2953.017296  	0.005536 
2954.946112  	0.005410 
2956.874928  	0.005231 
2958.803744  	0.005103 
2960.732560  	0.004968 
2962.661376  	0.004856 
2964.590192  	0.004780 
2966.519008  	0.004668 
2968.447824  	0.004361 
2970.376640  	0.004123 
2972.305456  	0.003906 
2974.234272  	0.004049 
2976.163088  	0.004153 
2978.091904  	0.003983 
2980.020720  	0.003951 
2981.949536  	0.003981 
2983.878352  	0.003907 
2985.807168  	0.003708 
2987.735984  	0.003528 
2989.664800  	0.003511 
2991.593616  	0.004056 
2993.522432  	0.004408 
2995.451248  	0.004427 
2997.380064  	0.004622 
2999.308880  	0.005119 
3001.237696  	0.005600 
3003.166512  	0.005980 
3005.095328  	0.006267 
3007.024144  	0.006450 
3008.952960  	0.006903 
3010.881776  	0.007459 
3012.810592  	0.007925 
3014.739408  	0.008223 
3016.668224  	0.008464 
3018.597040  	0.008657 
3020.525856  	0.008966 
3022.454672  	0.009428 
3024.383488  	0.009844 
3026.312304  	0.010164 
3028.241120  	0.010331 
3030.169936  	0.010677 
3032.098752  	0.011271 
3034.027568  	0.011484 
3035.956384  	0.011678 
3037.885200  	0.011860 
3039.814016  	0.012182 
3041.742832  	0.012360 
3043.671648  	0.012638 
3045.600464  	0.012889 
3047.529280  	0.013054 
3049.458096  	0.013382 
3051.386912  	0.013630 
3053.315728  	0.013877 
3055.244544  	0.014168 
3057.173360  	0.014610 
3059.102176  	0.015064 
3061.030992  	0.015371 
3062.959808  	0.015598 
3064.888624  	0.016145 
3066.817440  	0.016579 
3068.746256  	0.016830 
3070.675072  	0.016985 
3072.603888  	0.017238 
3074.532704  	0.017703 
3076.461520  	0.018273 
3078.390336  	0.018688 
3080.319152  	0.019147 
3082.247968  	0.019423 
3084.176784  	0.019626 
3086.105600  	0.020145 
3088.034416  	0.020721 
3089.963232  	0.020854 
3091.892048  	0.020946 
3093.820864  	0.021172 
3095.749680  	0.021881 
3097.678496  	0.022376 
3099.607312  	0.022721 
3101.536128  	0.023332 
3103.464944  	0.023552 
3105.393760  	0.023686 
3107.322576  	0.024104 
3109.251392  	0.024554 
3111.180208  	0.024803 
3113.109024  	0.025000 
3115.037840  	0.025398 
3116.966656  	0.025885 
3118.895472  	0.026245 
3120.824288  	0.026527 
3122.753104  	0.026897 
3124.681920  	0.027018 
3126.610736  	0.027146 
3128.539552  	0.027302 
3130.468368  	0.027351 
3132.397184  	0.027879 
3134.326000  	0.028326 
3136.254816  	0.028380 
3138.183632  	0.028571 
3140.112448  	0.028653 
3142.041264  	0.028837 
3143.970080  	0.029334 
3145.898896  	0.029711 
3147.827712  	0.029957 
3149.756528  	0.030205 
3151.685344  	0.030429 
3153.614160  	0.030672 
3155.542976  	0.030925 
3157.471792  	0.031297 
3159.400608  	0.031673 
3161.329424  	0.031799 
3163.258240  	0.032117 
3165.187056  	0.032458 
3167.115872  	0.032487 
3169.044688  	0.032658 
3170.973504  	0.032912 
3172.902320  	0.032946 
3174.831136  	0.032857 
3176.759952  	0.033062 
3178.688768  	0.033590 
3180.617584  	0.033647 
3182.546400  	0.033639 
3184.475216  	0.033742 
3186.404032  	0.033878 
3188.332848  	0.033837 
3190.261664  	0.033904 
3192.190480  	0.033985 
3194.119296  	0.034017 
3196.048112  	0.033918 
3197.976928  	0.034335 
3199.905744  	0.034482 
3201.834560  	0.034269 
3203.763376  	0.034001 
3205.692192  	0.033797 
3207.621008  	0.033847 
3209.549824  	0.034140 
3211.478640  	0.034204 
3213.407456  	0.034064 
3215.336272  	0.034116 
3217.265088  	0.033817 
3219.193904  	0.033840 
3221.122720  	0.034027 
3223.051536  	0.033805 
3224.980352  	0.033470 
3226.909168  	0.033333 
3228.837984  	0.033292 
3230.766800  	0.033146 
3232.695616  	0.033240 
3234.624432  	0.033282 
3236.553248  	0.033349 
3238.482064  	0.033387 
3240.410880  	0.033229 
3242.339696  	0.033101 
3244.268512  	0.033085 
3246.197328  	0.033128 
3248.126144  	0.032993 
3250.054960  	0.033089 
3251.983776  	0.033138 
3253.912592  	0.033510 
3255.841408  	0.033720 
3257.770224  	0.033612 
3259.699040  	0.033776 
3261.627856  	0.033980 
3263.556672  	0.033989 
3265.485488  	0.034102 
3267.414304  	0.034268 
3269.343120  	0.034293 
3271.271936  	0.034406 
3273.200752  	0.034652 
3275.129568  	0.034738 
3277.058384  	0.034696 
3278.987200  	0.034704 
3280.916016  	0.034753 
3282.844832  	0.034812 
3284.773648  	0.034847 
3286.702464  	0.034787 
3288.631280  	0.034914 
3290.560096  	0.034931 
3292.488912  	0.035102 
3294.417728  	0.035153 
3296.346544  	0.035120 
3298.275360  	0.035379 
3300.204176  	0.035328 
3302.132992  	0.035090 
3304.061808  	0.035215 
3305.990624  	0.035279 
3307.919440  	0.035505 
3309.848256  	0.035932 
3311.777072  	0.036168 
3313.705888  	0.036308 
3315.634704  	0.036335 
3317.563520  	0.036392 
3319.492336  	0.036568 
3321.421152  	0.036868 
3323.349968  	0.037025 
3325.278784  	0.036926 
3327.207600  	0.036947 
3329.136416  	0.036663 
3331.065232  	0.036483 
3332.994048  	0.036662 
3334.922864  	0.036928 
3336.851680  	0.037111 
3338.780496  	0.036919 
3340.709312  	0.036468 
3342.638128  	0.036466 
3344.566944  	0.036331 
3346.495760  	0.036017 
3348.424576  	0.035991 
3350.353392  	0.036031 
3352.282208  	0.035812 
3354.211024  	0.035656 
3356.139840  	0.035671 
3358.068656  	0.035509 
3359.997472  	0.035238 
3361.926288  	0.035065 
3363.855104  	0.034742 
3365.783920  	0.034685 
3367.712736  	0.034667 
3369.641552  	0.034316 
3371.570368  	0.033950 
3373.499184  	0.033903 
3375.428000  	0.033907 
3377.356816  	0.033964 
3379.285632  	0.033895 
3381.214448  	0.033668 
3383.143264  	0.033404 
3385.072080  	0.033400 
3387.000896  	0.032989 
3388.929712  	0.032594 
3390.858528  	0.032407 
3392.787344  	0.032874 
3394.716160  	0.032455 
3396.644976  	0.032213 
3398.573792  	0.032212 
3400.502608  	0.031581 
3402.431424  	0.031192 
3404.360240  	0.030898 
3406.289056  	0.030557 
3408.217872  	0.030177 
3410.146688  	0.029906 
3412.075504  	0.029721 
3414.004320  	0.029678 
3415.933136  	0.029517 
3417.861952  	0.029211 
3419.790768  	0.029513 
3421.719584  	0.029720 
3423.648400  	0.028967 
3425.577216  	0.028372 
3427.506032  	0.028093 
3429.434848  	0.027708 
3431.363664  	0.027699 
3433.292480  	0.027562 
3435.221296  	0.027171 
3437.150112  	0.026707 
3439.078928  	0.026328 
3441.007744  	0.026103 
3442.936560  	0.026361 
3444.865376  	0.025870 
3446.794192  	0.026612 
3448.723008  	0.026653 
3450.651824  	0.025050 
3452.580640  	0.024420 
3454.509456  	0.024198 
3456.438272  	0.024028 
3458.367088  	0.023627 
3460.295904  	0.023312 
3462.224720  	0.023416 
3464.153536  	0.022979 
3466.082352  	0.022363 
3468.011168  	0.022215 
3469.939984  	0.021718 
3471.868800  	0.021107 
3473.797616  	0.020580 
3475.726432  	0.020402 
3477.655248  	0.019753 
3479.584064  	0.019469 
3481.512880  	0.020099 
3483.441696  	0.019987 
3485.370512  	0.018784 
3487.299328  	0.018553 
3489.228144  	0.018202 
3491.156960  	0.017234 
3493.085776  	0.016784 
3495.014592  	0.016846 
3496.943408  	0.016870 
3498.872224  	0.016163 
3500.801040  	0.016083 
3502.729856  	0.017353 
3504.658672  	0.017196 
3506.587488  	0.015201 
3508.516304  	0.015114 
3510.445120  	0.015676 
3512.373936  	0.014513 
3514.302752  	0.013690 
3516.231568  	0.013168 
3518.160384  	0.012894 
3520.089200  	0.012448 
3522.018016  	0.012696 
3523.946832  	0.014035 
3525.875648  	0.013520 
3527.804464  	0.013215 
3529.733280  	0.012676 
3531.662096  	0.011245 
3533.590912  	0.009923 
3535.519728  	0.010385 
3537.448544  	0.010709 
3539.377360  	0.009358 
3541.306176  	0.008637 
3543.234992  	0.009319 
3545.163808  	0.011468 
3547.092624  	0.011828 
3549.021440  	0.009432 
3550.950256  	0.008102 
3552.879072  	0.009031 
3554.807888  	0.007794 
3556.736704  	0.006268 
3558.665520  	0.006467 
3560.594336  	0.007065 
3562.523152  	0.006355 
3564.451968  	0.006896 
3566.380784  	0.011394 
3568.309600  	0.012740 
3570.238416  	0.007565 
3572.167232  	0.004625 
3574.096048  	0.004103 
3576.024864  	0.003920 
3577.953680  	0.003372 
3579.882496  	0.003186 
3581.811312  	0.002550 
3583.740128  	0.001974 
3585.668944  	0.002983 
3587.597760  	0.007113 
3589.526576  	0.005179 
3591.455392  	0.001204 
3593.384208  	0.001301 
3595.313024  	0.002654 
3597.241840  	0.001687 
3599.170656  	0.000522 
3601.099472  	0.000389 
3603.028288  	-0.000986 
3604.957104  	-0.002369 
3606.885920  	-0.000982 
3608.814736  	0.000662 
3610.743552  	-0.001017 
3612.672368  	-0.000551 
3614.601184  	-0.000104 
3616.530000  	-0.002107 
3618.458816  	-0.001170 
3620.387632  	-0.000815 
3622.316448  	-0.003942 
3624.245264  	-0.006163 
3626.174080  	-0.006517 
3628.102896  	-0.003564 
3630.031712  	-0.000302 
3631.960528  	-0.004913 
3633.889344  	-0.006600 
3635.818160  	-0.007845 
3637.746976  	-0.008925 
3639.675792  	-0.009310 
3641.604608  	-0.009337 
3643.533424  	-0.009783 
3645.462240  	-0.010068 
3647.391056  	-0.006485 
3649.319872  	-0.003277 
3651.248688  	-0.004844 
3653.177504  	-0.009934 
3655.106320  	-0.011554 
3657.035136  	-0.010573 
3658.963952  	-0.012220 
3660.892768  	-0.013290 
3662.821584  	-0.013955 
3664.750400  	-0.014282 
3666.679216  	-0.014417 
3668.608032  	-0.012637 
3670.536848  	-0.009387 
3672.465664  	-0.011816 
3674.394480  	-0.011629 
3676.323296  	-0.007885 
3678.252112  	-0.011153 
3680.180928  	-0.013267 
3682.109744  	-0.014840 
3684.038560  	-0.015277 
3685.967376  	-0.015583 
3687.896192  	-0.013887 
3689.825008  	-0.010872 
3691.753824  	-0.011870 
3693.682640  	-0.014239 
3695.611456  	-0.015146 
3697.540272  	-0.015279 
3699.469088  	-0.015807 
3701.397904  	-0.014703 
3703.326720  	-0.014345 
3705.255536  	-0.015180 
3707.184352  	-0.015147 
3709.113168  	-0.013775 
3711.041984  	-0.010965 
3712.970800  	-0.010753 
3714.899616  	-0.013231 
3716.828432  	-0.014825 
3718.757248  	-0.014394 
3720.686064  	-0.013823 
3722.614880  	-0.012827 
3724.543696  	-0.012331 
3726.472512  	-0.011710 
3728.401328  	-0.013496 
3730.330144  	-0.015278 
3732.258960  	-0.013704 
3734.187776  	-0.009384 
3736.116592  	-0.006413 
3738.045408  	-0.010071 
3739.974224  	-0.012154 
3741.903040  	-0.012965 
3743.831856  	-0.012291 
3745.760672  	-0.010115 
3747.689488  	-0.012238 
3749.618304  	-0.010729 
3751.547120  	-0.008161 
3753.475936  	-0.010506 
3755.404752  	-0.013212 
3757.333568  	-0.013097 
3759.262384  	-0.012092 
3761.191200  	-0.013005 
3763.120016  	-0.014684 
3765.048832  	-0.013794 
3766.977648  	-0.013675 
3768.906464  	-0.013716 
3770.835280  	-0.013077 
3772.764096  	-0.014511 
3774.692912  	-0.015572 
3776.621728  	-0.015690 
3778.550544  	-0.014262 
3780.479360  	-0.013238 
3782.408176  	-0.014705 
3784.336992  	-0.014580 
3786.265808  	-0.014470 
3788.194624  	-0.015230 
3790.123440  	-0.015527 
3792.052256  	-0.015823 
3793.981072  	-0.016073 
3795.909888  	-0.014345 
3797.838704  	-0.013093 
3799.767520  	-0.013618 
3801.696336  	-0.010969 
3803.625152  	-0.012648 
3805.553968  	-0.014730 
3807.482784  	-0.013355 
3809.411600  	-0.014410 
3811.340416  	-0.015635 
3813.269232  	-0.016071 
3815.198048  	-0.014237 
3817.126864  	-0.012173 
3819.055680  	-0.013199 
3820.984496  	-0.010805 
3822.913312  	-0.011332 
3824.842128  	-0.013803 
3826.770944  	-0.013772 
3828.699760  	-0.014573 
3830.628576  	-0.014823 
3832.557392  	-0.014178 
3834.486208  	-0.014443 
3836.415024  	-0.013753 
3838.343840  	-0.011321 
3840.272656  	-0.010270 
3842.201472  	-0.011949 
3844.130288  	-0.012803 
3846.059104  	-0.014220 
3847.987920  	-0.015125 
3849.916736  	-0.014659 
3851.845552  	-0.012642 
3853.774368  	-0.007988 
3855.703184  	-0.009819 
3857.632000  	-0.012332 
3859.560816  	-0.014036 
3861.489632  	-0.013563 
3863.418448  	-0.011978 
3865.347264  	-0.010994 
3867.276080  	-0.013208 
3869.204896  	-0.012005 
3871.133712  	-0.010150 
3873.062528  	-0.012045 
3874.991344  	-0.012542 
3876.920160  	-0.015153 
3878.848976  	-0.015012 
3880.777792  	-0.011833 
3882.706608  	-0.012322 
3884.635424  	-0.012806 
3886.564240  	-0.012574 
3888.493056  	-0.015353 
3890.421872  	-0.014781 
3892.350688  	-0.012795 
3894.279504  	-0.014033 
3896.208320  	-0.015261 
3898.137136  	-0.014102 
3900.065952  	-0.011771 
3901.994768  	-0.010956 
3903.923584  	-0.010220 
3905.852400  	-0.011525 
3907.781216  	-0.014571 
3909.710032  	-0.016109 
3911.638848  	-0.016254 
3913.567664  	-0.016117 
3915.496480  	-0.014895 
3917.425296  	-0.013108 
3919.354112  	-0.013346 
3921.282928  	-0.014017 
3923.211744  	-0.013708 
3925.140560  	-0.013004 
3927.069376  	-0.014437 
3928.998192  	-0.014586 
3930.927008  	-0.013283 
3932.855824  	-0.012812 
3934.784640  	-0.014404 
3936.713456  	-0.015440 
3938.642272  	-0.015644 
3940.571088  	-0.015510 
3942.499904  	-0.013695 
3944.428720  	-0.013743 
3946.357536  	-0.014687 
3948.286352  	-0.013648 
3950.215168  	-0.014013 
3952.143984  	-0.015320 
3954.072800  	-0.015869 
3956.001616  	-0.015730 
3957.930432  	-0.015393 
3959.859248  	-0.015086 
3961.788064  	-0.014829 
3963.716880  	-0.015418 
3965.645696  	-0.016133 
3967.574512  	-0.016024 
3969.503328  	-0.015786 
3971.432144  	-0.015613 
3973.360960  	-0.015308 
3975.289776  	-0.014955 
3977.218592  	-0.015278 
3979.147408  	-0.015827 
3981.076224  	-0.015832 
3983.005040  	-0.015792 
3984.933856  	-0.015615 
3986.862672  	-0.015528 
3988.791488  	-0.015588 
3990.720304  	-0.015214 
3992.649120  	-0.015274 
3994.577936  	-0.015342 
3996.506752  	-0.015654 
3998.435568  	-0.015980 
4000.364384  	-0.015865 