##TITLE=No Description
##DATA TYPE=INFRARED SPECTRUM
##XUNITS=1/CM
##YUNITS=Abs
399.264912  	0.602735 
401.193728  	0.581576 
403.122544  	0.592014 
405.051360  	0.589045 
406.980176  	0.594527 
408.908992  	0.595223 
410.837808  	0.601789 
412.766624  	0.593650 
414.695440  	0.591615 
416.624256  	0.601032 
418.553072  	0.613070 
420.481888  	0.581201 
422.410704  	0.568999 
424.339520  	0.569114 
426.268336  	0.574588 
428.197152  	0.572391 
430.125968  	0.575015 
432.054784  	0.566865 
433.983600  	0.562123 
435.912416  	0.558169 
437.841232  	0.558791 
439.770048  	0.554188 
441.698864  	0.556079 
443.627680  	0.551391 
445.556496  	0.544931 
447.485312  	0.540156 
449.414128  	0.546059 
451.342944  	0.546764 
453.271760  	0.545188 
455.200576  	0.541452 
457.129392  	0.543403 
459.058208  	0.540742 
460.987024  	0.548260 
462.915840  	0.543147 
464.844656  	0.532631 
466.773472  	0.533578 
468.702288  	0.542697 
470.631104  	0.534294 
472.559920  	0.530778 
474.488736  	0.532596 
476.417552  	0.536173 
478.346368  	0.532357 
480.275184  	0.529591 
482.204000  	0.525417 
484.132816  	0.525815 
486.061632  	0.523726 
487.990448  	0.528745 
489.919264  	0.530902 
491.848080  	0.528204 
493.776896  	0.524019 
495.705712  	0.524135 
497.634528  	0.518920 
499.563344  	0.516222 
501.492160  	0.517185 
503.420976  	0.519250 
505.349792  	0.516324 
507.278608  	0.514991 
509.207424  	0.513891 
511.136240  	0.517497 
513.065056  	0.519543 
514.993872  	0.522458 
516.922688  	0.521122 
518.851504  	0.522706 
520.780320  	0.521723 
522.709136  	0.521427 
524.637952  	0.521467 
526.566768  	0.520236 
528.495584  	0.517057 
530.424400  	0.517305 
532.353216  	0.511495 
534.282032  	0.505968 
536.210848  	0.498746 
538.139664  	0.493326 
540.068480  	0.489254 
541.997296  	0.486434 
543.926112  	0.480850 
545.854928  	0.477956 
547.783744  	0.474188 
549.712560  	0.471258 
551.641376  	0.467037 
553.570192  	0.463115 
555.499008  	0.459470 
557.427824  	0.455721 
559.356640  	0.451532 
561.285456  	0.448583 
563.214272  	0.444717 
565.143088  	0.442599 
567.071904  	0.439230 
569.000720  	0.435623 
570.929536  	0.432308 
572.858352  	0.429875 
574.787168  	0.427202 
576.715984  	0.425037 
578.644800  	0.420795 
580.573616  	0.417089 
582.502432  	0.412089 
584.431248  	0.408963 
586.360064  	0.405522 
588.288880  	0.402767 
590.217696  	0.400960 
592.146512  	0.399492 
594.075328  	0.396033 
596.004144  	0.393590 
597.932960  	0.391849 
599.861776  	0.390541 
601.790592  	0.387656 
603.719408  	0.386511 
605.648224  	0.385813 
607.577040  	0.383774 
609.505856  	0.380910 
611.434672  	0.379835 
613.363488  	0.378323 
615.292304  	0.376984 
617.221120  	0.375646 
619.149936  	0.374648 
621.078752  	0.372599 
623.007568  	0.371482 
624.936384  	0.370444 
626.865200  	0.368623 
628.794016  	0.366868 
630.722832  	0.365971 
632.651648  	0.365564 
634.580464  	0.365726 
636.509280  	0.365621 
638.438096  	0.365546 
640.366912  	0.363776 
642.295728  	0.361690 
644.224544  	0.359015 
646.153360  	0.355692 
648.082176  	0.351292 
650.010992  	0.347667 
651.939808  	0.343658 
653.868624  	0.339349 
655.797440  	0.335141 
657.726256  	0.331360 
659.655072  	0.327614 
661.583888  	0.324090 
663.512704  	0.320268 
665.441520  	0.316475 
667.370336  	0.306495 
669.299152  	0.300651 
671.227968  	0.302438 
673.156784  	0.300224 
675.085600  	0.297732 
677.014416  	0.294860 
678.943232  	0.292128 
680.872048  	0.290661 
682.800864  	0.289456 
684.729680  	0.287679 
686.658496  	0.285966 
688.587312  	0.285203 
690.516128  	0.284318 
692.444944  	0.283489 
694.373760  	0.282778 
696.302576  	0.280527 
698.231392  	0.277826 
700.160208  	0.275430 
702.089024  	0.273503 
704.017840  	0.271766 
705.946656  	0.269166 
707.875472  	0.266467 
709.804288  	0.264468 
711.733104  	0.262823 
713.661920  	0.260496 
715.590736  	0.259093 
717.519552  	0.258443 
719.448368  	0.258219 
721.377184  	0.258223 
723.306000  	0.258835 
725.234816  	0.259451 
727.163632  	0.259094 
729.092448  	0.256999 
731.021264  	0.254102 
732.950080  	0.250783 
734.878896  	0.247239 
736.807712  	0.244250 
738.736528  	0.242164 
740.665344  	0.240415 
742.594160  	0.238628 
744.522976  	0.236527 
746.451792  	0.235089 
748.380608  	0.233642 
750.309424  	0.232127 
752.238240  	0.231065 
754.167056  	0.230528 
756.095872  	0.229469 
758.024688  	0.228259 
759.953504  	0.227668 
761.882320  	0.227998 
763.811136  	0.228425 
765.739952  	0.227911 
767.668768  	0.226027 
769.597584  	0.223444 
771.526400  	0.222101 
773.455216  	0.223404 
775.384032  	0.226986 
777.312848  	0.231976 
779.241664  	0.236082 
781.170480  	0.236501 
783.099296  	0.233168 
785.028112  	0.227787 
786.956928  	0.221437 
788.885744  	0.216270 
790.814560  	0.212698 
792.743376  	0.210037 
794.672192  	0.208656 
796.601008  	0.208034 
798.529824  	0.205429 
800.458640  	0.200886 
802.387456  	0.196857 
804.316272  	0.194487 
806.245088  	0.193488 
808.173904  	0.192959 
810.102720  	0.192570 
812.031536  	0.192320 
813.960352  	0.192661 
815.889168  	0.192850 
817.817984  	0.192834 
819.746800  	0.192749 
821.675616  	0.192916 
823.604432  	0.193048 
825.533248  	0.192350 
827.462064  	0.191541 
829.390880  	0.190906 
831.319696  	0.189477 
833.248512  	0.187212 
835.177328  	0.184927 
837.106144  	0.182542 
839.034960  	0.179708 
840.963776  	0.176058 
842.892592  	0.172342 
844.821408  	0.168728 
846.750224  	0.165728 
848.679040  	0.163675 
850.607856  	0.162031 
852.536672  	0.160762 
854.465488  	0.159645 
856.394304  	0.158852 
858.323120  	0.158223 
860.251936  	0.157259 
862.180752  	0.155931 
864.109568  	0.154233 
866.038384  	0.152534 
867.967200  	0.151023 
869.896016  	0.149662 
871.824832  	0.148451 
873.753648  	0.147615 
875.682464  	0.147875 
877.611280  	0.150306 
879.540096  	0.152606 
881.468912  	0.152786 
883.397728  	0.153588 
885.326544  	0.154435 
887.255360  	0.154744 
889.184176  	0.154735 
891.112992  	0.154665 
893.041808  	0.152437 
894.970624  	0.148721 
896.899440  	0.145080 
898.828256  	0.140937 
900.757072  	0.136588 
902.685888  	0.132651 
904.614704  	0.129841 
906.543520  	0.128843 
908.472336  	0.129249 
910.401152  	0.130697 
912.329968  	0.132820 
914.258784  	0.135227 
916.187600  	0.137371 
918.116416  	0.139283 
920.045232  	0.140711 
921.974048  	0.141533 
923.902864  	0.141562 
925.831680  	0.141145 
927.760496  	0.141106 
929.689312  	0.141351 
931.618128  	0.141764 
933.546944  	0.142309 
935.475760  	0.142493 
937.404576  	0.142184 
939.333392  	0.141582 
941.262208  	0.141524 
943.191024  	0.142959 
945.119840  	0.146585 
947.048656  	0.152329 
948.977472  	0.159972 
950.906288  	0.169085 
952.835104  	0.179278 
954.763920  	0.190210 
956.692736  	0.200734 
958.621552  	0.209812 
960.550368  	0.216208 
962.479184  	0.219371 
964.408000  	0.218845 
966.336816  	0.214586 
968.265632  	0.206367 
970.194448  	0.195249 
972.123264  	0.182685 
974.052080  	0.169333 
975.980896  	0.156311 
977.909712  	0.144067 
979.838528  	0.133173 
981.767344  	0.124177 
983.696160  	0.117326 
985.624976  	0.113141 
987.553792  	0.112027 
989.482608  	0.113718 
991.411424  	0.117715 
993.340240  	0.123390 
995.269056  	0.130436 
997.197872  	0.138233 
999.126688  	0.146320 
1001.055504  	0.154478 
1002.984320  	0.162847 
1004.913136  	0.171501 
1006.841952  	0.179824 
1008.770768  	0.187119 
1010.699584  	0.193264 
1012.628400  	0.197843 
1014.557216  	0.200692 
1016.486032  	0.202214 
1018.414848  	0.203052 
1020.343664  	0.203584 
1022.272480  	0.203869 
1024.201296  	0.204963 
1026.130112  	0.208872 
1028.058928  	0.211427 
1029.987744  	0.209830 
1031.916560  	0.212495 
1033.845376  	0.218744 
1035.774192  	0.227468 
1037.703008  	0.236878 
1039.631824  	0.246011 
1041.560640  	0.257657 
1043.489456  	0.272969 
1045.418272  	0.290447 
1047.347088  	0.308604 
1049.275904  	0.325310 
1051.204720  	0.339098 
1053.133536  	0.347232 
1055.062352  	0.351668 
1056.991168  	0.354002 
1058.919984  	0.351664 
1060.848800  	0.346658 
1062.777616  	0.346036 
1064.706432  	0.348371 
1066.635248  	0.346569 
1068.564064  	0.335324 
1070.492880  	0.326035 
1072.421696  	0.320235 
1074.350512  	0.316535 
1076.279328  	0.313777 
1078.208144  	0.313236 
1080.136960  	0.313364 
1082.065776  	0.313793 
1083.994592  	0.311654 
1085.923408  	0.307249 
1087.852224  	0.300411 
1089.781040  	0.291660 
1091.709856  	0.279683 
1093.638672  	0.267760 
1095.567488  	0.255501 
1097.496304  	0.242831 
1099.425120  	0.229512 
1101.353936  	0.215961 
1103.282752  	0.201979 
1105.211568  	0.188185 
1107.140384  	0.174284 
1109.069200  	0.161050 
1110.998016  	0.148762 
1112.926832  	0.137478 
1114.855648  	0.127151 
1116.784464  	0.117430 
1118.713280  	0.108725 
1120.642096  	0.100713 
1122.570912  	0.093180 
1124.499728  	0.086096 
1126.428544  	0.079819 
1128.357360  	0.074244 
1130.286176  	0.069655 
1132.214992  	0.065898 
1134.143808  	0.062743 
1136.072624  	0.059971 
1138.001440  	0.057497 
1139.930256  	0.054750 
1141.859072  	0.052171 
1143.787888  	0.049506 
1145.716704  	0.047131 
1147.645520  	0.044864 
1149.574336  	0.042946 
1151.503152  	0.041387 
1153.431968  	0.040923 
1155.360784  	0.040930 
1157.289600  	0.041559 
1159.218416  	0.042871 
1161.147232  	0.044965 
1163.076048  	0.047288 
1165.004864  	0.049643 
1166.933680  	0.051759 
1168.862496  	0.054127 
1170.791312  	0.056595 
1172.720128  	0.059569 
1174.648944  	0.062334 
1176.577760  	0.065119 
1178.506576  	0.067925 
1180.435392  	0.070970 
1182.364208  	0.074012 
1184.293024  	0.077581 
1186.221840  	0.081327 
1188.150656  	0.085345 
1190.079472  	0.090056 
1192.008288  	0.096021 
1193.937104  	0.103036 
1195.865920  	0.110978 
1197.794736  	0.119611 
1199.723552  	0.128974 
1201.652368  	0.138787 
1203.581184  	0.148828 
1205.510000  	0.158839 
1207.438816  	0.168333 
1209.367632  	0.177411 
1211.296448  	0.185509 
1213.225264  	0.192711 
1215.154080  	0.198645 
1217.082896  	0.203698 
1219.011712  	0.207402 
1220.940528  	0.210485 
1222.869344  	0.212768 
1224.798160  	0.214281 
1226.726976  	0.214501 
1228.655792  	0.214116 
1230.584608  	0.212401 
1232.513424  	0.209472 
1234.442240  	0.205201 
1236.371056  	0.200313 
1238.299872  	0.194858 
1240.228688  	0.190679 
1242.157504  	0.184907 
1244.086320  	0.176340 
1246.015136  	0.168748 
1247.943952  	0.162264 
1249.872768  	0.155456 
1251.801584  	0.147419 
1253.730400  	0.139314 
1255.659216  	0.131566 
1257.588032  	0.124133 
1259.516848  	0.116874 
1261.445664  	0.109764 
1263.374480  	0.102904 
1265.303296  	0.096960 
1267.232112  	0.091841 
1269.160928  	0.087662 
1271.089744  	0.084358 
1273.018560  	0.082212 
1274.947376  	0.080943 
1276.876192  	0.080514 
1278.805008  	0.079804 
1280.733824  	0.078222 
1282.662640  	0.075598 
1284.591456  	0.072748 
1286.520272  	0.070336 
1288.449088  	0.068652 
1290.377904  	0.067535 
1292.306720  	0.067399 
1294.235536  	0.067275 
1296.164352  	0.066396 
1298.093168  	0.063857 
1300.021984  	0.060716 
1301.950800  	0.057532 
1303.879616  	0.054596 
1305.808432  	0.051364 
1307.737248  	0.048208 
1309.666064  	0.045100 
1311.594880  	0.043122 
1313.523696  	0.041552 
1315.452512  	0.040374 
1317.381328  	0.039749 
1319.310144  	0.039600 
1321.238960  	0.039696 
1323.167776  	0.040356 
1325.096592  	0.041139 
1327.025408  	0.041702 
1328.954224  	0.041650 
1330.883040  	0.041344 
1332.811856  	0.040499 
1334.740672  	0.040057 
1336.669488  	0.040498 
1338.598304  	0.041307 
1340.527120  	0.039950 
1342.455936  	0.037889 
1344.384752  	0.037399 
1346.313568  	0.037789 
1348.242384  	0.038606 
1350.171200  	0.040169 
1352.100016  	0.042216 
1354.028832  	0.044798 
1355.957648  	0.047378 
1357.886464  	0.050167 
1359.815280  	0.053327 
1361.744096  	0.056951 
1363.672912  	0.059266 
1365.601728  	0.061003 
1367.530544  	0.063505 
1369.459360  	0.065553 
1371.388176  	0.066795 
1373.316992  	0.067258 
1375.245808  	0.065838 
1377.174624  	0.064944 
1379.103440  	0.063540 
1381.032256  	0.061253 
1382.961072  	0.059010 
1384.889888  	0.057511 
1386.818704  	0.055642 
1388.747520  	0.052508 
1390.676336  	0.051868 
1392.605152  	0.054779 
1394.533968  	0.055071 
1396.462784  	0.050871 
1398.391600  	0.049560 
1400.320416  	0.050137 
1402.249232  	0.052463 
1404.178048  	0.054983 
1406.106864  	0.056338 
1408.035680  	0.057551 
1409.964496  	0.058909 
1411.893312  	0.059656 
1413.822128  	0.059983 
1415.750944  	0.061445 
1417.679760  	0.062076 
1419.608576  	0.058874 
1421.537392  	0.057544 
1423.466208  	0.056921 
1425.395024  	0.054444 
1427.323840  	0.052388 
1429.252656  	0.049229 
1431.181472  	0.047050 
1433.110288  	0.047057 
1435.039104  	0.047635 
1436.967920  	0.046812 
1438.896736  	0.047322 
1440.825552  	0.048565 
1442.754368  	0.049060 
1444.683184  	0.049231 
1446.612000  	0.049287 
1448.540816  	0.049352 
1450.469632  	0.050476 
1452.398448  	0.051309 
1454.327264  	0.051684 
1456.256080  	0.048808 
1458.184896  	0.044399 
1460.113712  	0.046432 
1462.042528  	0.048088 
1463.971344  	0.047120 
1465.900160  	0.047535 
1467.828976  	0.050755 
1469.757792  	0.053966 
1471.686608  	0.056467 
1473.615424  	0.062205 
1475.544240  	0.069485 
1477.473056  	0.075261 
1479.401872  	0.079058 
1481.330688  	0.081963 
1483.259504  	0.083691 
1485.188320  	0.084813 
1487.117136  	0.084002 
1489.045952  	0.083004 
1490.974768  	0.079719 
1492.903584  	0.077531 
1494.832400  	0.073898 
1496.761216  	0.066302 
1498.690032  	0.060105 
1500.618848  	0.056707 
1502.547664  	0.052955 
1504.476480  	0.047469 
1506.405296  	0.039785 
1508.334112  	0.039663 
1510.262928  	0.040388 
1512.191744  	0.038076 
1514.120560  	0.036701 
1516.049376  	0.035597 
1517.978192  	0.033969 
1519.907008  	0.034675 
1521.835824  	0.034116 
1523.764640  	0.039060 
1525.693456  	0.044070 
1527.622272  	0.046510 
1529.551088  	0.047426 
1531.479904  	0.047137 
1533.408720  	0.042491 
1535.337536  	0.039835 
1537.266352  	0.037537 
1539.195168  	0.027531 
1541.123984  	0.020170 
1543.052800  	0.025064 
1544.981616  	0.026918 
1546.910432  	0.026611 
1548.839248  	0.027155 
1550.768064  	0.027216 
1552.696880  	0.026383 
1554.625696  	0.026132 
1556.554512  	0.025026 
1558.483328  	0.020120 
1560.412144  	0.026554 
1562.340960  	0.035370 
1564.269776  	0.039380 
1566.198592  	0.044821 
1568.127408  	0.048566 
1570.056224  	0.053099 
1571.985040  	0.061291 
1573.913856  	0.066006 
1575.842672  	0.065795 
1577.771488  	0.069446 
1579.700304  	0.072724 
1581.629120  	0.072948 
1583.557936  	0.072405 
1585.486752  	0.073130 
1587.415568  	0.075393 
1589.344384  	0.079785 
1591.273200  	0.085664 
1593.202016  	0.092759 
1595.130832  	0.100214 
1597.059648  	0.108297 
1598.988464  	0.115301 
1600.917280  	0.121302 
1602.846096  	0.125076 
1604.774912  	0.127561 
1606.703728  	0.127889 
1608.632544  	0.126807 
1610.561360  	0.124785 
1612.490176  	0.123505 
1614.418992  	0.120972 
1616.347808  	0.116446 
1618.276624  	0.117994 
1620.205440  	0.124038 
1622.134256  	0.126698 
1624.063072  	0.131685 
1625.991888  	0.139416 
1627.920704  	0.147392 
1629.849520  	0.157684 
1631.778336  	0.167775 
1633.707152  	0.173906 
1635.635968  	0.178997 
1637.564784  	0.190081 
1639.493600  	0.200378 
1641.422416  	0.206505 
1643.351232  	0.210730 
1645.280048  	0.210392 
1647.208864  	0.207654 
1649.137680  	0.210321 
1651.066496  	0.212042 
1652.995312  	0.202029 
1654.924128  	0.201951 
1656.852944  	0.205348 
1658.781760  	0.204105 
1660.710576  	0.200223 
1662.639392  	0.193920 
1664.568208  	0.190188 
1666.497024  	0.188535 
1668.425840  	0.182155 
1670.354656  	0.173780 
1672.283472  	0.171722 
1674.212288  	0.169186 
1676.141104  	0.164183 
1678.069920  	0.164433 
1679.998736  	0.164034 
1681.927552  	0.161962 
1683.856368  	0.154514 
1685.785184  	0.153664 
1687.714000  	0.157896 
1689.642816  	0.157510 
1691.571632  	0.155674 
1693.500448  	0.154546 
1695.429264  	0.149057 
1697.358080  	0.144873 
1699.286896  	0.142578 
1701.215712  	0.136952 
1703.144528  	0.137580 
1705.073344  	0.133124 
1707.002160  	0.127228 
1708.930976  	0.123864 
1710.859792  	0.118303 
1712.788608  	0.111587 
1714.717424  	0.102542 
1716.646240  	0.090549 
1718.575056  	0.077420 
1720.503872  	0.071348 
1722.432688  	0.065261 
1724.361504  	0.055957 
1726.290320  	0.048266 
1728.219136  	0.041970 
1730.147952  	0.036243 
1732.076768  	0.030701 
1734.005584  	0.022800 
1735.934400  	0.018352 
1737.863216  	0.018374 
1739.792032  	0.014212 
1741.720848  	0.013445 
1743.649664  	0.013361 
1745.578480  	0.012219 
1747.507296  	0.010006 
1749.436112  	0.009037 
1751.364928  	0.008432 
1753.293744  	0.007900 
1755.222560  	0.007510 
1757.151376  	0.006966 
1759.080192  	0.006338 
1761.009008  	0.005384 
1762.937824  	0.004013 
1764.866640  	0.004684 
1766.795456  	0.005145 
1768.724272  	0.004449 
1770.653088  	0.001150 
1772.581904  	-0.001620 
1774.510720  	0.000740 
1776.439536  	0.002934 
1778.368352  	0.003183 
1780.297168  	0.002646 
1782.225984  	0.002184 
1784.154800  	0.002850 
1786.083616  	0.002317 
1788.012432  	0.002156 
1789.941248  	0.002170 
1791.870064  	0.000605 
1793.798880  	-0.000468 
1795.727696  	0.001316 
1797.656512  	0.000818 
1799.585328  	0.000472 
1801.514144  	0.001279 
1803.442960  	0.001365 
1805.371776  	0.000562 
1807.300592  	0.000740 
1809.229408  	-0.000026 
1811.158224  	-0.000454 
1813.087040  	-0.000483 
1815.015856  	-0.000098 
1816.944672  	0.000058 
1818.873488  	0.000052 
1820.802304  	-0.000189 
1822.731120  	0.000464 
1824.659936  	-0.000237 
1826.588752  	-0.000865 
1828.517568  	-0.001944 
1830.446384  	-0.002275 
1832.375200  	-0.000908 
1834.304016  	-0.000097 
1836.232832  	-0.000341 
1838.161648  	-0.000285 
1840.090464  	-0.000456 
1842.019280  	0.000033 
1843.948096  	-0.001348 
1845.876912  	-0.001092 
1847.805728  	-0.000132 
1849.734544  	-0.000252 
1851.663360  	-0.000698 
1853.592176  	-0.000685 
1855.520992  	-0.001011 
1857.449808  	-0.000796 
1859.378624  	-0.000796 
1861.307440  	-0.000716 
1863.236256  	-0.001063 
1865.165072  	-0.000968 
1867.093888  	-0.001639 
1869.022704  	-0.002000 
1870.951520  	-0.001627 
1872.880336  	-0.000956 
1874.809152  	-0.001200 
1876.737968  	-0.001141 
1878.666784  	-0.001349 
1880.595600  	-0.001068 
1882.524416  	-0.001559 
1884.453232  	-0.001437 
1886.382048  	-0.001505 
1888.310864  	-0.001151 
1890.239680  	-0.001553 
1892.168496  	-0.001162 
1894.097312  	-0.001048 
1896.026128  	-0.000810 
1897.954944  	-0.000902 
1899.883760  	-0.000548 
1901.812576  	-0.000784 
1903.741392  	-0.001149 
1905.670208  	-0.001281 
1907.599024  	-0.000629 
1909.527840  	-0.000609 
1911.456656  	-0.000220 
1913.385472  	-0.000421 
1915.314288  	0.000092 
1917.243104  	-0.000320 
1919.171920  	-0.000420 
1921.100736  	-0.000036 
1923.029552  	0.000342 
1924.958368  	-0.000466 
1926.887184  	-0.000456 
1928.816000  	-0.000782 
1930.744816  	-0.000681 
1932.673632  	-0.000655 
1934.602448  	-0.000085 
1936.531264  	-0.000292 
1938.460080  	0.000011 
1940.388896  	-0.000123 
1942.317712  	-0.000093 
1944.246528  	-0.000736 
1946.175344  	-0.000001 
1948.104160  	-0.000293 
1950.032976  	-0.000011 
1951.961792  	-0.000625 
1953.890608  	-0.000443 
1955.819424  	-0.001125 
1957.748240  	-0.000932 
1959.677056  	-0.001432 
1961.605872  	-0.000320 
1963.534688  	-0.000495 
1965.463504  	0.000151 
1967.392320  	-0.000375 
1969.321136  	-0.000277 
1971.249952  	-0.000974 
1973.178768  	-0.000112 
1975.107584  	-0.001052 
1977.036400  	0.000355 
1978.965216  	0.002203 
1980.894032  	0.002091 
1982.822848  	0.000434 
1984.751664  	0.000296 
1986.680480  	-0.000535 
1988.609296  	-0.000742 
1990.538112  	-0.001272 
1992.466928  	-0.000652 
1994.395744  	-0.001019 
1996.324560  	-0.001185 
1998.253376  	-0.001748 
2000.182192  	-0.001956 
2002.111008  	-0.001847 
2004.039824  	-0.000627 
2005.968640  	-0.000894 
2007.897456  	0.000242 
2009.826272  	-0.000557 
2011.755088  	-0.000987 
2013.683904  	-0.001637 
2015.612720  	-0.000082 
2017.541536  	-0.000062 
2019.470352  	0.000204 
2021.399168  	-0.001766 
2023.327984  	-0.001535 
2025.256800  	0.000226 
2027.185616  	0.001020 
2029.114432  	0.000118 
2031.043248  	0.000508 
2032.972064  	0.001012 
2034.900880  	0.001677 
2036.829696  	0.000293 
2038.758512  	0.000697 
2040.687328  	-0.000112 
2042.616144  	-0.000049 
2044.544960  	-0.000456 
2046.473776  	0.000219 
2048.402592  	-0.000333 
2050.331408  	-0.000086 
2052.260224  	-0.000583 
2054.189040  	-0.000870 
2056.117856  	-0.001178 
2058.046672  	-0.000845 
2059.975488  	-0.001049 
2061.904304  	-0.001177 
2063.833120  	-0.001264 
2065.761936  	-0.000925 
2067.690752  	-0.001299 
2069.619568  	-0.000699 
2071.548384  	-0.000298 
2073.477200  	-0.000323 
2075.406016  	-0.000637 
2077.334832  	0.000046 
2079.263648  	-0.000068 
2081.192464  	-0.000214 
2083.121280  	-0.000504 
2085.050096  	-0.000355 
2086.978912  	-0.000229 
2088.907728  	-0.000087 
2090.836544  	-0.000560 
2092.765360  	-0.000408 
2094.694176  	-0.000146 
2096.622992  	0.000181 
2098.551808  	0.000001 
2100.480624  	0.000119 
2102.409440  	-0.000074 
2104.338256  	-0.000076 
2106.267072  	0.000182 
2108.195888  	0.000571 
2110.124704  	-0.000016 
2112.053520  	-0.000003 
2113.982336  	0.000020 
2115.911152  	0.000231 
2117.839968  	0.000119 
2119.768784  	-0.000008 
2121.697600  	-0.000284 
2123.626416  	-0.000281 
2125.555232  	-0.000780 
2127.484048  	-0.000280 
2129.412864  	-0.000239 
2131.341680  	-0.000380 
2133.270496  	-0.000851 
2135.199312  	-0.000424 
2137.128128  	0.000096 
2139.056944  	0.000860 
2140.985760  	0.000512 
2142.914576  	0.000281 
2144.843392  	0.000321 
2146.772208  	0.000894 
2148.701024  	0.000361 
2150.629840  	0.000806 
2152.558656  	0.000001 
2154.487472  	0.000291 
2156.416288  	0.000396 
2158.345104  	0.000839 
2160.273920  	0.002651 
2162.202736  	0.004281 
2164.131552  	0.003195 
2166.060368  	0.003410 
2167.989184  	0.003678 
2169.918000  	0.004039 
2171.846816  	0.002291 
2173.775632  	0.002392 
2175.704448  	0.002710 
2177.633264  	0.001881 
2179.562080  	0.001134 
2181.490896  	0.001564 
2183.419712  	0.000910 
2185.348528  	0.001121 
2187.277344  	0.001958 
2189.206160  	0.002575 
2191.134976  	0.001731 
2193.063792  	0.001942 
2194.992608  	0.001353 
2196.921424  	0.000985 
2198.850240  	0.001010 
2200.779056  	0.000858 
2202.707872  	0.000090 
2204.636688  	0.000315 
2206.565504  	0.000188 
2208.494320  	-0.000100 
2210.423136  	-0.000645 
2212.351952  	-0.000744 
2214.280768  	-0.000548 
2216.209584  	0.000263 
2218.138400  	0.000063 
2220.067216  	0.000506 
2221.996032  	0.000247 
2223.924848  	-0.000268 
2225.853664  	-0.000133 
2227.782480  	0.000100 
2229.711296  	-0.000462 
2231.640112  	-0.000857 
2233.568928  	-0.000938 
2235.497744  	-0.000693 
2237.426560  	-0.000922 
2239.355376  	-0.000359 
2241.284192  	-0.000349 
2243.213008  	-0.000641 
2245.141824  	-0.001137 
2247.070640  	-0.000753 
2248.999456  	-0.000884 
2250.928272  	-0.001205 
2252.857088  	-0.001520 
2254.785904  	-0.001399 
2256.714720  	-0.001853 
2258.643536  	-0.001792 
2260.572352  	-0.001853 
2262.501168  	-0.001944 
2264.429984  	-0.002032 
2266.358800  	-0.001843 
2268.287616  	-0.001621 
2270.216432  	-0.001460 
2272.145248  	-0.001662 
2274.074064  	-0.001817 
2276.002880  	-0.001629 
2277.931696  	-0.000977 
2279.860512  	-0.000612 
2281.789328  	-0.000361 
2283.718144  	-0.000530 
2285.646960  	-0.000516 
2287.575776  	-0.000522 
2289.504592  	-0.000858 
2291.433408  	-0.001308 
2293.362224  	-0.001428 
2295.291040  	-0.001250 
2297.219856  	-0.001009 
2299.148672  	-0.001256 
2301.077488  	-0.001348 
2303.006304  	-0.001413 
2304.935120  	-0.001386 
2306.863936  	-0.001618 
2308.792752  	-0.002179 
2310.721568  	-0.003097 
2312.650384  	-0.004176 
2314.579200  	-0.005681 
2316.508016  	-0.007129 
2318.436832  	-0.008994 
2320.365648  	-0.011217 
2322.294464  	-0.013533 
2324.223280  	-0.016033 
2326.152096  	-0.019140 
2328.080912  	-0.021538 
2330.009728  	-0.023944 
2331.938544  	-0.026391 
2333.867360  	-0.028349 
2335.796176  	-0.030159 
2337.724992  	-0.031642 
2339.653808  	-0.031931 
2341.582624  	-0.032184 
2343.511440  	-0.030506 
2345.440256  	-0.026120 
2347.369072  	-0.018743 
2349.297888  	-0.015367 
2351.226704  	-0.020099 
2353.155520  	-0.028409 
2355.084336  	-0.035017 
2357.013152  	-0.040333 
2358.941968  	-0.043043 
2360.870784  	-0.044213 
2362.799600  	-0.042789 
2364.728416  	-0.040224 
2366.657232  	-0.036219 
2368.586048  	-0.030732 
2370.514864  	-0.024962 
2372.443680  	-0.019528 
2374.372496  	-0.013964 
2376.301312  	-0.009174 
2378.230128  	-0.005364 
2380.158944  	-0.002856 
2382.087760  	-0.001486 
2384.016576  	-0.001110 
2385.945392  	-0.001164 
2387.874208  	-0.001304 
2389.803024  	-0.001514 
2391.731840  	-0.001812 
2393.660656  	-0.001966 
2395.589472  	-0.001862 
2397.518288  	-0.001788 
2399.447104  	-0.001901 
2401.375920  	-0.001803 
2403.304736  	-0.001965 
2405.233552  	-0.001906 
2407.162368  	-0.002005 
2409.091184  	-0.001994 
2411.020000  	-0.001893 
2412.948816  	-0.001786 
2414.877632  	-0.001688 
2416.806448  	-0.001348 
2418.735264  	-0.001466 
2420.664080  	-0.001635 
2422.592896  	-0.001688 
2424.521712  	-0.001691 
2426.450528  	-0.001951 
2428.379344  	-0.001834 
2430.308160  	-0.001450 
2432.236976  	-0.001307 
2434.165792  	-0.001409 
2436.094608  	-0.001447 
2438.023424  	-0.001438 
2439.952240  	-0.001117 
2441.881056  	-0.001059 
2443.809872  	-0.001192 
2445.738688  	-0.001236 
2447.667504  	-0.001041 
2449.596320  	-0.000926 
2451.525136  	-0.000868 
2453.453952  	-0.000941 
2455.382768  	-0.001030 
2457.311584  	-0.001128 
2459.240400  	-0.001213 
2461.169216  	-0.001286 
2463.098032  	-0.001428 
2465.026848  	-0.001405 
2466.955664  	-0.001277 
2468.884480  	-0.001502 
2470.813296  	-0.001595 
2472.742112  	-0.001482 
2474.670928  	-0.001251 
2476.599744  	-0.001160 
2478.528560  	-0.001048 
2480.457376  	-0.001116 
2482.386192  	-0.001245 
2484.315008  	-0.001059 
2486.243824  	-0.000942 
2488.172640  	-0.000969 
2490.101456  	-0.000759 
2492.030272  	-0.000530 
2493.959088  	-0.000360 
2495.887904  	-0.000383 
2497.816720  	-0.000526 
2499.745536  	-0.000697 
2501.674352  	-0.000536 
2503.603168  	-0.000229 
2505.531984  	-0.000202 
2507.460800  	-0.000376 
2509.389616  	-0.000257 
2511.318432  	-0.000278 
2513.247248  	-0.000413 
2515.176064  	-0.000513 
2517.104880  	-0.000391 
2519.033696  	-0.000370 
2520.962512  	-0.000182 
2522.891328  	0.000022 
2524.820144  	-0.000172 
2526.748960  	-0.000262 
2528.677776  	0.000031 
2530.606592  	0.000044 
2532.535408  	-0.000029 
2534.464224  	-0.000151 
2536.393040  	-0.000047 
2538.321856  	0.000184 
2540.250672  	0.000294 
2542.179488  	0.000445 
2544.108304  	0.000454 
2546.037120  	0.000247 
2547.965936  	0.000370 
2549.894752  	0.000551 
2551.823568  	0.000593 
2553.752384  	0.000846 
2555.681200  	0.001240 
2557.610016  	0.001186 
2559.538832  	0.001180 
2561.467648  	0.001182 
2563.396464  	0.001291 
2565.325280  	0.001541 
2567.254096  	0.001549 
2569.182912  	0.001452 
2571.111728  	0.001696 
2573.040544  	0.001815 
2574.969360  	0.001733 
2576.898176  	0.001949 
2578.826992  	0.002016 
2580.755808  	0.001930 
2582.684624  	0.002020 
2584.613440  	0.002122 
2586.542256  	0.002242 
2588.471072  	0.002410 
2590.399888  	0.002525 
2592.328704  	0.002448 
2594.257520  	0.002440 
2596.186336  	0.002569 
2598.115152  	0.002644 
2600.043968  	0.002555 
2601.972784  	0.002751 
2603.901600  	0.003027 
2605.830416  	0.003202 
2607.759232  	0.003297 
2609.688048  	0.003405 
2611.616864  	0.003630 
2613.545680  	0.003840 
2615.474496  	0.003887 
2617.403312  	0.003978 
2619.332128  	0.004095 
2621.260944  	0.004173 
2623.189760  	0.004233 
2625.118576  	0.004349 
2627.047392  	0.004456 
2628.976208  	0.004653 
2630.905024  	0.004805 
2632.833840  	0.004888 
2634.762656  	0.004950 
2636.691472  	0.005055 
2638.620288  	0.005145 
2640.549104  	0.005295 
2642.477920  	0.005454 
2644.406736  	0.005612 
2646.335552  	0.005672 
2648.264368  	0.005810 
2650.193184  	0.005942 
2652.122000  	0.006092 
2654.050816  	0.006261 
2655.979632  	0.006389 
2657.908448  	0.006551 
2659.837264  	0.006658 
2661.766080  	0.006760 
2663.694896  	0.007041 
2665.623712  	0.007099 
2667.552528  	0.007214 
2669.481344  	0.007379 
2671.410160  	0.007453 
2673.338976  	0.007566 
2675.267792  	0.007742 
2677.196608  	0.008017 
2679.125424  	0.008230 
2681.054240  	0.008370 
2682.983056  	0.008547 
2684.911872  	0.008614 
2686.840688  	0.008646 
2688.769504  	0.008694 
2690.698320  	0.008712 
2692.627136  	0.008798 
2694.555952  	0.008983 
2696.484768  	0.009134 
2698.413584  	0.009215 
2700.342400  	0.009254 
2702.271216  	0.009463 
2704.200032  	0.009740 
2706.128848  	0.009896 
2708.057664  	0.010022 
2709.986480  	0.010203 
2711.915296  	0.010362 
2713.844112  	0.010582 
2715.772928  	0.010708 
2717.701744  	0.010923 
2719.630560  	0.011230 
2721.559376  	0.011440 
2723.488192  	0.011664 
2725.417008  	0.011882 
2727.345824  	0.012069 
2729.274640  	0.012251 
2731.203456  	0.012520 
2733.132272  	0.012845 
2735.061088  	0.013127 
2736.989904  	0.013359 
2738.918720  	0.013518 
2740.847536  	0.013663 
2742.776352  	0.013692 
2744.705168  	0.013821 
2746.633984  	0.013983 
2748.562800  	0.014128 
2750.491616  	0.014275 
2752.420432  	0.014513 
2754.349248  	0.014535 
2756.278064  	0.014477 
2758.206880  	0.014441 
2760.135696  	0.014474 
2762.064512  	0.014522 
2763.993328  	0.014603 
2765.922144  	0.014661 
2767.850960  	0.014797 
2769.779776  	0.014884 
2771.708592  	0.014993 
2773.637408  	0.015000 
2775.566224  	0.015040 
2777.495040  	0.015025 
2779.423856  	0.015145 
2781.352672  	0.015338 
2783.281488  	0.015435 
2785.210304  	0.015477 
2787.139120  	0.015630 
2789.067936  	0.015854 
2790.996752  	0.015980 
2792.925568  	0.016029 
2794.854384  	0.016222 
2796.783200  	0.016342 
2798.712016  	0.016334 
2800.640832  	0.016380 
2802.569648  	0.016632 
2804.498464  	0.016820 
2806.427280  	0.016752 
2808.356096  	0.016715 
2810.284912  	0.016862 
2812.213728  	0.017085 
2814.142544  	0.017225 
2816.071360  	0.017339 
2818.000176  	0.017376 
2819.928992  	0.017481 
2821.857808  	0.017729 
2823.786624  	0.017929 
2825.715440  	0.017990 
2827.644256  	0.018015 
2829.573072  	0.018265 
2831.501888  	0.018427 
2833.430704  	0.018462 
2835.359520  	0.018688 
2837.288336  	0.019042 
2839.217152  	0.019384 
2841.145968  	0.019640 
2843.074784  	0.019966 
2845.003600  	0.020335 
2846.932416  	0.020805 
2848.861232  	0.021491 
2850.790048  	0.022255 
2852.718864  	0.023021 
2854.647680  	0.023737 
2856.576496  	0.024697 
2858.505312  	0.025783 
2860.434128  	0.026987 
2862.362944  	0.028259 
2864.291760  	0.029427 
2866.220576  	0.030662 
2868.149392  	0.031896 
2870.078208  	0.032823 
2872.007024  	0.033608 
2873.935840  	0.034537 
2875.864656  	0.035683 
2877.793472  	0.037154 
2879.722288  	0.038999 
2881.651104  	0.040955 
2883.579920  	0.042554 
2885.508736  	0.043413 
2887.437552  	0.043679 
2889.366368  	0.044091 
2891.295184  	0.044915 
2893.224000  	0.045622 
2895.152816  	0.045840 
2897.081632  	0.046304 
2899.010448  	0.048597 
2900.939264  	0.050726 
2902.868080  	0.049415 
2904.796896  	0.047983 
2906.725712  	0.047603 
2908.654528  	0.047715 
2910.583344  	0.048271 
2912.512160  	0.048021 
2914.440976  	0.047265 
2916.369792  	0.047043 
2918.298608  	0.047296 
2920.227424  	0.047771 
2922.156240  	0.048343 
2924.085056  	0.048702 
2926.013872  	0.049034 
2927.942688  	0.049485 
2929.871504  	0.049784 
2931.800320  	0.050307 
2933.729136  	0.051022 
2935.657952  	0.051715 
2937.586768  	0.052283 
2939.515584  	0.053038 
2941.444400  	0.054079 
2943.373216  	0.054990 
2945.302032  	0.055572 
2947.230848  	0.055902 
2949.159664  	0.056515 
2951.088480  	0.057600 
2953.017296  	0.058675 
2954.946112  	0.059472 
2956.874928  	0.060252 
2958.803744  	0.060880 
2960.732560  	0.061657 
2962.661376  	0.062454 
2964.590192  	0.063413 
2966.519008  	0.064792 
2968.447824  	0.066159 
2970.376640  	0.066939 
2972.305456  	0.066946 
2974.234272  	0.066408 
2976.163088  	0.066076 
2978.091904  	0.065598 
2980.020720  	0.065245 
2981.949536  	0.065055 
2983.878352  	0.065471 
2985.807168  	0.066664 
2987.735984  	0.067758 
2989.664800  	0.067114 
2991.593616  	0.062939 
2993.522432  	0.060452 
2995.451248  	0.059936 
2997.380064  	0.059149 
2999.308880  	0.057900 
3001.237696  	0.056495 
3003.166512  	0.055220 
3005.095328  	0.053834 
3007.024144  	0.052393 
3008.952960  	0.051048 
3010.881776  	0.049764 
3012.810592  	0.048477 
3014.739408  	0.047200 
3016.668224  	0.045980 
3018.597040  	0.045090 
3020.525856  	0.044383 
3022.454672  	0.043770 
3024.383488  	0.043044 
3026.312304  	0.042306 
3028.241120  	0.041909 
3030.169936  	0.041574 
3032.098752  	0.041094 
3034.027568  	0.040741 
3035.956384  	0.040661 
3037.885200  	0.040752 
3039.814016  	0.040786 
3041.742832  	0.040862 
3043.671648  	0.040878 
3045.600464  	0.041071 
3047.529280  	0.041351 
3049.458096  	0.041603 
3051.386912  	0.042069 
3053.315728  	0.042499 
3055.244544  	0.042943 
3057.173360  	0.043591 
3059.102176  	0.044087 
3061.030992  	0.044610 
3062.959808  	0.045409 
3064.888624  	0.046059 
3066.817440  	0.046697 
3068.746256  	0.047612 
3070.675072  	0.048453 
3072.603888  	0.049215 
3074.532704  	0.050108 
3076.461520  	0.050970 
3078.390336  	0.051824 
3080.319152  	0.052599 
3082.247968  	0.053613 
3084.176784  	0.054502 
3086.105600  	0.055200 
3088.034416  	0.055912 
3089.963232  	0.056796 
3091.892048  	0.057442 
3093.820864  	0.058091 
3095.749680  	0.058870 
3097.678496  	0.059877 
3099.607312  	0.060989 
3101.536128  	0.061891 
3103.464944  	0.062795 
3105.393760  	0.063618 
3107.322576  	0.064321 
3109.251392  	0.065120 
3111.180208  	0.065974 
3113.109024  	0.066767 
3115.037840  	0.067307 
3116.966656  	0.068040 
3118.895472  	0.068839 
3120.824288  	0.069524 
3122.753104  	0.070335 
3124.681920  	0.071042 
3126.610736  	0.071559 
3128.539552  	0.072332 
3130.468368  	0.073077 
3132.397184  	0.073474 
3134.326000  	0.074221 
3136.254816  	0.075001 
3138.183632  	0.075712 
3140.112448  	0.076435 
3142.041264  	0.076966 
3143.970080  	0.077543 
3145.898896  	0.078268 
3147.827712  	0.079059 
3149.756528  	0.079626 
3151.685344  	0.080133 
3153.614160  	0.081099 
3155.542976  	0.081944 
3157.471792  	0.082575 
3159.400608  	0.083293 
3161.329424  	0.083862 
3163.258240  	0.084231 
3165.187056  	0.084738 
3167.115872  	0.085475 
3169.044688  	0.086093 
3170.973504  	0.086620 
3172.902320  	0.086990 
3174.831136  	0.087407 
3176.759952  	0.087899 
3178.688768  	0.088287 
3180.617584  	0.088750 
3182.546400  	0.089266 
3184.475216  	0.089428 
3186.404032  	0.089489 
3188.332848  	0.089902 
3190.261664  	0.090303 
3192.190480  	0.090469 
3194.119296  	0.090478 
3196.048112  	0.090606 
3197.976928  	0.090679 
3199.905744  	0.090804 
3201.834560  	0.090729 
3203.763376  	0.090547 
3205.692192  	0.090523 
3207.621008  	0.090484 
3209.549824  	0.090440 
3211.478640  	0.090263 
3213.407456  	0.089954 
3215.336272  	0.089977 
3217.265088  	0.090094 
3219.193904  	0.089780 
3221.122720  	0.089439 
3223.051536  	0.089433 
3224.980352  	0.089258 
3226.909168  	0.089122 
3228.837984  	0.088773 
3230.766800  	0.088520 
3232.695616  	0.088549 
3234.624432  	0.088295 
3236.553248  	0.088179 
3238.482064  	0.088378 
3240.410880  	0.088499 
3242.339696  	0.088502 
3244.268512  	0.088178 
3246.197328  	0.088135 
3248.126144  	0.088367 
3250.054960  	0.088420 
3251.983776  	0.088668 
3253.912592  	0.088963 
3255.841408  	0.089213 
3257.770224  	0.089602 
3259.699040  	0.089753 
3261.627856  	0.090031 
3263.556672  	0.090293 
3265.485488  	0.090394 
3267.414304  	0.090632 
3269.343120  	0.090910 
3271.271936  	0.091138 
3273.200752  	0.091090 
3275.129568  	0.091028 
3277.058384  	0.091392 
3278.987200  	0.091820 
3280.916016  	0.092074 
3282.844832  	0.092220 
3284.773648  	0.092365 
3286.702464  	0.092566 
3288.631280  	0.092824 
3290.560096  	0.093150 
3292.488912  	0.093519 
3294.417728  	0.093913 
3296.346544  	0.094471 
3298.275360  	0.094777 
3300.204176  	0.095014 
3302.132992  	0.095340 
3304.061808  	0.095481 
3305.990624  	0.095961 
3307.919440  	0.096556 
3309.848256  	0.096834 
3311.777072  	0.097132 
3313.705888  	0.097453 
3315.634704  	0.098049 
3317.563520  	0.098571 
3319.492336  	0.098839 
3321.421152  	0.098973 
3323.349968  	0.099150 
3325.278784  	0.099382 
3327.207600  	0.099669 
3329.136416  	0.099659 
3331.065232  	0.099838 
3332.994048  	0.099997 
3334.922864  	0.100182 
3336.851680  	0.100187 
3338.780496  	0.100103 
3340.709312  	0.099922 
3342.638128  	0.099745 
3344.566944  	0.099368 
3346.495760  	0.098949 
3348.424576  	0.098657 
3350.353392  	0.098425 
3352.282208  	0.098167 
3354.211024  	0.097957 
3356.139840  	0.097711 
3358.068656  	0.097304 
3359.997472  	0.096877 
3361.926288  	0.096414 
3363.855104  	0.095937 
3365.783920  	0.095605 
3367.712736  	0.095370 
3369.641552  	0.094988 
3371.570368  	0.094414 
3373.499184  	0.093888 
3375.428000  	0.093598 
3377.356816  	0.093411 
3379.285632  	0.093252 
3381.214448  	0.092917 
3383.143264  	0.092343 
3385.072080  	0.091675 
3387.000896  	0.091220 
3388.929712  	0.090950 
3390.858528  	0.090733 
3392.787344  	0.090493 
3394.716160  	0.089936 
3396.644976  	0.089481 
3398.573792  	0.089107 
3400.502608  	0.088695 
3402.431424  	0.087962 
3404.360240  	0.087386 
3406.289056  	0.086853 
3408.217872  	0.086289 
3410.146688  	0.085664 
3412.075504  	0.085171 
3414.004320  	0.084713 
3415.933136  	0.084321 
3417.861952  	0.083778 
3419.790768  	0.083236 
3421.719584  	0.082664 
3423.648400  	0.082081 
3425.577216  	0.081351 
3427.506032  	0.080657 
3429.434848  	0.080091 
3431.363664  	0.079696 
3433.292480  	0.079151 
3435.221296  	0.078550 
3437.150112  	0.077893 
3439.078928  	0.077486 
3441.007744  	0.076960 
3442.936560  	0.076475 
3444.865376  	0.075905 
3446.794192  	0.074978 
3448.723008  	0.074247 
3450.651824  	0.073676 
3452.580640  	0.072980 
3454.509456  	0.072391 
3456.438272  	0.071827 
3458.367088  	0.071215 
3460.295904  	0.070497 
3462.224720  	0.069414 
3464.153536  	0.068499 
3466.082352  	0.067731 
3468.011168  	0.066712 
3469.939984  	0.066027 
3471.868800  	0.065516 
3473.797616  	0.064811 
3475.726432  	0.063985 
3477.655248  	0.063104 
3479.584064  	0.062472 
3481.512880  	0.061486 
3483.441696  	0.060245 
3485.370512  	0.059555 
3487.299328  	0.058644 
3489.228144  	0.057906 
3491.156960  	0.057242 
3493.085776  	0.056371 
3495.014592  	0.055567 
3496.943408  	0.054936 
3498.872224  	0.054373 
3500.801040  	0.054175 
3502.729856  	0.053519 
3504.658672  	0.052150 
3506.587488  	0.051183 
3508.516304  	0.050729 
3510.445120  	0.049963 
3512.373936  	0.048848 
3514.302752  	0.048151 
3516.231568  	0.047807 
3518.160384  	0.047233 
3520.089200  	0.046328 
3522.018016  	0.046047 
3523.946832  	0.046279 
3525.875648  	0.045324 
3527.804464  	0.043878 
3529.733280  	0.042951 
3531.662096  	0.042257 
3533.590912  	0.041560 
3535.519728  	0.041421 
3537.448544  	0.040991 
3539.377360  	0.039762 
3541.306176  	0.039156 
3543.234992  	0.039238 
3545.163808  	0.039714 
3547.092624  	0.038770 
3549.021440  	0.036885 
3550.950256  	0.035878 
3552.879072  	0.035273 
3554.807888  	0.034677 
3556.736704  	0.034042 
3558.665520  	0.033950 
3560.594336  	0.033608 
3562.523152  	0.032264 
3564.451968  	0.032060 
3566.380784  	0.033017 
3568.309600  	0.031813 
3570.238416  	0.029894 
3572.167232  	0.028810 
3574.096048  	0.027843 
3576.024864  	0.026931 
3577.953680  	0.026459 
3579.882496  	0.025888 
3581.811312  	0.024897 
3583.740128  	0.023920 
3585.668944  	0.023981 
3587.597760  	0.023595 
3589.526576  	0.022106 
3591.455392  	0.020747 
3593.384208  	0.019975 
3595.313024  	0.019152 
3597.241840  	0.017792 
3599.170656  	0.016313 
3601.099472  	0.015467 
3603.028288  	0.015354 
3604.957104  	0.015088 
3606.885920  	0.014419 
3608.814736  	0.013627 
3610.743552  	0.013110 
3612.672368  	0.012215 
3614.601184  	0.011020 
3616.530000  	0.010299 
3618.458816  	0.008744 
3620.387632  	0.007892 
3622.316448  	0.007971 
3624.245264  	0.007483 
3626.174080  	0.006664 
3628.102896  	0.004484 
3630.031712  	0.003102 
3631.960528  	0.004675 
3633.889344  	0.004917 
3635.818160  	0.004575 
3637.746976  	0.004167 
3639.675792  	0.004429 
3641.604608  	0.005009 
3643.533424  	0.004902 
3645.462240  	0.004026 
3647.391056  	0.001318 
3649.319872  	-0.001729 
3651.248688  	-0.000693 
3653.177504  	0.002306 
3655.106320  	0.002381 
3657.035136  	0.002046 
3658.963952  	0.003241 
3660.892768  	0.003536 
3662.821584  	0.003383 
3664.750400  	0.003016 
3666.679216  	0.002056 
3668.608032  	-0.000922 
3670.536848  	-0.003628 
3672.465664  	-0.002026 
3674.394480  	-0.002927 
3676.323296  	-0.004867 
3678.252112  	-0.003460 
3680.180928  	-0.002881 
3682.109744  	-0.001808 
3684.038560  	-0.001558 
3685.967376  	-0.002780 
3687.896192  	-0.006559 
3689.825008  	-0.009383 
3691.753824  	-0.007662 
3693.682640  	-0.005744 
3695.611456  	-0.005979 
3697.540272  	-0.006562 
3699.469088  	-0.007499 
3701.397904  	-0.009659 
3703.326720  	-0.010311 
3705.255536  	-0.009775 
3707.184352  	-0.010799 
3709.113168  	-0.013772 
3711.041984  	-0.016058 
3712.970800  	-0.013769 
3714.899616  	-0.010782 
3716.828432  	-0.010704 
3718.757248  	-0.011698 
3720.686064  	-0.012601 
3722.614880  	-0.013044 
3724.543696  	-0.012567 
3726.472512  	-0.012713 
3728.401328  	-0.013080 
3730.330144  	-0.014866 
3732.258960  	-0.017187 
3734.187776  	-0.016047 
3736.116592  	-0.014813 
3738.045408  	-0.014222 
3739.974224  	-0.013134 
3741.903040  	-0.012945 
3743.831856  	-0.015167 
3745.760672  	-0.016190 
3747.689488  	-0.015761 
3749.618304  	-0.018564 
3751.547120  	-0.018941 
3753.475936  	-0.015287 
3755.404752  	-0.013137 
3757.333568  	-0.013076 
3759.262384  	-0.013653 
3761.191200  	-0.012876 
3763.120016  	-0.011618 
3765.048832  	-0.012245 
3766.977648  	-0.012273 
3768.906464  	-0.013326 
3770.835280  	-0.013331 
3772.764096  	-0.011492 
3774.692912  	-0.010829 
3776.621728  	-0.011216 
3778.550544  	-0.012720 
3780.479360  	-0.012990 
3782.408176  	-0.011675 
3784.336992  	-0.011970 
3786.265808  	-0.011546 
3788.194624  	-0.010943 
3790.123440  	-0.011048 
3792.052256  	-0.011233 
3793.981072  	-0.011627 
3795.909888  	-0.013348 
3797.838704  	-0.013668 
3799.767520  	-0.015013 
3801.696336  	-0.018223 
3803.625152  	-0.015388 
3805.553968  	-0.014530 
3807.482784  	-0.015057 
3809.411600  	-0.012396 
3811.340416  	-0.011272 
3813.269232  	-0.011820 
3815.198048  	-0.015016 
3817.126864  	-0.015904 
3819.055680  	-0.015191 
3820.984496  	-0.017841 
3822.913312  	-0.015192 
3824.842128  	-0.012856 
3826.770944  	-0.013154 
3828.699760  	-0.012563 
3830.628576  	-0.012972 
3832.557392  	-0.013764 
3834.486208  	-0.013989 
3836.415024  	-0.015509 
3838.343840  	-0.016799 
3840.272656  	-0.015177 
3842.201472  	-0.013348 
3844.130288  	-0.012734 
3846.059104  	-0.011526 
3847.987920  	-0.011120 
3849.916736  	-0.012305 
3851.845552  	-0.016036 
3853.774368  	-0.019320 
3855.703184  	-0.014931 
3857.632000  	-0.012131 
3859.560816  	-0.011340 
3861.489632  	-0.011856 
3863.418448  	-0.012977 
3865.347264  	-0.012924 
3867.276080  	-0.011797 
3869.204896  	-0.012965 
3871.133712  	-0.012718 
3873.062528  	-0.012187 
3874.991344  	-0.012230 
3876.920160  	-0.010937 
3878.848976  	-0.010784 
3880.777792  	-0.011126 
3882.706608  	-0.010651 
3884.635424  	-0.011094 
3886.564240  	-0.011570 
3888.493056  	-0.011248 
3890.421872  	-0.012022 
3892.350688  	-0.012164 
3894.279504  	-0.010854 
3896.208320  	-0.010465 
3898.137136  	-0.010752 
3900.065952  	-0.010814 
3901.994768  	-0.010470 
3903.923584  	-0.011000 
3905.852400  	-0.010987 
3907.781216  	-0.010826 
3909.710032  	-0.010966 
3911.638848  	-0.010898 
3913.567664  	-0.010658 
3915.496480  	-0.010219 
3917.425296  	-0.010084 
3919.354112  	-0.010522 
3921.282928  	-0.010563 
3923.211744  	-0.010099 
3925.140560  	-0.009923 
3927.069376  	-0.010386 
3928.998192  	-0.010581 
3930.927008  	-0.009883 
3932.855824  	-0.009397 
3934.784640  	-0.010082 
3936.713456  	-0.010516 
3938.642272  	-0.010390 
3940.571088  	-0.010167 
3942.499904  	-0.009765 
3944.428720  	-0.009971 
3946.357536  	-0.009858 
3948.286352  	-0.009241 
3950.215168  	-0.009816 
3952.143984  	-0.010652 
3954.072800  	-0.010691 
3956.001616  	-0.010398 
3957.930432  	-0.010456 
3959.859248  	-0.010402 
3961.788064  	-0.010199 
3963.716880  	-0.010585 
3965.645696  	-0.010916 
3967.574512  	-0.010566 
3969.503328  	-0.010178 
3971.432144  	-0.010337 
3973.360960  	-0.010384 
3975.289776  	-0.010108 
3977.218592  	-0.010180 
3979.147408  	-0.010446 
3981.076224  	-0.010427 
3983.005040  	-0.010414 
3984.933856  	-0.010582 
3986.862672  	-0.010569 
3988.791488  	-0.010269 
3990.720304  	-0.010039 
3992.649120  	-0.010149 
3994.577936  	-0.010332 
3996.506752  	-0.010487 
3998.435568  	-0.010540 
4000.364384  	-0.010534 