##TITLE=No Description
##DATA TYPE=INFRARED SPECTRUM
##XUNITS=1/CM
##YUNITS=Abs
399.264912  	0.624472 
401.193728  	0.627069 
403.122544  	0.625306 
405.051360  	0.600335 
406.980176  	0.600395 
408.908992  	0.597370 
410.837808  	0.586447 
412.766624  	0.575774 
414.695440  	0.582168 
416.624256  	0.581437 
418.553072  	0.592211 
420.481888  	0.584865 
422.410704  	0.597762 
424.339520  	0.598740 
426.268336  	0.584670 
428.197152  	0.566016 
430.125968  	0.571926 
432.054784  	0.570857 
433.983600  	0.570055 
435.912416  	0.566016 
437.841232  	0.561981 
439.770048  	0.553040 
441.698864  	0.548927 
443.627680  	0.547926 
445.556496  	0.550951 
447.485312  	0.545521 
449.414128  	0.543572 
451.342944  	0.541366 
453.271760  	0.537943 
455.200576  	0.536114 
457.129392  	0.543505 
459.058208  	0.541398 
460.987024  	0.538834 
462.915840  	0.534656 
464.844656  	0.540266 
466.773472  	0.542202 
468.702288  	0.539465 
470.631104  	0.535885 
472.559920  	0.540596 
474.488736  	0.535357 
476.417552  	0.535273 
478.346368  	0.530310 
480.275184  	0.525337 
482.204000  	0.521861 
484.132816  	0.527559 
486.061632  	0.525952 
487.990448  	0.525188 
489.919264  	0.525172 
491.848080  	0.527210 
493.776896  	0.522396 
495.705712  	0.518215 
497.634528  	0.513023 
499.563344  	0.513205 
501.492160  	0.515312 
503.420976  	0.516927 
505.349792  	0.514068 
507.278608  	0.513136 
509.207424  	0.509008 
511.136240  	0.511779 
513.065056  	0.515505 
514.993872  	0.520569 
516.922688  	0.520420 
518.851504  	0.520398 
520.780320  	0.517987 
522.709136  	0.518082 
524.637952  	0.516938 
526.566768  	0.515036 
528.495584  	0.510555 
530.424400  	0.508466 
532.353216  	0.505190 
534.282032  	0.499818 
536.210848  	0.492384 
538.139664  	0.488631 
540.068480  	0.483962 
541.997296  	0.480280 
543.926112  	0.477895 
545.854928  	0.474587 
547.783744  	0.469118 
549.712560  	0.466679 
551.641376  	0.463057 
553.570192  	0.459995 
555.499008  	0.456162 
557.427824  	0.453268 
559.356640  	0.450086 
561.285456  	0.447755 
563.214272  	0.442969 
565.143088  	0.438832 
567.071904  	0.435893 
569.000720  	0.433529 
570.929536  	0.430068 
572.858352  	0.427873 
574.787168  	0.425459 
576.715984  	0.423879 
578.644800  	0.419607 
580.573616  	0.415605 
582.502432  	0.410646 
584.431248  	0.407398 
586.360064  	0.404100 
588.288880  	0.401493 
590.217696  	0.398626 
592.146512  	0.395757 
594.075328  	0.393265 
596.004144  	0.392793 
597.932960  	0.390628 
599.861776  	0.387674 
601.790592  	0.385096 
603.719408  	0.383945 
605.648224  	0.382825 
607.577040  	0.381321 
609.505856  	0.380040 
611.434672  	0.378549 
613.363488  	0.376158 
615.292304  	0.375685 
617.221120  	0.374033 
619.149936  	0.372635 
621.078752  	0.371011 
623.007568  	0.369045 
624.936384  	0.367228 
626.865200  	0.366111 
628.794016  	0.365179 
630.722832  	0.364568 
632.651648  	0.363446 
634.580464  	0.363274 
636.509280  	0.362884 
638.438096  	0.362397 
640.366912  	0.361188 
642.295728  	0.359077 
644.224544  	0.355819 
646.153360  	0.352489 
648.082176  	0.347850 
650.010992  	0.344043 
651.939808  	0.340329 
653.868624  	0.337209 
655.797440  	0.333918 
657.726256  	0.329499 
659.655072  	0.325562 
661.583888  	0.321796 
663.512704  	0.318268 
665.441520  	0.315681 
667.370336  	0.307478 
669.299152  	0.300672 
671.227968  	0.301107 
673.156784  	0.298540 
675.085600  	0.295654 
677.014416  	0.293241 
678.943232  	0.290799 
680.872048  	0.289383 
682.800864  	0.287645 
684.729680  	0.285690 
686.658496  	0.284295 
688.587312  	0.283604 
690.516128  	0.282334 
692.444944  	0.281538 
694.373760  	0.280998 
696.302576  	0.278740 
698.231392  	0.276107 
700.160208  	0.273639 
702.089024  	0.271634 
704.017840  	0.269571 
705.946656  	0.266618 
707.875472  	0.264257 
709.804288  	0.262265 
711.733104  	0.260223 
713.661920  	0.258115 
715.590736  	0.256809 
717.519552  	0.256348 
719.448368  	0.256080 
721.377184  	0.255968 
723.306000  	0.256456 
725.234816  	0.256724 
727.163632  	0.255877 
729.092448  	0.253621 
731.021264  	0.250519 
732.950080  	0.247109 
734.878896  	0.244267 
736.807712  	0.241482 
738.736528  	0.238824 
740.665344  	0.236725 
742.594160  	0.235279 
744.522976  	0.233729 
746.451792  	0.231840 
748.380608  	0.230153 
750.309424  	0.228902 
752.238240  	0.227883 
754.167056  	0.227033 
756.095872  	0.225764 
758.024688  	0.224467 
759.953504  	0.223918 
761.882320  	0.224391 
763.811136  	0.224792 
765.739952  	0.224008 
767.668768  	0.221755 
769.597584  	0.219219 
771.526400  	0.217512 
773.455216  	0.218575 
775.384032  	0.221652 
777.312848  	0.225845 
779.241664  	0.229616 
781.170480  	0.230029 
783.099296  	0.226534 
785.028112  	0.221186 
786.956928  	0.215640 
788.885744  	0.210813 
790.814560  	0.207012 
792.743376  	0.204231 
794.672192  	0.202559 
796.601008  	0.201732 
798.529824  	0.199285 
800.458640  	0.195186 
802.387456  	0.191526 
804.316272  	0.189008 
806.245088  	0.187603 
808.173904  	0.186765 
810.102720  	0.186147 
812.031536  	0.185845 
813.960352  	0.186180 
815.889168  	0.186370 
817.817984  	0.186048 
819.746800  	0.185993 
821.675616  	0.186132 
823.604432  	0.185922 
825.533248  	0.185519 
827.462064  	0.184976 
829.390880  	0.183910 
831.319696  	0.182668 
833.248512  	0.180613 
835.177328  	0.177952 
837.106144  	0.175052 
839.034960  	0.171888 
840.963776  	0.168606 
842.892592  	0.165304 
844.821408  	0.161892 
846.750224  	0.158985 
848.679040  	0.156715 
850.607856  	0.155095 
852.536672  	0.153889 
854.465488  	0.152678 
856.394304  	0.151835 
858.323120  	0.151297 
860.251936  	0.150262 
862.180752  	0.148863 
864.109568  	0.147181 
866.038384  	0.145501 
867.967200  	0.144180 
869.896016  	0.142647 
871.824832  	0.141680 
873.753648  	0.141036 
875.682464  	0.141110 
877.611280  	0.143139 
879.540096  	0.145373 
881.468912  	0.145983 
883.397728  	0.146885 
885.326544  	0.147475 
887.255360  	0.147598 
889.184176  	0.147381 
891.112992  	0.147076 
893.041808  	0.144949 
894.970624  	0.141625 
896.899440  	0.138065 
898.828256  	0.133807 
900.757072  	0.129460 
902.685888  	0.125828 
904.614704  	0.123385 
906.543520  	0.122532 
908.472336  	0.122842 
910.401152  	0.124352 
912.329968  	0.126198 
914.258784  	0.128453 
916.187600  	0.130445 
918.116416  	0.132233 
920.045232  	0.133570 
921.974048  	0.134341 
923.902864  	0.134440 
925.831680  	0.133966 
927.760496  	0.133716 
929.689312  	0.133876 
931.618128  	0.134294 
933.546944  	0.134442 
935.475760  	0.134508 
937.404576  	0.134301 
939.333392  	0.133743 
941.262208  	0.133562 
943.191024  	0.134721 
945.119840  	0.137897 
947.048656  	0.143109 
948.977472  	0.150052 
950.906288  	0.158568 
952.835104  	0.168439 
954.763920  	0.178954 
956.692736  	0.189033 
958.621552  	0.197698 
960.550368  	0.203943 
962.479184  	0.207064 
964.408000  	0.206533 
966.336816  	0.202422 
968.265632  	0.194907 
970.194448  	0.184604 
972.123264  	0.172396 
974.052080  	0.159538 
975.980896  	0.147032 
977.909712  	0.135151 
979.838528  	0.124467 
981.767344  	0.115934 
983.696160  	0.109618 
985.624976  	0.105506 
987.553792  	0.104005 
989.482608  	0.105193 
991.411424  	0.108686 
993.340240  	0.113713 
995.269056  	0.120157 
997.197872  	0.127165 
999.126688  	0.134494 
1001.055504  	0.141946 
1002.984320  	0.149726 
1004.913136  	0.157562 
1006.841952  	0.165297 
1008.770768  	0.172141 
1010.699584  	0.177829 
1012.628400  	0.182385 
1014.557216  	0.185470 
1016.486032  	0.187045 
1018.414848  	0.187821 
1020.343664  	0.188465 
1022.272480  	0.188805 
1024.201296  	0.189827 
1026.130112  	0.193408 
1028.058928  	0.195821 
1029.987744  	0.194297 
1031.916560  	0.196612 
1033.845376  	0.202428 
1035.774192  	0.210789 
1037.703008  	0.219632 
1039.631824  	0.228099 
1041.560640  	0.239483 
1043.489456  	0.253840 
1045.418272  	0.270162 
1047.347088  	0.287614 
1049.275904  	0.303556 
1051.204720  	0.316332 
1053.133536  	0.324059 
1055.062352  	0.328731 
1056.991168  	0.331030 
1058.919984  	0.328685 
1060.848800  	0.323821 
1062.777616  	0.323515 
1064.706432  	0.326508 
1066.635248  	0.325312 
1068.564064  	0.314803 
1070.492880  	0.306307 
1072.421696  	0.300735 
1074.350512  	0.296722 
1076.279328  	0.294133 
1078.208144  	0.294265 
1080.136960  	0.295463 
1082.065776  	0.296883 
1083.994592  	0.295848 
1085.923408  	0.292165 
1087.852224  	0.286113 
1089.781040  	0.277908 
1091.709856  	0.266813 
1093.638672  	0.255391 
1095.567488  	0.243401 
1097.496304  	0.231132 
1099.425120  	0.217818 
1101.353936  	0.204535 
1103.282752  	0.191105 
1105.211568  	0.177617 
1107.140384  	0.164338 
1109.069200  	0.151793 
1110.998016  	0.139791 
1112.926832  	0.128980 
1114.855648  	0.119182 
1116.784464  	0.109898 
1118.713280  	0.101253 
1120.642096  	0.093323 
1122.570912  	0.086184 
1124.499728  	0.079549 
1126.428544  	0.073735 
1128.357360  	0.068544 
1130.286176  	0.064381 
1132.214992  	0.060880 
1134.143808  	0.057932 
1136.072624  	0.055473 
1138.001440  	0.053186 
1139.930256  	0.050650 
1141.859072  	0.048279 
1143.787888  	0.045784 
1145.716704  	0.043364 
1147.645520  	0.041015 
1149.574336  	0.039076 
1151.503152  	0.037566 
1153.431968  	0.036909 
1155.360784  	0.036967 
1157.289600  	0.037625 
1159.218416  	0.038888 
1161.147232  	0.040895 
1163.076048  	0.042830 
1165.004864  	0.044985 
1166.933680  	0.046995 
1168.862496  	0.049221 
1170.791312  	0.051495 
1172.720128  	0.054281 
1174.648944  	0.056928 
1176.577760  	0.059450 
1178.506576  	0.061885 
1180.435392  	0.064696 
1182.364208  	0.067506 
1184.293024  	0.070709 
1186.221840  	0.074114 
1188.150656  	0.078052 
1190.079472  	0.082621 
1192.008288  	0.088275 
1193.937104  	0.094885 
1195.865920  	0.102308 
1197.794736  	0.110342 
1199.723552  	0.119270 
1201.652368  	0.128662 
1203.581184  	0.138167 
1205.510000  	0.147598 
1207.438816  	0.156555 
1209.367632  	0.165270 
1211.296448  	0.173070 
1213.225264  	0.179858 
1215.154080  	0.185587 
1217.082896  	0.190275 
1219.011712  	0.193845 
1220.940528  	0.197045 
1222.869344  	0.199247 
1224.798160  	0.200488 
1226.726976  	0.200750 
1228.655792  	0.200462 
1230.584608  	0.198847 
1232.513424  	0.196047 
1234.442240  	0.191894 
1236.371056  	0.187145 
1238.299872  	0.182213 
1240.228688  	0.178564 
1242.157504  	0.172965 
1244.086320  	0.164719 
1246.015136  	0.157547 
1247.943952  	0.151379 
1249.872768  	0.144798 
1251.801584  	0.137168 
1253.730400  	0.129612 
1255.659216  	0.122193 
1257.588032  	0.115134 
1259.516848  	0.108211 
1261.445664  	0.101501 
1263.374480  	0.095140 
1265.303296  	0.089477 
1267.232112  	0.084386 
1269.160928  	0.080338 
1271.089744  	0.077267 
1273.018560  	0.075311 
1274.947376  	0.074146 
1276.876192  	0.073681 
1278.805008  	0.073049 
1280.733824  	0.071604 
1282.662640  	0.069168 
1284.591456  	0.066500 
1286.520272  	0.064284 
1288.449088  	0.062862 
1290.377904  	0.061887 
1292.306720  	0.061928 
1294.235536  	0.061947 
1296.164352  	0.061225 
1298.093168  	0.059028 
1300.021984  	0.056123 
1301.950800  	0.053068 
1303.879616  	0.050278 
1305.808432  	0.047213 
1307.737248  	0.044156 
1309.666064  	0.041130 
1311.594880  	0.039158 
1313.523696  	0.037533 
1315.452512  	0.036290 
1317.381328  	0.035643 
1319.310144  	0.035460 
1321.238960  	0.035397 
1323.167776  	0.035946 
1325.096592  	0.036738 
1327.025408  	0.037304 
1328.954224  	0.037243 
1330.883040  	0.036832 
1332.811856  	0.035957 
1334.740672  	0.035627 
1336.669488  	0.036112 
1338.598304  	0.036985 
1340.527120  	0.035565 
1342.455936  	0.033417 
1344.384752  	0.032929 
1346.313568  	0.033449 
1348.242384  	0.034309 
1350.171200  	0.035721 
1352.100016  	0.037640 
1354.028832  	0.040107 
1355.957648  	0.042440 
1357.886464  	0.045021 
1359.815280  	0.048084 
1361.744096  	0.051623 
1363.672912  	0.053758 
1365.601728  	0.055427 
1367.530544  	0.057901 
1369.459360  	0.059887 
1371.388176  	0.061232 
1373.316992  	0.061776 
1375.245808  	0.060326 
1377.174624  	0.059447 
1379.103440  	0.058074 
1381.032256  	0.055836 
1382.961072  	0.053609 
1384.889888  	0.052383 
1386.818704  	0.050588 
1388.747520  	0.047334 
1390.676336  	0.046701 
1392.605152  	0.049791 
1394.533968  	0.050137 
1396.462784  	0.045964 
1398.391600  	0.044734 
1400.320416  	0.045142 
1402.249232  	0.047383 
1404.178048  	0.049743 
1406.106864  	0.050948 
1408.035680  	0.052022 
1409.964496  	0.053216 
1411.893312  	0.053867 
1413.822128  	0.054286 
1415.750944  	0.055926 
1417.679760  	0.056611 
1419.608576  	0.053240 
1421.537392  	0.052038 
1423.466208  	0.051658 
1425.395024  	0.049194 
1427.323840  	0.047307 
1429.252656  	0.044431 
1431.181472  	0.042301 
1433.110288  	0.042312 
1435.039104  	0.042991 
1436.967920  	0.042064 
1438.896736  	0.042429 
1440.825552  	0.043655 
1442.754368  	0.044161 
1444.683184  	0.044380 
1446.612000  	0.044580 
1448.540816  	0.044551 
1450.469632  	0.045425 
1452.398448  	0.046186 
1454.327264  	0.046913 
1456.256080  	0.044475 
1458.184896  	0.039686 
1460.113712  	0.041413 
1462.042528  	0.043082 
1463.971344  	0.042319 
1465.900160  	0.042416 
1467.828976  	0.045214 
1469.757792  	0.048184 
1471.686608  	0.050646 
1473.615424  	0.055941 
1475.544240  	0.062757 
1477.473056  	0.068112 
1479.401872  	0.071786 
1481.330688  	0.074738 
1483.259504  	0.076552 
1485.188320  	0.077966 
1487.117136  	0.077691 
1489.045952  	0.076999 
1490.974768  	0.073823 
1492.903584  	0.071725 
1494.832400  	0.068462 
1496.761216  	0.061153 
1498.690032  	0.055055 
1500.618848  	0.051872 
1502.547664  	0.048502 
1504.476480  	0.043739 
1506.405296  	0.036665 
1508.334112  	0.035715 
1510.262928  	0.036175 
1512.191744  	0.033889 
1514.120560  	0.032773 
1516.049376  	0.031957 
1517.978192  	0.030362 
1519.907008  	0.031398 
1521.835824  	0.030497 
1523.764640  	0.034978 
1525.693456  	0.039916 
1527.622272  	0.042093 
1529.551088  	0.042863 
1531.479904  	0.042686 
1533.408720  	0.038061 
1535.337536  	0.035371 
1537.266352  	0.033791 
1539.195168  	0.024444 
1541.123984  	0.016861 
1543.052800  	0.021629 
1544.981616  	0.023215 
1546.910432  	0.022847 
1548.839248  	0.023687 
1550.768064  	0.023663 
1552.696880  	0.022921 
1554.625696  	0.022696 
1556.554512  	0.022139 
1558.483328  	0.017679 
1560.412144  	0.022144 
1562.340960  	0.030669 
1564.269776  	0.034511 
1566.198592  	0.039397 
1568.127408  	0.043155 
1570.056224  	0.047295 
1571.985040  	0.054706 
1573.913856  	0.059244 
1575.842672  	0.059009 
1577.771488  	0.062333 
1579.700304  	0.065458 
1581.629120  	0.065620 
1583.557936  	0.065043 
1585.486752  	0.065568 
1587.415568  	0.067637 
1589.344384  	0.071841 
1591.273200  	0.077224 
1593.202016  	0.083760 
1595.130832  	0.090793 
1597.059648  	0.098385 
1598.988464  	0.104995 
1600.917280  	0.110801 
1602.846096  	0.114675 
1604.774912  	0.117297 
1606.703728  	0.117684 
1608.632544  	0.116762 
1610.561360  	0.114977 
1612.490176  	0.113715 
1614.418992  	0.111291 
1616.347808  	0.107036 
1618.276624  	0.108339 
1620.205440  	0.113880 
1622.134256  	0.116273 
1624.063072  	0.120738 
1625.991888  	0.127873 
1627.920704  	0.135496 
1629.849520  	0.145151 
1631.778336  	0.154619 
1633.707152  	0.160245 
1635.635968  	0.165565 
1637.564784  	0.176859 
1639.493600  	0.186409 
1641.422416  	0.192372 
1643.351232  	0.196497 
1645.280048  	0.196236 
1647.208864  	0.194874 
1649.137680  	0.197833 
1651.066496  	0.198607 
1652.995312  	0.189564 
1654.924128  	0.190904 
1656.852944  	0.193711 
1658.781760  	0.192535 
1660.710576  	0.188855 
1662.639392  	0.182877 
1664.568208  	0.179572 
1666.497024  	0.177874 
1668.425840  	0.171560 
1670.354656  	0.163760 
1672.283472  	0.161580 
1674.212288  	0.158944 
1676.141104  	0.154098 
1678.069920  	0.154086 
1679.998736  	0.153684 
1681.927552  	0.151671 
1683.856368  	0.144534 
1685.785184  	0.143907 
1687.714000  	0.147718 
1689.642816  	0.147366 
1691.571632  	0.145806 
1693.500448  	0.144907 
1695.429264  	0.139861 
1697.358080  	0.136479 
1699.286896  	0.134457 
1701.215712  	0.129236 
1703.144528  	0.129960 
1705.073344  	0.125869 
1707.002160  	0.120146 
1708.930976  	0.116934 
1710.859792  	0.111678 
1712.788608  	0.105443 
1714.717424  	0.096995 
1716.646240  	0.085378 
1718.575056  	0.071889 
1720.503872  	0.065795 
1722.432688  	0.060011 
1724.361504  	0.051038 
1726.290320  	0.043530 
1728.219136  	0.037547 
1730.147952  	0.032220 
1732.076768  	0.027308 
1734.005584  	0.019354 
1735.934400  	0.014700 
1737.863216  	0.015235 
1739.792032  	0.011291 
1741.720848  	0.010467 
1743.649664  	0.010531 
1745.578480  	0.009803 
1747.507296  	0.007967 
1749.436112  	0.006988 
1751.364928  	0.005975 
1753.293744  	0.005276 
1755.222560  	0.005165 
1757.151376  	0.004660 
1759.080192  	0.004176 
1761.009008  	0.003324 
1762.937824  	0.001717 
1764.866640  	0.002566 
1766.795456  	0.003240 
1768.724272  	0.002552 
1770.653088  	-0.000250 
1772.581904  	-0.003364 
1774.510720  	-0.001511 
1776.439536  	0.000540 
1778.368352  	0.000936 
1780.297168  	0.000640 
1782.225984  	0.000076 
1784.154800  	0.000562 
1786.083616  	-0.000086 
1788.012432  	0.000186 
1789.941248  	0.000591 
1791.870064  	-0.001272 
1793.798880  	-0.002731 
1795.727696  	-0.000800 
1797.656512  	-0.001049 
1799.585328  	-0.001297 
1801.514144  	-0.000834 
1803.442960  	-0.001126 
1805.371776  	-0.001878 
1807.300592  	-0.001453 
1809.229408  	-0.001988 
1811.158224  	-0.002351 
1813.087040  	-0.002517 
1815.015856  	-0.002278 
1816.944672  	-0.002152 
1818.873488  	-0.002080 
1820.802304  	-0.002320 
1822.731120  	-0.001498 
1824.659936  	-0.002162 
1826.588752  	-0.002982 
1828.517568  	-0.003716 
1830.446384  	-0.004304 
1832.375200  	-0.003221 
1834.304016  	-0.002280 
1836.232832  	-0.002496 
1838.161648  	-0.002410 
1840.090464  	-0.002563 
1842.019280  	-0.001833 
1843.948096  	-0.003183 
1845.876912  	-0.003172 
1847.805728  	-0.002195 
1849.734544  	-0.002378 
1851.663360  	-0.002907 
1853.592176  	-0.002907 
1855.520992  	-0.003005 
1857.449808  	-0.002674 
1859.378624  	-0.002784 
1861.307440  	-0.002870 
1863.236256  	-0.003144 
1865.165072  	-0.002844 
1867.093888  	-0.003056 
1869.022704  	-0.003337 
1870.951520  	-0.003530 
1872.880336  	-0.003133 
1874.809152  	-0.003299 
1876.737968  	-0.003042 
1878.666784  	-0.003255 
1880.595600  	-0.002850 
1882.524416  	-0.003105 
1884.453232  	-0.002991 
1886.382048  	-0.003197 
1888.310864  	-0.002893 
1890.239680  	-0.003390 
1892.168496  	-0.002897 
1894.097312  	-0.002795 
1896.026128  	-0.002578 
1897.954944  	-0.002758 
1899.883760  	-0.002508 
1901.812576  	-0.002983 
1903.741392  	-0.003194 
1905.670208  	-0.003029 
1907.599024  	-0.002379 
1909.527840  	-0.002650 
1911.456656  	-0.002371 
1913.385472  	-0.002514 
1915.314288  	-0.002023 
1917.243104  	-0.002241 
1919.171920  	-0.002495 
1921.100736  	-0.002269 
1923.029552  	-0.001964 
1924.958368  	-0.002661 
1926.887184  	-0.002530 
1928.816000  	-0.002706 
1930.744816  	-0.002550 
1932.673632  	-0.002664 
1934.602448  	-0.002221 
1936.531264  	-0.002599 
1938.460080  	-0.002179 
1940.388896  	-0.002293 
1942.317712  	-0.002633 
1944.246528  	-0.003320 
1946.175344  	-0.002494 
1948.104160  	-0.002808 
1950.032976  	-0.002819 
1951.961792  	-0.003006 
1953.890608  	-0.002326 
1955.819424  	-0.003358 
1957.748240  	-0.003386 
1959.677056  	-0.003305 
1961.605872  	-0.002688 
1963.534688  	-0.003165 
1965.463504  	-0.002347 
1967.392320  	-0.003169 
1969.321136  	-0.002715 
1971.249952  	-0.002688 
1973.178768  	-0.001826 
1975.107584  	-0.002895 
1977.036400  	-0.002685 
1978.965216  	-0.001871 
1980.894032  	-0.001646 
1982.822848  	-0.002574 
1984.751664  	-0.002055 
1986.680480  	-0.002990 
1988.609296  	-0.003132 
1990.538112  	-0.003809 
1992.466928  	-0.003095 
1994.395744  	-0.003897 
1996.324560  	-0.004008 
1998.253376  	-0.004475 
2000.182192  	-0.004589 
2002.111008  	-0.004317 
2004.039824  	-0.002948 
2005.968640  	-0.003234 
2007.897456  	-0.002540 
2009.826272  	-0.003702 
2011.755088  	-0.003689 
2013.683904  	-0.003946 
2015.612720  	-0.002781 
2017.541536  	-0.002365 
2019.470352  	-0.001949 
2021.399168  	-0.004024 
2023.327984  	-0.004146 
2025.256800  	-0.002659 
2027.185616  	-0.001528 
2029.114432  	-0.001609 
2031.043248  	-0.001346 
2032.972064  	-0.002386 
2034.900880  	-0.002535 
2036.829696  	-0.002878 
2038.758512  	-0.001681 
2040.687328  	-0.001825 
2042.616144  	-0.001336 
2044.544960  	-0.001938 
2046.473776  	-0.001814 
2048.402592  	-0.002019 
2050.331408  	-0.002060 
2052.260224  	-0.003065 
2054.189040  	-0.002993 
2056.117856  	-0.003368 
2058.046672  	-0.003479 
2059.975488  	-0.003615 
2061.904304  	-0.003572 
2063.833120  	-0.003707 
2065.761936  	-0.003070 
2067.690752  	-0.003448 
2069.619568  	-0.003187 
2071.548384  	-0.002873 
2073.477200  	-0.002751 
2075.406016  	-0.003013 
2077.334832  	-0.002595 
2079.263648  	-0.002531 
2081.192464  	-0.002092 
2083.121280  	-0.001877 
2085.050096  	-0.002075 
2086.978912  	-0.002274 
2088.907728  	-0.002265 
2090.836544  	-0.002839 
2092.765360  	-0.002474 
2094.694176  	-0.002157 
2096.622992  	-0.002037 
2098.551808  	-0.001963 
2100.480624  	-0.001393 
2102.409440  	-0.001450 
2104.338256  	-0.001697 
2106.267072  	-0.001697 
2108.195888  	-0.001366 
2110.124704  	-0.001742 
2112.053520  	-0.001829 
2113.982336  	-0.001808 
2115.911152  	-0.001805 
2117.839968  	-0.002067 
2119.768784  	-0.002110 
2121.697600  	-0.002159 
2123.626416  	-0.002197 
2125.555232  	-0.002960 
2127.484048  	-0.002883 
2129.412864  	-0.002788 
2131.341680  	-0.002822 
2133.270496  	-0.002910 
2135.199312  	-0.002035 
2137.128128  	-0.001756 
2139.056944  	-0.001443 
2140.985760  	-0.001355 
2142.914576  	-0.001141 
2144.843392  	-0.002028 
2146.772208  	-0.002022 
2148.701024  	-0.001674 
2150.629840  	-0.000845 
2152.558656  	-0.001012 
2154.487472  	-0.001375 
2156.416288  	-0.002656 
2158.345104  	-0.003013 
2160.273920  	-0.002005 
2162.202736  	0.000585 
2164.131552  	-0.000140 
2166.060368  	-0.000469 
2167.989184  	0.000087 
2169.918000  	0.000636 
2171.846816  	-0.000511 
2173.775632  	-0.000448 
2175.704448  	-0.000729 
2177.633264  	-0.000843 
2179.562080  	-0.000909 
2181.490896  	-0.000641 
2183.419712  	-0.001797 
2185.348528  	-0.001320 
2187.277344  	-0.000704 
2189.206160  	-0.000818 
2191.134976  	-0.001565 
2193.063792  	-0.001402 
2194.992608  	-0.001649 
2196.921424  	-0.001277 
2198.850240  	-0.001368 
2200.779056  	-0.001351 
2202.707872  	-0.002031 
2204.636688  	-0.002239 
2206.565504  	-0.001860 
2208.494320  	-0.002021 
2210.423136  	-0.002736 
2212.351952  	-0.002664 
2214.280768  	-0.002728 
2216.209584  	-0.002432 
2218.138400  	-0.003018 
2220.067216  	-0.003057 
2221.996032  	-0.003092 
2223.924848  	-0.002762 
2225.853664  	-0.002263 
2227.782480  	-0.002001 
2229.711296  	-0.002803 
2231.640112  	-0.003151 
2233.568928  	-0.003309 
2235.497744  	-0.003010 
2237.426560  	-0.003376 
2239.355376  	-0.003295 
2241.284192  	-0.003398 
2243.213008  	-0.003216 
2245.141824  	-0.003048 
2247.070640  	-0.002798 
2248.999456  	-0.003223 
2250.928272  	-0.003631 
2252.857088  	-0.003913 
2254.785904  	-0.003909 
2256.714720  	-0.004205 
2258.643536  	-0.003999 
2260.572352  	-0.003984 
2262.501168  	-0.003999 
2264.429984  	-0.004265 
2266.358800  	-0.004256 
2268.287616  	-0.004287 
2270.216432  	-0.004059 
2272.145248  	-0.003965 
2274.074064  	-0.003985 
2276.002880  	-0.003911 
2277.931696  	-0.003404 
2279.860512  	-0.003222 
2281.789328  	-0.002996 
2283.718144  	-0.002914 
2285.646960  	-0.002973 
2287.575776  	-0.003223 
2289.504592  	-0.003494 
2291.433408  	-0.003752 
2293.362224  	-0.003665 
2295.291040  	-0.003410 
2297.219856  	-0.003189 
2299.148672  	-0.003433 
2301.077488  	-0.003366 
2303.006304  	-0.003477 
2304.935120  	-0.003579 
2306.863936  	-0.003733 
2308.792752  	-0.004053 
2310.721568  	-0.004781 
2312.650384  	-0.005941 
2314.579200  	-0.007303 
2316.508016  	-0.008714 
2318.436832  	-0.010249 
2320.365648  	-0.012443 
2322.294464  	-0.014867 
2324.223280  	-0.016992 
2326.152096  	-0.019706 
2328.080912  	-0.022191 
2330.009728  	-0.024629 
2331.938544  	-0.026828 
2333.867360  	-0.028902 
2335.796176  	-0.030673 
2337.724992  	-0.031786 
2339.653808  	-0.031990 
2341.582624  	-0.032356 
2343.511440  	-0.030954 
2345.440256  	-0.026977 
2347.369072  	-0.019805 
2349.297888  	-0.015964 
2351.226704  	-0.020223 
2353.155520  	-0.028255 
2355.084336  	-0.034542 
2357.013152  	-0.039536 
2358.941968  	-0.042292 
2360.870784  	-0.043616 
2362.799600  	-0.042516 
2364.728416  	-0.039852 
2366.657232  	-0.035672 
2368.586048  	-0.030625 
2370.514864  	-0.025343 
2372.443680  	-0.020276 
2374.372496  	-0.015189 
2376.301312  	-0.010866 
2378.230128  	-0.007507 
2380.158944  	-0.005231 
2382.087760  	-0.003869 
2384.016576  	-0.003429 
2385.945392  	-0.003544 
2387.874208  	-0.003828 
2389.803024  	-0.004008 
2391.731840  	-0.004221 
2393.660656  	-0.004333 
2395.589472  	-0.004326 
2397.518288  	-0.004145 
2399.447104  	-0.004305 
2401.375920  	-0.004398 
2403.304736  	-0.004563 
2405.233552  	-0.004503 
2407.162368  	-0.004463 
2409.091184  	-0.004427 
2411.020000  	-0.004444 
2412.948816  	-0.004282 
2414.877632  	-0.004222 
2416.806448  	-0.004109 
2418.735264  	-0.004347 
2420.664080  	-0.004450 
2422.592896  	-0.004358 
2424.521712  	-0.004402 
2426.450528  	-0.004644 
2428.379344  	-0.004432 
2430.308160  	-0.004227 
2432.236976  	-0.004006 
2434.165792  	-0.004027 
2436.094608  	-0.004112 
2438.023424  	-0.003951 
2439.952240  	-0.003672 
2441.881056  	-0.003667 
2443.809872  	-0.003811 
2445.738688  	-0.003823 
2447.667504  	-0.003805 
2449.596320  	-0.003783 
2451.525136  	-0.003608 
2453.453952  	-0.003486 
2455.382768  	-0.003688 
2457.311584  	-0.003936 
2459.240400  	-0.003959 
2461.169216  	-0.003965 
2463.098032  	-0.004001 
2465.026848  	-0.004045 
2466.955664  	-0.004080 
2468.884480  	-0.004255 
2470.813296  	-0.004159 
2472.742112  	-0.004226 
2474.670928  	-0.004262 
2476.599744  	-0.004133 
2478.528560  	-0.003966 
2480.457376  	-0.003976 
2482.386192  	-0.003799 
2484.315008  	-0.003563 
2486.243824  	-0.003724 
2488.172640  	-0.003819 
2490.101456  	-0.003665 
2492.030272  	-0.003572 
2493.959088  	-0.003290 
2495.887904  	-0.003306 
2497.816720  	-0.003685 
2499.745536  	-0.003585 
2501.674352  	-0.003245 
2503.603168  	-0.002967 
2505.531984  	-0.002849 
2507.460800  	-0.003146 
2509.389616  	-0.003248 
2511.318432  	-0.003321 
2513.247248  	-0.003269 
2515.176064  	-0.003230 
2517.104880  	-0.003242 
2519.033696  	-0.003315 
2520.962512  	-0.003124 
2522.891328  	-0.002992 
2524.820144  	-0.003067 
2526.748960  	-0.003094 
2528.677776  	-0.002865 
2530.606592  	-0.002923 
2532.535408  	-0.003024 
2534.464224  	-0.002987 
2536.393040  	-0.002899 
2538.321856  	-0.002827 
2540.250672  	-0.002604 
2542.179488  	-0.002581 
2544.108304  	-0.002701 
2546.037120  	-0.002626 
2547.965936  	-0.002465 
2549.894752  	-0.002426 
2551.823568  	-0.002452 
2553.752384  	-0.002270 
2555.681200  	-0.001919 
2557.610016  	-0.001839 
2559.538832  	-0.001630 
2561.467648  	-0.001505 
2563.396464  	-0.001440 
2565.325280  	-0.001478 
2567.254096  	-0.001562 
2569.182912  	-0.001615 
2571.111728  	-0.001579 
2573.040544  	-0.001538 
2574.969360  	-0.001363 
2576.898176  	-0.001154 
2578.826992  	-0.001195 
2580.755808  	-0.001252 
2582.684624  	-0.001064 
2584.613440  	-0.000982 
2586.542256  	-0.000909 
2588.471072  	-0.000800 
2590.399888  	-0.000727 
2592.328704  	-0.000670 
2594.257520  	-0.000694 
2596.186336  	-0.000591 
2598.115152  	-0.000479 
2600.043968  	-0.000395 
2601.972784  	-0.000088 
2603.901600  	-0.000032 
2605.830416  	0.000052 
2607.759232  	0.000161 
2609.688048  	0.000329 
2611.616864  	0.000384 
2613.545680  	0.000518 
2615.474496  	0.000678 
2617.403312  	0.000834 
2619.332128  	0.001029 
2621.260944  	0.001217 
2623.189760  	0.001335 
2625.118576  	0.001382 
2627.047392  	0.001417 
2628.976208  	0.001549 
2630.905024  	0.001610 
2632.833840  	0.001741 
2634.762656  	0.001897 
2636.691472  	0.001937 
2638.620288  	0.002051 
2640.549104  	0.002133 
2642.477920  	0.002170 
2644.406736  	0.002430 
2646.335552  	0.002608 
2648.264368  	0.002667 
2650.193184  	0.002737 
2652.122000  	0.002939 
2654.050816  	0.003204 
2655.979632  	0.003289 
2657.908448  	0.003361 
2659.837264  	0.003534 
2661.766080  	0.003668 
2663.694896  	0.003799 
2665.623712  	0.003864 
2667.552528  	0.004053 
2669.481344  	0.004254 
2671.410160  	0.004341 
2673.338976  	0.004445 
2675.267792  	0.004691 
2677.196608  	0.004882 
2679.125424  	0.004915 
2681.054240  	0.005012 
2682.983056  	0.005110 
2684.911872  	0.005124 
2686.840688  	0.005339 
2688.769504  	0.005474 
2690.698320  	0.005467 
2692.627136  	0.005532 
2694.555952  	0.005663 
2696.484768  	0.005756 
2698.413584  	0.005866 
2700.342400  	0.005966 
2702.271216  	0.006153 
2704.200032  	0.006390 
2706.128848  	0.006597 
2708.057664  	0.006667 
2709.986480  	0.006706 
2711.915296  	0.006767 
2713.844112  	0.006972 
2715.772928  	0.007200 
2717.701744  	0.007376 
2719.630560  	0.007683 
2721.559376  	0.007924 
2723.488192  	0.008016 
2725.417008  	0.008227 
2727.345824  	0.008477 
2729.274640  	0.008717 
2731.203456  	0.008932 
2733.132272  	0.009148 
2735.061088  	0.009399 
2736.989904  	0.009718 
2738.918720  	0.009863 
2740.847536  	0.009969 
2742.776352  	0.010122 
2744.705168  	0.010322 
2746.633984  	0.010388 
2748.562800  	0.010453 
2750.491616  	0.010663 
2752.420432  	0.010849 
2754.349248  	0.010807 
2756.278064  	0.010834 
2758.206880  	0.010810 
2760.135696  	0.010729 
2762.064512  	0.010691 
2763.993328  	0.010806 
2765.922144  	0.010871 
2767.850960  	0.010961 
2769.779776  	0.010988 
2771.708592  	0.011106 
2773.637408  	0.011154 
2775.566224  	0.011131 
2777.495040  	0.011188 
2779.423856  	0.011382 
2781.352672  	0.011554 
2783.281488  	0.011621 
2785.210304  	0.011642 
2787.139120  	0.011727 
2789.067936  	0.011867 
2790.996752  	0.012050 
2792.925568  	0.012139 
2794.854384  	0.012279 
2796.783200  	0.012290 
2798.712016  	0.012264 
2800.640832  	0.012445 
2802.569648  	0.012680 
2804.498464  	0.012717 
2806.427280  	0.012592 
2808.356096  	0.012602 
2810.284912  	0.012842 
2812.213728  	0.013047 
2814.142544  	0.013115 
2816.071360  	0.013256 
2818.000176  	0.013341 
2819.928992  	0.013535 
2821.857808  	0.013741 
2823.786624  	0.013808 
2825.715440  	0.013930 
2827.644256  	0.014055 
2829.573072  	0.014222 
2831.501888  	0.014338 
2833.430704  	0.014489 
2835.359520  	0.014674 
2837.288336  	0.014967 
2839.217152  	0.015267 
2841.145968  	0.015438 
2843.074784  	0.015702 
2845.003600  	0.015993 
2846.932416  	0.016477 
2848.861232  	0.017090 
2850.790048  	0.017681 
2852.718864  	0.018384 
2854.647680  	0.019379 
2856.576496  	0.020305 
2858.505312  	0.021167 
2860.434128  	0.022291 
2862.362944  	0.023497 
2864.291760  	0.024675 
2866.220576  	0.025927 
2868.149392  	0.027032 
2870.078208  	0.027937 
2872.007024  	0.028746 
2873.935840  	0.029590 
2875.864656  	0.030618 
2877.793472  	0.031966 
2879.722288  	0.033668 
2881.651104  	0.035413 
2883.579920  	0.036943 
2885.508736  	0.037851 
2887.437552  	0.038097 
2889.366368  	0.038405 
2891.295184  	0.039106 
2893.224000  	0.039732 
2895.152816  	0.040019 
2897.081632  	0.040480 
2899.010448  	0.042599 
2900.939264  	0.044571 
2902.868080  	0.043344 
2904.796896  	0.041986 
2906.725712  	0.041724 
2908.654528  	0.041928 
2910.583344  	0.042410 
2912.512160  	0.042016 
2914.440976  	0.041215 
2916.369792  	0.041038 
2918.298608  	0.041338 
2920.227424  	0.041808 
2922.156240  	0.042281 
2924.085056  	0.042538 
2926.013872  	0.042875 
2927.942688  	0.043296 
2929.871504  	0.043586 
2931.800320  	0.043872 
2933.729136  	0.044504 
2935.657952  	0.045324 
2937.586768  	0.046020 
2939.515584  	0.046812 
2941.444400  	0.047678 
2943.373216  	0.048338 
2945.302032  	0.048744 
2947.230848  	0.049222 
2949.159664  	0.049899 
2951.088480  	0.051029 
2953.017296  	0.052090 
2954.946112  	0.052766 
2956.874928  	0.053561 
2958.803744  	0.054224 
2960.732560  	0.054809 
2962.661376  	0.055381 
2964.590192  	0.056336 
2966.519008  	0.057789 
2968.447824  	0.059091 
2970.376640  	0.059785 
2972.305456  	0.059894 
2974.234272  	0.059368 
2976.163088  	0.059022 
2978.091904  	0.058612 
2980.020720  	0.058418 
2981.949536  	0.058342 
2983.878352  	0.058738 
2985.807168  	0.059689 
2987.735984  	0.060604 
2989.664800  	0.059962 
2991.593616  	0.056089 
2993.522432  	0.053948 
2995.451248  	0.053471 
2997.380064  	0.052674 
2999.308880  	0.051563 
3001.237696  	0.050155 
3003.166512  	0.048904 
3005.095328  	0.047718 
3007.024144  	0.046338 
3008.952960  	0.044879 
3010.881776  	0.043583 
3012.810592  	0.042438 
3014.739408  	0.041363 
3016.668224  	0.040262 
3018.597040  	0.039412 
3020.525856  	0.038713 
3022.454672  	0.038028 
3024.383488  	0.037390 
3026.312304  	0.036701 
3028.241120  	0.036263 
3030.169936  	0.035976 
3032.098752  	0.035625 
3034.027568  	0.035311 
3035.956384  	0.035236 
3037.885200  	0.035366 
3039.814016  	0.035334 
3041.742832  	0.035336 
3043.671648  	0.035457 
3045.600464  	0.035691 
3047.529280  	0.035905 
3049.458096  	0.036218 
3051.386912  	0.036624 
3053.315728  	0.036960 
3055.244544  	0.037434 
3057.173360  	0.037961 
3059.102176  	0.038376 
3061.030992  	0.039046 
3062.959808  	0.039766 
3064.888624  	0.040281 
3066.817440  	0.041066 
3068.746256  	0.042028 
3070.675072  	0.042690 
3072.603888  	0.043344 
3074.532704  	0.044157 
3076.461520  	0.045027 
3078.390336  	0.045915 
3080.319152  	0.046722 
3082.247968  	0.047596 
3084.176784  	0.048347 
3086.105600  	0.048987 
3088.034416  	0.049718 
3089.963232  	0.050564 
3091.892048  	0.051237 
3093.820864  	0.051951 
3095.749680  	0.052882 
3097.678496  	0.053825 
3099.607312  	0.054731 
3101.536128  	0.055759 
3103.464944  	0.056672 
3105.393760  	0.057373 
3107.322576  	0.058133 
3109.251392  	0.058857 
3111.180208  	0.059416 
3113.109024  	0.060096 
3115.037840  	0.060845 
3116.966656  	0.061685 
3118.895472  	0.062373 
3120.824288  	0.063072 
3122.753104  	0.063756 
3124.681920  	0.064333 
3126.610736  	0.064826 
3128.539552  	0.065545 
3130.468368  	0.066367 
3132.397184  	0.066834 
3134.326000  	0.067414 
3136.254816  	0.068216 
3138.183632  	0.068900 
3140.112448  	0.069579 
3142.041264  	0.070257 
3143.970080  	0.070806 
3145.898896  	0.071361 
3147.827712  	0.072061 
3149.756528  	0.072692 
3151.685344  	0.073297 
3153.614160  	0.074025 
3155.542976  	0.074776 
3157.471792  	0.075445 
3159.400608  	0.076158 
3161.329424  	0.076928 
3163.258240  	0.077546 
3165.187056  	0.077971 
3167.115872  	0.078637 
3169.044688  	0.079177 
3170.973504  	0.079447 
3172.902320  	0.079852 
3174.831136  	0.080437 
3176.759952  	0.080970 
3178.688768  	0.081309 
3180.617584  	0.081730 
3182.546400  	0.082095 
3184.475216  	0.082447 
3186.404032  	0.082579 
3188.332848  	0.082714 
3190.261664  	0.082976 
3192.190480  	0.083214 
3194.119296  	0.083368 
3196.048112  	0.083530 
3197.976928  	0.083466 
3199.905744  	0.083405 
3201.834560  	0.083561 
3203.763376  	0.083722 
3205.692192  	0.083655 
3207.621008  	0.083294 
3209.549824  	0.083099 
3211.478640  	0.083215 
3213.407456  	0.083304 
3215.336272  	0.083172 
3217.265088  	0.083106 
3219.193904  	0.083070 
3221.122720  	0.082832 
3223.051536  	0.082670 
3224.980352  	0.082524 
3226.909168  	0.082258 
3228.837984  	0.081815 
3230.766800  	0.081676 
3232.695616  	0.081741 
3234.624432  	0.081628 
3236.553248  	0.081553 
3238.482064  	0.081633 
3240.410880  	0.081657 
3242.339696  	0.081707 
3244.268512  	0.081446 
3246.197328  	0.081508 
3248.126144  	0.081924 
3250.054960  	0.082011 
3251.983776  	0.082100 
3253.912592  	0.082367 
3255.841408  	0.082622 
3257.770224  	0.082741 
3259.699040  	0.082880 
3261.627856  	0.083251 
3263.556672  	0.083558 
3265.485488  	0.083712 
3267.414304  	0.083904 
3269.343120  	0.084312 
3271.271936  	0.084523 
3273.200752  	0.084441 
3275.129568  	0.084408 
3277.058384  	0.084692 
3278.987200  	0.084969 
3280.916016  	0.085171 
3282.844832  	0.085532 
3284.773648  	0.085676 
3286.702464  	0.085929 
3288.631280  	0.086272 
3290.560096  	0.086466 
3292.488912  	0.086698 
3294.417728  	0.087032 
3296.346544  	0.087451 
3298.275360  	0.087824 
3300.204176  	0.088167 
3302.132992  	0.088549 
3304.061808  	0.088821 
3305.990624  	0.089326 
3307.919440  	0.089742 
3309.848256  	0.089982 
3311.777072  	0.090188 
3313.705888  	0.090496 
3315.634704  	0.090987 
3317.563520  	0.091405 
3319.492336  	0.091736 
3321.421152  	0.091873 
3323.349968  	0.092054 
3325.278784  	0.092357 
3327.207600  	0.092603 
3329.136416  	0.092503 
3331.065232  	0.092635 
3332.994048  	0.093015 
3334.922864  	0.093166 
3336.851680  	0.093130 
3338.780496  	0.093056 
3340.709312  	0.092957 
3342.638128  	0.092705 
3344.566944  	0.092050 
3346.495760  	0.091846 
3348.424576  	0.091755 
3350.353392  	0.091461 
3352.282208  	0.091176 
3354.211024  	0.090988 
3356.139840  	0.090714 
3358.068656  	0.090266 
3359.997472  	0.089926 
3361.926288  	0.089569 
3363.855104  	0.089094 
3365.783920  	0.088644 
3367.712736  	0.088295 
3369.641552  	0.088010 
3371.570368  	0.087673 
3373.499184  	0.087429 
3375.428000  	0.087055 
3377.356816  	0.086608 
3379.285632  	0.086256 
3381.214448  	0.085974 
3383.143264  	0.085641 
3385.072080  	0.085292 
3387.000896  	0.084859 
3388.929712  	0.084486 
3390.858528  	0.084085 
3392.787344  	0.083636 
3394.716160  	0.083280 
3396.644976  	0.083136 
3398.573792  	0.082730 
3400.502608  	0.082202 
3402.431424  	0.081567 
3404.360240  	0.080870 
3406.289056  	0.080239 
3408.217872  	0.079866 
3410.146688  	0.079474 
3412.075504  	0.079022 
3414.004320  	0.078659 
3415.933136  	0.078297 
3417.861952  	0.077590 
3419.790768  	0.076942 
3421.719584  	0.076408 
3423.648400  	0.075967 
3425.577216  	0.075193 
3427.506032  	0.074524 
3429.434848  	0.074100 
3431.363664  	0.073563 
3433.292480  	0.073063 
3435.221296  	0.072543 
3437.150112  	0.072152 
3439.078928  	0.071660 
3441.007744  	0.070963 
3442.936560  	0.070603 
3444.865376  	0.070198 
3446.794192  	0.069325 
3448.723008  	0.068268 
3450.651824  	0.067549 
3452.580640  	0.066952 
3454.509456  	0.066519 
3456.438272  	0.066153 
3458.367088  	0.065549 
3460.295904  	0.064887 
3462.224720  	0.064026 
3464.153536  	0.063040 
3466.082352  	0.062149 
3468.011168  	0.061185 
3469.939984  	0.060369 
3471.868800  	0.059798 
3473.797616  	0.059045 
3475.726432  	0.058262 
3477.655248  	0.057556 
3479.584064  	0.057096 
3481.512880  	0.056209 
3483.441696  	0.055039 
3485.370512  	0.054182 
3487.299328  	0.053290 
3489.228144  	0.052615 
3491.156960  	0.051920 
3493.085776  	0.051220 
3495.014592  	0.050337 
3496.943408  	0.049522 
3498.872224  	0.049134 
3500.801040  	0.049193 
3502.729856  	0.048423 
3504.658672  	0.046907 
3506.587488  	0.046202 
3508.516304  	0.045983 
3510.445120  	0.045094 
3512.373936  	0.044049 
3514.302752  	0.043455 
3516.231568  	0.043015 
3518.160384  	0.042412 
3520.089200  	0.041760 
3522.018016  	0.041590 
3523.946832  	0.041709 
3525.875648  	0.040816 
3527.804464  	0.039301 
3529.733280  	0.038106 
3531.662096  	0.037269 
3533.590912  	0.036690 
3535.519728  	0.036788 
3537.448544  	0.036363 
3539.377360  	0.035254 
3541.306176  	0.034698 
3543.234992  	0.034858 
3545.163808  	0.035323 
3547.092624  	0.034236 
3549.021440  	0.032233 
3550.950256  	0.031313 
3552.879072  	0.030833 
3554.807888  	0.030075 
3556.736704  	0.029280 
3558.665520  	0.029404 
3560.594336  	0.029381 
3562.523152  	0.028240 
3564.451968  	0.028068 
3566.380784  	0.028849 
3568.309600  	0.027243 
3570.238416  	0.025397 
3572.167232  	0.024593 
3574.096048  	0.023697 
3576.024864  	0.022743 
3577.953680  	0.022302 
3579.882496  	0.021709 
3581.811312  	0.020902 
3583.740128  	0.020378 
3585.668944  	0.020404 
3587.597760  	0.019471 
3589.526576  	0.017849 
3591.455392  	0.016899 
3593.384208  	0.016429 
3595.313024  	0.015675 
3597.241840  	0.014377 
3599.170656  	0.012870 
3601.099472  	0.011804 
3603.028288  	0.011687 
3604.957104  	0.011787 
3606.885920  	0.011299 
3608.814736  	0.010343 
3610.743552  	0.009967 
3612.672368  	0.008953 
3614.601184  	0.007839 
3616.530000  	0.007428 
3618.458816  	0.005555 
3620.387632  	0.004194 
3622.316448  	0.004632 
3624.245264  	0.004739 
3626.174080  	0.004461 
3628.102896  	0.002050 
3630.031712  	-0.000625 
3631.960528  	0.001366 
3633.889344  	0.001753 
3635.818160  	0.001476 
3637.746976  	0.001235 
3639.675792  	0.001444 
3641.604608  	0.001875 
3643.533424  	0.002147 
3645.462240  	0.001788 
3647.391056  	-0.000868 
3649.319872  	-0.004510 
3651.248688  	-0.004438 
3653.177504  	-0.000744 
3655.106320  	-0.000214 
3657.035136  	-0.001062 
3658.963952  	0.000118 
3660.892768  	0.000411 
3662.821584  	0.000095 
3664.750400  	-0.000219 
3666.679216  	-0.000328 
3668.608032  	-0.002780 
3670.536848  	-0.006577 
3672.465664  	-0.004661 
3674.394480  	-0.005123 
3676.323296  	-0.008391 
3678.252112  	-0.006533 
3680.180928  	-0.005932 
3682.109744  	-0.004864 
3684.038560  	-0.004402 
3685.967376  	-0.005081 
3687.896192  	-0.008831 
3689.825008  	-0.012484 
3691.753824  	-0.011044 
3693.682640  	-0.008738 
3695.611456  	-0.008747 
3697.540272  	-0.009381 
3699.469088  	-0.009861 
3701.397904  	-0.011962 
3703.326720  	-0.013017 
3705.255536  	-0.012258 
3707.184352  	-0.012992 
3709.113168  	-0.015745 
3711.041984  	-0.018251 
3712.970800  	-0.016708 
3714.899616  	-0.013471 
3716.828432  	-0.012955 
3718.757248  	-0.013685 
3720.686064  	-0.014672 
3722.614880  	-0.015400 
3724.543696  	-0.014551 
3726.472512  	-0.014687 
3728.401328  	-0.015201 
3730.330144  	-0.016366 
3732.258960  	-0.018573 
3734.187776  	-0.017473 
3736.116592  	-0.017512 
3738.045408  	-0.017072 
3739.974224  	-0.015221 
3741.903040  	-0.014186 
3743.831856  	-0.016601 
3745.760672  	-0.018379 
3747.689488  	-0.016795 
3749.618304  	-0.019903 
3751.547120  	-0.021276 
3753.475936  	-0.017917 
3755.404752  	-0.015265 
3757.333568  	-0.014949 
3759.262384  	-0.015640 
3761.191200  	-0.015332 
3763.120016  	-0.013621 
3765.048832  	-0.014134 
3766.977648  	-0.014394 
3768.906464  	-0.015491 
3770.835280  	-0.016197 
3772.764096  	-0.014227 
3774.692912  	-0.013262 
3776.621728  	-0.013322 
3778.550544  	-0.014914 
3780.479360  	-0.015874 
3782.408176  	-0.014180 
3784.336992  	-0.014191 
3786.265808  	-0.014045 
3788.194624  	-0.013689 
3790.123440  	-0.013587 
3792.052256  	-0.013642 
3793.981072  	-0.013839 
3795.909888  	-0.015427 
3797.838704  	-0.015518 
3799.767520  	-0.016114 
3801.696336  	-0.020124 
3803.625152  	-0.017781 
3805.553968  	-0.016503 
3807.482784  	-0.017764 
3809.411600  	-0.015012 
3811.340416  	-0.013434 
3813.269232  	-0.013521 
3815.198048  	-0.016748 
3817.126864  	-0.018242 
3819.055680  	-0.016967 
3820.984496  	-0.020298 
3822.913312  	-0.018035 
3824.842128  	-0.014989 
3826.770944  	-0.015420 
3828.699760  	-0.014737 
3830.628576  	-0.014912 
3832.557392  	-0.015723 
3834.486208  	-0.016009 
3836.415024  	-0.017664 
3838.343840  	-0.018938 
3840.272656  	-0.017444 
3842.201472  	-0.015687 
3844.130288  	-0.015114 
3846.059104  	-0.013931 
3847.987920  	-0.013168 
3849.916736  	-0.013725 
3851.845552  	-0.016981 
3853.774368  	-0.022201 
3855.703184  	-0.018321 
3857.632000  	-0.014773 
3859.560816  	-0.013465 
3861.489632  	-0.013861 
3863.418448  	-0.015037 
3865.347264  	-0.015292 
3867.276080  	-0.013892 
3869.204896  	-0.015151 
3871.133712  	-0.015393 
3873.062528  	-0.014311 
3874.991344  	-0.014742 
3876.920160  	-0.013221 
3878.848976  	-0.012842 
3880.777792  	-0.013548 
3882.706608  	-0.012812 
3884.635424  	-0.013077 
3886.564240  	-0.014442 
3888.493056  	-0.013592 
3890.421872  	-0.014253 
3892.350688  	-0.014896 
3894.279504  	-0.013414 
3896.208320  	-0.012783 
3898.137136  	-0.012838 
3900.065952  	-0.012986 
3901.994768  	-0.012805 
3903.923584  	-0.013618 
3905.852400  	-0.013852 
3907.781216  	-0.013436 
3909.710032  	-0.013229 
3911.638848  	-0.013226 
3913.567664  	-0.012997 
3915.496480  	-0.012336 
3917.425296  	-0.012495 
3919.354112  	-0.013159 
3921.282928  	-0.012941 
3923.211744  	-0.012270 
3925.140560  	-0.012382 
3927.069376  	-0.012672 
3928.998192  	-0.012687 
3930.927008  	-0.012051 
3932.855824  	-0.011803 
3934.784640  	-0.012553 
3936.713456  	-0.012898 
3938.642272  	-0.012779 
3940.571088  	-0.012443 
3942.499904  	-0.012187 
3944.428720  	-0.012386 
3946.357536  	-0.012132 
3948.286352  	-0.011906 
3950.215168  	-0.012631 
3952.143984  	-0.013372 
3954.072800  	-0.013373 
3956.001616  	-0.012999 
3957.930432  	-0.013013 
3959.859248  	-0.012965 
3961.788064  	-0.012797 
3963.716880  	-0.013034 
3965.645696  	-0.013342 
3967.574512  	-0.013309 
3969.503328  	-0.013072 
3971.432144  	-0.013152 
3973.360960  	-0.013180 
3975.289776  	-0.012941 
3977.218592  	-0.012888 
3979.147408  	-0.013087 
3981.076224  	-0.013136 
3983.005040  	-0.013113 
3984.933856  	-0.013107 
3986.862672  	-0.013226 
3988.791488  	-0.012954 
3990.720304  	-0.012618 
3992.649120  	-0.012831 
3994.577936  	-0.013108 
3996.506752  	-0.013155 
3998.435568  	-0.013149 
4000.364384  	-0.013213 