##TITLE=No Description
##DATA TYPE=INFRARED SPECTRUM
##XUNITS=1/CM
##YUNITS=Abs
399.264912  	0.633082 
401.193728  	0.615744 
403.122544  	0.607344 
405.051360  	0.596431 
406.980176  	0.597907 
408.908992  	0.592917 
410.837808  	0.599855 
412.766624  	0.591948 
414.695440  	0.589593 
416.624256  	0.592704 
418.553072  	0.598377 
420.481888  	0.567792 
422.410704  	0.570928 
424.339520  	0.570237 
426.268336  	0.567414 
428.197152  	0.558758 
430.125968  	0.561233 
432.054784  	0.558595 
433.983600  	0.562434 
435.912416  	0.562239 
437.841232  	0.558938 
439.770048  	0.547845 
441.698864  	0.543028 
443.627680  	0.540115 
445.556496  	0.545325 
447.485312  	0.542752 
449.414128  	0.538580 
451.342944  	0.532870 
453.271760  	0.535055 
455.200576  	0.533285 
457.129392  	0.539540 
459.058208  	0.537919 
460.987024  	0.532369 
462.915840  	0.523979 
464.844656  	0.523101 
466.773472  	0.525359 
468.702288  	0.530895 
470.631104  	0.528222 
472.559920  	0.523546 
474.488736  	0.519949 
476.417552  	0.523612 
478.346368  	0.517889 
480.275184  	0.512345 
482.204000  	0.511758 
484.132816  	0.514057 
486.061632  	0.510318 
487.990448  	0.511395 
489.919264  	0.511557 
491.848080  	0.511910 
493.776896  	0.508336 
495.705712  	0.505311 
497.634528  	0.502413 
499.563344  	0.505593 
501.492160  	0.505288 
503.420976  	0.503967 
505.349792  	0.501420 
507.278608  	0.503328 
509.207424  	0.504935 
511.136240  	0.505000 
513.065056  	0.505067 
514.993872  	0.507121 
516.922688  	0.506554 
518.851504  	0.507331 
520.780320  	0.506141 
522.709136  	0.504543 
524.637952  	0.501460 
526.566768  	0.501258 
528.495584  	0.501093 
530.424400  	0.500889 
532.353216  	0.494082 
534.282032  	0.488426 
536.210848  	0.483562 
538.139664  	0.481461 
540.068480  	0.477432 
541.997296  	0.474411 
543.926112  	0.469213 
545.854928  	0.465384 
547.783744  	0.462539 
549.712560  	0.460960 
551.641376  	0.457997 
553.570192  	0.453494 
555.499008  	0.450049 
557.427824  	0.448397 
559.356640  	0.444729 
561.285456  	0.440546 
563.214272  	0.436269 
565.143088  	0.433772 
567.071904  	0.430514 
569.000720  	0.428102 
570.929536  	0.425501 
572.858352  	0.423596 
574.787168  	0.421279 
576.715984  	0.418702 
578.644800  	0.415267 
580.573616  	0.411603 
582.502432  	0.406344 
584.431248  	0.404005 
586.360064  	0.400917 
588.288880  	0.398004 
590.217696  	0.395224 
592.146512  	0.393533 
594.075328  	0.390279 
596.004144  	0.388722 
597.932960  	0.387120 
599.861776  	0.385293 
601.790592  	0.382998 
603.719408  	0.381855 
605.648224  	0.380406 
607.577040  	0.378660 
609.505856  	0.377433 
611.434672  	0.375873 
613.363488  	0.372971 
615.292304  	0.372019 
617.221120  	0.370093 
619.149936  	0.368502 
621.078752  	0.366902 
623.007568  	0.365412 
624.936384  	0.363769 
626.865200  	0.362697 
628.794016  	0.360870 
630.722832  	0.359940 
632.651648  	0.359427 
634.580464  	0.359029 
636.509280  	0.358149 
638.438096  	0.358107 
640.366912  	0.356584 
642.295728  	0.354030 
644.224544  	0.350865 
646.153360  	0.347391 
648.082176  	0.343534 
650.010992  	0.340253 
651.939808  	0.336835 
653.868624  	0.332748 
655.797440  	0.328891 
657.726256  	0.325461 
659.655072  	0.321608 
661.583888  	0.317842 
663.512704  	0.314330 
665.441520  	0.311846 
667.370336  	0.302713 
669.299152  	0.296570 
671.227968  	0.298445 
673.156784  	0.296189 
675.085600  	0.293121 
677.014416  	0.290153 
678.943232  	0.288095 
680.872048  	0.286758 
682.800864  	0.284936 
684.729680  	0.282853 
686.658496  	0.281572 
688.587312  	0.280890 
690.516128  	0.279827 
692.444944  	0.278929 
694.373760  	0.278016 
696.302576  	0.276244 
698.231392  	0.273908 
700.160208  	0.271348 
702.089024  	0.269239 
704.017840  	0.267170 
705.946656  	0.264966 
707.875472  	0.262744 
709.804288  	0.260629 
711.733104  	0.258826 
713.661920  	0.256706 
715.590736  	0.255153 
717.519552  	0.254318 
719.448368  	0.253824 
721.377184  	0.253597 
723.306000  	0.253693 
725.234816  	0.253289 
727.163632  	0.252826 
729.092448  	0.250976 
731.021264  	0.247386 
732.950080  	0.244161 
734.878896  	0.241778 
736.807712  	0.239290 
738.736528  	0.236924 
740.665344  	0.234896 
742.594160  	0.233219 
744.522976  	0.231772 
746.451792  	0.230243 
748.380608  	0.228559 
750.309424  	0.226868 
752.238240  	0.225633 
754.167056  	0.224702 
756.095872  	0.223377 
758.024688  	0.222087 
759.953504  	0.221318 
761.882320  	0.221851 
763.811136  	0.222106 
765.739952  	0.220869 
767.668768  	0.218751 
769.597584  	0.216532 
771.526400  	0.215167 
773.455216  	0.215764 
775.384032  	0.217872 
777.312848  	0.221382 
779.241664  	0.224686 
781.170480  	0.224979 
783.099296  	0.221916 
785.028112  	0.217175 
786.956928  	0.211836 
788.885744  	0.206952 
790.814560  	0.203549 
792.743376  	0.200802 
794.672192  	0.199085 
796.601008  	0.198110 
798.529824  	0.195656 
800.458640  	0.191719 
802.387456  	0.188151 
804.316272  	0.185880 
806.245088  	0.184311 
808.173904  	0.183351 
810.102720  	0.182699 
812.031536  	0.182375 
813.960352  	0.182341 
815.889168  	0.182405 
817.817984  	0.182199 
819.746800  	0.181673 
821.675616  	0.181357 
823.604432  	0.180786 
825.533248  	0.180230 
827.462064  	0.179328 
829.390880  	0.177961 
831.319696  	0.176648 
833.248512  	0.174829 
835.177328  	0.172540 
837.106144  	0.170037 
839.034960  	0.167061 
840.963776  	0.163774 
842.892592  	0.160640 
844.821408  	0.157472 
846.750224  	0.154504 
848.679040  	0.152315 
850.607856  	0.150802 
852.536672  	0.149482 
854.465488  	0.148217 
856.394304  	0.147648 
858.323120  	0.147476 
860.251936  	0.146526 
862.180752  	0.145047 
864.109568  	0.143377 
866.038384  	0.141775 
867.967200  	0.140427 
869.896016  	0.139107 
871.824832  	0.137973 
873.753648  	0.136883 
875.682464  	0.136776 
877.611280  	0.138732 
879.540096  	0.141127 
881.468912  	0.141478 
883.397728  	0.142102 
885.326544  	0.142407 
887.255360  	0.142215 
889.184176  	0.141991 
891.112992  	0.141924 
893.041808  	0.140223 
894.970624  	0.137021 
896.899440  	0.133664 
898.828256  	0.129801 
900.757072  	0.125924 
902.685888  	0.122500 
904.614704  	0.120081 
906.543520  	0.119175 
908.472336  	0.119170 
910.401152  	0.120293 
912.329968  	0.121838 
914.258784  	0.123742 
916.187600  	0.125543 
918.116416  	0.127168 
920.045232  	0.128160 
921.974048  	0.128676 
923.902864  	0.128716 
925.831680  	0.128223 
927.760496  	0.127936 
929.689312  	0.128009 
931.618128  	0.128414 
933.546944  	0.128540 
935.475760  	0.128523 
937.404576  	0.128325 
939.333392  	0.127812 
941.262208  	0.127757 
943.191024  	0.128910 
945.119840  	0.131887 
947.048656  	0.136583 
948.977472  	0.142899 
950.906288  	0.150599 
952.835104  	0.159169 
954.763920  	0.168216 
956.692736  	0.176959 
958.621552  	0.184546 
960.550368  	0.190047 
962.479184  	0.192795 
964.408000  	0.192422 
966.336816  	0.188638 
968.265632  	0.181780 
970.194448  	0.172522 
972.123264  	0.161734 
974.052080  	0.150229 
975.980896  	0.138797 
977.909712  	0.128264 
979.838528  	0.118859 
981.767344  	0.110979 
983.696160  	0.105057 
985.624976  	0.101520 
987.553792  	0.100297 
989.482608  	0.101283 
991.411424  	0.104497 
993.340240  	0.109095 
995.269056  	0.114918 
997.197872  	0.121343 
999.126688  	0.128113 
1001.055504  	0.134953 
1002.984320  	0.142267 
1004.913136  	0.149605 
1006.841952  	0.156769 
1008.770768  	0.163263 
1010.699584  	0.168758 
1012.628400  	0.172964 
1014.557216  	0.175829 
1016.486032  	0.177634 
1018.414848  	0.178686 
1020.343664  	0.179352 
1022.272480  	0.179743 
1024.201296  	0.180912 
1026.130112  	0.185166 
1028.058928  	0.187917 
1029.987744  	0.186085 
1031.916560  	0.188338 
1033.845376  	0.194071 
1035.774192  	0.202427 
1037.703008  	0.210990 
1039.631824  	0.218445 
1041.560640  	0.228626 
1043.489456  	0.241864 
1045.418272  	0.257117 
1047.347088  	0.273348 
1049.275904  	0.288170 
1051.204720  	0.300574 
1053.133536  	0.308268 
1055.062352  	0.312721 
1056.991168  	0.315584 
1058.919984  	0.313716 
1060.848800  	0.309238 
1062.777616  	0.309379 
1064.706432  	0.312975 
1066.635248  	0.312551 
1068.564064  	0.302010 
1070.492880  	0.293406 
1072.421696  	0.288571 
1074.350512  	0.285188 
1076.279328  	0.282716 
1078.208144  	0.282310 
1080.136960  	0.282437 
1082.065776  	0.282748 
1083.994592  	0.281397 
1085.923408  	0.277726 
1087.852224  	0.271542 
1089.781040  	0.263670 
1091.709856  	0.253033 
1093.638672  	0.242671 
1095.567488  	0.232061 
1097.496304  	0.220905 
1099.425120  	0.209072 
1101.353936  	0.196897 
1103.282752  	0.184198 
1105.211568  	0.171443 
1107.140384  	0.158550 
1109.069200  	0.146316 
1110.998016  	0.134905 
1112.926832  	0.124221 
1114.855648  	0.114636 
1116.784464  	0.105812 
1118.713280  	0.097668 
1120.642096  	0.090233 
1122.570912  	0.083383 
1124.499728  	0.076890 
1126.428544  	0.071141 
1128.357360  	0.066018 
1130.286176  	0.061887 
1132.214992  	0.058408 
1134.143808  	0.055589 
1136.072624  	0.053267 
1138.001440  	0.051145 
1139.930256  	0.048642 
1141.859072  	0.046218 
1143.787888  	0.043830 
1145.716704  	0.041619 
1147.645520  	0.039462 
1149.574336  	0.037679 
1151.503152  	0.036231 
1153.431968  	0.035713 
1155.360784  	0.035779 
1157.289600  	0.036442 
1159.218416  	0.037443 
1161.147232  	0.039009 
1163.076048  	0.040721 
1165.004864  	0.042743 
1166.933680  	0.044513 
1168.862496  	0.046349 
1170.791312  	0.048320 
1172.720128  	0.050928 
1174.648944  	0.053298 
1176.577760  	0.055517 
1178.506576  	0.057583 
1180.435392  	0.060016 
1182.364208  	0.062445 
1184.293024  	0.065313 
1186.221840  	0.068411 
1188.150656  	0.071832 
1190.079472  	0.075892 
1192.008288  	0.080942 
1193.937104  	0.086941 
1195.865920  	0.093809 
1197.794736  	0.101301 
1199.723552  	0.109418 
1201.652368  	0.117616 
1203.581184  	0.126207 
1205.510000  	0.135002 
1207.438816  	0.143354 
1209.367632  	0.151247 
1211.296448  	0.158397 
1213.225264  	0.164867 
1215.154080  	0.170643 
1217.082896  	0.175483 
1219.011712  	0.179210 
1220.940528  	0.182388 
1222.869344  	0.184774 
1224.798160  	0.186461 
1226.726976  	0.187325 
1228.655792  	0.187542 
1230.584608  	0.186335 
1232.513424  	0.184162 
1234.442240  	0.180797 
1236.371056  	0.176691 
1238.299872  	0.172167 
1240.228688  	0.169186 
1242.157504  	0.164136 
1244.086320  	0.156303 
1246.015136  	0.149771 
1247.943952  	0.144370 
1249.872768  	0.138486 
1251.801584  	0.131209 
1253.730400  	0.123954 
1255.659216  	0.116883 
1257.588032  	0.110206 
1259.516848  	0.103473 
1261.445664  	0.096843 
1263.374480  	0.090474 
1265.303296  	0.085024 
1267.232112  	0.080203 
1269.160928  	0.076271 
1271.089744  	0.073021 
1273.018560  	0.070920 
1274.947376  	0.069710 
1276.876192  	0.069122 
1278.805008  	0.068332 
1280.733824  	0.066831 
1282.662640  	0.064467 
1284.591456  	0.062005 
1286.520272  	0.059874 
1288.449088  	0.058477 
1290.377904  	0.057611 
1292.306720  	0.057539 
1294.235536  	0.057491 
1296.164352  	0.056853 
1298.093168  	0.054760 
1300.021984  	0.052179 
1301.950800  	0.049414 
1303.879616  	0.046803 
1305.808432  	0.043871 
1307.737248  	0.041070 
1309.666064  	0.038289 
1311.594880  	0.036489 
1313.523696  	0.035014 
1315.452512  	0.033997 
1317.381328  	0.033338 
1319.310144  	0.032998 
1321.238960  	0.032929 
1323.167776  	0.033521 
1325.096592  	0.034208 
1327.025408  	0.034687 
1328.954224  	0.034628 
1330.883040  	0.034228 
1332.811856  	0.033397 
1334.740672  	0.033256 
1336.669488  	0.033884 
1338.598304  	0.034591 
1340.527120  	0.032951 
1342.455936  	0.030991 
1344.384752  	0.030693 
1346.313568  	0.031144 
1348.242384  	0.031877 
1350.171200  	0.033296 
1352.100016  	0.035244 
1354.028832  	0.037663 
1355.957648  	0.039878 
1357.886464  	0.042571 
1359.815280  	0.045688 
1361.744096  	0.049014 
1363.672912  	0.050802 
1365.601728  	0.052551 
1367.530544  	0.055005 
1369.459360  	0.056899 
1371.388176  	0.058533 
1373.316992  	0.059213 
1375.245808  	0.057488 
1377.174624  	0.056882 
1379.103440  	0.055811 
1381.032256  	0.053832 
1382.961072  	0.051817 
1384.889888  	0.050732 
1386.818704  	0.048752 
1388.747520  	0.045369 
1390.676336  	0.045189 
1392.605152  	0.048863 
1394.533968  	0.048941 
1396.462784  	0.044099 
1398.391600  	0.042815 
1400.320416  	0.043175 
1402.249232  	0.045850 
1404.178048  	0.048321 
1406.106864  	0.049384 
1408.035680  	0.050561 
1409.964496  	0.051548 
1411.893312  	0.051820 
1413.822128  	0.052061 
1415.750944  	0.053477 
1417.679760  	0.053715 
1419.608576  	0.049399 
1421.537392  	0.048367 
1423.466208  	0.048187 
1425.395024  	0.045667 
1427.323840  	0.044114 
1429.252656  	0.041079 
1431.181472  	0.039008 
1433.110288  	0.039381 
1435.039104  	0.040280 
1436.967920  	0.038436 
1438.896736  	0.038681 
1440.825552  	0.040221 
1442.754368  	0.040721 
1444.683184  	0.040976 
1446.612000  	0.041139 
1448.540816  	0.040841 
1450.469632  	0.042090 
1452.398448  	0.043031 
1454.327264  	0.043937 
1456.256080  	0.040985 
1458.184896  	0.034784 
1460.113712  	0.037359 
1462.042528  	0.039973 
1463.971344  	0.039058 
1465.900160  	0.038429 
1467.828976  	0.041562 
1469.757792  	0.044996 
1471.686608  	0.046905 
1473.615424  	0.050684 
1475.544240  	0.057395 
1477.473056  	0.062585 
1479.401872  	0.066486 
1481.330688  	0.069334 
1483.259504  	0.071105 
1485.188320  	0.072427 
1487.117136  	0.071770 
1489.045952  	0.070540 
1490.974768  	0.066763 
1492.903584  	0.065455 
1494.832400  	0.062884 
1496.761216  	0.055240 
1498.690032  	0.049351 
1500.618848  	0.046833 
1502.547664  	0.044263 
1504.476480  	0.040189 
1506.405296  	0.031916 
1508.334112  	0.030053 
1510.262928  	0.031929 
1512.191744  	0.030147 
1514.120560  	0.029342 
1516.049376  	0.028240 
1517.978192  	0.025949 
1519.907008  	0.027308 
1521.835824  	0.025376 
1523.764640  	0.030022 
1525.693456  	0.034956 
1527.622272  	0.036774 
1529.551088  	0.037908 
1531.479904  	0.038332 
1533.408720  	0.033345 
1535.337536  	0.030751 
1537.266352  	0.030152 
1539.195168  	0.020325 
1541.123984  	0.011460 
1543.052800  	0.016929 
1544.981616  	0.019007 
1546.910432  	0.019142 
1548.839248  	0.020240 
1550.768064  	0.019891 
1552.696880  	0.019550 
1554.625696  	0.019064 
1556.554512  	0.018580 
1558.483328  	0.012706 
1560.412144  	0.015645 
1562.340960  	0.025906 
1564.269776  	0.030065 
1566.198592  	0.034646 
1568.127408  	0.038284 
1570.056224  	0.040917 
1571.985040  	0.048452 
1573.913856  	0.053637 
1575.842672  	0.052469 
1577.771488  	0.054968 
1579.700304  	0.058924 
1581.629120  	0.059442 
1583.557936  	0.059029 
1585.486752  	0.059623 
1587.415568  	0.061591 
1589.344384  	0.065180 
1591.273200  	0.070192 
1593.202016  	0.076337 
1595.130832  	0.082870 
1597.059648  	0.090104 
1598.988464  	0.096468 
1600.917280  	0.101951 
1602.846096  	0.105520 
1604.774912  	0.107925 
1606.703728  	0.108404 
1608.632544  	0.107546 
1610.561360  	0.105946 
1612.490176  	0.104954 
1614.418992  	0.103042 
1616.347808  	0.097952 
1618.276624  	0.098352 
1620.205440  	0.104605 
1622.134256  	0.107027 
1624.063072  	0.110511 
1625.991888  	0.117687 
1627.920704  	0.124834 
1629.849520  	0.134118 
1631.778336  	0.143761 
1633.707152  	0.149591 
1635.635968  	0.152956 
1637.564784  	0.162606 
1639.493600  	0.173027 
1641.422416  	0.179276 
1643.351232  	0.184006 
1645.280048  	0.184041 
1647.208864  	0.180771 
1649.137680  	0.184148 
1651.066496  	0.187322 
1652.995312  	0.176768 
1654.924128  	0.176201 
1656.852944  	0.181071 
1658.781760  	0.180825 
1660.710576  	0.177660 
1662.639392  	0.171389 
1664.568208  	0.168053 
1666.497024  	0.167683 
1668.425840  	0.161682 
1670.354656  	0.153129 
1672.283472  	0.151722 
1674.212288  	0.149728 
1676.141104  	0.144051 
1678.069920  	0.145115 
1679.998736  	0.145395 
1681.927552  	0.144081 
1683.856368  	0.135887 
1685.785184  	0.133894 
1687.714000  	0.139209 
1689.642816  	0.139188 
1691.571632  	0.137838 
1693.500448  	0.137818 
1695.429264  	0.132299 
1697.358080  	0.128266 
1699.286896  	0.126853 
1701.215712  	0.119961 
1703.144528  	0.121993 
1705.073344  	0.118366 
1707.002160  	0.112620 
1708.930976  	0.110072 
1710.859792  	0.105260 
1712.788608  	0.099455 
1714.717424  	0.091143 
1716.646240  	0.079482 
1718.575056  	0.065451 
1720.503872  	0.060326 
1722.432688  	0.055567 
1724.361504  	0.046901 
1726.290320  	0.039894 
1728.219136  	0.034260 
1730.147952  	0.028959 
1732.076768  	0.024471 
1734.005584  	0.015843 
1735.934400  	0.011132 
1737.863216  	0.012759 
1739.792032  	0.008428 
1741.720848  	0.007896 
1743.649664  	0.008356 
1745.578480  	0.007586 
1747.507296  	0.005598 
1749.436112  	0.004651 
1751.364928  	0.003599 
1753.293744  	0.003290 
1755.222560  	0.003642 
1757.151376  	0.002615 
1759.080192  	0.002294 
1761.009008  	0.001633 
1762.937824  	-0.000297 
1764.866640  	0.000826 
1766.795456  	0.001763 
1768.724272  	0.000895 
1770.653088  	-0.001852 
1772.581904  	-0.005623 
1774.510720  	-0.003557 
1776.439536  	-0.001082 
1778.368352  	-0.000553 
1780.297168  	-0.000989 
1782.225984  	-0.001513 
1784.154800  	-0.000736 
1786.083616  	-0.001456 
1788.012432  	-0.001157 
1789.941248  	-0.000703 
1791.870064  	-0.002980 
1793.798880  	-0.004649 
1795.727696  	-0.002223 
1797.656512  	-0.002349 
1799.585328  	-0.002746 
1801.514144  	-0.002422 
1803.442960  	-0.002461 
1805.371776  	-0.003070 
1807.300592  	-0.002605 
1809.229408  	-0.003158 
1811.158224  	-0.003834 
1813.087040  	-0.004034 
1815.015856  	-0.003448 
1816.944672  	-0.003344 
1818.873488  	-0.003316 
1820.802304  	-0.003442 
1822.731120  	-0.002672 
1824.659936  	-0.003655 
1826.588752  	-0.004384 
1828.517568  	-0.004858 
1830.446384  	-0.005924 
1832.375200  	-0.004585 
1834.304016  	-0.003360 
1836.232832  	-0.003642 
1838.161648  	-0.003570 
1840.090464  	-0.003585 
1842.019280  	-0.002789 
1843.948096  	-0.004726 
1845.876912  	-0.005002 
1847.805728  	-0.003761 
1849.734544  	-0.003779 
1851.663360  	-0.004072 
1853.592176  	-0.003947 
1855.520992  	-0.004077 
1857.449808  	-0.004014 
1859.378624  	-0.004190 
1861.307440  	-0.004147 
1863.236256  	-0.004301 
1865.165072  	-0.003955 
1867.093888  	-0.004307 
1869.022704  	-0.005117 
1870.951520  	-0.005087 
1872.880336  	-0.004360 
1874.809152  	-0.004709 
1876.737968  	-0.004483 
1878.666784  	-0.004810 
1880.595600  	-0.004218 
1882.524416  	-0.004278 
1884.453232  	-0.004172 
1886.382048  	-0.004132 
1888.310864  	-0.003903 
1890.239680  	-0.004794 
1892.168496  	-0.004229 
1894.097312  	-0.004093 
1896.026128  	-0.004046 
1897.954944  	-0.004308 
1899.883760  	-0.004115 
1901.812576  	-0.004363 
1903.741392  	-0.004448 
1905.670208  	-0.004263 
1907.599024  	-0.003563 
1909.527840  	-0.003800 
1911.456656  	-0.003532 
1913.385472  	-0.003639 
1915.314288  	-0.002992 
1917.243104  	-0.003508 
1919.171920  	-0.004002 
1921.100736  	-0.003254 
1923.029552  	-0.002817 
1924.958368  	-0.003528 
1926.887184  	-0.003405 
1928.816000  	-0.003932 
1930.744816  	-0.003510 
1932.673632  	-0.003286 
1934.602448  	-0.003337 
1936.531264  	-0.003683 
1938.460080  	-0.003091 
1940.388896  	-0.003111 
1942.317712  	-0.003724 
1944.246528  	-0.004410 
1946.175344  	-0.003105 
1948.104160  	-0.003355 
1950.032976  	-0.002888 
1951.961792  	-0.003165 
1953.890608  	-0.003230 
1955.819424  	-0.003305 
1957.748240  	-0.002382 
1959.677056  	-0.003401 
1961.605872  	-0.003289 
1963.534688  	-0.003621 
1965.463504  	-0.003221 
1967.392320  	-0.003802 
1969.321136  	-0.003597 
1971.249952  	-0.004314 
1973.178768  	-0.003284 
1975.107584  	-0.004230 
1977.036400  	-0.003088 
1978.965216  	-0.001341 
1980.894032  	-0.001596 
1982.822848  	-0.003335 
1984.751664  	-0.003425 
1986.680480  	-0.004241 
1988.609296  	-0.003146 
1990.538112  	-0.003410 
1992.466928  	-0.003361 
1994.395744  	-0.004618 
1996.324560  	-0.004770 
1998.253376  	-0.004422 
2000.182192  	-0.004218 
2002.111008  	-0.004394 
2004.039824  	-0.002997 
2005.968640  	-0.003988 
2007.897456  	-0.003766 
2009.826272  	-0.004031 
2011.755088  	-0.003664 
2013.683904  	-0.004528 
2015.612720  	-0.004087 
2017.541536  	-0.004003 
2019.470352  	-0.003033 
2021.399168  	-0.004639 
2023.327984  	-0.005249 
2025.256800  	-0.004912 
2027.185616  	-0.003386 
2029.114432  	-0.003599 
2031.043248  	-0.003179 
2032.972064  	-0.003655 
2034.900880  	-0.003748 
2036.829696  	-0.004813 
2038.758512  	-0.003607 
2040.687328  	-0.003943 
2042.616144  	-0.003261 
2044.544960  	-0.003114 
2046.473776  	-0.003359 
2048.402592  	-0.004080 
2050.331408  	-0.003816 
2052.260224  	-0.004177 
2054.189040  	-0.004335 
2056.117856  	-0.004735 
2058.046672  	-0.004536 
2059.975488  	-0.005178 
2061.904304  	-0.005088 
2063.833120  	-0.004780 
2065.761936  	-0.004131 
2067.690752  	-0.004343 
2069.619568  	-0.004049 
2071.548384  	-0.004235 
2073.477200  	-0.004413 
2075.406016  	-0.004188 
2077.334832  	-0.003691 
2079.263648  	-0.003937 
2081.192464  	-0.003345 
2083.121280  	-0.003438 
2085.050096  	-0.003934 
2086.978912  	-0.004108 
2088.907728  	-0.003436 
2090.836544  	-0.003915 
2092.765360  	-0.003872 
2094.694176  	-0.003615 
2096.622992  	-0.003456 
2098.551808  	-0.003710 
2100.480624  	-0.003228 
2102.409440  	-0.003424 
2104.338256  	-0.003266 
2106.267072  	-0.003120 
2108.195888  	-0.002926 
2110.124704  	-0.003251 
2112.053520  	-0.003175 
2113.982336  	-0.003125 
2115.911152  	-0.002838 
2117.839968  	-0.003096 
2119.768784  	-0.003362 
2121.697600  	-0.003711 
2123.626416  	-0.003635 
2125.555232  	-0.003833 
2127.484048  	-0.003376 
2129.412864  	-0.003530 
2131.341680  	-0.003397 
2133.270496  	-0.003525 
2135.199312  	-0.003107 
2137.128128  	-0.003139 
2139.056944  	-0.002883 
2140.985760  	-0.002717 
2142.914576  	-0.002522 
2144.843392  	-0.002422 
2146.772208  	-0.002759 
2148.701024  	-0.003662 
2150.629840  	-0.002462 
2152.558656  	-0.002960 
2154.487472  	-0.003255 
2156.416288  	-0.002959 
2158.345104  	-0.002437 
2160.273920  	-0.000882 
2162.202736  	0.000931 
2164.131552  	-0.000304 
2166.060368  	-0.000811 
2167.989184  	-0.000571 
2169.918000  	-0.000206 
2171.846816  	-0.001025 
2173.775632  	-0.001170 
2175.704448  	-0.001464 
2177.633264  	-0.001344 
2179.562080  	-0.001891 
2181.490896  	-0.001563 
2183.419712  	-0.002780 
2185.348528  	-0.003132 
2187.277344  	-0.003127 
2189.206160  	-0.002730 
2191.134976  	-0.002676 
2193.063792  	-0.002628 
2194.992608  	-0.003445 
2196.921424  	-0.003747 
2198.850240  	-0.003321 
2200.779056  	-0.002633 
2202.707872  	-0.003348 
2204.636688  	-0.003763 
2206.565504  	-0.003545 
2208.494320  	-0.003077 
2210.423136  	-0.003728 
2212.351952  	-0.004217 
2214.280768  	-0.004354 
2216.209584  	-0.003999 
2218.138400  	-0.004533 
2220.067216  	-0.004497 
2221.996032  	-0.004732 
2223.924848  	-0.004032 
2225.853664  	-0.003679 
2227.782480  	-0.003948 
2229.711296  	-0.004599 
2231.640112  	-0.004871 
2233.568928  	-0.005082 
2235.497744  	-0.004693 
2237.426560  	-0.005000 
2239.355376  	-0.005120 
2241.284192  	-0.004964 
2243.213008  	-0.004490 
2245.141824  	-0.004709 
2247.070640  	-0.004639 
2248.999456  	-0.004822 
2250.928272  	-0.004878 
2252.857088  	-0.005082 
2254.785904  	-0.005308 
2256.714720  	-0.006094 
2258.643536  	-0.006088 
2260.572352  	-0.006000 
2262.501168  	-0.005872 
2264.429984  	-0.005805 
2266.358800  	-0.005724 
2268.287616  	-0.005825 
2270.216432  	-0.005418 
2272.145248  	-0.005278 
2274.074064  	-0.005373 
2276.002880  	-0.005311 
2277.931696  	-0.005199 
2279.860512  	-0.005228 
2281.789328  	-0.004864 
2283.718144  	-0.004766 
2285.646960  	-0.004688 
2287.575776  	-0.004865 
2289.504592  	-0.005167 
2291.433408  	-0.005490 
2293.362224  	-0.005306 
2295.291040  	-0.005290 
2297.219856  	-0.005167 
2299.148672  	-0.005195 
2301.077488  	-0.005110 
2303.006304  	-0.005016 
2304.935120  	-0.005020 
2306.863936  	-0.005501 
2308.792752  	-0.006102 
2310.721568  	-0.006885 
2312.650384  	-0.007979 
2314.579200  	-0.009404 
2316.508016  	-0.010823 
2318.436832  	-0.012675 
2320.365648  	-0.015015 
2322.294464  	-0.017406 
2324.223280  	-0.019870 
2326.152096  	-0.022648 
2328.080912  	-0.025116 
2330.009728  	-0.027817 
2331.938544  	-0.030314 
2333.867360  	-0.032014 
2335.796176  	-0.033694 
2337.724992  	-0.035287 
2339.653808  	-0.035580 
2341.582624  	-0.036008 
2343.511440  	-0.034547 
2345.440256  	-0.030754 
2347.369072  	-0.023357 
2349.297888  	-0.018856 
2351.226704  	-0.022950 
2353.155520  	-0.031492 
2355.084336  	-0.038220 
2357.013152  	-0.043663 
2358.941968  	-0.046678 
2360.870784  	-0.047701 
2362.799600  	-0.046508 
2364.728416  	-0.044535 
2366.657232  	-0.040214 
2368.586048  	-0.034642 
2370.514864  	-0.029272 
2372.443680  	-0.024120 
2374.372496  	-0.018626 
2376.301312  	-0.013739 
2378.230128  	-0.009951 
2380.158944  	-0.007463 
2382.087760  	-0.006010 
2384.016576  	-0.005478 
2385.945392  	-0.005247 
2387.874208  	-0.005332 
2389.803024  	-0.005466 
2391.731840  	-0.005684 
2393.660656  	-0.005836 
2395.589472  	-0.005990 
2397.518288  	-0.005764 
2399.447104  	-0.005761 
2401.375920  	-0.005824 
2403.304736  	-0.005984 
2405.233552  	-0.005968 
2407.162368  	-0.006062 
2409.091184  	-0.005953 
2411.020000  	-0.005863 
2412.948816  	-0.005805 
2414.877632  	-0.005800 
2416.806448  	-0.005711 
2418.735264  	-0.005795 
2420.664080  	-0.005856 
2422.592896  	-0.005779 
2424.521712  	-0.005628 
2426.450528  	-0.005962 
2428.379344  	-0.005887 
2430.308160  	-0.005702 
2432.236976  	-0.005544 
2434.165792  	-0.005562 
2436.094608  	-0.005640 
2438.023424  	-0.005582 
2439.952240  	-0.005438 
2441.881056  	-0.005349 
2443.809872  	-0.005369 
2445.738688  	-0.005246 
2447.667504  	-0.005000 
2449.596320  	-0.005135 
2451.525136  	-0.005157 
2453.453952  	-0.005236 
2455.382768  	-0.005326 
2457.311584  	-0.005388 
2459.240400  	-0.005426 
2461.169216  	-0.005471 
2463.098032  	-0.005497 
2465.026848  	-0.005477 
2466.955664  	-0.005520 
2468.884480  	-0.005576 
2470.813296  	-0.005491 
2472.742112  	-0.005635 
2474.670928  	-0.005710 
2476.599744  	-0.005733 
2478.528560  	-0.005415 
2480.457376  	-0.005310 
2482.386192  	-0.005434 
2484.315008  	-0.005261 
2486.243824  	-0.005055 
2488.172640  	-0.005190 
2490.101456  	-0.005064 
2492.030272  	-0.004740 
2493.959088  	-0.004651 
2495.887904  	-0.004690 
2497.816720  	-0.004687 
2499.745536  	-0.004859 
2501.674352  	-0.004859 
2503.603168  	-0.004472 
2505.531984  	-0.004326 
2507.460800  	-0.004597 
2509.389616  	-0.004615 
2511.318432  	-0.004611 
2513.247248  	-0.004700 
2515.176064  	-0.004581 
2517.104880  	-0.004554 
2519.033696  	-0.004881 
2520.962512  	-0.004788 
2522.891328  	-0.004522 
2524.820144  	-0.004463 
2526.748960  	-0.004550 
2528.677776  	-0.004406 
2530.606592  	-0.004330 
2532.535408  	-0.004343 
2534.464224  	-0.004502 
2536.393040  	-0.004554 
2538.321856  	-0.004516 
2540.250672  	-0.004309 
2542.179488  	-0.004160 
2544.108304  	-0.004076 
2546.037120  	-0.004094 
2547.965936  	-0.004125 
2549.894752  	-0.004042 
2551.823568  	-0.003918 
2553.752384  	-0.003809 
2555.681200  	-0.003586 
2557.610016  	-0.003420 
2559.538832  	-0.003248 
2561.467648  	-0.003189 
2563.396464  	-0.003191 
2565.325280  	-0.003163 
2567.254096  	-0.003058 
2569.182912  	-0.003168 
2571.111728  	-0.003312 
2573.040544  	-0.003369 
2574.969360  	-0.003168 
2576.898176  	-0.002828 
2578.826992  	-0.002757 
2580.755808  	-0.002880 
2582.684624  	-0.002873 
2584.613440  	-0.002716 
2586.542256  	-0.002667 
2588.471072  	-0.002735 
2590.399888  	-0.002592 
2592.328704  	-0.002345 
2594.257520  	-0.002261 
2596.186336  	-0.002273 
2598.115152  	-0.002190 
2600.043968  	-0.002162 
2601.972784  	-0.001987 
2603.901600  	-0.001831 
2605.830416  	-0.001721 
2607.759232  	-0.001632 
2609.688048  	-0.001559 
2611.616864  	-0.001443 
2613.545680  	-0.001325 
2615.474496  	-0.001227 
2617.403312  	-0.001056 
2619.332128  	-0.000923 
2621.260944  	-0.000774 
2623.189760  	-0.000655 
2625.118576  	-0.000633 
2627.047392  	-0.000624 
2628.976208  	-0.000476 
2630.905024  	-0.000327 
2632.833840  	-0.000302 
2634.762656  	-0.000246 
2636.691472  	-0.000098 
2638.620288  	-0.000044 
2640.549104  	0.000052 
2642.477920  	0.000110 
2644.406736  	0.000252 
2646.335552  	0.000531 
2648.264368  	0.000654 
2650.193184  	0.000728 
2652.122000  	0.000904 
2654.050816  	0.001048 
2655.979632  	0.001143 
2657.908448  	0.001138 
2659.837264  	0.001330 
2661.766080  	0.001460 
2663.694896  	0.001608 
2665.623712  	0.001760 
2667.552528  	0.001912 
2669.481344  	0.002135 
2671.410160  	0.002260 
2673.338976  	0.002273 
2675.267792  	0.002444 
2677.196608  	0.002657 
2679.125424  	0.002768 
2681.054240  	0.002913 
2682.983056  	0.003121 
2684.911872  	0.003125 
2686.840688  	0.003172 
2688.769504  	0.003295 
2690.698320  	0.003336 
2692.627136  	0.003410 
2694.555952  	0.003583 
2696.484768  	0.003677 
2698.413584  	0.003731 
2700.342400  	0.003796 
2702.271216  	0.003896 
2704.200032  	0.004073 
2706.128848  	0.004283 
2708.057664  	0.004433 
2709.986480  	0.004581 
2711.915296  	0.004737 
2713.844112  	0.005006 
2715.772928  	0.005239 
2717.701744  	0.005432 
2719.630560  	0.005645 
2721.559376  	0.005783 
2723.488192  	0.005922 
2725.417008  	0.006222 
2727.345824  	0.006456 
2729.274640  	0.006595 
2731.203456  	0.006720 
2733.132272  	0.006946 
2735.061088  	0.007207 
2736.989904  	0.007440 
2738.918720  	0.007661 
2740.847536  	0.007859 
2742.776352  	0.007894 
2744.705168  	0.008035 
2746.633984  	0.008244 
2748.562800  	0.008309 
2750.491616  	0.008321 
2752.420432  	0.008444 
2754.349248  	0.008449 
2756.278064  	0.008492 
2758.206880  	0.008527 
2760.135696  	0.008576 
2762.064512  	0.008586 
2763.993328  	0.008625 
2765.922144  	0.008683 
2767.850960  	0.008820 
2769.779776  	0.008972 
2771.708592  	0.009138 
2773.637408  	0.009026 
2775.566224  	0.008977 
2777.495040  	0.009045 
2779.423856  	0.009200 
2781.352672  	0.009388 
2783.281488  	0.009508 
2785.210304  	0.009604 
2787.139120  	0.009760 
2789.067936  	0.009931 
2790.996752  	0.010033 
2792.925568  	0.010035 
2794.854384  	0.010190 
2796.783200  	0.010287 
2798.712016  	0.010307 
2800.640832  	0.010411 
2802.569648  	0.010626 
2804.498464  	0.010740 
2806.427280  	0.010808 
2808.356096  	0.010891 
2810.284912  	0.010984 
2812.213728  	0.011119 
2814.142544  	0.011213 
2816.071360  	0.011354 
2818.000176  	0.011495 
2819.928992  	0.011734 
2821.857808  	0.011933 
2823.786624  	0.012035 
2825.715440  	0.012182 
2827.644256  	0.012316 
2829.573072  	0.012577 
2831.501888  	0.012722 
2833.430704  	0.012865 
2835.359520  	0.013095 
2837.288336  	0.013464 
2839.217152  	0.013852 
2841.145968  	0.014215 
2843.074784  	0.014586 
2845.003600  	0.014954 
2846.932416  	0.015420 
2848.861232  	0.016184 
2850.790048  	0.017005 
2852.718864  	0.017779 
2854.647680  	0.018742 
2856.576496  	0.019735 
2858.505312  	0.020697 
2860.434128  	0.021892 
2862.362944  	0.023248 
2864.291760  	0.024599 
2866.220576  	0.026052 
2868.149392  	0.027408 
2870.078208  	0.028322 
2872.007024  	0.029087 
2873.935840  	0.030009 
2875.864656  	0.031065 
2877.793472  	0.032488 
2879.722288  	0.034335 
2881.651104  	0.036243 
2883.579920  	0.037929 
2885.508736  	0.038857 
2887.437552  	0.038975 
2889.366368  	0.039279 
2891.295184  	0.040140 
2893.224000  	0.040862 
2895.152816  	0.041092 
2897.081632  	0.041566 
2899.010448  	0.043952 
2900.939264  	0.046247 
2902.868080  	0.044868 
2904.796896  	0.043303 
2906.725712  	0.042986 
2908.654528  	0.042993 
2910.583344  	0.043331 
2912.512160  	0.042964 
2914.440976  	0.042112 
2916.369792  	0.041799 
2918.298608  	0.042143 
2920.227424  	0.042603 
2922.156240  	0.043018 
2924.085056  	0.043233 
2926.013872  	0.043368 
2927.942688  	0.043653 
2929.871504  	0.043896 
2931.800320  	0.044179 
2933.729136  	0.044738 
2935.657952  	0.045355 
2937.586768  	0.045866 
2939.515584  	0.046610 
2941.444400  	0.047515 
2943.373216  	0.048119 
2945.302032  	0.048679 
2947.230848  	0.049083 
2949.159664  	0.049634 
2951.088480  	0.050833 
2953.017296  	0.052007 
2954.946112  	0.052887 
2956.874928  	0.053762 
2958.803744  	0.054409 
2960.732560  	0.055110 
2962.661376  	0.055941 
2964.590192  	0.057103 
2966.519008  	0.058558 
2968.447824  	0.059894 
2970.376640  	0.060626 
2972.305456  	0.060731 
2974.234272  	0.060194 
2976.163088  	0.059870 
2978.091904  	0.059400 
2980.020720  	0.059125 
2981.949536  	0.058965 
2983.878352  	0.059436 
2985.807168  	0.060729 
2987.735984  	0.061798 
2989.664800  	0.060766 
2991.593616  	0.056290 
2993.522432  	0.053908 
2995.451248  	0.053379 
2997.380064  	0.052380 
2999.308880  	0.050933 
3001.237696  	0.049386 
3003.166512  	0.047962 
3005.095328  	0.046483 
3007.024144  	0.044869 
3008.952960  	0.043269 
3010.881776  	0.041850 
3012.810592  	0.040466 
3014.739408  	0.039233 
3016.668224  	0.037987 
3018.597040  	0.036844 
3020.525856  	0.035840 
3022.454672  	0.034987 
3024.383488  	0.034216 
3026.312304  	0.033394 
3028.241120  	0.032775 
3030.169936  	0.032259 
3032.098752  	0.031674 
3034.027568  	0.031385 
3035.956384  	0.031317 
3037.885200  	0.031310 
3039.814016  	0.031206 
3041.742832  	0.031207 
3043.671648  	0.031233 
3045.600464  	0.031362 
3047.529280  	0.031567 
3049.458096  	0.031760 
3051.386912  	0.032062 
3053.315728  	0.032478 
3055.244544  	0.032977 
3057.173360  	0.033397 
3059.102176  	0.033795 
3061.030992  	0.034307 
3062.959808  	0.034889 
3064.888624  	0.035424 
3066.817440  	0.036046 
3068.746256  	0.036853 
3070.675072  	0.037643 
3072.603888  	0.038379 
3074.532704  	0.039088 
3076.461520  	0.039839 
3078.390336  	0.040522 
3080.319152  	0.041166 
3082.247968  	0.042135 
3084.176784  	0.042935 
3086.105600  	0.043663 
3088.034416  	0.044338 
3089.963232  	0.045073 
3091.892048  	0.045693 
3093.820864  	0.046394 
3095.749680  	0.047041 
3097.678496  	0.047942 
3099.607312  	0.048883 
3101.536128  	0.049635 
3103.464944  	0.050499 
3105.393760  	0.051260 
3107.322576  	0.051929 
3109.251392  	0.052671 
3111.180208  	0.053389 
3113.109024  	0.054024 
3115.037840  	0.054587 
3116.966656  	0.055418 
3118.895472  	0.056168 
3120.824288  	0.056703 
3122.753104  	0.057319 
3124.681920  	0.057879 
3126.610736  	0.058276 
3128.539552  	0.059013 
3130.468368  	0.059827 
3132.397184  	0.060308 
3134.326000  	0.060970 
3136.254816  	0.061615 
3138.183632  	0.062257 
3140.112448  	0.062927 
3142.041264  	0.063520 
3143.970080  	0.064045 
3145.898896  	0.064650 
3147.827712  	0.065498 
3149.756528  	0.066126 
3151.685344  	0.066584 
3153.614160  	0.067383 
3155.542976  	0.068083 
3157.471792  	0.068607 
3159.400608  	0.069244 
3161.329424  	0.069885 
3163.258240  	0.070368 
3165.187056  	0.070937 
3167.115872  	0.071599 
3169.044688  	0.072203 
3170.973504  	0.072676 
3172.902320  	0.072986 
3174.831136  	0.073384 
3176.759952  	0.073852 
3178.688768  	0.074240 
3180.617584  	0.074794 
3182.546400  	0.075330 
3184.475216  	0.075524 
3186.404032  	0.075503 
3188.332848  	0.075723 
3190.261664  	0.076209 
3192.190480  	0.076576 
3194.119296  	0.076712 
3196.048112  	0.076913 
3197.976928  	0.076753 
3199.905744  	0.076837 
3201.834560  	0.076945 
3203.763376  	0.076821 
3205.692192  	0.076799 
3207.621008  	0.076643 
3209.549824  	0.076505 
3211.478640  	0.076647 
3213.407456  	0.076671 
3215.336272  	0.076565 
3217.265088  	0.076499 
3219.193904  	0.076264 
3221.122720  	0.076108 
3223.051536  	0.076104 
3224.980352  	0.076070 
3226.909168  	0.075813 
3228.837984  	0.075510 
3230.766800  	0.075471 
3232.695616  	0.075480 
3234.624432  	0.075214 
3236.553248  	0.075137 
3238.482064  	0.075284 
3240.410880  	0.075374 
3242.339696  	0.075366 
3244.268512  	0.075136 
3246.197328  	0.075135 
3248.126144  	0.075550 
3250.054960  	0.075592 
3251.983776  	0.075688 
3253.912592  	0.075908 
3255.841408  	0.076175 
3257.770224  	0.076514 
3259.699040  	0.076780 
3261.627856  	0.077117 
3263.556672  	0.077347 
3265.485488  	0.077408 
3267.414304  	0.077429 
3269.343120  	0.077716 
3271.271936  	0.078054 
3273.200752  	0.077974 
3275.129568  	0.077930 
3277.058384  	0.078350 
3278.987200  	0.078744 
3280.916016  	0.078931 
3282.844832  	0.079136 
3284.773648  	0.079376 
3286.702464  	0.079596 
3288.631280  	0.079875 
3290.560096  	0.080212 
3292.488912  	0.080503 
3294.417728  	0.080745 
3296.346544  	0.081073 
3298.275360  	0.081233 
3300.204176  	0.081437 
3302.132992  	0.081915 
3304.061808  	0.082258 
3305.990624  	0.082638 
3307.919440  	0.083027 
3309.848256  	0.083286 
3311.777072  	0.083621 
3313.705888  	0.084004 
3315.634704  	0.084685 
3317.563520  	0.085175 
3319.492336  	0.085354 
3321.421152  	0.085456 
3323.349968  	0.085775 
3325.278784  	0.086054 
3327.207600  	0.086197 
3329.136416  	0.086229 
3331.065232  	0.086333 
3332.994048  	0.086683 
3334.922864  	0.086779 
3336.851680  	0.086656 
3338.780496  	0.086584 
3340.709312  	0.086559 
3342.638128  	0.086555 
3344.566944  	0.086230 
3346.495760  	0.085850 
3348.424576  	0.085481 
3350.353392  	0.085157 
3352.282208  	0.084992 
3354.211024  	0.084722 
3356.139840  	0.084456 
3358.068656  	0.084207 
3359.997472  	0.084021 
3361.926288  	0.083692 
3363.855104  	0.083292 
3365.783920  	0.082831 
3367.712736  	0.082517 
3369.641552  	0.082259 
3371.570368  	0.081816 
3373.499184  	0.081506 
3375.428000  	0.081343 
3377.356816  	0.081027 
3379.285632  	0.080700 
3381.214448  	0.080342 
3383.143264  	0.079915 
3385.072080  	0.079307 
3387.000896  	0.078830 
3388.929712  	0.078685 
3390.858528  	0.078449 
3392.787344  	0.078039 
3394.716160  	0.077569 
3396.644976  	0.077208 
3398.573792  	0.076836 
3400.502608  	0.076452 
3402.431424  	0.075875 
3404.360240  	0.075411 
3406.289056  	0.074901 
3408.217872  	0.074391 
3410.146688  	0.073969 
3412.075504  	0.073604 
3414.004320  	0.073132 
3415.933136  	0.072829 
3417.861952  	0.072167 
3419.790768  	0.071559 
3421.719584  	0.071105 
3423.648400  	0.070568 
3425.577216  	0.069954 
3427.506032  	0.069342 
3429.434848  	0.068912 
3431.363664  	0.068403 
3433.292480  	0.067713 
3435.221296  	0.067170 
3437.150112  	0.066767 
3439.078928  	0.066370 
3441.007744  	0.065841 
3442.936560  	0.065402 
3444.865376  	0.065066 
3446.794192  	0.064188 
3448.723008  	0.063151 
3450.651824  	0.062478 
3452.580640  	0.061911 
3454.509456  	0.061541 
3456.438272  	0.061120 
3458.367088  	0.060596 
3460.295904  	0.059826 
3462.224720  	0.058876 
3464.153536  	0.058133 
3466.082352  	0.057509 
3468.011168  	0.056550 
3469.939984  	0.055812 
3471.868800  	0.055188 
3473.797616  	0.054479 
3475.726432  	0.053590 
3477.655248  	0.052846 
3479.584064  	0.052457 
3481.512880  	0.051618 
3483.441696  	0.050380 
3485.370512  	0.049826 
3487.299328  	0.048871 
3489.228144  	0.048101 
3491.156960  	0.047546 
3493.085776  	0.046925 
3495.014592  	0.046124 
3496.943408  	0.045368 
3498.872224  	0.044859 
3500.801040  	0.044821 
3502.729856  	0.044029 
3504.658672  	0.042704 
3506.587488  	0.042326 
3508.516304  	0.042061 
3510.445120  	0.041007 
3512.373936  	0.039919 
3514.302752  	0.039194 
3516.231568  	0.038986 
3518.160384  	0.038555 
3520.089200  	0.037863 
3522.018016  	0.037624 
3523.946832  	0.037593 
3525.875648  	0.036853 
3527.804464  	0.035315 
3529.733280  	0.034131 
3531.662096  	0.033564 
3533.590912  	0.033157 
3535.519728  	0.032940 
3537.448544  	0.032330 
3539.377360  	0.031429 
3541.306176  	0.030982 
3543.234992  	0.031066 
3545.163808  	0.031380 
3547.092624  	0.030345 
3549.021440  	0.028701 
3550.950256  	0.028015 
3552.879072  	0.027309 
3554.807888  	0.026638 
3556.736704  	0.026093 
3558.665520  	0.026119 
3560.594336  	0.025769 
3562.523152  	0.024709 
3564.451968  	0.025108 
3566.380784  	0.025487 
3568.309600  	0.022745 
3570.238416  	0.021513 
3572.167232  	0.021357 
3574.096048  	0.020597 
3576.024864  	0.019627 
3577.953680  	0.019292 
3579.882496  	0.018805 
3581.811312  	0.018043 
3583.740128  	0.017713 
3585.668944  	0.017979 
3587.597760  	0.016180 
3589.526576  	0.014198 
3591.455392  	0.014051 
3593.384208  	0.013714 
3595.313024  	0.012486 
3597.241840  	0.011237 
3599.170656  	0.010009 
3601.099472  	0.008767 
3603.028288  	0.008880 
3604.957104  	0.009393 
3606.885920  	0.008848 
3608.814736  	0.007291 
3610.743552  	0.007340 
3612.672368  	0.006534 
3614.601184  	0.005091 
3616.530000  	0.005205 
3618.458816  	0.003009 
3620.387632  	0.000781 
3622.316448  	0.001691 
3624.245264  	0.002557 
3626.174080  	0.003006 
3628.102896  	0.000009 
3630.031712  	-0.004415 
3631.960528  	-0.001241 
3633.889344  	-0.000516 
3635.818160  	-0.000680 
3637.746976  	-0.000686 
3639.675792  	-0.000287 
3641.604608  	0.000583 
3643.533424  	0.001043 
3645.462240  	0.001233 
3647.391056  	-0.001717 
3649.319872  	-0.006720 
3651.248688  	-0.007279 
3653.177504  	-0.002407 
3655.106320  	-0.001362 
3657.035136  	-0.002985 
3658.963952  	-0.001082 
3660.892768  	-0.000116 
3662.821584  	-0.000305 
3664.750400  	-0.000592 
3666.679216  	-0.000489 
3668.608032  	-0.003102 
3670.536848  	-0.007969 
3672.465664  	-0.005206 
3674.394480  	-0.005045 
3676.323296  	-0.010486 
3678.252112  	-0.008542 
3680.180928  	-0.007657 
3682.109744  	-0.005907 
3684.038560  	-0.004900 
3685.967376  	-0.005110 
3687.896192  	-0.009071 
3689.825008  	-0.013757 
3691.753824  	-0.012668 
3693.682640  	-0.009999 
3695.611456  	-0.009681 
3697.540272  	-0.010168 
3699.469088  	-0.010388 
3701.397904  	-0.013269 
3703.326720  	-0.014873 
3705.255536  	-0.013579 
3707.184352  	-0.013714 
3709.113168  	-0.016455 
3711.041984  	-0.020070 
3712.970800  	-0.019237 
3714.899616  	-0.015239 
3716.828432  	-0.014029 
3718.757248  	-0.014950 
3720.686064  	-0.016136 
3722.614880  	-0.017098 
3724.543696  	-0.016284 
3726.472512  	-0.016759 
3728.401328  	-0.016842 
3730.330144  	-0.017355 
3732.258960  	-0.019912 
3734.187776  	-0.019355 
3736.116592  	-0.020434 
3738.045408  	-0.019794 
3739.974224  	-0.017028 
3741.903040  	-0.015232 
3743.831856  	-0.018378 
3745.760672  	-0.021917 
3747.689488  	-0.018988 
3749.618304  	-0.022418 
3751.547120  	-0.025190 
3753.475936  	-0.021496 
3755.404752  	-0.017281 
3757.333568  	-0.016598 
3759.262384  	-0.017940 
3761.191200  	-0.017700 
3763.120016  	-0.015033 
3765.048832  	-0.015842 
3766.977648  	-0.016195 
3768.906464  	-0.016981 
3770.835280  	-0.018175 
3772.764096  	-0.016003 
3774.692912  	-0.014978 
3776.621728  	-0.014846 
3778.550544  	-0.016552 
3780.479360  	-0.017961 
3782.408176  	-0.015788 
3784.336992  	-0.015862 
3786.265808  	-0.015811 
3788.194624  	-0.015028 
3790.123440  	-0.014993 
3792.052256  	-0.015094 
3793.981072  	-0.014924 
3795.909888  	-0.016880 
3797.838704  	-0.017154 
3799.767520  	-0.017198 
3801.696336  	-0.022495 
3803.625152  	-0.019987 
3805.553968  	-0.017528 
3807.482784  	-0.019777 
3809.411600  	-0.017020 
3811.340416  	-0.014869 
3813.269232  	-0.014453 
3815.198048  	-0.017841 
3817.126864  	-0.020230 
3819.055680  	-0.018086 
3820.984496  	-0.022448 
3822.913312  	-0.021100 
3824.842128  	-0.016997 
3826.770944  	-0.017380 
3828.699760  	-0.016254 
3830.628576  	-0.016255 
3832.557392  	-0.017410 
3834.486208  	-0.017242 
3836.415024  	-0.018822 
3838.343840  	-0.021126 
3840.272656  	-0.020142 
3842.201472  	-0.017846 
3844.130288  	-0.017188 
3846.059104  	-0.015761 
3847.987920  	-0.014435 
3849.916736  	-0.014433 
3851.845552  	-0.017719 
3853.774368  	-0.025498 
3855.703184  	-0.021543 
3857.632000  	-0.016820 
3859.560816  	-0.014806 
3861.489632  	-0.015065 
3863.418448  	-0.016476 
3865.347264  	-0.017301 
3867.276080  	-0.015297 
3869.204896  	-0.016612 
3871.133712  	-0.017862 
3873.062528  	-0.016225 
3874.991344  	-0.016945 
3876.920160  	-0.014694 
3878.848976  	-0.013872 
3880.777792  	-0.015569 
3882.706608  	-0.014724 
3884.635424  	-0.014623 
3886.564240  	-0.016724 
3888.493056  	-0.015100 
3890.421872  	-0.015576 
3892.350688  	-0.017109 
3894.279504  	-0.015372 
3896.208320  	-0.013912 
3898.137136  	-0.013850 
3900.065952  	-0.014602 
3901.994768  	-0.014714 
3903.923584  	-0.016161 
3905.852400  	-0.016653 
3907.781216  	-0.015687 
3909.710032  	-0.015053 
3911.638848  	-0.014826 
3913.567664  	-0.014448 
3915.496480  	-0.013967 
3917.425296  	-0.014397 
3919.354112  	-0.014739 
3921.282928  	-0.014499 
3923.211744  	-0.013848 
3925.140560  	-0.014233 
3927.069376  	-0.014371 
3928.998192  	-0.014137 
3930.927008  	-0.013742 
3932.855824  	-0.013894 
3934.784640  	-0.014539 
3936.713456  	-0.014570 
3938.642272  	-0.014155 
3940.571088  	-0.013643 
3942.499904  	-0.013739 
3944.428720  	-0.014109 
3946.357536  	-0.013675 
3948.286352  	-0.013450 
3950.215168  	-0.014241 
3952.143984  	-0.014982 
3954.072800  	-0.014941 
3956.001616  	-0.014522 
3957.930432  	-0.014500 
3959.859248  	-0.014422 
3961.788064  	-0.014323 
3963.716880  	-0.014777 
3965.645696  	-0.015146 
3967.574512  	-0.014889 
3969.503328  	-0.014531 
3971.432144  	-0.014635 
3973.360960  	-0.014658 
3975.289776  	-0.014520 
3977.218592  	-0.014603 
3979.147408  	-0.014734 
3981.076224  	-0.014615 
3983.005040  	-0.014569 
3984.933856  	-0.014490 
3986.862672  	-0.014396 
3988.791488  	-0.014276 
3990.720304  	-0.014275 
3992.649120  	-0.014513 
3994.577936  	-0.014646 
3996.506752  	-0.014692 
3998.435568  	-0.014725 
4000.364384  	-0.014660 