##TITLE=No Description
##DATA TYPE=INFRARED SPECTRUM
##XUNITS=1/CM
##YUNITS=Abs
399.264912  	0.657770 
401.193728  	0.628222 
403.122544  	0.613981 
405.051360  	0.612427 
406.980176  	0.621078 
408.908992  	0.621225 
410.837808  	0.623586 
412.766624  	0.609025 
414.695440  	0.602485 
416.624256  	0.596393 
418.553072  	0.613942 
420.481888  	0.614940 
422.410704  	0.610974 
424.339520  	0.593884 
426.268336  	0.582549 
428.197152  	0.570200 
430.125968  	0.575247 
432.054784  	0.569726 
433.983600  	0.570750 
435.912416  	0.570247 
437.841232  	0.562854 
439.770048  	0.548921 
441.698864  	0.555059 
443.627680  	0.557872 
445.556496  	0.563608 
447.485312  	0.556702 
449.414128  	0.548203 
451.342944  	0.545748 
453.271760  	0.553198 
455.200576  	0.552048 
457.129392  	0.553988 
459.058208  	0.551056 
460.987024  	0.550889 
462.915840  	0.548775 
464.844656  	0.551496 
466.773472  	0.549935 
468.702288  	0.547913 
470.631104  	0.542778 
472.559920  	0.543631 
474.488736  	0.542126 
476.417552  	0.542555 
478.346368  	0.537656 
480.275184  	0.537092 
482.204000  	0.527684 
484.132816  	0.526089 
486.061632  	0.528055 
487.990448  	0.530411 
489.919264  	0.527735 
491.848080  	0.530543 
493.776896  	0.527260 
495.705712  	0.523731 
497.634528  	0.521892 
499.563344  	0.523384 
501.492160  	0.522391 
503.420976  	0.523251 
505.349792  	0.519243 
507.278608  	0.518579 
509.207424  	0.518763 
511.136240  	0.520115 
513.065056  	0.519486 
514.993872  	0.524534 
516.922688  	0.527760 
518.851504  	0.528226 
520.780320  	0.525511 
522.709136  	0.524582 
524.637952  	0.522840 
526.566768  	0.520896 
528.495584  	0.517458 
530.424400  	0.515205 
532.353216  	0.510534 
534.282032  	0.508157 
536.210848  	0.501789 
538.139664  	0.495898 
540.068480  	0.491376 
541.997296  	0.489244 
543.926112  	0.484554 
545.854928  	0.480663 
547.783744  	0.476539 
549.712560  	0.474758 
551.641376  	0.471039 
553.570192  	0.467306 
555.499008  	0.464382 
557.427824  	0.461700 
559.356640  	0.457173 
561.285456  	0.455337 
563.214272  	0.451283 
565.143088  	0.446384 
567.071904  	0.442739 
569.000720  	0.441214 
570.929536  	0.438428 
572.858352  	0.435539 
574.787168  	0.432706 
576.715984  	0.430060 
578.644800  	0.426693 
580.573616  	0.424315 
582.502432  	0.419473 
584.431248  	0.415826 
586.360064  	0.411417 
588.288880  	0.408958 
590.217696  	0.407030 
592.146512  	0.405509 
594.075328  	0.402902 
596.004144  	0.400715 
597.932960  	0.398683 
599.861776  	0.397027 
601.790592  	0.394155 
603.719408  	0.392835 
605.648224  	0.391869 
607.577040  	0.390867 
609.505856  	0.388289 
611.434672  	0.386161 
613.363488  	0.383874 
615.292304  	0.382463 
617.221120  	0.380558 
619.149936  	0.379328 
621.078752  	0.377730 
623.007568  	0.376666 
624.936384  	0.375132 
626.865200  	0.373676 
628.794016  	0.371987 
630.722832  	0.371280 
632.651648  	0.370534 
634.580464  	0.370214 
636.509280  	0.369856 
638.438096  	0.369472 
640.366912  	0.368529 
642.295728  	0.366815 
644.224544  	0.363617 
646.153360  	0.360290 
648.082176  	0.355663 
650.010992  	0.351231 
651.939808  	0.346918 
653.868624  	0.342771 
655.797440  	0.338785 
657.726256  	0.335501 
659.655072  	0.331910 
661.583888  	0.328454 
663.512704  	0.325390 
665.441520  	0.322433 
667.370336  	0.312770 
669.299152  	0.305358 
671.227968  	0.307493 
673.156784  	0.305742 
675.085600  	0.302608 
677.014416  	0.299489 
678.943232  	0.296922 
680.872048  	0.295585 
682.800864  	0.294405 
684.729680  	0.292679 
686.658496  	0.290881 
688.587312  	0.290075 
690.516128  	0.288842 
692.444944  	0.287409 
694.373760  	0.286401 
696.302576  	0.284973 
698.231392  	0.282613 
700.160208  	0.279618 
702.089024  	0.277301 
704.017840  	0.275368 
705.946656  	0.273023 
707.875472  	0.270851 
709.804288  	0.268747 
711.733104  	0.266508 
713.661920  	0.264368 
715.590736  	0.263171 
717.519552  	0.262276 
719.448368  	0.261651 
721.377184  	0.261254 
723.306000  	0.261701 
725.234816  	0.261721 
727.163632  	0.260814 
729.092448  	0.258967 
731.021264  	0.255980 
732.950080  	0.252637 
734.878896  	0.249948 
736.807712  	0.247092 
738.736528  	0.244645 
740.665344  	0.242581 
742.594160  	0.240748 
744.522976  	0.239027 
746.451792  	0.237138 
748.380608  	0.235626 
750.309424  	0.234291 
752.238240  	0.232816 
754.167056  	0.231653 
756.095872  	0.230536 
758.024688  	0.229475 
759.953504  	0.228626 
761.882320  	0.228899 
763.811136  	0.229222 
765.739952  	0.228563 
767.668768  	0.226223 
769.597584  	0.223405 
771.526400  	0.222069 
773.455216  	0.222860 
775.384032  	0.225439 
777.312848  	0.229440 
779.241664  	0.232745 
781.170480  	0.233089 
783.099296  	0.229912 
785.028112  	0.224596 
786.956928  	0.218954 
788.885744  	0.214014 
790.814560  	0.210129 
792.743376  	0.207058 
794.672192  	0.205174 
796.601008  	0.204394 
798.529824  	0.202144 
800.458640  	0.198193 
802.387456  	0.194594 
804.316272  	0.192340 
806.245088  	0.190786 
808.173904  	0.189804 
810.102720  	0.188992 
812.031536  	0.188515 
813.960352  	0.188513 
815.889168  	0.188421 
817.817984  	0.188098 
819.746800  	0.187905 
821.675616  	0.187710 
823.604432  	0.187173 
825.533248  	0.186385 
827.462064  	0.185517 
829.390880  	0.184649 
831.319696  	0.183297 
833.248512  	0.181348 
835.177328  	0.178838 
837.106144  	0.176201 
839.034960  	0.173226 
840.963776  	0.169796 
842.892592  	0.166364 
844.821408  	0.163484 
846.750224  	0.160588 
848.679040  	0.157997 
850.607856  	0.156056 
852.536672  	0.154534 
854.465488  	0.153260 
856.394304  	0.152532 
858.323120  	0.151820 
860.251936  	0.150632 
862.180752  	0.149377 
864.109568  	0.147804 
866.038384  	0.146153 
867.967200  	0.144656 
869.896016  	0.143206 
871.824832  	0.141925 
873.753648  	0.140898 
875.682464  	0.140964 
877.611280  	0.142853 
879.540096  	0.145105 
881.468912  	0.145683 
883.397728  	0.146420 
885.326544  	0.147053 
887.255360  	0.147115 
889.184176  	0.146627 
891.112992  	0.146118 
893.041808  	0.144093 
894.970624  	0.140903 
896.899440  	0.137668 
898.828256  	0.133644 
900.757072  	0.129578 
902.685888  	0.126183 
904.614704  	0.123728 
906.543520  	0.122797 
908.472336  	0.123138 
910.401152  	0.124524 
912.329968  	0.126211 
914.258784  	0.128260 
916.187600  	0.130235 
918.116416  	0.132008 
920.045232  	0.133086 
921.974048  	0.133601 
923.902864  	0.133600 
925.831680  	0.133322 
927.760496  	0.133166 
929.689312  	0.133154 
931.618128  	0.133509 
933.546944  	0.133717 
935.475760  	0.133817 
937.404576  	0.133452 
939.333392  	0.132702 
941.262208  	0.132448 
943.191024  	0.133543 
945.119840  	0.136704 
947.048656  	0.141610 
948.977472  	0.148195 
950.906288  	0.156285 
952.835104  	0.165358 
954.763920  	0.174964 
956.692736  	0.184279 
958.621552  	0.192400 
960.550368  	0.198186 
962.479184  	0.201018 
964.408000  	0.200398 
966.336816  	0.196326 
968.265632  	0.189019 
970.194448  	0.179202 
972.123264  	0.167782 
974.052080  	0.155635 
975.980896  	0.143506 
977.909712  	0.132215 
979.838528  	0.122304 
981.767344  	0.113968 
983.696160  	0.107570 
985.624976  	0.103506 
987.553792  	0.102186 
989.482608  	0.103328 
991.411424  	0.106673 
993.340240  	0.111323 
995.269056  	0.117311 
997.197872  	0.123838 
999.126688  	0.130748 
1001.055504  	0.137759 
1002.984320  	0.145188 
1004.913136  	0.152519 
1006.841952  	0.159727 
1008.770768  	0.166254 
1010.699584  	0.171744 
1012.628400  	0.175780 
1014.557216  	0.178580 
1016.486032  	0.180459 
1018.414848  	0.181524 
1020.343664  	0.182172 
1022.272480  	0.182323 
1024.201296  	0.183178 
1026.130112  	0.186686 
1028.058928  	0.189087 
1029.987744  	0.187670 
1031.916560  	0.189911 
1033.845376  	0.195242 
1035.774192  	0.202957 
1037.703008  	0.211168 
1039.631824  	0.218811 
1041.560640  	0.229004 
1043.489456  	0.242500 
1045.418272  	0.258237 
1047.347088  	0.274792 
1049.275904  	0.289968 
1051.204720  	0.302599 
1053.133536  	0.310660 
1055.062352  	0.315481 
1056.991168  	0.318536 
1058.919984  	0.317350 
1060.848800  	0.313446 
1062.777616  	0.313111 
1064.706432  	0.315353 
1066.635248  	0.314057 
1068.564064  	0.304507 
1070.492880  	0.296524 
1072.421696  	0.291065 
1074.350512  	0.287344 
1076.279328  	0.285026 
1078.208144  	0.284781 
1080.136960  	0.285547 
1082.065776  	0.286798 
1083.994592  	0.286338 
1085.923408  	0.283612 
1087.852224  	0.277997 
1089.781040  	0.270457 
1091.709856  	0.260118 
1093.638672  	0.249570 
1095.567488  	0.238592 
1097.496304  	0.226864 
1099.425120  	0.214118 
1101.353936  	0.201103 
1103.282752  	0.188174 
1105.211568  	0.175317 
1107.140384  	0.162241 
1109.069200  	0.149770 
1110.998016  	0.138054 
1112.926832  	0.127460 
1114.855648  	0.117846 
1116.784464  	0.108851 
1118.713280  	0.100440 
1120.642096  	0.092614 
1122.570912  	0.085536 
1124.499728  	0.079013 
1126.428544  	0.073403 
1128.357360  	0.068181 
1130.286176  	0.063839 
1132.214992  	0.060330 
1134.143808  	0.057474 
1136.072624  	0.054957 
1138.001440  	0.052775 
1139.930256  	0.050435 
1141.859072  	0.048035 
1143.787888  	0.045404 
1145.716704  	0.043193 
1147.645520  	0.041000 
1149.574336  	0.039094 
1151.503152  	0.037546 
1153.431968  	0.036711 
1155.360784  	0.036732 
1157.289600  	0.037558 
1159.218416  	0.038741 
1161.147232  	0.040426 
1163.076048  	0.042305 
1165.004864  	0.044452 
1166.933680  	0.046292 
1168.862496  	0.048354 
1170.791312  	0.050461 
1172.720128  	0.052988 
1174.648944  	0.055470 
1176.577760  	0.057913 
1178.506576  	0.060152 
1180.435392  	0.062758 
1182.364208  	0.065393 
1184.293024  	0.068355 
1186.221840  	0.071608 
1188.150656  	0.075393 
1190.079472  	0.079641 
1192.008288  	0.084746 
1193.937104  	0.091045 
1195.865920  	0.098333 
1197.794736  	0.106016 
1199.723552  	0.114359 
1201.652368  	0.123142 
1203.581184  	0.132193 
1205.510000  	0.141346 
1207.438816  	0.150253 
1209.367632  	0.158611 
1211.296448  	0.166192 
1213.225264  	0.173081 
1215.154080  	0.178781 
1217.082896  	0.183599 
1219.011712  	0.187330 
1220.940528  	0.190478 
1222.869344  	0.192854 
1224.798160  	0.194366 
1226.726976  	0.194851 
1228.655792  	0.194857 
1230.584608  	0.193558 
1232.513424  	0.191164 
1234.442240  	0.187708 
1236.371056  	0.183584 
1238.299872  	0.178731 
1240.228688  	0.174968 
1242.157504  	0.169557 
1244.086320  	0.161741 
1246.015136  	0.154777 
1247.943952  	0.148746 
1249.872768  	0.142307 
1251.801584  	0.134867 
1253.730400  	0.127404 
1255.659216  	0.120057 
1257.588032  	0.113212 
1259.516848  	0.106291 
1261.445664  	0.099471 
1263.374480  	0.093090 
1265.303296  	0.087654 
1267.232112  	0.082875 
1269.160928  	0.078895 
1271.089744  	0.075650 
1273.018560  	0.073599 
1274.947376  	0.072429 
1276.876192  	0.071898 
1278.805008  	0.071090 
1280.733824  	0.069616 
1282.662640  	0.067330 
1284.591456  	0.064777 
1286.520272  	0.062625 
1288.449088  	0.061191 
1290.377904  	0.060151 
1292.306720  	0.060163 
1294.235536  	0.060246 
1296.164352  	0.059519 
1298.093168  	0.057275 
1300.021984  	0.054492 
1301.950800  	0.051573 
1303.879616  	0.048832 
1305.808432  	0.045757 
1307.737248  	0.042701 
1309.666064  	0.039715 
1311.594880  	0.037810 
1313.523696  	0.036335 
1315.452512  	0.035173 
1317.381328  	0.034434 
1319.310144  	0.034144 
1321.238960  	0.034112 
1323.167776  	0.034721 
1325.096592  	0.035489 
1327.025408  	0.036008 
1328.954224  	0.035931 
1330.883040  	0.035571 
1332.811856  	0.034717 
1334.740672  	0.034491 
1336.669488  	0.035065 
1338.598304  	0.035816 
1340.527120  	0.034221 
1342.455936  	0.032169 
1344.384752  	0.031761 
1346.313568  	0.032231 
1348.242384  	0.033052 
1350.171200  	0.034538 
1352.100016  	0.036469 
1354.028832  	0.038859 
1355.957648  	0.041102 
1357.886464  	0.043750 
1359.815280  	0.046927 
1361.744096  	0.050316 
1363.672912  	0.052094 
1365.601728  	0.053740 
1367.530544  	0.056193 
1369.459360  	0.057994 
1371.388176  	0.059244 
1373.316992  	0.059594 
1375.245808  	0.057784 
1377.174624  	0.056978 
1379.103440  	0.055624 
1381.032256  	0.053384 
1382.961072  	0.051258 
1384.889888  	0.050210 
1386.818704  	0.048486 
1388.747520  	0.045259 
1390.676336  	0.044576 
1392.605152  	0.047336 
1394.533968  	0.047410 
1396.462784  	0.043596 
1398.391600  	0.042532 
1400.320416  	0.042772 
1402.249232  	0.045135 
1404.178048  	0.047369 
1406.106864  	0.048342 
1408.035680  	0.049598 
1409.964496  	0.050962 
1411.893312  	0.051635 
1413.822128  	0.052128 
1415.750944  	0.053902 
1417.679760  	0.054667 
1419.608576  	0.050978 
1421.537392  	0.049975 
1423.466208  	0.049684 
1425.395024  	0.047254 
1427.323840  	0.045619 
1429.252656  	0.042576 
1431.181472  	0.040493 
1433.110288  	0.040833 
1435.039104  	0.041665 
1436.967920  	0.040145 
1438.896736  	0.040425 
1440.825552  	0.041818 
1442.754368  	0.042291 
1444.683184  	0.042577 
1446.612000  	0.042677 
1448.540816  	0.042365 
1450.469632  	0.043492 
1452.398448  	0.044430 
1454.327264  	0.045322 
1456.256080  	0.042597 
1458.184896  	0.036900 
1460.113712  	0.039099 
1462.042528  	0.041345 
1463.971344  	0.040554 
1465.900160  	0.040481 
1467.828976  	0.043664 
1469.757792  	0.047043 
1471.686608  	0.049207 
1473.615424  	0.053753 
1475.544240  	0.060572 
1477.473056  	0.065932 
1479.401872  	0.069703 
1481.330688  	0.072597 
1483.259504  	0.074474 
1485.188320  	0.075858 
1487.117136  	0.075387 
1489.045952  	0.074592 
1490.974768  	0.071174 
1492.903584  	0.069468 
1494.832400  	0.066501 
1496.761216  	0.058955 
1498.690032  	0.053003 
1500.618848  	0.050112 
1502.547664  	0.047092 
1504.476480  	0.042595 
1506.405296  	0.034595 
1508.334112  	0.033292 
1510.262928  	0.034705 
1512.191744  	0.032781 
1514.120560  	0.031770 
1516.049376  	0.030638 
1517.978192  	0.028527 
1519.907008  	0.029582 
1521.835824  	0.028106 
1523.764640  	0.032941 
1525.693456  	0.037986 
1527.622272  	0.040086 
1529.551088  	0.041193 
1531.479904  	0.041333 
1533.408720  	0.036221 
1535.337536  	0.033561 
1537.266352  	0.032311 
1539.195168  	0.022312 
1541.123984  	0.014089 
1543.052800  	0.019497 
1544.981616  	0.021558 
1546.910432  	0.021460 
1548.839248  	0.022310 
1550.768064  	0.022164 
1552.696880  	0.021714 
1554.625696  	0.021302 
1556.554512  	0.020622 
1558.483328  	0.014882 
1560.412144  	0.018816 
1562.340960  	0.028715 
1564.269776  	0.032921 
1566.198592  	0.037748 
1568.127408  	0.041265 
1570.056224  	0.044665 
1571.985040  	0.052475 
1573.913856  	0.057299 
1575.842672  	0.056318 
1577.771488  	0.059436 
1579.700304  	0.063342 
1581.629120  	0.063656 
1583.557936  	0.063075 
1585.486752  	0.063653 
1587.415568  	0.065687 
1589.344384  	0.069640 
1591.273200  	0.074990 
1593.202016  	0.081390 
1595.130832  	0.088222 
1597.059648  	0.095807 
1598.988464  	0.102364 
1600.917280  	0.108016 
1602.846096  	0.111733 
1604.774912  	0.114264 
1606.703728  	0.114715 
1608.632544  	0.113775 
1610.561360  	0.112052 
1612.490176  	0.110965 
1614.418992  	0.108687 
1616.347808  	0.103782 
1618.276624  	0.104780 
1620.205440  	0.110792 
1622.134256  	0.113078 
1624.063072  	0.117099 
1625.991888  	0.124339 
1627.920704  	0.131811 
1629.849520  	0.141584 
1631.778336  	0.151398 
1633.707152  	0.157191 
1635.635968  	0.161544 
1637.564784  	0.172504 
1639.493600  	0.182973 
1641.422416  	0.189413 
1643.351232  	0.194033 
1645.280048  	0.193963 
1647.208864  	0.191656 
1649.137680  	0.195050 
1651.066496  	0.197222 
1652.995312  	0.186829 
1654.924128  	0.187365 
1656.852944  	0.191686 
1658.781760  	0.190883 
1660.710576  	0.187324 
1662.639392  	0.181152 
1664.568208  	0.177817 
1666.497024  	0.176822 
1668.425840  	0.170459 
1670.354656  	0.162153 
1672.283472  	0.160387 
1674.212288  	0.157923 
1676.141104  	0.152573 
1678.069920  	0.153236 
1679.998736  	0.153095 
1681.927552  	0.151334 
1683.856368  	0.143405 
1685.785184  	0.142190 
1687.714000  	0.147005 
1689.642816  	0.146807 
1691.571632  	0.145282 
1693.500448  	0.144887 
1695.429264  	0.139376 
1697.358080  	0.135406 
1699.286896  	0.133545 
1701.215712  	0.127457 
1703.144528  	0.129068 
1705.073344  	0.124997 
1707.002160  	0.119192 
1708.930976  	0.116390 
1710.859792  	0.111261 
1712.788608  	0.105082 
1714.717424  	0.096496 
1716.646240  	0.084361 
1718.575056  	0.070137 
1720.503872  	0.064647 
1722.432688  	0.059331 
1724.361504  	0.050342 
1726.290320  	0.042878 
1728.219136  	0.036892 
1730.147952  	0.031353 
1732.076768  	0.026387 
1734.005584  	0.017834 
1735.934400  	0.013257 
1737.863216  	0.014400 
1739.792032  	0.010088 
1741.720848  	0.009535 
1743.649664  	0.009840 
1745.578480  	0.009029 
1747.507296  	0.007043 
1749.436112  	0.005998 
1751.364928  	0.004938 
1753.293744  	0.004539 
1755.222560  	0.004740 
1757.151376  	0.003915 
1759.080192  	0.003561 
1761.009008  	0.002711 
1762.937824  	0.000962 
1764.866640  	0.002071 
1766.795456  	0.002810 
1768.724272  	0.001960 
1770.653088  	-0.001024 
1772.581904  	-0.004835 
1774.510720  	-0.002557 
1776.439536  	0.000045 
1778.368352  	0.000592 
1780.297168  	0.000065 
1782.225984  	-0.000566 
1784.154800  	0.000270 
1786.083616  	-0.000346 
1788.012432  	-0.000121 
1789.941248  	0.000168 
1791.870064  	-0.002047 
1793.798880  	-0.003512 
1795.727696  	-0.001164 
1797.656512  	-0.001416 
1799.585328  	-0.001789 
1801.514144  	-0.001228 
1803.442960  	-0.001216 
1805.371776  	-0.001957 
1807.300592  	-0.001605 
1809.229408  	-0.002283 
1811.158224  	-0.002793 
1813.087040  	-0.002825 
1815.015856  	-0.002233 
1816.944672  	-0.002062 
1818.873488  	-0.002155 
1820.802304  	-0.002354 
1822.731120  	-0.001681 
1824.659936  	-0.002591 
1826.588752  	-0.003320 
1828.517568  	-0.003981 
1830.446384  	-0.004828 
1832.375200  	-0.003479 
1834.304016  	-0.002372 
1836.232832  	-0.002481 
1838.161648  	-0.002408 
1840.090464  	-0.002583 
1842.019280  	-0.001741 
1843.948096  	-0.003624 
1845.876912  	-0.003755 
1847.805728  	-0.002542 
1849.734544  	-0.002592 
1851.663360  	-0.003007 
1853.592176  	-0.002960 
1855.520992  	-0.003048 
1857.449808  	-0.002804 
1859.378624  	-0.002925 
1861.307440  	-0.002763 
1863.236256  	-0.002994 
1865.165072  	-0.002812 
1867.093888  	-0.003190 
1869.022704  	-0.004042 
1870.951520  	-0.004082 
1872.880336  	-0.003192 
1874.809152  	-0.003458 
1876.737968  	-0.003400 
1878.666784  	-0.003355 
1880.595600  	-0.002852 
1882.524416  	-0.003349 
1884.453232  	-0.003351 
1886.382048  	-0.003400 
1888.310864  	-0.002933 
1890.239680  	-0.003509 
1892.168496  	-0.002984 
1894.097312  	-0.002708 
1896.026128  	-0.002694 
1897.954944  	-0.002998 
1899.883760  	-0.002623 
1901.812576  	-0.003008 
1903.741392  	-0.003362 
1905.670208  	-0.003220 
1907.599024  	-0.002326 
1909.527840  	-0.002858 
1911.456656  	-0.002836 
1913.385472  	-0.002544 
1915.314288  	-0.001804 
1917.243104  	-0.002504 
1919.171920  	-0.003160 
1921.100736  	-0.002646 
1923.029552  	-0.002006 
1924.958368  	-0.002790 
1926.887184  	-0.002472 
1928.816000  	-0.002722 
1930.744816  	-0.002626 
1932.673632  	-0.002671 
1934.602448  	-0.002163 
1936.531264  	-0.002192 
1938.460080  	-0.001934 
1940.388896  	-0.002339 
1942.317712  	-0.002301 
1944.246528  	-0.002751 
1946.175344  	-0.002380 
1948.104160  	-0.002645 
1950.032976  	-0.002488 
1951.961792  	-0.002780 
1953.890608  	-0.002021 
1955.819424  	-0.002098 
1957.748240  	-0.001958 
1959.677056  	-0.003487 
1961.605872  	-0.003022 
1963.534688  	-0.003308 
1965.463504  	-0.002543 
1967.392320  	-0.002870 
1969.321136  	-0.003670 
1971.249952  	-0.004441 
1973.178768  	-0.002964 
1975.107584  	-0.002851 
1977.036400  	-0.001807 
1978.965216  	-0.001763 
1980.894032  	-0.002358 
1982.822848  	-0.002824 
1984.751664  	-0.001990 
1986.680480  	-0.002913 
1988.609296  	-0.002678 
1990.538112  	-0.002890 
1992.466928  	-0.002221 
1994.395744  	-0.003009 
1996.324560  	-0.003345 
1998.253376  	-0.003859 
2000.182192  	-0.004144 
2002.111008  	-0.004122 
2004.039824  	-0.002556 
2005.968640  	-0.002306 
2007.897456  	-0.001926 
2009.826272  	-0.002924 
2011.755088  	-0.002956 
2013.683904  	-0.003599 
2015.612720  	-0.003532 
2017.541536  	-0.003255 
2019.470352  	-0.001755 
2021.399168  	-0.003228 
2023.327984  	-0.003815 
2025.256800  	-0.002882 
2027.185616  	-0.001848 
2029.114432  	-0.002256 
2031.043248  	-0.001171 
2032.972064  	-0.001168 
2034.900880  	-0.000958 
2036.829696  	-0.002695 
2038.758512  	-0.002358 
2040.687328  	-0.002161 
2042.616144  	-0.001624 
2044.544960  	-0.002366 
2046.473776  	-0.002366 
2048.402592  	-0.002709 
2050.331408  	-0.002325 
2052.260224  	-0.002931 
2054.189040  	-0.003187 
2056.117856  	-0.003609 
2058.046672  	-0.003458 
2059.975488  	-0.004063 
2061.904304  	-0.003794 
2063.833120  	-0.003405 
2065.761936  	-0.003132 
2067.690752  	-0.003551 
2069.619568  	-0.002806 
2071.548384  	-0.002705 
2073.477200  	-0.002839 
2075.406016  	-0.002741 
2077.334832  	-0.002559 
2079.263648  	-0.002769 
2081.192464  	-0.002446 
2083.121280  	-0.002503 
2085.050096  	-0.002568 
2086.978912  	-0.002717 
2088.907728  	-0.002128 
2090.836544  	-0.002461 
2092.765360  	-0.002471 
2094.694176  	-0.002063 
2096.622992  	-0.001983 
2098.551808  	-0.002524 
2100.480624  	-0.002026 
2102.409440  	-0.002225 
2104.338256  	-0.002311 
2106.267072  	-0.002117 
2108.195888  	-0.002263 
2110.124704  	-0.002460 
2112.053520  	-0.002001 
2113.982336  	-0.002017 
2115.911152  	-0.001942 
2117.839968  	-0.002151 
2119.768784  	-0.001999 
2121.697600  	-0.002090 
2123.626416  	-0.002129 
2125.555232  	-0.002247 
2127.484048  	-0.001791 
2129.412864  	-0.002218 
2131.341680  	-0.002644 
2133.270496  	-0.003268 
2135.199312  	-0.002490 
2137.128128  	-0.002017 
2139.056944  	-0.001721 
2140.985760  	-0.002008 
2142.914576  	-0.001719 
2144.843392  	-0.001527 
2146.772208  	-0.001112 
2148.701024  	-0.001604 
2150.629840  	-0.001240 
2152.558656  	-0.001663 
2154.487472  	-0.001400 
2156.416288  	-0.001354 
2158.345104  	-0.000245 
2160.273920  	0.001349 
2162.202736  	0.002037 
2164.131552  	0.000980 
2166.060368  	0.000991 
2167.989184  	0.001536 
2169.918000  	0.002320 
2171.846816  	-0.000145 
2173.775632  	-0.000956 
2175.704448  	0.000017 
2177.633264  	0.000323 
2179.562080  	-0.000473 
2181.490896  	-0.000485 
2183.419712  	-0.001505 
2185.348528  	-0.001401 
2187.277344  	-0.001038 
2189.206160  	-0.000960 
2191.134976  	-0.001636 
2193.063792  	-0.001578 
2194.992608  	-0.001419 
2196.921424  	-0.000858 
2198.850240  	-0.000813 
2200.779056  	-0.001563 
2202.707872  	-0.002371 
2204.636688  	-0.002115 
2206.565504  	-0.001627 
2208.494320  	-0.001874 
2210.423136  	-0.002952 
2212.351952  	-0.002949 
2214.280768  	-0.002621 
2216.209584  	-0.002250 
2218.138400  	-0.002562 
2220.067216  	-0.002057 
2221.996032  	-0.002029 
2223.924848  	-0.002385 
2225.853664  	-0.002471 
2227.782480  	-0.002144 
2229.711296  	-0.003149 
2231.640112  	-0.003444 
2233.568928  	-0.003030 
2235.497744  	-0.002453 
2237.426560  	-0.003019 
2239.355376  	-0.002990 
2241.284192  	-0.003034 
2243.213008  	-0.003283 
2245.141824  	-0.003334 
2247.070640  	-0.002884 
2248.999456  	-0.003127 
2250.928272  	-0.003719 
2252.857088  	-0.003838 
2254.785904  	-0.003619 
2256.714720  	-0.004085 
2258.643536  	-0.004322 
2260.572352  	-0.004508 
2262.501168  	-0.004531 
2264.429984  	-0.004592 
2266.358800  	-0.004379 
2268.287616  	-0.004025 
2270.216432  	-0.003670 
2272.145248  	-0.003873 
2274.074064  	-0.004042 
2276.002880  	-0.004043 
2277.931696  	-0.003673 
2279.860512  	-0.003504 
2281.789328  	-0.003178 
2283.718144  	-0.003124 
2285.646960  	-0.003351 
2287.575776  	-0.003486 
2289.504592  	-0.003631 
2291.433408  	-0.004094 
2293.362224  	-0.004073 
2295.291040  	-0.003860 
2297.219856  	-0.003528 
2299.148672  	-0.003391 
2301.077488  	-0.003339 
2303.006304  	-0.003572 
2304.935120  	-0.003703 
2306.863936  	-0.004097 
2308.792752  	-0.004630 
2310.721568  	-0.005472 
2312.650384  	-0.006561 
2314.579200  	-0.007816 
2316.508016  	-0.009338 
2318.436832  	-0.011273 
2320.365648  	-0.013578 
2322.294464  	-0.016138 
2324.223280  	-0.018762 
2326.152096  	-0.021649 
2328.080912  	-0.023996 
2330.009728  	-0.026529 
2331.938544  	-0.028970 
2333.867360  	-0.031079 
2335.796176  	-0.032937 
2337.724992  	-0.034467 
2339.653808  	-0.034996 
2341.582624  	-0.035321 
2343.511440  	-0.033750 
2345.440256  	-0.029716 
2347.369072  	-0.021999 
2349.297888  	-0.017471 
2351.226704  	-0.021656 
2353.155520  	-0.030099 
2355.084336  	-0.036918 
2357.013152  	-0.042296 
2358.941968  	-0.045100 
2360.870784  	-0.046467 
2362.799600  	-0.045228 
2364.728416  	-0.042520 
2366.657232  	-0.038350 
2368.586048  	-0.033236 
2370.514864  	-0.027681 
2372.443680  	-0.022285 
2374.372496  	-0.016908 
2376.301312  	-0.012066 
2378.230128  	-0.008103 
2380.158944  	-0.005599 
2382.087760  	-0.004290 
2384.016576  	-0.003852 
2385.945392  	-0.003858 
2387.874208  	-0.004014 
2389.803024  	-0.004167 
2391.731840  	-0.004400 
2393.660656  	-0.004306 
2395.589472  	-0.004330 
2397.518288  	-0.004164 
2399.447104  	-0.004197 
2401.375920  	-0.004284 
2403.304736  	-0.004450 
2405.233552  	-0.004401 
2407.162368  	-0.004448 
2409.091184  	-0.004381 
2411.020000  	-0.004235 
2412.948816  	-0.004276 
2414.877632  	-0.004197 
2416.806448  	-0.004026 
2418.735264  	-0.004165 
2420.664080  	-0.004223 
2422.592896  	-0.004210 
2424.521712  	-0.004109 
2426.450528  	-0.004366 
2428.379344  	-0.004232 
2430.308160  	-0.003843 
2432.236976  	-0.003734 
2434.165792  	-0.003819 
2436.094608  	-0.004024 
2438.023424  	-0.004145 
2439.952240  	-0.003656 
2441.881056  	-0.003667 
2443.809872  	-0.003885 
2445.738688  	-0.003704 
2447.667504  	-0.003468 
2449.596320  	-0.003484 
2451.525136  	-0.003457 
2453.453952  	-0.003572 
2455.382768  	-0.003568 
2457.311584  	-0.003658 
2459.240400  	-0.003727 
2461.169216  	-0.003785 
2463.098032  	-0.003896 
2465.026848  	-0.003791 
2466.955664  	-0.003718 
2468.884480  	-0.003952 
2470.813296  	-0.003975 
2472.742112  	-0.004074 
2474.670928  	-0.004013 
2476.599744  	-0.003781 
2478.528560  	-0.003422 
2480.457376  	-0.003452 
2482.386192  	-0.003423 
2484.315008  	-0.003417 
2486.243824  	-0.003643 
2488.172640  	-0.003616 
2490.101456  	-0.003309 
2492.030272  	-0.003213 
2493.959088  	-0.003146 
2495.887904  	-0.003103 
2497.816720  	-0.003086 
2499.745536  	-0.003008 
2501.674352  	-0.002911 
2503.603168  	-0.002702 
2505.531984  	-0.002708 
2507.460800  	-0.002924 
2509.389616  	-0.002892 
2511.318432  	-0.002844 
2513.247248  	-0.002798 
2515.176064  	-0.002956 
2517.104880  	-0.002871 
2519.033696  	-0.002863 
2520.962512  	-0.002819 
2522.891328  	-0.002736 
2524.820144  	-0.002683 
2526.748960  	-0.002645 
2528.677776  	-0.002506 
2530.606592  	-0.002594 
2532.535408  	-0.002458 
2534.464224  	-0.002407 
2536.393040  	-0.002498 
2538.321856  	-0.002381 
2540.250672  	-0.002184 
2542.179488  	-0.002215 
2544.108304  	-0.002226 
2546.037120  	-0.002196 
2547.965936  	-0.002162 
2549.894752  	-0.002063 
2551.823568  	-0.001935 
2553.752384  	-0.001859 
2555.681200  	-0.001560 
2557.610016  	-0.001437 
2559.538832  	-0.001350 
2561.467648  	-0.001358 
2563.396464  	-0.001426 
2565.325280  	-0.001377 
2567.254096  	-0.001304 
2569.182912  	-0.001240 
2571.111728  	-0.001089 
2573.040544  	-0.001192 
2574.969360  	-0.001045 
2576.898176  	-0.000712 
2578.826992  	-0.000834 
2580.755808  	-0.000982 
2582.684624  	-0.000909 
2584.613440  	-0.000891 
2586.542256  	-0.000806 
2588.471072  	-0.000673 
2590.399888  	-0.000581 
2592.328704  	-0.000670 
2594.257520  	-0.000705 
2596.186336  	-0.000547 
2598.115152  	-0.000415 
2600.043968  	-0.000407 
2601.972784  	-0.000242 
2603.901600  	-0.000200 
2605.830416  	-0.000061 
2607.759232  	0.000110 
2609.688048  	0.000219 
2611.616864  	0.000339 
2613.545680  	0.000600 
2615.474496  	0.000822 
2617.403312  	0.000998 
2619.332128  	0.001135 
2621.260944  	0.001131 
2623.189760  	0.000974 
2625.118576  	0.001024 
2627.047392  	0.001183 
2628.976208  	0.001279 
2630.905024  	0.001415 
2632.833840  	0.001618 
2634.762656  	0.001785 
2636.691472  	0.001798 
2638.620288  	0.001755 
2640.549104  	0.001834 
2642.477920  	0.001904 
2644.406736  	0.002129 
2646.335552  	0.002328 
2648.264368  	0.002424 
2650.193184  	0.002496 
2652.122000  	0.002663 
2654.050816  	0.002874 
2655.979632  	0.003024 
2657.908448  	0.003153 
2659.837264  	0.003294 
2661.766080  	0.003335 
2663.694896  	0.003384 
2665.623712  	0.003482 
2667.552528  	0.003703 
2669.481344  	0.003907 
2671.410160  	0.004057 
2673.338976  	0.004131 
2675.267792  	0.004308 
2677.196608  	0.004504 
2679.125424  	0.004642 
2681.054240  	0.004747 
2682.983056  	0.004833 
2684.911872  	0.004832 
2686.840688  	0.004985 
2688.769504  	0.005195 
2690.698320  	0.005264 
2692.627136  	0.005264 
2694.555952  	0.005378 
2696.484768  	0.005440 
2698.413584  	0.005483 
2700.342400  	0.005630 
2702.271216  	0.005836 
2704.200032  	0.006058 
2706.128848  	0.006180 
2708.057664  	0.006255 
2709.986480  	0.006470 
2711.915296  	0.006680 
2713.844112  	0.006856 
2715.772928  	0.006987 
2717.701744  	0.007141 
2719.630560  	0.007400 
2721.559376  	0.007613 
2723.488192  	0.007737 
2725.417008  	0.008006 
2727.345824  	0.008348 
2729.274640  	0.008558 
2731.203456  	0.008791 
2733.132272  	0.009100 
2735.061088  	0.009276 
2736.989904  	0.009443 
2738.918720  	0.009559 
2740.847536  	0.009730 
2742.776352  	0.009835 
2744.705168  	0.009950 
2746.633984  	0.010038 
2748.562800  	0.010145 
2750.491616  	0.010270 
2752.420432  	0.010420 
2754.349248  	0.010413 
2756.278064  	0.010390 
2758.206880  	0.010303 
2760.135696  	0.010319 
2762.064512  	0.010426 
2763.993328  	0.010491 
2765.922144  	0.010492 
2767.850960  	0.010577 
2769.779776  	0.010761 
2771.708592  	0.010963 
2773.637408  	0.010873 
2775.566224  	0.010766 
2777.495040  	0.010859 
2779.423856  	0.011026 
2781.352672  	0.011173 
2783.281488  	0.011315 
2785.210304  	0.011394 
2787.139120  	0.011449 
2789.067936  	0.011581 
2790.996752  	0.011817 
2792.925568  	0.011911 
2794.854384  	0.011930 
2796.783200  	0.011905 
2798.712016  	0.011998 
2800.640832  	0.012071 
2802.569648  	0.012175 
2804.498464  	0.012296 
2806.427280  	0.012348 
2808.356096  	0.012365 
2810.284912  	0.012442 
2812.213728  	0.012555 
2814.142544  	0.012700 
2816.071360  	0.012928 
2818.000176  	0.013030 
2819.928992  	0.013093 
2821.857808  	0.013248 
2823.786624  	0.013330 
2825.715440  	0.013433 
2827.644256  	0.013452 
2829.573072  	0.013618 
2831.501888  	0.013717 
2833.430704  	0.013791 
2835.359520  	0.014018 
2837.288336  	0.014305 
2839.217152  	0.014631 
2841.145968  	0.014771 
2843.074784  	0.014977 
2845.003600  	0.015356 
2846.932416  	0.015857 
2848.861232  	0.016498 
2850.790048  	0.017129 
2852.718864  	0.017798 
2854.647680  	0.018626 
2856.576496  	0.019341 
2858.505312  	0.020062 
2860.434128  	0.021080 
2862.362944  	0.022243 
2864.291760  	0.023368 
2866.220576  	0.024494 
2868.149392  	0.025413 
2870.078208  	0.026107 
2872.007024  	0.026896 
2873.935840  	0.027863 
2875.864656  	0.028922 
2877.793472  	0.030250 
2879.722288  	0.031854 
2881.651104  	0.033513 
2883.579920  	0.034894 
2885.508736  	0.035748 
2887.437552  	0.035957 
2889.366368  	0.036301 
2891.295184  	0.037022 
2893.224000  	0.037521 
2895.152816  	0.037734 
2897.081632  	0.038311 
2899.010448  	0.040334 
2900.939264  	0.042117 
2902.868080  	0.040881 
2904.796896  	0.039608 
2906.725712  	0.039418 
2908.654528  	0.039517 
2910.583344  	0.039946 
2912.512160  	0.039731 
2914.440976  	0.039045 
2916.369792  	0.038854 
2918.298608  	0.039250 
2920.227424  	0.039816 
2922.156240  	0.040277 
2924.085056  	0.040562 
2926.013872  	0.040889 
2927.942688  	0.041339 
2929.871504  	0.041696 
2931.800320  	0.042090 
2933.729136  	0.042677 
2935.657952  	0.043418 
2937.586768  	0.044026 
2939.515584  	0.044740 
2941.444400  	0.045599 
2943.373216  	0.046295 
2945.302032  	0.046736 
2947.230848  	0.047023 
2949.159664  	0.047605 
2951.088480  	0.048542 
2953.017296  	0.049415 
2954.946112  	0.050179 
2956.874928  	0.050959 
2958.803744  	0.051480 
2960.732560  	0.051938 
2962.661376  	0.052532 
2964.590192  	0.053620 
2966.519008  	0.054930 
2968.447824  	0.055918 
2970.376640  	0.056508 
2972.305456  	0.056506 
2974.234272  	0.056012 
2976.163088  	0.055721 
2978.091904  	0.055249 
2980.020720  	0.055081 
2981.949536  	0.054967 
2983.878352  	0.055255 
2985.807168  	0.056235 
2987.735984  	0.057054 
2989.664800  	0.056402 
2991.593616  	0.052861 
2993.522432  	0.050829 
2995.451248  	0.050299 
2997.380064  	0.049600 
2999.308880  	0.048661 
3001.237696  	0.047442 
3003.166512  	0.046411 
3005.095328  	0.045361 
3007.024144  	0.044080 
3008.952960  	0.042826 
3010.881776  	0.041695 
3012.810592  	0.040575 
3014.739408  	0.039505 
3016.668224  	0.038571 
3018.597040  	0.037862 
3020.525856  	0.037195 
3022.454672  	0.036555 
3024.383488  	0.036050 
3026.312304  	0.035526 
3028.241120  	0.035183 
3030.169936  	0.034939 
3032.098752  	0.034556 
3034.027568  	0.034307 
3035.956384  	0.034282 
3037.885200  	0.034409 
3039.814016  	0.034377 
3041.742832  	0.034425 
3043.671648  	0.034563 
3045.600464  	0.034799 
3047.529280  	0.034883 
3049.458096  	0.035133 
3051.386912  	0.035576 
3053.315728  	0.036060 
3055.244544  	0.036644 
3057.173360  	0.037219 
3059.102176  	0.037606 
3061.030992  	0.038126 
3062.959808  	0.038756 
3064.888624  	0.039442 
3066.817440  	0.040156 
3068.746256  	0.040978 
3070.675072  	0.041839 
3072.603888  	0.042516 
3074.532704  	0.043212 
3076.461520  	0.044061 
3078.390336  	0.044814 
3080.319152  	0.045526 
3082.247968  	0.046426 
3084.176784  	0.047276 
3086.105600  	0.048147 
3088.034416  	0.048904 
3089.963232  	0.049644 
3091.892048  	0.050360 
3093.820864  	0.051013 
3095.749680  	0.051699 
3097.678496  	0.052652 
3099.607312  	0.053623 
3101.536128  	0.054559 
3103.464944  	0.055563 
3105.393760  	0.056244 
3107.322576  	0.056889 
3109.251392  	0.057779 
3111.180208  	0.058566 
3113.109024  	0.059159 
3115.037840  	0.059799 
3116.966656  	0.060594 
3118.895472  	0.061263 
3120.824288  	0.061933 
3122.753104  	0.062629 
3124.681920  	0.063254 
3126.610736  	0.063792 
3128.539552  	0.064603 
3130.468368  	0.065415 
3132.397184  	0.065878 
3134.326000  	0.066426 
3136.254816  	0.067129 
3138.183632  	0.067943 
3140.112448  	0.068551 
3142.041264  	0.069150 
3143.970080  	0.069789 
3145.898896  	0.070470 
3147.827712  	0.071063 
3149.756528  	0.071627 
3151.685344  	0.072330 
3153.614160  	0.073158 
3155.542976  	0.073895 
3157.471792  	0.074567 
3159.400608  	0.075380 
3161.329424  	0.076106 
3163.258240  	0.076639 
3165.187056  	0.077041 
3167.115872  	0.077570 
3169.044688  	0.078134 
3170.973504  	0.078685 
3172.902320  	0.079112 
3174.831136  	0.079564 
3176.759952  	0.080033 
3178.688768  	0.080405 
3180.617584  	0.080926 
3182.546400  	0.081428 
3184.475216  	0.081572 
3186.404032  	0.081566 
3188.332848  	0.081896 
3190.261664  	0.082301 
3192.190480  	0.082552 
3194.119296  	0.082533 
3196.048112  	0.082652 
3197.976928  	0.082762 
3199.905744  	0.082892 
3201.834560  	0.082865 
3203.763376  	0.082841 
3205.692192  	0.082913 
3207.621008  	0.082829 
3209.549824  	0.082624 
3211.478640  	0.082675 
3213.407456  	0.082627 
3215.336272  	0.082302 
3217.265088  	0.082378 
3219.193904  	0.082313 
3221.122720  	0.082060 
3223.051536  	0.081986 
3224.980352  	0.081762 
3226.909168  	0.081537 
3228.837984  	0.081323 
3230.766800  	0.081129 
3232.695616  	0.081041 
3234.624432  	0.080829 
3236.553248  	0.080718 
3238.482064  	0.080933 
3240.410880  	0.080893 
3242.339696  	0.080839 
3244.268512  	0.080610 
3246.197328  	0.080684 
3248.126144  	0.081009 
3250.054960  	0.081144 
3251.983776  	0.081345 
3253.912592  	0.081474 
3255.841408  	0.081782 
3257.770224  	0.082124 
3259.699040  	0.082397 
3261.627856  	0.082766 
3263.556672  	0.083091 
3265.485488  	0.083179 
3267.414304  	0.083168 
3269.343120  	0.083439 
3271.271936  	0.083798 
3273.200752  	0.083919 
3275.129568  	0.084035 
3277.058384  	0.084269 
3278.987200  	0.084593 
3280.916016  	0.084996 
3282.844832  	0.085219 
3284.773648  	0.085150 
3286.702464  	0.085174 
3288.631280  	0.085457 
3290.560096  	0.085964 
3292.488912  	0.086428 
3294.417728  	0.086622 
3296.346544  	0.086927 
3298.275360  	0.087192 
3300.204176  	0.087607 
3302.132992  	0.087982 
3304.061808  	0.088361 
3305.990624  	0.088922 
3307.919440  	0.089218 
3309.848256  	0.089363 
3311.777072  	0.089734 
3313.705888  	0.090180 
3315.634704  	0.090782 
3317.563520  	0.091278 
3319.492336  	0.091539 
3321.421152  	0.091754 
3323.349968  	0.092086 
3325.278784  	0.092250 
3327.207600  	0.092571 
3329.136416  	0.092569 
3331.065232  	0.092584 
3332.994048  	0.092844 
3334.922864  	0.092989 
3336.851680  	0.092942 
3338.780496  	0.092872 
3340.709312  	0.092782 
3342.638128  	0.092745 
3344.566944  	0.092430 
3346.495760  	0.092021 
3348.424576  	0.091626 
3350.353392  	0.091257 
3352.282208  	0.091079 
3354.211024  	0.091060 
3356.139840  	0.090896 
3358.068656  	0.090485 
3359.997472  	0.090151 
3361.926288  	0.089716 
3363.855104  	0.089196 
3365.783920  	0.088737 
3367.712736  	0.088457 
3369.641552  	0.088062 
3371.570368  	0.087588 
3373.499184  	0.087327 
3375.428000  	0.087170 
3377.356816  	0.086951 
3379.285632  	0.086671 
3381.214448  	0.086201 
3383.143264  	0.085670 
3385.072080  	0.085251 
3387.000896  	0.084919 
3388.929712  	0.084600 
3390.858528  	0.084377 
3392.787344  	0.084020 
3394.716160  	0.083400 
3396.644976  	0.082979 
3398.573792  	0.082556 
3400.502608  	0.082145 
3402.431424  	0.081651 
3404.360240  	0.081026 
3406.289056  	0.080458 
3408.217872  	0.080062 
3410.146688  	0.079522 
3412.075504  	0.079067 
3414.004320  	0.078785 
3415.933136  	0.078469 
3417.861952  	0.077732 
3419.790768  	0.077153 
3421.719584  	0.076509 
3423.648400  	0.075989 
3425.577216  	0.075414 
3427.506032  	0.074865 
3429.434848  	0.074490 
3431.363664  	0.073882 
3433.292480  	0.073146 
3435.221296  	0.072613 
3437.150112  	0.072218 
3439.078928  	0.071784 
3441.007744  	0.071186 
3442.936560  	0.070677 
3444.865376  	0.070403 
3446.794192  	0.069487 
3448.723008  	0.068430 
3450.651824  	0.067815 
3452.580640  	0.067134 
3454.509456  	0.066692 
3456.438272  	0.066117 
3458.367088  	0.065528 
3460.295904  	0.065002 
3462.224720  	0.064189 
3464.153536  	0.063227 
3466.082352  	0.062455 
3468.011168  	0.061390 
3469.939984  	0.060616 
3471.868800  	0.060064 
3473.797616  	0.059231 
3475.726432  	0.058258 
3477.655248  	0.057469 
3479.584064  	0.057100 
3481.512880  	0.056416 
3483.441696  	0.055114 
3485.370512  	0.054436 
3487.299328  	0.053480 
3489.228144  	0.052589 
3491.156960  	0.051900 
3493.085776  	0.051260 
3495.014592  	0.050503 
3496.943408  	0.049761 
3498.872224  	0.049338 
3500.801040  	0.049370 
3502.729856  	0.048576 
3504.658672  	0.047011 
3506.587488  	0.046420 
3508.516304  	0.046176 
3510.445120  	0.045017 
3512.373936  	0.043858 
3514.302752  	0.043253 
3516.231568  	0.042848 
3518.160384  	0.042375 
3520.089200  	0.041842 
3522.018016  	0.041593 
3523.946832  	0.041557 
3525.875648  	0.040728 
3527.804464  	0.039058 
3529.733280  	0.037931 
3531.662096  	0.037252 
3533.590912  	0.036664 
3535.519728  	0.036579 
3537.448544  	0.036130 
3539.377360  	0.035190 
3541.306176  	0.034739 
3543.234992  	0.034950 
3545.163808  	0.035392 
3547.092624  	0.034083 
3549.021440  	0.032252 
3550.950256  	0.031529 
3552.879072  	0.030832 
3554.807888  	0.030246 
3556.736704  	0.029683 
3558.665520  	0.029656 
3560.594336  	0.029415 
3562.523152  	0.028367 
3564.451968  	0.028491 
3566.380784  	0.029021 
3568.309600  	0.026561 
3570.238416  	0.025001 
3572.167232  	0.024572 
3574.096048  	0.023646 
3576.024864  	0.022696 
3577.953680  	0.022205 
3579.882496  	0.021670 
3581.811312  	0.020947 
3583.740128  	0.020601 
3585.668944  	0.020846 
3587.597760  	0.019306 
3589.526576  	0.017286 
3591.455392  	0.016848 
3593.384208  	0.016400 
3595.313024  	0.015187 
3597.241840  	0.013934 
3599.170656  	0.012459 
3601.099472  	0.011114 
3603.028288  	0.011432 
3604.957104  	0.012083 
3606.885920  	0.011399 
3608.814736  	0.009693 
3610.743552  	0.009504 
3612.672368  	0.008831 
3614.601184  	0.007570 
3616.530000  	0.007433 
3618.458816  	0.005065 
3620.387632  	0.002942 
3622.316448  	0.003567 
3624.245264  	0.004064 
3626.174080  	0.004245 
3628.102896  	0.001555 
3630.031712  	-0.002218 
3631.960528  	0.000546 
3633.889344  	0.001116 
3635.818160  	0.000709 
3637.746976  	0.000388 
3639.675792  	0.000758 
3641.604608  	0.001512 
3643.533424  	0.001825 
3645.462240  	0.001746 
3647.391056  	-0.001530 
3649.319872  	-0.006472 
3651.248688  	-0.006548 
3653.177504  	-0.002007 
3655.106320  	-0.001245 
3657.035136  	-0.002967 
3658.963952  	-0.001531 
3660.892768  	-0.000641 
3662.821584  	-0.000691 
3664.750400  	-0.000918 
3666.679216  	-0.000909 
3668.608032  	-0.003437 
3670.536848  	-0.007961 
3672.465664  	-0.005573 
3674.394480  	-0.005850 
3676.323296  	-0.010893 
3678.252112  	-0.008650 
3680.180928  	-0.007501 
3682.109744  	-0.005913 
3684.038560  	-0.005277 
3685.967376  	-0.005624 
3687.896192  	-0.009359 
3689.825008  	-0.013879 
3691.753824  	-0.012807 
3693.682640  	-0.010112 
3695.611456  	-0.009534 
3697.540272  	-0.009850 
3699.469088  	-0.010271 
3701.397904  	-0.012890 
3703.326720  	-0.014155 
3705.255536  	-0.013037 
3707.184352  	-0.013176 
3709.113168  	-0.015807 
3711.041984  	-0.019029 
3712.970800  	-0.018062 
3714.899616  	-0.014175 
3716.828432  	-0.013023 
3718.757248  	-0.013958 
3720.686064  	-0.014837 
3722.614880  	-0.015649 
3724.543696  	-0.015186 
3726.472512  	-0.015718 
3728.401328  	-0.015826 
3730.330144  	-0.016351 
3732.258960  	-0.018816 
3734.187776  	-0.018052 
3736.116592  	-0.018766 
3738.045408  	-0.018320 
3739.974224  	-0.015603 
3741.903040  	-0.013864 
3743.831856  	-0.016936 
3745.760672  	-0.020279 
3747.689488  	-0.017415 
3749.618304  	-0.020762 
3751.547120  	-0.023261 
3753.475936  	-0.019682 
3755.404752  	-0.015977 
3757.333568  	-0.015460 
3759.262384  	-0.016596 
3761.191200  	-0.016344 
3763.120016  	-0.014014 
3765.048832  	-0.014790 
3766.977648  	-0.015136 
3768.906464  	-0.016150 
3770.835280  	-0.017117 
3772.764096  	-0.014970 
3774.692912  	-0.013861 
3776.621728  	-0.013622 
3778.550544  	-0.015229 
3780.479360  	-0.016633 
3782.408176  	-0.014667 
3784.336992  	-0.014691 
3786.265808  	-0.014596 
3788.194624  	-0.014000 
3790.123440  	-0.013936 
3792.052256  	-0.013869 
3793.981072  	-0.013795 
3795.909888  	-0.015687 
3797.838704  	-0.015868 
3799.767520  	-0.016208 
3801.696336  	-0.021526 
3803.625152  	-0.019058 
3805.553968  	-0.017052 
3807.482784  	-0.019051 
3809.411600  	-0.016042 
3811.340416  	-0.014027 
3813.269232  	-0.013793 
3815.198048  	-0.017154 
3817.126864  	-0.019259 
3819.055680  	-0.017164 
3820.984496  	-0.021113 
3822.913312  	-0.019476 
3824.842128  	-0.015442 
3826.770944  	-0.015899 
3828.699760  	-0.015179 
3830.628576  	-0.015326 
3832.557392  	-0.016491 
3834.486208  	-0.016535 
3836.415024  	-0.018123 
3838.343840  	-0.020151 
3840.272656  	-0.018957 
3842.201472  	-0.016701 
3844.130288  	-0.015981 
3846.059104  	-0.014636 
3847.987920  	-0.013521 
3849.916736  	-0.013613 
3851.845552  	-0.016771 
3853.774368  	-0.023927 
3855.703184  	-0.020210 
3857.632000  	-0.015907 
3859.560816  	-0.014020 
3861.489632  	-0.014053 
3863.418448  	-0.015423 
3865.347264  	-0.016252 
3867.276080  	-0.014250 
3869.204896  	-0.015516 
3871.133712  	-0.016536 
3873.062528  	-0.015022 
3874.991344  	-0.015712 
3876.920160  	-0.013548 
3878.848976  	-0.012860 
3880.777792  	-0.014321 
3882.706608  	-0.013360 
3884.635424  	-0.013580 
3886.564240  	-0.015446 
3888.493056  	-0.013885 
3890.421872  	-0.014417 
3892.350688  	-0.015856 
3894.279504  	-0.014241 
3896.208320  	-0.012684 
3898.137136  	-0.012741 
3900.065952  	-0.013638 
3901.994768  	-0.013690 
3903.923584  	-0.014776 
3905.852400  	-0.015279 
3907.781216  	-0.014459 
3909.710032  	-0.013847 
3911.638848  	-0.013587 
3913.567664  	-0.013097 
3915.496480  	-0.012471 
3917.425296  	-0.012915 
3919.354112  	-0.013627 
3921.282928  	-0.013479 
3923.211744  	-0.012638 
3925.140560  	-0.012900 
3927.069376  	-0.013249 
3928.998192  	-0.013110 
3930.927008  	-0.012647 
3932.855824  	-0.012612 
3934.784640  	-0.013198 
3936.713456  	-0.013328 
3938.642272  	-0.013022 
3940.571088  	-0.012533 
3942.499904  	-0.012625 
3944.428720  	-0.013023 
3946.357536  	-0.012512 
3948.286352  	-0.012221 
3950.215168  	-0.013085 
3952.143984  	-0.013953 
3954.072800  	-0.013945 
3956.001616  	-0.013438 
3957.930432  	-0.013386 
3959.859248  	-0.013281 
3961.788064  	-0.013192 
3963.716880  	-0.013545 
3965.645696  	-0.013806 
3967.574512  	-0.013634 
3969.503328  	-0.013318 
3971.432144  	-0.013352 
3973.360960  	-0.013440 
3975.289776  	-0.013391 
3977.218592  	-0.013343 
3979.147408  	-0.013327 
3981.076224  	-0.013272 
3983.005040  	-0.013415 
3984.933856  	-0.013576 
3986.862672  	-0.013543 
3988.791488  	-0.013108 
3990.720304  	-0.012874 
3992.649120  	-0.013143 
3994.577936  	-0.013474 
3996.506752  	-0.013584 
3998.435568  	-0.013539 
4000.364384  	-0.013402 