##TITLE=No Description
##DATA TYPE=INFRARED SPECTRUM
##XUNITS=1/CM
##YUNITS=Abs
399.264912  	0.640809 
401.193728  	0.631933 
403.122544  	0.628188 
405.051360  	0.608381 
406.980176  	0.597168 
408.908992  	0.578592 
410.837808  	0.576095 
412.766624  	0.575195 
414.695440  	0.591117 
416.624256  	0.598628 
418.553072  	0.595939 
420.481888  	0.582617 
422.410704  	0.578137 
424.339520  	0.565879 
426.268336  	0.554619 
428.197152  	0.550814 
430.125968  	0.555057 
432.054784  	0.554961 
433.983600  	0.559603 
435.912416  	0.552109 
437.841232  	0.548167 
439.770048  	0.544394 
441.698864  	0.545870 
443.627680  	0.544547 
445.556496  	0.540143 
447.485312  	0.529140 
449.414128  	0.529204 
451.342944  	0.526679 
453.271760  	0.524583 
455.200576  	0.523800 
457.129392  	0.531398 
459.058208  	0.532737 
460.987024  	0.535274 
462.915840  	0.530227 
464.844656  	0.528995 
466.773472  	0.524600 
468.702288  	0.522438 
470.631104  	0.520799 
472.559920  	0.521532 
474.488736  	0.516541 
476.417552  	0.519638 
478.346368  	0.517673 
480.275184  	0.520357 
482.204000  	0.516838 
484.132816  	0.513294 
486.061632  	0.512358 
487.990448  	0.516277 
489.919264  	0.513759 
491.848080  	0.511863 
493.776896  	0.507420 
495.705712  	0.506242 
497.634528  	0.503225 
499.563344  	0.504855 
501.492160  	0.505508 
503.420976  	0.506943 
505.349792  	0.503589 
507.278608  	0.504069 
509.207424  	0.502820 
511.136240  	0.504212 
513.065056  	0.505909 
514.993872  	0.506885 
516.922688  	0.506825 
518.851504  	0.508767 
520.780320  	0.508200 
522.709136  	0.507274 
524.637952  	0.504551 
526.566768  	0.503606 
528.495584  	0.502127 
530.424400  	0.501335 
532.353216  	0.497413 
534.282032  	0.492947 
536.210848  	0.486659 
538.139664  	0.481628 
540.068480  	0.476022 
541.997296  	0.472988 
543.926112  	0.468825 
545.854928  	0.465136 
547.783744  	0.460396 
549.712560  	0.457094 
551.641376  	0.453168 
553.570192  	0.449334 
555.499008  	0.446426 
557.427824  	0.444231 
559.356640  	0.441091 
561.285456  	0.438918 
563.214272  	0.434655 
565.143088  	0.431004 
567.071904  	0.427783 
569.000720  	0.424414 
570.929536  	0.421193 
572.858352  	0.418996 
574.787168  	0.416130 
576.715984  	0.414756 
578.644800  	0.412124 
580.573616  	0.408427 
582.502432  	0.402457 
584.431248  	0.398574 
586.360064  	0.395218 
588.288880  	0.392955 
590.217696  	0.390621 
592.146512  	0.388037 
594.075328  	0.385228 
596.004144  	0.383787 
597.932960  	0.381851 
599.861776  	0.379985 
601.790592  	0.377187 
603.719408  	0.376081 
605.648224  	0.375302 
607.577040  	0.373964 
609.505856  	0.371906 
611.434672  	0.370365 
613.363488  	0.368921 
615.292304  	0.367968 
617.221120  	0.365492 
619.149936  	0.364364 
621.078752  	0.363103 
623.007568  	0.361962 
624.936384  	0.360757 
626.865200  	0.359045 
628.794016  	0.357428 
630.722832  	0.356546 
632.651648  	0.355810 
634.580464  	0.356121 
636.509280  	0.356006 
638.438096  	0.355354 
640.366912  	0.354331 
642.295728  	0.352389 
644.224544  	0.348910 
646.153360  	0.345124 
648.082176  	0.341068 
650.010992  	0.337468 
651.939808  	0.333259 
653.868624  	0.329391 
655.797440  	0.325887 
657.726256  	0.322389 
659.655072  	0.318643 
661.583888  	0.314705 
663.512704  	0.311044 
665.441520  	0.308450 
667.370336  	0.299845 
669.299152  	0.293204 
671.227968  	0.294353 
673.156784  	0.291847 
675.085600  	0.288757 
677.014416  	0.286275 
678.943232  	0.283980 
680.872048  	0.281843 
682.800864  	0.280293 
684.729680  	0.279458 
686.658496  	0.277956 
688.587312  	0.276801 
690.516128  	0.275863 
692.444944  	0.275162 
694.373760  	0.274277 
696.302576  	0.272234 
698.231392  	0.269782 
700.160208  	0.267847 
702.089024  	0.266090 
704.017840  	0.263758 
705.946656  	0.261016 
707.875472  	0.258778 
709.804288  	0.256681 
711.733104  	0.254720 
713.661920  	0.252938 
715.590736  	0.251709 
717.519552  	0.250860 
719.448368  	0.250473 
721.377184  	0.250771 
723.306000  	0.251545 
725.234816  	0.251521 
727.163632  	0.250712 
729.092448  	0.248546 
731.021264  	0.245411 
732.950080  	0.242318 
734.878896  	0.239275 
736.807712  	0.236436 
738.736528  	0.234244 
740.665344  	0.232338 
742.594160  	0.230471 
744.522976  	0.228825 
746.451792  	0.227140 
748.380608  	0.225802 
750.309424  	0.224655 
752.238240  	0.223324 
754.167056  	0.222360 
756.095872  	0.221178 
758.024688  	0.220076 
759.953504  	0.219679 
761.882320  	0.220372 
763.811136  	0.220532 
765.739952  	0.219440 
767.668768  	0.217200 
769.597584  	0.214861 
771.526400  	0.213738 
773.455216  	0.214811 
775.384032  	0.217846 
777.312848  	0.222206 
779.241664  	0.225967 
781.170480  	0.226139 
783.099296  	0.222443 
785.028112  	0.216907 
786.956928  	0.211383 
788.885744  	0.207108 
790.814560  	0.203905 
792.743376  	0.201146 
794.672192  	0.199450 
796.601008  	0.198416 
798.529824  	0.195889 
800.458640  	0.192023 
802.387456  	0.188377 
804.316272  	0.185921 
806.245088  	0.184694 
808.173904  	0.183656 
810.102720  	0.182932 
812.031536  	0.183041 
813.960352  	0.183533 
815.889168  	0.183548 
817.817984  	0.183543 
819.746800  	0.183822 
821.675616  	0.183896 
823.604432  	0.183529 
825.533248  	0.183102 
827.462064  	0.182331 
829.390880  	0.181477 
831.319696  	0.180186 
833.248512  	0.178203 
835.177328  	0.175819 
837.106144  	0.173248 
839.034960  	0.170176 
840.963776  	0.166833 
842.892592  	0.163514 
844.821408  	0.160226 
846.750224  	0.157112 
848.679040  	0.154896 
850.607856  	0.153323 
852.536672  	0.151959 
854.465488  	0.150947 
856.394304  	0.150485 
858.323120  	0.150093 
860.251936  	0.149112 
862.180752  	0.147866 
864.109568  	0.146236 
866.038384  	0.144616 
867.967200  	0.143240 
869.896016  	0.141714 
871.824832  	0.140733 
873.753648  	0.140169 
875.682464  	0.140603 
877.611280  	0.142588 
879.540096  	0.144984 
881.468912  	0.145630 
883.397728  	0.146457 
885.326544  	0.147133 
887.255360  	0.147425 
889.184176  	0.147317 
891.112992  	0.147094 
893.041808  	0.145000 
894.970624  	0.141801 
896.899440  	0.138570 
898.828256  	0.134318 
900.757072  	0.129995 
902.685888  	0.126278 
904.614704  	0.123536 
906.543520  	0.122513 
908.472336  	0.122878 
910.401152  	0.124524 
912.329968  	0.126453 
914.258784  	0.128686 
916.187600  	0.130846 
918.116416  	0.132828 
920.045232  	0.133863 
921.974048  	0.134340 
923.902864  	0.134573 
925.831680  	0.134446 
927.760496  	0.134392 
929.689312  	0.134660 
931.618128  	0.135161 
933.546944  	0.135361 
935.475760  	0.135480 
937.404576  	0.135294 
939.333392  	0.134824 
941.262208  	0.134862 
943.191024  	0.136167 
945.119840  	0.139441 
947.048656  	0.144831 
948.977472  	0.152122 
950.906288  	0.160844 
952.835104  	0.170840 
954.763920  	0.181533 
956.692736  	0.191809 
958.621552  	0.200658 
960.550368  	0.206918 
962.479184  	0.209982 
964.408000  	0.209396 
966.336816  	0.205123 
968.265632  	0.197375 
970.194448  	0.186762 
972.123264  	0.174661 
974.052080  	0.161976 
975.980896  	0.149390 
977.909712  	0.137634 
979.838528  	0.127131 
981.767344  	0.118504 
983.696160  	0.112117 
985.624976  	0.108225 
987.553792  	0.107050 
989.482608  	0.108484 
991.411424  	0.112130 
993.340240  	0.117394 
995.269056  	0.124084 
997.197872  	0.131271 
999.126688  	0.138613 
1001.055504  	0.146155 
1002.984320  	0.154337 
1004.913136  	0.162488 
1006.841952  	0.170313 
1008.770768  	0.177229 
1010.699584  	0.183189 
1012.628400  	0.187791 
1014.557216  	0.190823 
1016.486032  	0.192747 
1018.414848  	0.193888 
1020.343664  	0.194467 
1022.272480  	0.194596 
1024.201296  	0.195742 
1026.130112  	0.200015 
1028.058928  	0.202705 
1029.987744  	0.200912 
1031.916560  	0.203639 
1033.845376  	0.210013 
1035.774192  	0.218948 
1037.703008  	0.228426 
1039.631824  	0.237015 
1041.560640  	0.248663 
1043.489456  	0.263602 
1045.418272  	0.280605 
1047.347088  	0.298227 
1049.275904  	0.313984 
1051.204720  	0.326593 
1053.133536  	0.334029 
1055.062352  	0.338305 
1056.991168  	0.340287 
1058.919984  	0.337223 
1060.848800  	0.331876 
1062.777616  	0.331608 
1064.706432  	0.334596 
1066.635248  	0.333390 
1068.564064  	0.321949 
1070.492880  	0.312768 
1072.421696  	0.307239 
1074.350512  	0.303823 
1076.279328  	0.301551 
1078.208144  	0.301043 
1080.136960  	0.301441 
1082.065776  	0.301952 
1083.994592  	0.300380 
1085.923408  	0.296190 
1087.852224  	0.289201 
1089.781040  	0.280127 
1091.709856  	0.268086 
1093.638672  	0.256332 
1095.567488  	0.244798 
1097.496304  	0.232346 
1099.425120  	0.219090 
1101.353936  	0.205842 
1103.282752  	0.192316 
1105.211568  	0.178872 
1107.140384  	0.165554 
1109.069200  	0.152897 
1110.998016  	0.140794 
1112.926832  	0.130076 
1114.855648  	0.120400 
1116.784464  	0.111045 
1118.713280  	0.102294 
1120.642096  	0.094466 
1122.570912  	0.087296 
1124.499728  	0.080477 
1126.428544  	0.074603 
1128.357360  	0.069477 
1130.286176  	0.065252 
1132.214992  	0.061550 
1134.143808  	0.058686 
1136.072624  	0.056170 
1138.001440  	0.053830 
1139.930256  	0.051356 
1141.859072  	0.048833 
1143.787888  	0.046235 
1145.716704  	0.043997 
1147.645520  	0.041734 
1149.574336  	0.039918 
1151.503152  	0.038533 
1153.431968  	0.037880 
1155.360784  	0.037853 
1157.289600  	0.038606 
1159.218416  	0.039984 
1161.147232  	0.041914 
1163.076048  	0.043800 
1165.004864  	0.046016 
1166.933680  	0.048079 
1168.862496  	0.050252 
1170.791312  	0.052377 
1172.720128  	0.055051 
1174.648944  	0.057600 
1176.577760  	0.060154 
1178.506576  	0.062729 
1180.435392  	0.065535 
1182.364208  	0.068140 
1184.293024  	0.071346 
1186.221840  	0.074953 
1188.150656  	0.078859 
1190.079472  	0.083304 
1192.008288  	0.088891 
1193.937104  	0.095610 
1195.865920  	0.103134 
1197.794736  	0.111419 
1199.723552  	0.120318 
1201.652368  	0.129495 
1203.581184  	0.138950 
1205.510000  	0.148309 
1207.438816  	0.157210 
1209.367632  	0.165829 
1211.296448  	0.173653 
1213.225264  	0.180496 
1215.154080  	0.185922 
1217.082896  	0.190635 
1219.011712  	0.194408 
1220.940528  	0.197492 
1222.869344  	0.199627 
1224.798160  	0.201035 
1226.726976  	0.201387 
1228.655792  	0.201076 
1230.584608  	0.199498 
1232.513424  	0.196681 
1234.442240  	0.192564 
1236.371056  	0.187927 
1238.299872  	0.183012 
1240.228688  	0.179555 
1242.157504  	0.173971 
1244.086320  	0.165558 
1246.015136  	0.158484 
1247.943952  	0.152618 
1249.872768  	0.146220 
1251.801584  	0.138560 
1253.730400  	0.131057 
1255.659216  	0.123693 
1257.588032  	0.116718 
1259.516848  	0.109679 
1261.445664  	0.102785 
1263.374480  	0.096212 
1265.303296  	0.090483 
1267.232112  	0.085457 
1269.160928  	0.081392 
1271.089744  	0.078184 
1273.018560  	0.076118 
1274.947376  	0.074932 
1276.876192  	0.074455 
1278.805008  	0.073764 
1280.733824  	0.072295 
1282.662640  	0.069868 
1284.591456  	0.067248 
1286.520272  	0.065086 
1288.449088  	0.063680 
1290.377904  	0.062615 
1292.306720  	0.062625 
1294.235536  	0.062782 
1296.164352  	0.062181 
1298.093168  	0.060029 
1300.021984  	0.057257 
1301.950800  	0.054280 
1303.879616  	0.051486 
1305.808432  	0.048373 
1307.737248  	0.045354 
1309.666064  	0.042311 
1311.594880  	0.040324 
1313.523696  	0.038661 
1315.452512  	0.037465 
1317.381328  	0.036836 
1319.310144  	0.036578 
1321.238960  	0.036505 
1323.167776  	0.037132 
1325.096592  	0.037896 
1327.025408  	0.038467 
1328.954224  	0.038433 
1330.883040  	0.038031 
1332.811856  	0.037143 
1334.740672  	0.036841 
1336.669488  	0.037355 
1338.598304  	0.038105 
1340.527120  	0.036590 
1342.455936  	0.034688 
1344.384752  	0.034340 
1346.313568  	0.034831 
1348.242384  	0.035620 
1350.171200  	0.037105 
1352.100016  	0.039123 
1354.028832  	0.041618 
1355.957648  	0.043976 
1357.886464  	0.046702 
1359.815280  	0.049948 
1361.744096  	0.053499 
1363.672912  	0.055519 
1365.601728  	0.057376 
1367.530544  	0.059989 
1369.459360  	0.062050 
1371.388176  	0.063676 
1373.316992  	0.064321 
1375.245808  	0.062654 
1377.174624  	0.061966 
1379.103440  	0.060760 
1381.032256  	0.058666 
1382.961072  	0.056505 
1384.889888  	0.055270 
1386.818704  	0.053241 
1388.747520  	0.049820 
1390.676336  	0.049494 
1392.605152  	0.053072 
1394.533968  	0.053271 
1396.462784  	0.048498 
1398.391600  	0.047154 
1400.320416  	0.047454 
1402.249232  	0.050108 
1404.178048  	0.052669 
1406.106864  	0.053838 
1408.035680  	0.054962 
1409.964496  	0.056010 
1411.893312  	0.056363 
1413.822128  	0.056678 
1415.750944  	0.058254 
1417.679760  	0.058599 
1419.608576  	0.054535 
1421.537392  	0.053358 
1423.466208  	0.052964 
1425.395024  	0.050362 
1427.323840  	0.048669 
1429.252656  	0.045521 
1431.181472  	0.043266 
1433.110288  	0.043562 
1435.039104  	0.044524 
1436.967920  	0.043105 
1438.896736  	0.043404 
1440.825552  	0.044803 
1442.754368  	0.045291 
1444.683184  	0.045606 
1446.612000  	0.045733 
1448.540816  	0.045601 
1450.469632  	0.046897 
1452.398448  	0.047803 
1454.327264  	0.048553 
1456.256080  	0.045658 
1458.184896  	0.039970 
1460.113712  	0.042211 
1462.042528  	0.044425 
1463.971344  	0.043563 
1465.900160  	0.043196 
1467.828976  	0.046172 
1469.757792  	0.049472 
1471.686608  	0.051516 
1473.615424  	0.055967 
1475.544240  	0.063002 
1477.473056  	0.068484 
1479.401872  	0.072493 
1481.330688  	0.075566 
1483.259504  	0.077394 
1485.188320  	0.078823 
1487.117136  	0.078282 
1489.045952  	0.077292 
1490.974768  	0.073672 
1492.903584  	0.071914 
1494.832400  	0.068863 
1496.761216  	0.061031 
1498.690032  	0.054774 
1500.618848  	0.051797 
1502.547664  	0.048745 
1504.476480  	0.044251 
1506.405296  	0.036217 
1508.334112  	0.034598 
1510.262928  	0.035900 
1512.191744  	0.033948 
1514.120560  	0.033061 
1516.049376  	0.032077 
1517.978192  	0.029994 
1519.907008  	0.031166 
1521.835824  	0.029785 
1523.764640  	0.034642 
1525.693456  	0.039707 
1527.622272  	0.041633 
1529.551088  	0.042609 
1531.479904  	0.042731 
1533.408720  	0.037648 
1535.337536  	0.034927 
1537.266352  	0.033834 
1539.195168  	0.023935 
1541.123984  	0.015508 
1543.052800  	0.020710 
1544.981616  	0.022719 
1546.910432  	0.022588 
1548.839248  	0.023462 
1550.768064  	0.023333 
1552.696880  	0.022833 
1554.625696  	0.022435 
1556.554512  	0.021980 
1558.483328  	0.016709 
1560.412144  	0.020525 
1562.340960  	0.030255 
1564.269776  	0.034440 
1566.198592  	0.039417 
1568.127408  	0.043172 
1570.056224  	0.046625 
1571.985040  	0.054545 
1573.913856  	0.059741 
1575.842672  	0.058908 
1577.771488  	0.061704 
1579.700304  	0.065477 
1581.629120  	0.065771 
1583.557936  	0.065285 
1585.486752  	0.065970 
1587.415568  	0.068054 
1589.344384  	0.072066 
1591.273200  	0.077507 
1593.202016  	0.084096 
1595.130832  	0.091078 
1597.059648  	0.098707 
1598.988464  	0.105499 
1600.917280  	0.111354 
1602.846096  	0.115195 
1604.774912  	0.117810 
1606.703728  	0.118312 
1608.632544  	0.117249 
1610.561360  	0.115410 
1612.490176  	0.114253 
1614.418992  	0.112160 
1616.347808  	0.107143 
1618.276624  	0.107779 
1620.205440  	0.114024 
1622.134256  	0.116578 
1624.063072  	0.120571 
1625.991888  	0.128073 
1627.920704  	0.135505 
1629.849520  	0.144995 
1631.778336  	0.154969 
1633.707152  	0.161137 
1635.635968  	0.164789 
1637.564784  	0.174782 
1639.493600  	0.185352 
1641.422416  	0.191525 
1643.351232  	0.195965 
1645.280048  	0.195710 
1647.208864  	0.191966 
1649.137680  	0.194986 
1651.066496  	0.198131 
1652.995312  	0.186937 
1654.924128  	0.186011 
1656.852944  	0.190906 
1658.781760  	0.190390 
1660.710576  	0.186955 
1662.639392  	0.180370 
1664.568208  	0.176655 
1666.497024  	0.176064 
1668.425840  	0.169888 
1670.354656  	0.161004 
1672.283472  	0.159184 
1674.212288  	0.156927 
1676.141104  	0.150958 
1678.069920  	0.151616 
1679.998736  	0.151639 
1681.927552  	0.150202 
1683.856368  	0.141912 
1685.785184  	0.139979 
1687.714000  	0.145280 
1689.642816  	0.145098 
1691.571632  	0.143553 
1693.500448  	0.143367 
1695.429264  	0.137971 
1697.358080  	0.134076 
1699.286896  	0.132512 
1701.215712  	0.125718 
1703.144528  	0.127567 
1705.073344  	0.123790 
1707.002160  	0.117858 
1708.930976  	0.115059 
1710.859792  	0.110089 
1712.788608  	0.104070 
1714.717424  	0.095588 
1716.646240  	0.083812 
1718.575056  	0.069840 
1720.503872  	0.064204 
1722.432688  	0.058927 
1724.361504  	0.049995 
1726.290320  	0.042653 
1728.219136  	0.036864 
1730.147952  	0.031529 
1732.076768  	0.026687 
1734.005584  	0.018239 
1735.934400  	0.013421 
1737.863216  	0.014589 
1739.792032  	0.010420 
1741.720848  	0.009795 
1743.649664  	0.009987 
1745.578480  	0.009149 
1747.507296  	0.007288 
1749.436112  	0.006436 
1751.364928  	0.005387 
1753.293744  	0.004890 
1755.222560  	0.005001 
1757.151376  	0.004151 
1759.080192  	0.003698 
1761.009008  	0.002997 
1762.937824  	0.001281 
1764.866640  	0.002321 
1766.795456  	0.003111 
1768.724272  	0.002232 
1770.653088  	-0.000830 
1772.581904  	-0.004535 
1774.510720  	-0.002217 
1776.439536  	0.000280 
1778.368352  	0.000759 
1780.297168  	0.000287 
1782.225984  	-0.000159 
1784.154800  	0.000602 
1786.083616  	-0.000167 
1788.012432  	-0.000016 
1789.941248  	0.000368 
1791.870064  	-0.001693 
1793.798880  	-0.003194 
1795.727696  	-0.001023 
1797.656512  	-0.001320 
1799.585328  	-0.001649 
1801.514144  	-0.001105 
1803.442960  	-0.001145 
1805.371776  	-0.001808 
1807.300592  	-0.001422 
1809.229408  	-0.002116 
1811.158224  	-0.002609 
1813.087040  	-0.002655 
1815.015856  	-0.002201 
1816.944672  	-0.001913 
1818.873488  	-0.001856 
1820.802304  	-0.002193 
1822.731120  	-0.001637 
1824.659936  	-0.002497 
1826.588752  	-0.003155 
1828.517568  	-0.003842 
1830.446384  	-0.004603 
1832.375200  	-0.003304 
1834.304016  	-0.002236 
1836.232832  	-0.002574 
1838.161648  	-0.002539 
1840.090464  	-0.002452 
1842.019280  	-0.001472 
1843.948096  	-0.003277 
1845.876912  	-0.003477 
1847.805728  	-0.002409 
1849.734544  	-0.002488 
1851.663360  	-0.002789 
1853.592176  	-0.002868 
1855.520992  	-0.003176 
1857.449808  	-0.002828 
1859.378624  	-0.002842 
1861.307440  	-0.002711 
1863.236256  	-0.003001 
1865.165072  	-0.002750 
1867.093888  	-0.003140 
1869.022704  	-0.003958 
1870.951520  	-0.003992 
1872.880336  	-0.003129 
1874.809152  	-0.003337 
1876.737968  	-0.003405 
1878.666784  	-0.003581 
1880.595600  	-0.002929 
1882.524416  	-0.003013 
1884.453232  	-0.002851 
1886.382048  	-0.003214 
1888.310864  	-0.003134 
1890.239680  	-0.003578 
1892.168496  	-0.003094 
1894.097312  	-0.003125 
1896.026128  	-0.003004 
1897.954944  	-0.003206 
1899.883760  	-0.002825 
1901.812576  	-0.003034 
1903.741392  	-0.003227 
1905.670208  	-0.003008 
1907.599024  	-0.002198 
1909.527840  	-0.002656 
1911.456656  	-0.002423 
1913.385472  	-0.002348 
1915.314288  	-0.001890 
1917.243104  	-0.002574 
1919.171920  	-0.002893 
1921.100736  	-0.002324 
1923.029552  	-0.001840 
1924.958368  	-0.002661 
1926.887184  	-0.002325 
1928.816000  	-0.002588 
1930.744816  	-0.002519 
1932.673632  	-0.002798 
1934.602448  	-0.002412 
1936.531264  	-0.002240 
1938.460080  	-0.001939 
1940.388896  	-0.002494 
1942.317712  	-0.002494 
1944.246528  	-0.003322 
1946.175344  	-0.002925 
1948.104160  	-0.002858 
1950.032976  	-0.002369 
1951.961792  	-0.003102 
1953.890608  	-0.002851 
1955.819424  	-0.003042 
1957.748240  	-0.002268 
1959.677056  	-0.003115 
1961.605872  	-0.002920 
1963.534688  	-0.003972 
1965.463504  	-0.003723 
1967.392320  	-0.003944 
1969.321136  	-0.002631 
1971.249952  	-0.002744 
1973.178768  	-0.002516 
1975.107584  	-0.003748 
1977.036400  	-0.003175 
1978.965216  	-0.002081 
1980.894032  	-0.001862 
1982.822848  	-0.003422 
1984.751664  	-0.003218 
1986.680480  	-0.003358 
1988.609296  	-0.002604 
1990.538112  	-0.003183 
1992.466928  	-0.002725 
1994.395744  	-0.003627 
1996.324560  	-0.003544 
1998.253376  	-0.003879 
2000.182192  	-0.003981 
2002.111008  	-0.004456 
2004.039824  	-0.003111 
2005.968640  	-0.003541 
2007.897456  	-0.003097 
2009.826272  	-0.003455 
2011.755088  	-0.002547 
2013.683904  	-0.003127 
2015.612720  	-0.002634 
2017.541536  	-0.002481 
2019.470352  	-0.001752 
2021.399168  	-0.002822 
2023.327984  	-0.003778 
2025.256800  	-0.003954 
2027.185616  	-0.002410 
2029.114432  	-0.002593 
2031.043248  	-0.002320 
2032.972064  	-0.002341 
2034.900880  	-0.001517 
2036.829696  	-0.002352 
2038.758512  	-0.001426 
2040.687328  	-0.001583 
2042.616144  	-0.001617 
2044.544960  	-0.002887 
2046.473776  	-0.002591 
2048.402592  	-0.002767 
2050.331408  	-0.002627 
2052.260224  	-0.003235 
2054.189040  	-0.003302 
2056.117856  	-0.003456 
2058.046672  	-0.003112 
2059.975488  	-0.003412 
2061.904304  	-0.003561 
2063.833120  	-0.003297 
2065.761936  	-0.002774 
2067.690752  	-0.003525 
2069.619568  	-0.003010 
2071.548384  	-0.002929 
2073.477200  	-0.002894 
2075.406016  	-0.002868 
2077.334832  	-0.002576 
2079.263648  	-0.002616 
2081.192464  	-0.002527 
2083.121280  	-0.002806 
2085.050096  	-0.002611 
2086.978912  	-0.002942 
2088.907728  	-0.002797 
2090.836544  	-0.002919 
2092.765360  	-0.002700 
2094.694176  	-0.002509 
2096.622992  	-0.002050 
2098.551808  	-0.002104 
2100.480624  	-0.001972 
2102.409440  	-0.002259 
2104.338256  	-0.002306 
2106.267072  	-0.001929 
2108.195888  	-0.001673 
2110.124704  	-0.002120 
2112.053520  	-0.001779 
2113.982336  	-0.001738 
2115.911152  	-0.001595 
2117.839968  	-0.001797 
2119.768784  	-0.002133 
2121.697600  	-0.002490 
2123.626416  	-0.002363 
2125.555232  	-0.002635 
2127.484048  	-0.002455 
2129.412864  	-0.002728 
2131.341680  	-0.002679 
2133.270496  	-0.002735 
2135.199312  	-0.002547 
2137.128128  	-0.002200 
2139.056944  	-0.002053 
2140.985760  	-0.002919 
2142.914576  	-0.002428 
2144.843392  	-0.001759 
2146.772208  	-0.001351 
2148.701024  	-0.002258 
2150.629840  	-0.001164 
2152.558656  	-0.000966 
2154.487472  	-0.001905 
2156.416288  	-0.002827 
2158.345104  	-0.001726 
2160.273920  	-0.000070 
2162.202736  	0.001357 
2164.131552  	0.000662 
2166.060368  	0.000302 
2167.989184  	0.000192 
2169.918000  	0.000197 
2171.846816  	-0.000850 
2173.775632  	0.000163 
2175.704448  	0.000284 
2177.633264  	-0.000855 
2179.562080  	-0.001905 
2181.490896  	-0.001627 
2183.419712  	-0.001903 
2185.348528  	-0.001711 
2187.277344  	-0.001559 
2189.206160  	-0.001547 
2191.134976  	-0.002081 
2193.063792  	-0.001605 
2194.992608  	-0.001833 
2196.921424  	-0.002185 
2198.850240  	-0.002325 
2200.779056  	-0.002175 
2202.707872  	-0.002466 
2204.636688  	-0.002292 
2206.565504  	-0.001786 
2208.494320  	-0.001638 
2210.423136  	-0.002459 
2212.351952  	-0.002622 
2214.280768  	-0.002764 
2216.209584  	-0.002340 
2218.138400  	-0.002841 
2220.067216  	-0.002730 
2221.996032  	-0.002516 
2223.924848  	-0.002172 
2225.853664  	-0.002411 
2227.782480  	-0.002785 
2229.711296  	-0.003414 
2231.640112  	-0.003430 
2233.568928  	-0.003394 
2235.497744  	-0.002725 
2237.426560  	-0.003026 
2239.355376  	-0.003472 
2241.284192  	-0.003757 
2243.213008  	-0.003433 
2245.141824  	-0.003485 
2247.070640  	-0.003167 
2248.999456  	-0.003239 
2250.928272  	-0.003402 
2252.857088  	-0.003712 
2254.785904  	-0.003748 
2256.714720  	-0.004213 
2258.643536  	-0.004302 
2260.572352  	-0.004501 
2262.501168  	-0.004392 
2264.429984  	-0.004258 
2266.358800  	-0.004232 
2268.287616  	-0.004293 
2270.216432  	-0.004164 
2272.145248  	-0.004370 
2274.074064  	-0.004587 
2276.002880  	-0.004619 
2277.931696  	-0.004090 
2279.860512  	-0.003842 
2281.789328  	-0.003588 
2283.718144  	-0.003500 
2285.646960  	-0.003294 
2287.575776  	-0.003482 
2289.504592  	-0.003917 
2291.433408  	-0.004222 
2293.362224  	-0.003926 
2295.291040  	-0.003679 
2297.219856  	-0.003584 
2299.148672  	-0.003814 
2301.077488  	-0.003593 
2303.006304  	-0.003649 
2304.935120  	-0.003816 
2306.863936  	-0.004117 
2308.792752  	-0.004579 
2310.721568  	-0.005487 
2312.650384  	-0.006492 
2314.579200  	-0.007766 
2316.508016  	-0.009073 
2318.436832  	-0.010908 
2320.365648  	-0.013245 
2322.294464  	-0.015687 
2324.223280  	-0.018234 
2326.152096  	-0.021248 
2328.080912  	-0.023582 
2330.009728  	-0.026032 
2331.938544  	-0.028491 
2333.867360  	-0.030504 
2335.796176  	-0.032231 
2337.724992  	-0.033602 
2339.653808  	-0.033836 
2341.582624  	-0.034071 
2343.511440  	-0.032768 
2345.440256  	-0.028909 
2347.369072  	-0.021372 
2349.297888  	-0.017102 
2351.226704  	-0.021436 
2353.155520  	-0.029786 
2355.084336  	-0.036382 
2357.013152  	-0.041729 
2358.941968  	-0.044894 
2360.870784  	-0.046436 
2362.799600  	-0.045103 
2364.728416  	-0.042569 
2366.657232  	-0.038500 
2368.586048  	-0.033042 
2370.514864  	-0.027436 
2372.443680  	-0.022006 
2374.372496  	-0.016678 
2376.301312  	-0.012160 
2378.230128  	-0.008324 
2380.158944  	-0.005724 
2382.087760  	-0.004307 
2384.016576  	-0.003839 
2385.945392  	-0.003777 
2387.874208  	-0.003966 
2389.803024  	-0.004143 
2391.731840  	-0.004400 
2393.660656  	-0.004483 
2395.589472  	-0.004407 
2397.518288  	-0.004136 
2399.447104  	-0.004205 
2401.375920  	-0.004336 
2403.304736  	-0.004592 
2405.233552  	-0.004559 
2407.162368  	-0.004643 
2409.091184  	-0.004547 
2411.020000  	-0.004452 
2412.948816  	-0.004456 
2414.877632  	-0.004463 
2416.806448  	-0.004247 
2418.735264  	-0.004362 
2420.664080  	-0.004468 
2422.592896  	-0.004515 
2424.521712  	-0.004455 
2426.450528  	-0.004547 
2428.379344  	-0.004336 
2430.308160  	-0.004111 
2432.236976  	-0.004046 
2434.165792  	-0.004260 
2436.094608  	-0.004334 
2438.023424  	-0.004040 
2439.952240  	-0.003643 
2441.881056  	-0.003799 
2443.809872  	-0.004025 
2445.738688  	-0.004006 
2447.667504  	-0.003811 
2449.596320  	-0.003859 
2451.525136  	-0.003686 
2453.453952  	-0.003563 
2455.382768  	-0.003677 
2457.311584  	-0.003780 
2459.240400  	-0.003891 
2461.169216  	-0.004023 
2463.098032  	-0.004132 
2465.026848  	-0.004047 
2466.955664  	-0.003880 
2468.884480  	-0.004121 
2470.813296  	-0.004334 
2472.742112  	-0.004228 
2474.670928  	-0.004125 
2476.599744  	-0.004137 
2478.528560  	-0.003885 
2480.457376  	-0.003743 
2482.386192  	-0.003869 
2484.315008  	-0.003842 
2486.243824  	-0.003739 
2488.172640  	-0.003706 
2490.101456  	-0.003559 
2492.030272  	-0.003450 
2493.959088  	-0.003410 
2495.887904  	-0.003416 
2497.816720  	-0.003354 
2499.745536  	-0.003325 
2501.674352  	-0.003160 
2503.603168  	-0.003001 
2505.531984  	-0.003042 
2507.460800  	-0.003115 
2509.389616  	-0.002875 
2511.318432  	-0.002897 
2513.247248  	-0.002856 
2515.176064  	-0.002786 
2517.104880  	-0.002931 
2519.033696  	-0.003215 
2520.962512  	-0.003032 
2522.891328  	-0.002841 
2524.820144  	-0.002926 
2526.748960  	-0.002869 
2528.677776  	-0.002650 
2530.606592  	-0.002802 
2532.535408  	-0.002843 
2534.464224  	-0.002828 
2536.393040  	-0.002777 
2538.321856  	-0.002692 
2540.250672  	-0.002505 
2542.179488  	-0.002473 
2544.108304  	-0.002530 
2546.037120  	-0.002550 
2547.965936  	-0.002479 
2549.894752  	-0.002429 
2551.823568  	-0.002409 
2553.752384  	-0.002209 
2555.681200  	-0.001939 
2557.610016  	-0.001850 
2559.538832  	-0.001716 
2561.467648  	-0.001545 
2563.396464  	-0.001390 
2565.325280  	-0.001230 
2567.254096  	-0.001370 
2569.182912  	-0.001446 
2571.111728  	-0.001351 
2573.040544  	-0.001433 
2574.969360  	-0.001255 
2576.898176  	-0.001073 
2578.826992  	-0.001074 
2580.755808  	-0.001059 
2582.684624  	-0.000948 
2584.613440  	-0.000846 
2586.542256  	-0.000724 
2588.471072  	-0.000604 
2590.399888  	-0.000521 
2592.328704  	-0.000639 
2594.257520  	-0.000810 
2596.186336  	-0.000743 
2598.115152  	-0.000522 
2600.043968  	-0.000361 
2601.972784  	-0.000166 
2603.901600  	-0.000070 
2605.830416  	0.000143 
2607.759232  	0.000285 
2609.688048  	0.000378 
2611.616864  	0.000607 
2613.545680  	0.000789 
2615.474496  	0.000960 
2617.403312  	0.001086 
2619.332128  	0.001094 
2621.260944  	0.001207 
2623.189760  	0.001278 
2625.118576  	0.001253 
2627.047392  	0.001137 
2628.976208  	0.001355 
2630.905024  	0.001654 
2632.833840  	0.001767 
2634.762656  	0.001894 
2636.691472  	0.002028 
2638.620288  	0.002091 
2640.549104  	0.002184 
2642.477920  	0.002296 
2644.406736  	0.002411 
2646.335552  	0.002544 
2648.264368  	0.002673 
2650.193184  	0.002804 
2652.122000  	0.002981 
2654.050816  	0.003140 
2655.979632  	0.003258 
2657.908448  	0.003440 
2659.837264  	0.003624 
2661.766080  	0.003782 
2663.694896  	0.003822 
2665.623712  	0.003891 
2667.552528  	0.004096 
2669.481344  	0.004276 
2671.410160  	0.004358 
2673.338976  	0.004414 
2675.267792  	0.004647 
2677.196608  	0.004942 
2679.125424  	0.005030 
2681.054240  	0.005133 
2682.983056  	0.005253 
2684.911872  	0.005259 
2686.840688  	0.005389 
2688.769504  	0.005590 
2690.698320  	0.005696 
2692.627136  	0.005779 
2694.555952  	0.005825 
2696.484768  	0.005804 
2698.413584  	0.005905 
2700.342400  	0.006089 
2702.271216  	0.006366 
2704.200032  	0.006650 
2706.128848  	0.006725 
2708.057664  	0.006753 
2709.986480  	0.006864 
2711.915296  	0.007043 
2713.844112  	0.007299 
2715.772928  	0.007441 
2717.701744  	0.007617 
2719.630560  	0.007935 
2721.559376  	0.008117 
2723.488192  	0.008258 
2725.417008  	0.008477 
2727.345824  	0.008742 
2729.274640  	0.008989 
2731.203456  	0.009217 
2733.132272  	0.009456 
2735.061088  	0.009693 
2736.989904  	0.010025 
2738.918720  	0.010175 
2740.847536  	0.010218 
2742.776352  	0.010319 
2744.705168  	0.010520 
2746.633984  	0.010711 
2748.562800  	0.010798 
2750.491616  	0.010844 
2752.420432  	0.010941 
2754.349248  	0.011015 
2756.278064  	0.011065 
2758.206880  	0.011003 
2760.135696  	0.010988 
2762.064512  	0.011080 
2763.993328  	0.011205 
2765.922144  	0.011237 
2767.850960  	0.011276 
2769.779776  	0.011413 
2771.708592  	0.011530 
2773.637408  	0.011501 
2775.566224  	0.011526 
2777.495040  	0.011619 
2779.423856  	0.011757 
2781.352672  	0.011885 
2783.281488  	0.011935 
2785.210304  	0.012028 
2787.139120  	0.012207 
2789.067936  	0.012325 
2790.996752  	0.012496 
2792.925568  	0.012636 
2794.854384  	0.012710 
2796.783200  	0.012752 
2798.712016  	0.012848 
2800.640832  	0.012982 
2802.569648  	0.013178 
2804.498464  	0.013307 
2806.427280  	0.013189 
2808.356096  	0.013197 
2810.284912  	0.013419 
2812.213728  	0.013602 
2814.142544  	0.013737 
2816.071360  	0.013914 
2818.000176  	0.014015 
2819.928992  	0.014146 
2821.857808  	0.014386 
2823.786624  	0.014503 
2825.715440  	0.014586 
2827.644256  	0.014615 
2829.573072  	0.014803 
2831.501888  	0.015014 
2833.430704  	0.015261 
2835.359520  	0.015469 
2837.288336  	0.015793 
2839.217152  	0.016270 
2841.145968  	0.016604 
2843.074784  	0.016968 
2845.003600  	0.017344 
2846.932416  	0.017817 
2848.861232  	0.018606 
2850.790048  	0.019422 
2852.718864  	0.020273 
2854.647680  	0.021251 
2856.576496  	0.022142 
2858.505312  	0.023222 
2860.434128  	0.024647 
2862.362944  	0.025996 
2864.291760  	0.027378 
2866.220576  	0.028749 
2868.149392  	0.029922 
2870.078208  	0.030821 
2872.007024  	0.031735 
2873.935840  	0.032757 
2875.864656  	0.033941 
2877.793472  	0.035378 
2879.722288  	0.037225 
2881.651104  	0.039276 
2883.579920  	0.040966 
2885.508736  	0.041795 
2887.437552  	0.041920 
2889.366368  	0.042264 
2891.295184  	0.043186 
2893.224000  	0.043991 
2895.152816  	0.044168 
2897.081632  	0.044643 
2899.010448  	0.047135 
2900.939264  	0.049435 
2902.868080  	0.048050 
2904.796896  	0.046530 
2906.725712  	0.046137 
2908.654528  	0.046131 
2910.583344  	0.046533 
2912.512160  	0.046215 
2914.440976  	0.045439 
2916.369792  	0.045098 
2918.298608  	0.045290 
2920.227424  	0.045780 
2922.156240  	0.046171 
2924.085056  	0.046423 
2926.013872  	0.046646 
2927.942688  	0.046971 
2929.871504  	0.047304 
2931.800320  	0.047671 
2933.729136  	0.048183 
2935.657952  	0.048802 
2937.586768  	0.049364 
2939.515584  	0.050125 
2941.444400  	0.051039 
2943.373216  	0.051813 
2945.302032  	0.052417 
2947.230848  	0.052804 
2949.159664  	0.053456 
2951.088480  	0.054648 
2953.017296  	0.055735 
2954.946112  	0.056599 
2956.874928  	0.057593 
2958.803744  	0.058448 
2960.732560  	0.059008 
2962.661376  	0.059659 
2964.590192  	0.061001 
2966.519008  	0.062647 
2968.447824  	0.063906 
2970.376640  	0.064639 
2972.305456  	0.064686 
2974.234272  	0.064061 
2976.163088  	0.063730 
2978.091904  	0.063429 
2980.020720  	0.063238 
2981.949536  	0.063030 
2983.878352  	0.063468 
2985.807168  	0.064678 
2987.735984  	0.065820 
2989.664800  	0.065100 
2991.593616  	0.060410 
2993.522432  	0.057691 
2995.451248  	0.057121 
2997.380064  	0.056189 
2999.308880  	0.054842 
3001.237696  	0.053295 
3003.166512  	0.051962 
3005.095328  	0.050447 
3007.024144  	0.048715 
3008.952960  	0.047201 
3010.881776  	0.045746 
3012.810592  	0.044290 
3014.739408  	0.042966 
3016.668224  	0.041672 
3018.597040  	0.040610 
3020.525856  	0.039618 
3022.454672  	0.038680 
3024.383488  	0.037876 
3026.312304  	0.037105 
3028.241120  	0.036600 
3030.169936  	0.036107 
3032.098752  	0.035617 
3034.027568  	0.035332 
3035.956384  	0.035243 
3037.885200  	0.035260 
3039.814016  	0.035073 
3041.742832  	0.035054 
3043.671648  	0.035071 
3045.600464  	0.035156 
3047.529280  	0.035315 
3049.458096  	0.035672 
3051.386912  	0.036127 
3053.315728  	0.036575 
3055.244544  	0.036988 
3057.173360  	0.037399 
3059.102176  	0.037903 
3061.030992  	0.038601 
3062.959808  	0.039248 
3064.888624  	0.039729 
3066.817440  	0.040445 
3068.746256  	0.041411 
3070.675072  	0.042285 
3072.603888  	0.042901 
3074.532704  	0.043582 
3076.461520  	0.044364 
3078.390336  	0.045066 
3080.319152  	0.045835 
3082.247968  	0.046804 
3084.176784  	0.047692 
3086.105600  	0.048536 
3088.034416  	0.049318 
3089.963232  	0.050138 
3091.892048  	0.050727 
3093.820864  	0.051469 
3095.749680  	0.052272 
3097.678496  	0.053255 
3099.607312  	0.054203 
3101.536128  	0.054997 
3103.464944  	0.055923 
3105.393760  	0.056789 
3107.322576  	0.057422 
3109.251392  	0.058191 
3111.180208  	0.058900 
3113.109024  	0.059509 
3115.037840  	0.060164 
3116.966656  	0.060891 
3118.895472  	0.061571 
3120.824288  	0.062319 
3122.753104  	0.063037 
3124.681920  	0.063614 
3126.610736  	0.064153 
3128.539552  	0.064946 
3130.468368  	0.065707 
3132.397184  	0.066209 
3134.326000  	0.066851 
3136.254816  	0.067456 
3138.183632  	0.068118 
3140.112448  	0.068841 
3142.041264  	0.069503 
3143.970080  	0.070027 
3145.898896  	0.070687 
3147.827712  	0.071423 
3149.756528  	0.072008 
3151.685344  	0.072716 
3153.614160  	0.073534 
3155.542976  	0.074131 
3157.471792  	0.074628 
3159.400608  	0.075346 
3161.329424  	0.076096 
3163.258240  	0.076645 
3165.187056  	0.077132 
3167.115872  	0.077778 
3169.044688  	0.078139 
3170.973504  	0.078596 
3172.902320  	0.079184 
3174.831136  	0.079571 
3176.759952  	0.080108 
3178.688768  	0.080466 
3180.617584  	0.080870 
3182.546400  	0.081322 
3184.475216  	0.081614 
3186.404032  	0.081717 
3188.332848  	0.081950 
3190.261664  	0.082269 
3192.190480  	0.082577 
3194.119296  	0.082567 
3196.048112  	0.082581 
3197.976928  	0.082582 
3199.905744  	0.082724 
3201.834560  	0.082764 
3203.763376  	0.082837 
3205.692192  	0.082682 
3207.621008  	0.082340 
3209.549824  	0.082257 
3211.478640  	0.082517 
3213.407456  	0.082439 
3215.336272  	0.082101 
3217.265088  	0.082023 
3219.193904  	0.081885 
3221.122720  	0.081690 
3223.051536  	0.081571 
3224.980352  	0.081433 
3226.909168  	0.081177 
3228.837984  	0.080964 
3230.766800  	0.080925 
3232.695616  	0.080782 
3234.624432  	0.080680 
3236.553248  	0.080735 
3238.482064  	0.080786 
3240.410880  	0.080674 
3242.339696  	0.080658 
3244.268512  	0.080260 
3246.197328  	0.080375 
3248.126144  	0.080893 
3250.054960  	0.081061 
3251.983776  	0.081078 
3253.912592  	0.081167 
3255.841408  	0.081439 
3257.770224  	0.081793 
3259.699040  	0.082071 
3261.627856  	0.082387 
3263.556672  	0.082589 
3265.485488  	0.082688 
3267.414304  	0.082983 
3269.343120  	0.083331 
3271.271936  	0.083565 
3273.200752  	0.083518 
3275.129568  	0.083576 
3277.058384  	0.083902 
3278.987200  	0.084095 
3280.916016  	0.084350 
3282.844832  	0.084584 
3284.773648  	0.084700 
3286.702464  	0.084878 
3288.631280  	0.085080 
3290.560096  	0.085366 
3292.488912  	0.085664 
3294.417728  	0.086038 
3296.346544  	0.086421 
3298.275360  	0.086537 
3300.204176  	0.086867 
3302.132992  	0.087275 
3304.061808  	0.087592 
3305.990624  	0.087957 
3307.919440  	0.088388 
3309.848256  	0.088768 
3311.777072  	0.088960 
3313.705888  	0.089098 
3315.634704  	0.089681 
3317.563520  	0.090234 
3319.492336  	0.090395 
3321.421152  	0.090599 
3323.349968  	0.090889 
3325.278784  	0.090972 
3327.207600  	0.091057 
3329.136416  	0.091088 
3331.065232  	0.091193 
3332.994048  	0.091415 
3334.922864  	0.091787 
3336.851680  	0.091779 
3338.780496  	0.091386 
3340.709312  	0.091087 
3342.638128  	0.091071 
3344.566944  	0.090916 
3346.495760  	0.090709 
3348.424576  	0.090489 
3350.353392  	0.089991 
3352.282208  	0.089563 
3354.211024  	0.089320 
3356.139840  	0.089206 
3358.068656  	0.088941 
3359.997472  	0.088587 
3361.926288  	0.088052 
3363.855104  	0.087621 
3365.783920  	0.087138 
3367.712736  	0.086783 
3369.641552  	0.086483 
3371.570368  	0.086012 
3373.499184  	0.085633 
3375.428000  	0.085438 
3377.356816  	0.085140 
3379.285632  	0.084811 
3381.214448  	0.084586 
3383.143264  	0.084235 
3385.072080  	0.083591 
3387.000896  	0.083097 
3388.929712  	0.082947 
3390.858528  	0.082778 
3392.787344  	0.082323 
3394.716160  	0.081775 
3396.644976  	0.081371 
3398.573792  	0.080936 
3400.502608  	0.080646 
3402.431424  	0.080096 
3404.360240  	0.079343 
3406.289056  	0.078688 
3408.217872  	0.078314 
3410.146688  	0.077892 
3412.075504  	0.077488 
3414.004320  	0.077140 
3415.933136  	0.076726 
3417.861952  	0.076115 
3419.790768  	0.075543 
3421.719584  	0.074993 
3423.648400  	0.074636 
3425.577216  	0.073963 
3427.506032  	0.073255 
3429.434848  	0.072668 
3431.363664  	0.072105 
3433.292480  	0.071710 
3435.221296  	0.071080 
3437.150112  	0.070467 
3439.078928  	0.070019 
3441.007744  	0.069335 
3442.936560  	0.068868 
3444.865376  	0.068550 
3446.794192  	0.067597 
3448.723008  	0.066654 
3450.651824  	0.066113 
3452.580640  	0.065568 
3454.509456  	0.065181 
3456.438272  	0.064627 
3458.367088  	0.063908 
3460.295904  	0.063230 
3462.224720  	0.062281 
3464.153536  	0.061486 
3466.082352  	0.060796 
3468.011168  	0.059893 
3469.939984  	0.059079 
3471.868800  	0.058295 
3473.797616  	0.057727 
3475.726432  	0.056904 
3477.655248  	0.056064 
3479.584064  	0.055615 
3481.512880  	0.054814 
3483.441696  	0.053659 
3485.370512  	0.053080 
3487.299328  	0.052161 
3489.228144  	0.051186 
3491.156960  	0.050394 
3493.085776  	0.049715 
3495.014592  	0.048978 
3496.943408  	0.048262 
3498.872224  	0.047943 
3500.801040  	0.048011 
3502.729856  	0.047248 
3504.658672  	0.045740 
3506.587488  	0.045167 
3508.516304  	0.044916 
3510.445120  	0.043935 
3512.373936  	0.042704 
3514.302752  	0.041955 
3516.231568  	0.041761 
3518.160384  	0.041360 
3520.089200  	0.040541 
3522.018016  	0.040294 
3523.946832  	0.040318 
3525.875648  	0.039366 
3527.804464  	0.037684 
3529.733280  	0.036597 
3531.662096  	0.036143 
3533.590912  	0.035803 
3535.519728  	0.035614 
3537.448544  	0.034990 
3539.377360  	0.033873 
3541.306176  	0.033459 
3543.234992  	0.033701 
3545.163808  	0.034063 
3547.092624  	0.032908 
3549.021440  	0.031261 
3550.950256  	0.030506 
3552.879072  	0.029496 
3554.807888  	0.028798 
3556.736704  	0.028247 
3558.665520  	0.028082 
3560.594336  	0.027886 
3562.523152  	0.027141 
3564.451968  	0.027371 
3566.380784  	0.027511 
3568.309600  	0.025150 
3570.238416  	0.023959 
3572.167232  	0.023400 
3574.096048  	0.022320 
3576.024864  	0.021435 
3577.953680  	0.021214 
3579.882496  	0.020737 
3581.811312  	0.019918 
3583.740128  	0.019318 
3585.668944  	0.019443 
3587.597760  	0.018044 
3589.526576  	0.016153 
3591.455392  	0.015706 
3593.384208  	0.015264 
3595.313024  	0.014118 
3597.241840  	0.012851 
3599.170656  	0.011611 
3601.099472  	0.010528 
3603.028288  	0.010707 
3604.957104  	0.010898 
3606.885920  	0.010241 
3608.814736  	0.008870 
3610.743552  	0.008858 
3612.672368  	0.007989 
3614.601184  	0.006879 
3616.530000  	0.006817 
3618.458816  	0.004558 
3620.387632  	0.002690 
3622.316448  	0.003313 
3624.245264  	0.003816 
3626.174080  	0.003790 
3628.102896  	0.000848 
3630.031712  	-0.002273 
3631.960528  	0.000487 
3633.889344  	0.001026 
3635.818160  	0.000904 
3637.746976  	0.000781 
3639.675792  	0.001035 
3641.604608  	0.001699 
3643.533424  	0.002093 
3645.462240  	0.001974 
3647.391056  	-0.001068 
3649.319872  	-0.005420 
3651.248688  	-0.005092 
3653.177504  	-0.000728 
3655.106320  	0.000019 
3657.035136  	-0.001164 
3658.963952  	0.000390 
3660.892768  	0.001120 
3662.821584  	0.001009 
3664.750400  	0.000627 
3666.679216  	0.000364 
3668.608032  	-0.002325 
3670.536848  	-0.006423 
3672.465664  	-0.003757 
3674.394480  	-0.004075 
3676.323296  	-0.008745 
3678.252112  	-0.006712 
3680.180928  	-0.005827 
3682.109744  	-0.004363 
3684.038560  	-0.003707 
3685.967376  	-0.004354 
3687.896192  	-0.008328 
3689.825008  	-0.012558 
3691.753824  	-0.011416 
3693.682640  	-0.008727 
3695.611456  	-0.008306 
3697.540272  	-0.009071 
3699.469088  	-0.009873 
3701.397904  	-0.012443 
3703.326720  	-0.013497 
3705.255536  	-0.012514 
3707.184352  	-0.013093 
3709.113168  	-0.015830 
3711.041984  	-0.018756 
3712.970800  	-0.017567 
3714.899616  	-0.014071 
3716.828432  	-0.013360 
3718.757248  	-0.014423 
3720.686064  	-0.015416 
3722.614880  	-0.016110 
3724.543696  	-0.015281 
3726.472512  	-0.015687 
3728.401328  	-0.015974 
3730.330144  	-0.016915 
3732.258960  	-0.019370 
3734.187776  	-0.018641 
3736.116592  	-0.019277 
3738.045408  	-0.018602 
3739.974224  	-0.016058 
3741.903040  	-0.014700 
3743.831856  	-0.017489 
3745.760672  	-0.020011 
3747.689488  	-0.017921 
3749.618304  	-0.021252 
3751.547120  	-0.023277 
3753.475936  	-0.019818 
3755.404752  	-0.016394 
3757.333568  	-0.015846 
3759.262384  	-0.016789 
3761.191200  	-0.016434 
3763.120016  	-0.014228 
3765.048832  	-0.014972 
3766.977648  	-0.015237 
3768.906464  	-0.016207 
3770.835280  	-0.017116 
3772.764096  	-0.015002 
3774.692912  	-0.013959 
3776.621728  	-0.014013 
3778.550544  	-0.015719 
3780.479360  	-0.016787 
3782.408176  	-0.014769 
3784.336992  	-0.014871 
3786.265808  	-0.014808 
3788.194624  	-0.014252 
3790.123440  	-0.014113 
3792.052256  	-0.014051 
3793.981072  	-0.014157 
3795.909888  	-0.016189 
3797.838704  	-0.016420 
3799.767520  	-0.016750 
3801.696336  	-0.021638 
3803.625152  	-0.019021 
3805.553968  	-0.017182 
3807.482784  	-0.018992 
3809.411600  	-0.015934 
3811.340416  	-0.014093 
3813.269232  	-0.013955 
3815.198048  	-0.017277 
3817.126864  	-0.019197 
3819.055680  	-0.017496 
3820.984496  	-0.021495 
3822.913312  	-0.019547 
3824.842128  	-0.015817 
3826.770944  	-0.016217 
3828.699760  	-0.015337 
3830.628576  	-0.015486 
3832.557392  	-0.016511 
3834.486208  	-0.016625 
3836.415024  	-0.018263 
3838.343840  	-0.020132 
3840.272656  	-0.018911 
3842.201472  	-0.016857 
3844.130288  	-0.016251 
3846.059104  	-0.014764 
3847.987920  	-0.013695 
3849.916736  	-0.014010 
3851.845552  	-0.017218 
3853.774368  	-0.023675 
3855.703184  	-0.019672 
3857.632000  	-0.015702 
3859.560816  	-0.014053 
3861.489632  	-0.014254 
3863.418448  	-0.015721 
3865.347264  	-0.016384 
3867.276080  	-0.014470 
3869.204896  	-0.015844 
3871.133712  	-0.016729 
3873.062528  	-0.015310 
3874.991344  	-0.015856 
3876.920160  	-0.013904 
3878.848976  	-0.013287 
3880.777792  	-0.014590 
3882.706608  	-0.013733 
3884.635424  	-0.013792 
3886.564240  	-0.015282 
3888.493056  	-0.013962 
3890.421872  	-0.014681 
3892.350688  	-0.015950 
3894.279504  	-0.014259 
3896.208320  	-0.013077 
3898.137136  	-0.013202 
3900.065952  	-0.013717 
3901.994768  	-0.013714 
3903.923584  	-0.014792 
3905.852400  	-0.015097 
3907.781216  	-0.014330 
3909.710032  	-0.014015 
3911.638848  	-0.013933 
3913.567664  	-0.013505 
3915.496480  	-0.012911 
3917.425296  	-0.013280 
3919.354112  	-0.013666 
3921.282928  	-0.013453 
3923.211744  	-0.012984 
3925.140560  	-0.013359 
3927.069376  	-0.013518 
3928.998192  	-0.013328 
3930.927008  	-0.012822 
3932.855824  	-0.012652 
3934.784640  	-0.013326 
3936.713456  	-0.013597 
3938.642272  	-0.013412 
3940.571088  	-0.012880 
3942.499904  	-0.012764 
3944.428720  	-0.013129 
3946.357536  	-0.012728 
3948.286352  	-0.012410 
3950.215168  	-0.013296 
3952.143984  	-0.014085 
3954.072800  	-0.014066 
3956.001616  	-0.013599 
3957.930432  	-0.013465 
3959.859248  	-0.013427 
3961.788064  	-0.013437 
3963.716880  	-0.013874 
3965.645696  	-0.014101 
3967.574512  	-0.013824 
3969.503328  	-0.013612 
3971.432144  	-0.013739 
3973.360960  	-0.013699 
3975.289776  	-0.013349 
3977.218592  	-0.013356 
3979.147408  	-0.013677 
3981.076224  	-0.013796 
3983.005040  	-0.013764 
3984.933856  	-0.013666 
3986.862672  	-0.013684 
3988.791488  	-0.013447 
3990.720304  	-0.013087 
3992.649120  	-0.013273 
3994.577936  	-0.013730 
3996.506752  	-0.013899 
3998.435568  	-0.013792 
4000.364384  	-0.013593 