##TITLE=No Description
##DATA TYPE=INFRARED SPECTRUM
##XUNITS=1/CM
##YUNITS=Abs
399.264912  	0.600535 
401.193728  	0.599302 
403.122544  	0.622074 
405.051360  	0.625052 
406.980176  	0.618274 
408.908992  	0.603807 
410.837808  	0.600463 
412.766624  	0.588860 
414.695440  	0.583108 
416.624256  	0.570817 
418.553072  	0.571132 
420.481888  	0.573778 
422.410704  	0.579476 
424.339520  	0.573976 
426.268336  	0.569226 
428.197152  	0.554789 
430.125968  	0.552716 
432.054784  	0.555867 
433.983600  	0.562681 
435.912416  	0.554469 
437.841232  	0.544829 
439.770048  	0.544485 
441.698864  	0.549576 
443.627680  	0.546694 
445.556496  	0.547732 
447.485312  	0.544182 
449.414128  	0.541538 
451.342944  	0.540889 
453.271760  	0.537760 
455.200576  	0.533871 
457.129392  	0.541510 
459.058208  	0.541545 
460.987024  	0.536610 
462.915840  	0.527706 
464.844656  	0.527969 
466.773472  	0.532416 
468.702288  	0.534454 
470.631104  	0.529903 
472.559920  	0.526324 
474.488736  	0.518063 
476.417552  	0.521950 
478.346368  	0.523096 
480.275184  	0.522021 
482.204000  	0.514306 
484.132816  	0.514573 
486.061632  	0.518535 
487.990448  	0.519225 
489.919264  	0.515379 
491.848080  	0.515380 
493.776896  	0.512147 
495.705712  	0.515596 
497.634528  	0.512727 
499.563344  	0.511278 
501.492160  	0.510205 
503.420976  	0.510662 
505.349792  	0.507902 
507.278608  	0.508649 
509.207424  	0.506933 
511.136240  	0.507217 
513.065056  	0.507188 
514.993872  	0.511511 
516.922688  	0.511663 
518.851504  	0.512352 
520.780320  	0.510047 
522.709136  	0.509767 
524.637952  	0.507367 
526.566768  	0.506077 
528.495584  	0.504457 
530.424400  	0.505872 
532.353216  	0.501321 
534.282032  	0.497292 
536.210848  	0.491903 
538.139664  	0.486249 
540.068480  	0.479694 
541.997296  	0.476216 
543.926112  	0.474279 
545.854928  	0.471797 
547.783744  	0.465637 
549.712560  	0.462179 
551.641376  	0.459286 
553.570192  	0.456951 
555.499008  	0.454374 
557.427824  	0.451447 
559.356640  	0.446095 
561.285456  	0.443477 
563.214272  	0.440235 
565.143088  	0.437537 
567.071904  	0.434192 
569.000720  	0.431593 
570.929536  	0.429388 
572.858352  	0.426231 
574.787168  	0.422573 
576.715984  	0.420247 
578.644800  	0.417206 
580.573616  	0.414573 
582.502432  	0.410014 
584.431248  	0.406668 
586.360064  	0.402691 
588.288880  	0.400249 
590.217696  	0.398115 
592.146512  	0.396107 
594.075328  	0.393196 
596.004144  	0.391203 
597.932960  	0.389107 
599.861776  	0.387579 
601.790592  	0.385794 
603.719408  	0.384343 
605.648224  	0.381981 
607.577040  	0.380764 
609.505856  	0.379234 
611.434672  	0.377563 
613.363488  	0.375199 
615.292304  	0.374082 
617.221120  	0.372156 
619.149936  	0.370479 
621.078752  	0.368139 
623.007568  	0.367095 
624.936384  	0.365567 
626.865200  	0.364524 
628.794016  	0.363694 
630.722832  	0.362948 
632.651648  	0.361955 
634.580464  	0.361757 
636.509280  	0.361330 
638.438096  	0.360799 
640.366912  	0.359209 
642.295728  	0.356667 
644.224544  	0.353704 
646.153360  	0.350715 
648.082176  	0.345963 
650.010992  	0.341797 
651.939808  	0.338364 
653.868624  	0.334913 
655.797440  	0.331277 
657.726256  	0.328466 
659.655072  	0.325126 
661.583888  	0.320855 
663.512704  	0.317445 
665.441520  	0.315210 
667.370336  	0.306566 
669.299152  	0.299622 
671.227968  	0.300812 
673.156784  	0.298859 
675.085600  	0.295971 
677.014416  	0.293030 
678.943232  	0.290075 
680.872048  	0.288369 
682.800864  	0.287166 
684.729680  	0.285392 
686.658496  	0.283823 
688.587312  	0.283156 
690.516128  	0.281870 
692.444944  	0.280553 
694.373760  	0.279692 
696.302576  	0.277874 
698.231392  	0.275471 
700.160208  	0.272900 
702.089024  	0.270870 
704.017840  	0.268683 
705.946656  	0.265940 
707.875472  	0.263652 
709.804288  	0.261786 
711.733104  	0.259933 
713.661920  	0.257812 
715.590736  	0.256423 
717.519552  	0.255437 
719.448368  	0.255150 
721.377184  	0.254998 
723.306000  	0.255263 
725.234816  	0.254731 
727.163632  	0.253904 
729.092448  	0.251952 
731.021264  	0.248831 
732.950080  	0.246072 
734.878896  	0.243436 
736.807712  	0.240418 
738.736528  	0.238022 
740.665344  	0.235966 
742.594160  	0.233870 
744.522976  	0.232595 
746.451792  	0.231320 
748.380608  	0.229486 
750.309424  	0.227677 
752.238240  	0.226274 
754.167056  	0.225517 
756.095872  	0.224316 
758.024688  	0.223006 
759.953504  	0.221945 
761.882320  	0.222203 
763.811136  	0.222181 
765.739952  	0.221261 
767.668768  	0.218976 
769.597584  	0.216270 
771.526400  	0.214681 
773.455216  	0.215273 
775.384032  	0.217789 
777.312848  	0.221417 
779.241664  	0.224628 
781.170480  	0.224669 
783.099296  	0.221537 
785.028112  	0.216353 
786.956928  	0.210772 
788.885744  	0.206282 
790.814560  	0.202947 
792.743376  	0.200387 
794.672192  	0.198679 
796.601008  	0.197515 
798.529824  	0.194920 
800.458640  	0.190759 
802.387456  	0.187164 
804.316272  	0.184858 
806.245088  	0.183355 
808.173904  	0.182517 
810.102720  	0.181730 
812.031536  	0.181244 
813.960352  	0.181160 
815.889168  	0.181060 
817.817984  	0.180607 
819.746800  	0.180448 
821.675616  	0.180380 
823.604432  	0.179845 
825.533248  	0.179305 
827.462064  	0.178628 
829.390880  	0.177519 
831.319696  	0.175750 
833.248512  	0.173741 
835.177328  	0.171449 
837.106144  	0.169070 
839.034960  	0.166012 
840.963776  	0.162567 
842.892592  	0.159209 
844.821408  	0.156015 
846.750224  	0.153041 
848.679040  	0.150640 
850.607856  	0.148820 
852.536672  	0.147301 
854.465488  	0.145936 
856.394304  	0.144967 
858.323120  	0.144004 
860.251936  	0.142634 
862.180752  	0.141020 
864.109568  	0.139049 
866.038384  	0.137082 
867.967200  	0.135341 
869.896016  	0.133600 
871.824832  	0.132524 
873.753648  	0.131928 
875.682464  	0.132077 
877.611280  	0.132913 
879.540096  	0.134489 
881.468912  	0.135631 
883.397728  	0.136447 
885.326544  	0.137031 
887.255360  	0.137301 
889.184176  	0.136905 
891.112992  	0.135920 
893.041808  	0.134187 
894.970624  	0.131584 
896.899440  	0.128258 
898.828256  	0.124261 
900.757072  	0.120372 
902.685888  	0.117244 
904.614704  	0.115109 
906.543520  	0.114660 
908.472336  	0.115337 
910.401152  	0.116832 
912.329968  	0.118578 
914.258784  	0.120604 
916.187600  	0.122538 
918.116416  	0.124261 
920.045232  	0.125391 
921.974048  	0.126128 
923.902864  	0.126339 
925.831680  	0.125989 
927.760496  	0.125836 
929.689312  	0.126054 
931.618128  	0.126317 
933.546944  	0.126494 
935.475760  	0.126538 
937.404576  	0.126100 
939.333392  	0.125439 
941.262208  	0.125332 
943.191024  	0.126197 
945.119840  	0.128942 
947.048656  	0.133599 
948.977472  	0.139942 
950.906288  	0.147725 
952.835104  	0.156344 
954.763920  	0.165635 
956.692736  	0.174791 
958.621552  	0.182808 
960.550368  	0.188704 
962.479184  	0.191825 
964.408000  	0.191444 
966.336816  	0.187633 
968.265632  	0.180877 
970.194448  	0.171457 
972.123264  	0.160180 
974.052080  	0.148069 
975.980896  	0.136280 
977.909712  	0.125430 
979.838528  	0.115695 
981.767344  	0.107551 
983.696160  	0.101075 
985.624976  	0.096787 
987.553792  	0.095187 
989.482608  	0.095886 
991.411424  	0.098658 
993.340240  	0.102845 
995.269056  	0.108086 
997.197872  	0.114031 
999.126688  	0.120248 
1001.055504  	0.126336 
1002.984320  	0.132715 
1004.913136  	0.139061 
1006.841952  	0.145486 
1008.770768  	0.151219 
1010.699584  	0.155954 
1012.628400  	0.159469 
1014.557216  	0.161576 
1016.486032  	0.162859 
1018.414848  	0.163714 
1020.343664  	0.164216 
1022.272480  	0.164124 
1024.201296  	0.164205 
1026.130112  	0.165574 
1028.058928  	0.166747 
1029.987744  	0.166700 
1031.916560  	0.168959 
1033.845376  	0.172974 
1035.774192  	0.178345 
1037.703008  	0.184385 
1039.631824  	0.190998 
1041.560640  	0.200312 
1043.489456  	0.212454 
1045.418272  	0.226796 
1047.347088  	0.242209 
1049.275904  	0.256231 
1051.204720  	0.267610 
1053.133536  	0.274818 
1055.062352  	0.278941 
1056.991168  	0.280940 
1058.919984  	0.280308 
1060.848800  	0.278260 
1062.777616  	0.277917 
1064.706432  	0.278217 
1066.635248  	0.276398 
1068.564064  	0.269979 
1070.492880  	0.263169 
1072.421696  	0.257424 
1074.350512  	0.253488 
1076.279328  	0.251410 
1078.208144  	0.252223 
1080.136960  	0.254592 
1082.065776  	0.257310 
1083.994592  	0.258343 
1085.923408  	0.257308 
1087.852224  	0.253764 
1089.781040  	0.247954 
1091.709856  	0.239422 
1093.638672  	0.230020 
1095.567488  	0.219561 
1097.496304  	0.208310 
1099.425120  	0.196371 
1101.353936  	0.184033 
1103.282752  	0.171735 
1105.211568  	0.159659 
1107.140384  	0.147681 
1109.069200  	0.136282 
1110.998016  	0.125627 
1112.926832  	0.115993 
1114.855648  	0.107115 
1116.784464  	0.098860 
1118.713280  	0.091183 
1120.642096  	0.084269 
1122.570912  	0.077996 
1124.499728  	0.071923 
1126.428544  	0.066542 
1128.357360  	0.061787 
1130.286176  	0.057931 
1132.214992  	0.054618 
1134.143808  	0.052035 
1136.072624  	0.049900 
1138.001440  	0.048122 
1139.930256  	0.045884 
1141.859072  	0.043563 
1143.787888  	0.041149 
1145.716704  	0.039082 
1147.645520  	0.037111 
1149.574336  	0.035342 
1151.503152  	0.033899 
1153.431968  	0.033168 
1155.360784  	0.033182 
1157.289600  	0.033812 
1159.218416  	0.034959 
1161.147232  	0.036618 
1163.076048  	0.038306 
1165.004864  	0.040320 
1166.933680  	0.042096 
1168.862496  	0.043961 
1170.791312  	0.045790 
1172.720128  	0.048253 
1174.648944  	0.050691 
1176.577760  	0.053019 
1178.506576  	0.055216 
1180.435392  	0.057621 
1182.364208  	0.059955 
1184.293024  	0.062841 
1186.221840  	0.065884 
1188.150656  	0.069367 
1190.079472  	0.073472 
1192.008288  	0.078400 
1193.937104  	0.084231 
1195.865920  	0.091051 
1197.794736  	0.098454 
1199.723552  	0.106606 
1201.652368  	0.114965 
1203.581184  	0.123356 
1205.510000  	0.131721 
1207.438816  	0.139914 
1209.367632  	0.147681 
1211.296448  	0.154658 
1213.225264  	0.160670 
1215.154080  	0.165558 
1217.082896  	0.169666 
1219.011712  	0.172662 
1220.940528  	0.174948 
1222.869344  	0.176827 
1224.798160  	0.177832 
1226.726976  	0.177912 
1228.655792  	0.177712 
1230.584608  	0.176439 
1232.513424  	0.174184 
1234.442240  	0.171009 
1236.371056  	0.167146 
1238.299872  	0.162730 
1240.228688  	0.158487 
1242.157504  	0.152998 
1244.086320  	0.146151 
1246.015136  	0.139646 
1247.943952  	0.133459 
1249.872768  	0.126861 
1251.801584  	0.119929 
1253.730400  	0.113099 
1255.659216  	0.106392 
1257.588032  	0.100086 
1259.516848  	0.093895 
1261.445664  	0.087943 
1263.374480  	0.082179 
1265.303296  	0.077267 
1267.232112  	0.073082 
1269.160928  	0.069827 
1271.089744  	0.067246 
1273.018560  	0.065504 
1274.947376  	0.064596 
1276.876192  	0.064377 
1278.805008  	0.063842 
1280.733824  	0.062558 
1282.662640  	0.060483 
1284.591456  	0.058268 
1286.520272  	0.056358 
1288.449088  	0.055091 
1290.377904  	0.054247 
1292.306720  	0.054312 
1294.235536  	0.054366 
1296.164352  	0.053787 
1298.093168  	0.051817 
1300.021984  	0.049345 
1301.950800  	0.046587 
1303.879616  	0.043979 
1305.808432  	0.041075 
1307.737248  	0.038257 
1309.666064  	0.035452 
1311.594880  	0.033541 
1313.523696  	0.031952 
1315.452512  	0.030840 
1317.381328  	0.030251 
1319.310144  	0.029933 
1321.238960  	0.029790 
1323.167776  	0.030309 
1325.096592  	0.030986 
1327.025408  	0.031519 
1328.954224  	0.031460 
1330.883040  	0.031030 
1332.811856  	0.030215 
1334.740672  	0.029970 
1336.669488  	0.030474 
1338.598304  	0.031332 
1340.527120  	0.029797 
1342.455936  	0.027570 
1344.384752  	0.027098 
1346.313568  	0.027593 
1348.242384  	0.028287 
1350.171200  	0.029548 
1352.100016  	0.031280 
1354.028832  	0.033438 
1355.957648  	0.035371 
1357.886464  	0.037633 
1359.815280  	0.040435 
1361.744096  	0.043493 
1363.672912  	0.044877 
1365.601728  	0.046068 
1367.530544  	0.048117 
1369.459360  	0.049501 
1371.388176  	0.050409 
1373.316992  	0.050522 
1375.245808  	0.048342 
1377.174624  	0.047034 
1379.103440  	0.045346 
1381.032256  	0.042983 
1382.961072  	0.040923 
1384.889888  	0.040255 
1386.818704  	0.039045 
1388.747520  	0.036034 
1390.676336  	0.034981 
1392.605152  	0.036264 
1394.533968  	0.035873 
1396.462784  	0.033972 
1398.391600  	0.033629 
1400.320416  	0.033169 
1402.249232  	0.034697 
1404.178048  	0.036465 
1406.106864  	0.037104 
1408.035680  	0.038300 
1409.964496  	0.039883 
1411.893312  	0.041136 
1413.822128  	0.042442 
1415.750944  	0.045100 
1417.679760  	0.046654 
1419.608576  	0.043541 
1421.537392  	0.042717 
1423.466208  	0.042901 
1425.395024  	0.040762 
1427.323840  	0.039415 
1429.252656  	0.036764 
1431.181472  	0.034760 
1433.110288  	0.035026 
1435.039104  	0.036181 
1436.967920  	0.034601 
1438.896736  	0.034613 
1440.825552  	0.035968 
1442.754368  	0.036484 
1444.683184  	0.036895 
1446.612000  	0.037139 
1448.540816  	0.036390 
1450.469632  	0.037206 
1452.398448  	0.038262 
1454.327264  	0.039678 
1456.256080  	0.038165 
1458.184896  	0.032652 
1460.113712  	0.034098 
1462.042528  	0.036106 
1463.971344  	0.035548 
1465.900160  	0.035148 
1467.828976  	0.037971 
1469.757792  	0.041383 
1471.686608  	0.043887 
1473.615424  	0.047764 
1475.544240  	0.053845 
1477.473056  	0.058649 
1479.401872  	0.062327 
1481.330688  	0.065229 
1483.259504  	0.067085 
1485.188320  	0.068926 
1487.117136  	0.069161 
1489.045952  	0.068874 
1490.974768  	0.065407 
1492.903584  	0.063638 
1494.832400  	0.061256 
1496.761216  	0.054323 
1498.690032  	0.048392 
1500.618848  	0.045346 
1502.547664  	0.042667 
1504.476480  	0.039257 
1506.405296  	0.032706 
1508.334112  	0.030685 
1510.262928  	0.031439 
1512.191744  	0.029430 
1514.120560  	0.028735 
1516.049376  	0.028102 
1517.978192  	0.026225 
1519.907008  	0.027706 
1521.835824  	0.026275 
1523.764640  	0.030434 
1525.693456  	0.035151 
1527.622272  	0.036729 
1529.551088  	0.037455 
1531.479904  	0.037870 
1533.408720  	0.033320 
1535.337536  	0.030475 
1537.266352  	0.029924 
1539.195168  	0.021423 
1541.123984  	0.013400 
1543.052800  	0.017966 
1544.981616  	0.019407 
1546.910432  	0.018983 
1548.839248  	0.020014 
1550.768064  	0.019838 
1552.696880  	0.019452 
1554.625696  	0.019274 
1556.554512  	0.019458 
1558.483328  	0.014886 
1560.412144  	0.016546 
1562.340960  	0.025461 
1564.269776  	0.029441 
1566.198592  	0.033963 
1568.127408  	0.037669 
1570.056224  	0.040587 
1571.985040  	0.047408 
1573.913856  	0.052304 
1575.842672  	0.051630 
1577.771488  	0.053982 
1579.700304  	0.057347 
1581.629120  	0.057630 
1583.557936  	0.057174 
1585.486752  	0.057642 
1587.415568  	0.059533 
1589.344384  	0.063173 
1591.273200  	0.068081 
1593.202016  	0.074100 
1595.130832  	0.080574 
1597.059648  	0.087637 
1598.988464  	0.093822 
1600.917280  	0.099217 
1602.846096  	0.102831 
1604.774912  	0.105293 
1606.703728  	0.105854 
1608.632544  	0.105145 
1610.561360  	0.103491 
1612.490176  	0.102447 
1614.418992  	0.100618 
1616.347808  	0.096323 
1618.276624  	0.096915 
1620.205440  	0.102393 
1622.134256  	0.104673 
1624.063072  	0.108283 
1625.991888  	0.114850 
1627.920704  	0.121657 
1629.849520  	0.130554 
1631.778336  	0.139797 
1633.707152  	0.145732 
1635.635968  	0.150508 
1637.564784  	0.160498 
1639.493600  	0.169978 
1641.422416  	0.175810 
1643.351232  	0.180417 
1645.280048  	0.180975 
1647.208864  	0.179362 
1649.137680  	0.182465 
1651.066496  	0.184866 
1652.995312  	0.176108 
1654.924128  	0.176187 
1656.852944  	0.179599 
1658.781760  	0.178913 
1660.710576  	0.175896 
1662.639392  	0.170335 
1664.568208  	0.166998 
1666.497024  	0.166077 
1668.425840  	0.160518 
1670.354656  	0.152541 
1672.283472  	0.150707 
1674.212288  	0.148570 
1676.141104  	0.143107 
1678.069920  	0.143500 
1679.998736  	0.143560 
1681.927552  	0.142317 
1683.856368  	0.135311 
1685.785184  	0.133512 
1687.714000  	0.137733 
1689.642816  	0.137494 
1691.571632  	0.135999 
1693.500448  	0.135938 
1695.429264  	0.131401 
1697.358080  	0.128167 
1699.286896  	0.126807 
1701.215712  	0.120883 
1703.144528  	0.122201 
1705.073344  	0.118628 
1707.002160  	0.112954 
1708.930976  	0.110030 
1710.859792  	0.105231 
1712.788608  	0.099747 
1714.717424  	0.091904 
1716.646240  	0.080714 
1718.575056  	0.066798 
1720.503872  	0.060833 
1722.432688  	0.055482 
1724.361504  	0.046708 
1726.290320  	0.039560 
1728.219136  	0.034067 
1730.147952  	0.029033 
1732.076768  	0.024731 
1734.005584  	0.016477 
1735.934400  	0.011453 
1737.863216  	0.012711 
1739.792032  	0.008621 
1741.720848  	0.007888 
1743.649664  	0.008210 
1745.578480  	0.007572 
1747.507296  	0.006044 
1749.436112  	0.005164 
1751.364928  	0.003713 
1753.293744  	0.002919 
1755.222560  	0.003152 
1757.151376  	0.002442 
1759.080192  	0.002196 
1761.009008  	0.001599 
1762.937824  	-0.000341 
1764.866640  	0.000624 
1766.795456  	0.001704 
1768.724272  	0.001097 
1770.653088  	-0.001344 
1772.581904  	-0.005124 
1774.510720  	-0.003511 
1776.439536  	-0.001245 
1778.368352  	-0.000723 
1780.297168  	-0.001117 
1782.225984  	-0.001749 
1784.154800  	-0.000990 
1786.083616  	-0.001866 
1788.012432  	-0.001566 
1789.941248  	-0.000809 
1791.870064  	-0.002621 
1793.798880  	-0.004440 
1795.727696  	-0.002287 
1797.656512  	-0.002508 
1799.585328  	-0.002774 
1801.514144  	-0.002429 
1803.442960  	-0.002672 
1805.371776  	-0.003346 
1807.300592  	-0.002767 
1809.229408  	-0.003217 
1811.158224  	-0.003756 
1813.087040  	-0.003989 
1815.015856  	-0.003455 
1816.944672  	-0.003199 
1818.873488  	-0.003249 
1820.802304  	-0.003697 
1822.731120  	-0.002960 
1824.659936  	-0.003320 
1826.588752  	-0.003902 
1828.517568  	-0.004542 
1830.446384  	-0.005588 
1832.375200  	-0.004709 
1834.304016  	-0.003661 
1836.232832  	-0.003895 
1838.161648  	-0.003840 
1840.090464  	-0.003841 
1842.019280  	-0.002895 
1843.948096  	-0.004673 
1845.876912  	-0.004836 
1847.805728  	-0.003622 
1849.734544  	-0.003808 
1851.663360  	-0.004297 
1853.592176  	-0.004407 
1855.520992  	-0.004528 
1857.449808  	-0.004190 
1859.378624  	-0.004264 
1861.307440  	-0.004324 
1863.236256  	-0.004562 
1865.165072  	-0.004006 
1867.093888  	-0.003889 
1869.022704  	-0.004942 
1870.951520  	-0.005430 
1872.880336  	-0.004579 
1874.809152  	-0.004767 
1876.737968  	-0.004666 
1878.666784  	-0.004845 
1880.595600  	-0.004425 
1882.524416  	-0.004760 
1884.453232  	-0.004568 
1886.382048  	-0.004578 
1888.310864  	-0.004319 
1890.239680  	-0.005054 
1892.168496  	-0.004448 
1894.097312  	-0.004180 
1896.026128  	-0.004242 
1897.954944  	-0.004531 
1899.883760  	-0.004359 
1901.812576  	-0.004636 
1903.741392  	-0.004601 
1905.670208  	-0.004386 
1907.599024  	-0.003458 
1909.527840  	-0.003839 
1911.456656  	-0.004282 
1913.385472  	-0.004548 
1915.314288  	-0.003502 
1917.243104  	-0.003517 
1919.171920  	-0.004076 
1921.100736  	-0.003766 
1923.029552  	-0.003287 
1924.958368  	-0.003972 
1926.887184  	-0.003749 
1928.816000  	-0.003785 
1930.744816  	-0.003830 
1932.673632  	-0.004156 
1934.602448  	-0.003903 
1936.531264  	-0.004067 
1938.460080  	-0.003636 
1940.388896  	-0.003613 
1942.317712  	-0.003319 
1944.246528  	-0.003795 
1946.175344  	-0.003339 
1948.104160  	-0.003714 
1950.032976  	-0.003942 
1951.961792  	-0.004260 
1953.890608  	-0.004134 
1955.819424  	-0.004380 
1957.748240  	-0.003671 
1959.677056  	-0.004225 
1961.605872  	-0.003425 
1963.534688  	-0.003399 
1965.463504  	-0.002521 
1967.392320  	-0.002908 
1969.321136  	-0.002598 
1971.249952  	-0.002997 
1973.178768  	-0.002921 
1975.107584  	-0.003966 
1977.036400  	-0.003139 
1978.965216  	-0.002075 
1980.894032  	-0.002055 
1982.822848  	-0.002911 
1984.751664  	-0.002796 
1986.680480  	-0.004018 
1988.609296  	-0.003715 
1990.538112  	-0.004327 
1992.466928  	-0.004033 
1994.395744  	-0.004409 
1996.324560  	-0.004145 
1998.253376  	-0.004673 
2000.182192  	-0.004507 
2002.111008  	-0.004134 
2004.039824  	-0.003222 
2005.968640  	-0.003742 
2007.897456  	-0.002763 
2009.826272  	-0.003947 
2011.755088  	-0.004139 
2013.683904  	-0.004412 
2015.612720  	-0.003018 
2017.541536  	-0.002773 
2019.470352  	-0.002415 
2021.399168  	-0.004020 
2023.327984  	-0.003896 
2025.256800  	-0.003280 
2027.185616  	-0.002232 
2029.114432  	-0.002692 
2031.043248  	-0.002170 
2032.972064  	-0.002635 
2034.900880  	-0.002515 
2036.829696  	-0.003379 
2038.758512  	-0.002709 
2040.687328  	-0.003271 
2042.616144  	-0.002882 
2044.544960  	-0.003235 
2046.473776  	-0.002830 
2048.402592  	-0.003485 
2050.331408  	-0.003629 
2052.260224  	-0.004406 
2054.189040  	-0.004708 
2056.117856  	-0.004906 
2058.046672  	-0.004495 
2059.975488  	-0.004624 
2061.904304  	-0.004419 
2063.833120  	-0.004326 
2065.761936  	-0.004284 
2067.690752  	-0.004875 
2069.619568  	-0.004553 
2071.548384  	-0.004348 
2073.477200  	-0.004258 
2075.406016  	-0.004008 
2077.334832  	-0.003645 
2079.263648  	-0.003862 
2081.192464  	-0.003711 
2083.121280  	-0.003647 
2085.050096  	-0.003732 
2086.978912  	-0.004043 
2088.907728  	-0.003690 
2090.836544  	-0.003873 
2092.765360  	-0.003405 
2094.694176  	-0.003291 
2096.622992  	-0.003762 
2098.551808  	-0.004020 
2100.480624  	-0.003450 
2102.409440  	-0.003510 
2104.338256  	-0.003715 
2106.267072  	-0.003572 
2108.195888  	-0.003429 
2110.124704  	-0.003580 
2112.053520  	-0.003095 
2113.982336  	-0.003378 
2115.911152  	-0.003572 
2117.839968  	-0.003733 
2119.768784  	-0.003652 
2121.697600  	-0.003982 
2123.626416  	-0.003733 
2125.555232  	-0.003703 
2127.484048  	-0.003477 
2129.412864  	-0.003449 
2131.341680  	-0.003388 
2133.270496  	-0.003840 
2135.199312  	-0.003379 
2137.128128  	-0.002803 
2139.056944  	-0.002524 
2140.985760  	-0.003225 
2142.914576  	-0.002754 
2144.843392  	-0.002200 
2146.772208  	-0.002505 
2148.701024  	-0.003654 
2150.629840  	-0.002739 
2152.558656  	-0.002161 
2154.487472  	-0.001997 
2156.416288  	-0.003034 
2158.345104  	-0.002285 
2160.273920  	0.000075 
2162.202736  	0.001249 
2164.131552  	0.000401 
2166.060368  	-0.000067 
2167.989184  	-0.000461 
2169.918000  	0.000527 
2171.846816  	-0.001070 
2173.775632  	-0.001381 
2175.704448  	-0.000991 
2177.633264  	-0.000742 
2179.562080  	-0.001717 
2181.490896  	-0.002438 
2183.419712  	-0.002791 
2185.348528  	-0.002290 
2187.277344  	-0.002105 
2189.206160  	-0.001805 
2191.134976  	-0.002217 
2193.063792  	-0.002241 
2194.992608  	-0.002312 
2196.921424  	-0.002156 
2198.850240  	-0.002525 
2200.779056  	-0.002756 
2202.707872  	-0.003356 
2204.636688  	-0.003740 
2206.565504  	-0.003847 
2208.494320  	-0.003300 
2210.423136  	-0.003736 
2212.351952  	-0.004336 
2214.280768  	-0.004628 
2216.209584  	-0.003932 
2218.138400  	-0.004162 
2220.067216  	-0.003806 
2221.996032  	-0.003914 
2223.924848  	-0.003630 
2225.853664  	-0.003746 
2227.782480  	-0.003777 
2229.711296  	-0.003775 
2231.640112  	-0.003875 
2233.568928  	-0.004165 
2235.497744  	-0.004291 
2237.426560  	-0.004859 
2239.355376  	-0.004608 
2241.284192  	-0.004671 
2243.213008  	-0.005039 
2245.141824  	-0.005318 
2247.070640  	-0.004917 
2248.999456  	-0.004488 
2250.928272  	-0.004564 
2252.857088  	-0.005217 
2254.785904  	-0.005566 
2256.714720  	-0.006021 
2258.643536  	-0.006052 
2260.572352  	-0.006113 
2262.501168  	-0.005843 
2264.429984  	-0.005991 
2266.358800  	-0.005875 
2268.287616  	-0.005922 
2270.216432  	-0.005860 
2272.145248  	-0.005849 
2274.074064  	-0.005769 
2276.002880  	-0.005689 
2277.931696  	-0.005360 
2279.860512  	-0.005343 
2281.789328  	-0.005014 
2283.718144  	-0.005023 
2285.646960  	-0.004949 
2287.575776  	-0.004916 
2289.504592  	-0.005168 
2291.433408  	-0.005667 
2293.362224  	-0.005526 
2295.291040  	-0.005164 
2297.219856  	-0.005082 
2299.148672  	-0.005281 
2301.077488  	-0.005173 
2303.006304  	-0.005302 
2304.935120  	-0.005160 
2306.863936  	-0.005239 
2308.792752  	-0.005741 
2310.721568  	-0.006494 
2312.650384  	-0.007486 
2314.579200  	-0.008715 
2316.508016  	-0.009932 
2318.436832  	-0.011529 
2320.365648  	-0.013750 
2322.294464  	-0.016172 
2324.223280  	-0.018558 
2326.152096  	-0.021237 
2328.080912  	-0.023315 
2330.009728  	-0.025627 
2331.938544  	-0.027951 
2333.867360  	-0.029837 
2335.796176  	-0.031606 
2337.724992  	-0.032881 
2339.653808  	-0.032976 
2341.582624  	-0.033570 
2343.511440  	-0.032370 
2345.440256  	-0.028912 
2347.369072  	-0.021808 
2349.297888  	-0.017408 
2351.226704  	-0.021193 
2353.155520  	-0.028940 
2355.084336  	-0.035382 
2357.013152  	-0.040572 
2358.941968  	-0.042943 
2360.870784  	-0.044105 
2362.799600  	-0.043333 
2364.728416  	-0.041535 
2366.657232  	-0.037544 
2368.586048  	-0.032263 
2370.514864  	-0.027040 
2372.443680  	-0.022097 
2374.372496  	-0.017301 
2376.301312  	-0.013064 
2378.230128  	-0.009671 
2380.158944  	-0.007358 
2382.087760  	-0.005944 
2384.016576  	-0.005535 
2385.945392  	-0.005559 
2387.874208  	-0.005611 
2389.803024  	-0.005671 
2391.731840  	-0.005941 
2393.660656  	-0.006083 
2395.589472  	-0.006066 
2397.518288  	-0.005882 
2399.447104  	-0.005992 
2401.375920  	-0.006105 
2403.304736  	-0.006200 
2405.233552  	-0.005944 
2407.162368  	-0.005941 
2409.091184  	-0.005800 
2411.020000  	-0.005817 
2412.948816  	-0.006007 
2414.877632  	-0.006009 
2416.806448  	-0.005779 
2418.735264  	-0.005858 
2420.664080  	-0.006061 
2422.592896  	-0.006141 
2424.521712  	-0.006024 
2426.450528  	-0.006200 
2428.379344  	-0.006012 
2430.308160  	-0.005770 
2432.236976  	-0.005506 
2434.165792  	-0.005626 
2436.094608  	-0.005759 
2438.023424  	-0.005599 
2439.952240  	-0.005277 
2441.881056  	-0.005405 
2443.809872  	-0.005480 
2445.738688  	-0.005243 
2447.667504  	-0.005076 
2449.596320  	-0.005165 
2451.525136  	-0.005139 
2453.453952  	-0.005245 
2455.382768  	-0.005296 
2457.311584  	-0.005347 
2459.240400  	-0.005452 
2461.169216  	-0.005521 
2463.098032  	-0.005469 
2465.026848  	-0.005428 
2466.955664  	-0.005476 
2468.884480  	-0.005667 
2470.813296  	-0.005713 
2472.742112  	-0.005649 
2474.670928  	-0.005551 
2476.599744  	-0.005552 
2478.528560  	-0.005483 
2480.457376  	-0.005354 
2482.386192  	-0.005368 
2484.315008  	-0.005311 
2486.243824  	-0.005280 
2488.172640  	-0.005275 
2490.101456  	-0.005147 
2492.030272  	-0.005001 
2493.959088  	-0.004889 
2495.887904  	-0.004954 
2497.816720  	-0.005009 
2499.745536  	-0.004862 
2501.674352  	-0.004755 
2503.603168  	-0.004631 
2505.531984  	-0.004678 
2507.460800  	-0.004883 
2509.389616  	-0.004793 
2511.318432  	-0.004637 
2513.247248  	-0.004698 
2515.176064  	-0.005024 
2517.104880  	-0.005059 
2519.033696  	-0.004979 
2520.962512  	-0.004611 
2522.891328  	-0.004454 
2524.820144  	-0.004541 
2526.748960  	-0.004565 
2528.677776  	-0.004386 
2530.606592  	-0.004467 
2532.535408  	-0.004594 
2534.464224  	-0.004570 
2536.393040  	-0.004439 
2538.321856  	-0.004245 
2540.250672  	-0.004133 
2542.179488  	-0.004205 
2544.108304  	-0.004140 
2546.037120  	-0.003961 
2547.965936  	-0.003817 
2549.894752  	-0.003932 
2551.823568  	-0.004008 
2553.752384  	-0.003708 
2555.681200  	-0.003351 
2557.610016  	-0.003515 
2559.538832  	-0.003451 
2561.467648  	-0.003271 
2563.396464  	-0.003105 
2565.325280  	-0.003025 
2567.254096  	-0.003095 
2569.182912  	-0.003118 
2571.111728  	-0.003049 
2573.040544  	-0.003146 
2574.969360  	-0.003170 
2576.898176  	-0.003008 
2578.826992  	-0.002857 
2580.755808  	-0.002878 
2582.684624  	-0.002882 
2584.613440  	-0.002803 
2586.542256  	-0.002771 
2588.471072  	-0.002649 
2590.399888  	-0.002570 
2592.328704  	-0.002689 
2594.257520  	-0.002782 
2596.186336  	-0.002737 
2598.115152  	-0.002520 
2600.043968  	-0.002416 
2601.972784  	-0.002219 
2603.901600  	-0.002144 
2605.830416  	-0.001981 
2607.759232  	-0.001818 
2609.688048  	-0.001773 
2611.616864  	-0.001780 
2613.545680  	-0.001679 
2615.474496  	-0.001497 
2617.403312  	-0.001252 
2619.332128  	-0.001176 
2621.260944  	-0.000984 
2623.189760  	-0.000892 
2625.118576  	-0.000927 
2627.047392  	-0.000959 
2628.976208  	-0.000795 
2630.905024  	-0.000692 
2632.833840  	-0.000678 
2634.762656  	-0.000563 
2636.691472  	-0.000505 
2638.620288  	-0.000398 
2640.549104  	-0.000355 
2642.477920  	-0.000347 
2644.406736  	-0.000091 
2646.335552  	0.000061 
2648.264368  	0.000161 
2650.193184  	0.000253 
2652.122000  	0.000397 
2654.050816  	0.000511 
2655.979632  	0.000565 
2657.908448  	0.000633 
2659.837264  	0.000825 
2661.766080  	0.000926 
2663.694896  	0.001065 
2665.623712  	0.001171 
2667.552528  	0.001295 
2669.481344  	0.001465 
2671.410160  	0.001580 
2673.338976  	0.001689 
2675.267792  	0.001895 
2677.196608  	0.002114 
2679.125424  	0.002220 
2681.054240  	0.002283 
2682.983056  	0.002489 
2684.911872  	0.002544 
2686.840688  	0.002567 
2688.769504  	0.002577 
2690.698320  	0.002739 
2692.627136  	0.002878 
2694.555952  	0.002936 
2696.484768  	0.002999 
2698.413584  	0.002979 
2700.342400  	0.003026 
2702.271216  	0.003302 
2704.200032  	0.003517 
2706.128848  	0.003625 
2708.057664  	0.003662 
2709.986480  	0.003780 
2711.915296  	0.003933 
2713.844112  	0.004132 
2715.772928  	0.004272 
2717.701744  	0.004409 
2719.630560  	0.004608 
2721.559376  	0.004777 
2723.488192  	0.004908 
2725.417008  	0.005108 
2727.345824  	0.005337 
2729.274640  	0.005460 
2731.203456  	0.005632 
2733.132272  	0.005976 
2735.061088  	0.006100 
2736.989904  	0.006242 
2738.918720  	0.006397 
2740.847536  	0.006532 
2742.776352  	0.006598 
2744.705168  	0.006708 
2746.633984  	0.006771 
2748.562800  	0.006759 
2750.491616  	0.006848 
2752.420432  	0.007075 
2754.349248  	0.006963 
2756.278064  	0.006922 
2758.206880  	0.007065 
2760.135696  	0.007171 
2762.064512  	0.007171 
2763.993328  	0.007059 
2765.922144  	0.007077 
2767.850960  	0.007173 
2769.779776  	0.007225 
2771.708592  	0.007336 
2773.637408  	0.007358 
2775.566224  	0.007290 
2777.495040  	0.007263 
2779.423856  	0.007476 
2781.352672  	0.007596 
2783.281488  	0.007606 
2785.210304  	0.007628 
2787.139120  	0.007731 
2789.067936  	0.007812 
2790.996752  	0.007853 
2792.925568  	0.007779 
2794.854384  	0.007826 
2796.783200  	0.007927 
2798.712016  	0.007983 
2800.640832  	0.008008 
2802.569648  	0.008137 
2804.498464  	0.008218 
2806.427280  	0.008238 
2808.356096  	0.008272 
2810.284912  	0.008395 
2812.213728  	0.008484 
2814.142544  	0.008523 
2816.071360  	0.008544 
2818.000176  	0.008490 
2819.928992  	0.008563 
2821.857808  	0.008636 
2823.786624  	0.008605 
2825.715440  	0.008667 
2827.644256  	0.008693 
2829.573072  	0.008875 
2831.501888  	0.008931 
2833.430704  	0.008858 
2835.359520  	0.008836 
2837.288336  	0.008953 
2839.217152  	0.009043 
2841.145968  	0.009144 
2843.074784  	0.009247 
2845.003600  	0.009285 
2846.932416  	0.009482 
2848.861232  	0.009820 
2850.790048  	0.010125 
2852.718864  	0.010338 
2854.647680  	0.010666 
2856.576496  	0.011080 
2858.505312  	0.011484 
2860.434128  	0.012089 
2862.362944  	0.012666 
2864.291760  	0.013115 
2866.220576  	0.013733 
2868.149392  	0.014349 
2870.078208  	0.014663 
2872.007024  	0.015072 
2873.935840  	0.015684 
2875.864656  	0.016406 
2877.793472  	0.017258 
2879.722288  	0.018197 
2881.651104  	0.019193 
2883.579920  	0.020121 
2885.508736  	0.020714 
2887.437552  	0.020903 
2889.366368  	0.021116 
2891.295184  	0.021537 
2893.224000  	0.021885 
2895.152816  	0.021957 
2897.081632  	0.022158 
2899.010448  	0.022977 
2900.939264  	0.023789 
2902.868080  	0.023508 
2904.796896  	0.023169 
2906.725712  	0.023173 
2908.654528  	0.023363 
2910.583344  	0.023699 
2912.512160  	0.023625 
2914.440976  	0.023441 
2916.369792  	0.023594 
2918.298608  	0.023916 
2920.227424  	0.024310 
2922.156240  	0.024785 
2924.085056  	0.025233 
2926.013872  	0.025756 
2927.942688  	0.026318 
2929.871504  	0.026774 
2931.800320  	0.027198 
2933.729136  	0.027815 
2935.657952  	0.028497 
2937.586768  	0.029190 
2939.515584  	0.029962 
2941.444400  	0.030655 
2943.373216  	0.031056 
2945.302032  	0.031393 
2947.230848  	0.031693 
2949.159664  	0.032018 
2951.088480  	0.032388 
2953.017296  	0.032828 
2954.946112  	0.033189 
2956.874928  	0.033488 
2958.803744  	0.033701 
2960.732560  	0.033976 
2962.661376  	0.034204 
2964.590192  	0.034543 
2966.519008  	0.035042 
2968.447824  	0.035485 
2970.376640  	0.035612 
2972.305456  	0.035471 
2974.234272  	0.035256 
2976.163088  	0.035195 
2978.091904  	0.034999 
2980.020720  	0.034839 
2981.949536  	0.034701 
2983.878352  	0.034865 
2985.807168  	0.035261 
2987.735984  	0.035633 
2989.664800  	0.035253 
2991.593616  	0.033771 
2993.522432  	0.033045 
2995.451248  	0.032795 
2997.380064  	0.032494 
2999.308880  	0.032014 
3001.237696  	0.031600 
3003.166512  	0.031439 
3005.095328  	0.031077 
3007.024144  	0.030590 
3008.952960  	0.030146 
3010.881776  	0.029875 
3012.810592  	0.029703 
3014.739408  	0.029351 
3016.668224  	0.029033 
3018.597040  	0.028958 
3020.525856  	0.028785 
3022.454672  	0.028502 
3024.383488  	0.028399 
3026.312304  	0.028409 
3028.241120  	0.028591 
3030.169936  	0.028636 
3032.098752  	0.028689 
3034.027568  	0.028798 
3035.956384  	0.028905 
3037.885200  	0.029219 
3039.814016  	0.029459 
3041.742832  	0.029669 
3043.671648  	0.029921 
3045.600464  	0.030327 
3047.529280  	0.030565 
3049.458096  	0.030777 
3051.386912  	0.031273 
3053.315728  	0.031890 
3055.244544  	0.032378 
3057.173360  	0.032883 
3059.102176  	0.033452 
3061.030992  	0.034067 
3062.959808  	0.034720 
3064.888624  	0.035338 
3066.817440  	0.036001 
3068.746256  	0.036725 
3070.675072  	0.037474 
3072.603888  	0.038247 
3074.532704  	0.038897 
3076.461520  	0.039452 
3078.390336  	0.040264 
3080.319152  	0.041087 
3082.247968  	0.041830 
3084.176784  	0.042489 
3086.105600  	0.043305 
3088.034416  	0.044123 
3089.963232  	0.044845 
3091.892048  	0.045395 
3093.820864  	0.046137 
3095.749680  	0.046980 
3097.678496  	0.047836 
3099.607312  	0.048657 
3101.536128  	0.049430 
3103.464944  	0.050259 
3105.393760  	0.051105 
3107.322576  	0.051916 
3109.251392  	0.052648 
3111.180208  	0.053290 
3113.109024  	0.054008 
3115.037840  	0.054692 
3116.966656  	0.055322 
3118.895472  	0.055978 
3120.824288  	0.056647 
3122.753104  	0.057307 
3124.681920  	0.057798 
3126.610736  	0.058267 
3128.539552  	0.059090 
3130.468368  	0.059809 
3132.397184  	0.060329 
3134.326000  	0.061043 
3136.254816  	0.061656 
3138.183632  	0.062278 
3140.112448  	0.062924 
3142.041264  	0.063457 
3143.970080  	0.063929 
3145.898896  	0.064706 
3147.827712  	0.065607 
3149.756528  	0.066137 
3151.685344  	0.066551 
3153.614160  	0.067306 
3155.542976  	0.068049 
3157.471792  	0.068591 
3159.400608  	0.069271 
3161.329424  	0.070022 
3163.258240  	0.070551 
3165.187056  	0.070987 
3167.115872  	0.071590 
3169.044688  	0.072060 
3170.973504  	0.072521 
3172.902320  	0.073011 
3174.831136  	0.073428 
3176.759952  	0.073930 
3178.688768  	0.074394 
3180.617584  	0.074764 
3182.546400  	0.075011 
3184.475216  	0.075338 
3186.404032  	0.075574 
3188.332848  	0.075741 
3190.261664  	0.076025 
3192.190480  	0.076361 
3194.119296  	0.076513 
3196.048112  	0.076723 
3197.976928  	0.076721 
3199.905744  	0.076694 
3201.834560  	0.076648 
3203.763376  	0.076703 
3205.692192  	0.076754 
3207.621008  	0.076624 
3209.549824  	0.076424 
3211.478640  	0.076503 
3213.407456  	0.076620 
3215.336272  	0.076437 
3217.265088  	0.076340 
3219.193904  	0.076176 
3221.122720  	0.075900 
3223.051536  	0.075578 
3224.980352  	0.075514 
3226.909168  	0.075602 
3228.837984  	0.075432 
3230.766800  	0.075238 
3232.695616  	0.075023 
3234.624432  	0.074948 
3236.553248  	0.075063 
3238.482064  	0.075137 
3240.410880  	0.075032 
3242.339696  	0.075071 
3244.268512  	0.074985 
3246.197328  	0.075012 
3248.126144  	0.075415 
3250.054960  	0.075529 
3251.983776  	0.075634 
3253.912592  	0.075863 
3255.841408  	0.076091 
3257.770224  	0.076319 
3259.699040  	0.076560 
3261.627856  	0.076847 
3263.556672  	0.077166 
3265.485488  	0.077276 
3267.414304  	0.077401 
3269.343120  	0.077740 
3271.271936  	0.077971 
3273.200752  	0.078003 
3275.129568  	0.078136 
3277.058384  	0.078563 
3278.987200  	0.078854 
3280.916016  	0.078941 
3282.844832  	0.079053 
3284.773648  	0.079231 
3286.702464  	0.079431 
3288.631280  	0.079770 
3290.560096  	0.080053 
3292.488912  	0.080426 
3294.417728  	0.080800 
3296.346544  	0.081117 
3298.275360  	0.081352 
3300.204176  	0.081711 
3302.132992  	0.082064 
3304.061808  	0.082221 
3305.990624  	0.082595 
3307.919440  	0.082956 
3309.848256  	0.083133 
3311.777072  	0.083458 
3313.705888  	0.083828 
3315.634704  	0.084422 
3317.563520  	0.084854 
3319.492336  	0.085256 
3321.421152  	0.085455 
3323.349968  	0.085708 
3325.278784  	0.086017 
3327.207600  	0.086201 
3329.136416  	0.085992 
3331.065232  	0.086029 
3332.994048  	0.086451 
3334.922864  	0.086748 
3336.851680  	0.086834 
3338.780496  	0.086576 
3340.709312  	0.086289 
3342.638128  	0.086213 
3344.566944  	0.085989 
3346.495760  	0.085759 
3348.424576  	0.085514 
3350.353392  	0.085271 
3352.282208  	0.084937 
3354.211024  	0.084635 
3356.139840  	0.084524 
3358.068656  	0.084248 
3359.997472  	0.084002 
3361.926288  	0.083593 
3363.855104  	0.083167 
3365.783920  	0.082883 
3367.712736  	0.082717 
3369.641552  	0.082338 
3371.570368  	0.081827 
3373.499184  	0.081386 
3375.428000  	0.081042 
3377.356816  	0.080739 
3379.285632  	0.080683 
3381.214448  	0.080529 
3383.143264  	0.080092 
3385.072080  	0.079449 
3387.000896  	0.079031 
3388.929712  	0.078764 
3390.858528  	0.078581 
3392.787344  	0.078369 
3394.716160  	0.077813 
3396.644976  	0.077343 
3398.573792  	0.076977 
3400.502608  	0.076736 
3402.431424  	0.076323 
3404.360240  	0.075618 
3406.289056  	0.075012 
3408.217872  	0.074641 
3410.146688  	0.074155 
3412.075504  	0.073690 
3414.004320  	0.073200 
3415.933136  	0.072871 
3417.861952  	0.072305 
3419.790768  	0.071724 
3421.719584  	0.071310 
3423.648400  	0.070969 
3425.577216  	0.070275 
3427.506032  	0.069648 
3429.434848  	0.069199 
3431.363664  	0.068576 
3433.292480  	0.067936 
3435.221296  	0.067421 
3437.150112  	0.067034 
3439.078928  	0.066582 
3441.007744  	0.065989 
3442.936560  	0.065581 
3444.865376  	0.065358 
3446.794192  	0.064607 
3448.723008  	0.063513 
3450.651824  	0.062861 
3452.580640  	0.062298 
3454.509456  	0.061940 
3456.438272  	0.061505 
3458.367088  	0.060875 
3460.295904  	0.060123 
3462.224720  	0.059193 
3464.153536  	0.058416 
3466.082352  	0.057684 
3468.011168  	0.056765 
3469.939984  	0.056006 
3471.868800  	0.055440 
3473.797616  	0.054668 
3475.726432  	0.053902 
3477.655248  	0.053086 
3479.584064  	0.052612 
3481.512880  	0.052067 
3483.441696  	0.051029 
3485.370512  	0.050385 
3487.299328  	0.049416 
3489.228144  	0.048480 
3491.156960  	0.047706 
3493.085776  	0.046909 
3495.014592  	0.046147 
3496.943408  	0.045419 
3498.872224  	0.045086 
3500.801040  	0.045223 
3502.729856  	0.044460 
3504.658672  	0.043023 
3506.587488  	0.042500 
3508.516304  	0.042216 
3510.445120  	0.041042 
3512.373936  	0.039974 
3514.302752  	0.039532 
3516.231568  	0.039306 
3518.160384  	0.038722 
3520.089200  	0.038192 
3522.018016  	0.038245 
3523.946832  	0.038082 
3525.875648  	0.036929 
3527.804464  	0.035367 
3529.733280  	0.034349 
3531.662096  	0.033699 
3533.590912  	0.033319 
3535.519728  	0.033246 
3537.448544  	0.032632 
3539.377360  	0.031640 
3541.306176  	0.031184 
3543.234992  	0.031369 
3545.163808  	0.031777 
3547.092624  	0.030597 
3549.021440  	0.028989 
3550.950256  	0.028347 
3552.879072  	0.027511 
3554.807888  	0.026932 
3556.736704  	0.026390 
3558.665520  	0.026220 
3560.594336  	0.025822 
3562.523152  	0.025131 
3564.451968  	0.025678 
3566.380784  	0.025943 
3568.309600  	0.023277 
3570.238416  	0.021819 
3572.167232  	0.021381 
3574.096048  	0.020426 
3576.024864  	0.019487 
3577.953680  	0.019130 
3579.882496  	0.018587 
3581.811312  	0.017899 
3583.740128  	0.017726 
3585.668944  	0.018212 
3587.597760  	0.016480 
3589.526576  	0.014372 
3591.455392  	0.014155 
3593.384208  	0.013787 
3595.313024  	0.012721 
3597.241840  	0.011421 
3599.170656  	0.010121 
3601.099472  	0.009003 
3603.028288  	0.009082 
3604.957104  	0.009487 
3606.885920  	0.008866 
3608.814736  	0.007271 
3610.743552  	0.007197 
3612.672368  	0.006219 
3614.601184  	0.004813 
3616.530000  	0.005055 
3618.458816  	0.003208 
3620.387632  	0.000981 
3622.316448  	0.001301 
3624.245264  	0.001793 
3626.174080  	0.002188 
3628.102896  	-0.000411 
3630.031712  	-0.004511 
3631.960528  	-0.002212 
3633.889344  	-0.001999 
3635.818160  	-0.002425 
3637.746976  	-0.002898 
3639.675792  	-0.002729 
3641.604608  	-0.001998 
3643.533424  	-0.001616 
3645.462240  	-0.001404 
3647.391056  	-0.004034 
3649.319872  	-0.009046 
3651.248688  	-0.010514 
3653.177504  	-0.006441 
3655.106320  	-0.005943 
3657.035136  	-0.008216 
3658.963952  	-0.006994 
3660.892768  	-0.006441 
3662.821584  	-0.006613 
3664.750400  	-0.006731 
3666.679216  	-0.006476 
3668.608032  	-0.008612 
3670.536848  	-0.012981 
3672.465664  	-0.010496 
3674.394480  	-0.010892 
3676.323296  	-0.016143 
3678.252112  	-0.013190 
3680.180928  	-0.011992 
3682.109744  	-0.010809 
3684.038560  	-0.010193 
3685.967376  	-0.010039 
3687.896192  	-0.013297 
3689.825008  	-0.017491 
3691.753824  	-0.016643 
3693.682640  	-0.014161 
3695.611456  	-0.013385 
3697.540272  	-0.013367 
3699.469088  	-0.013323 
3701.397904  	-0.015428 
3703.326720  	-0.016396 
3705.255536  	-0.014991 
3707.184352  	-0.014757 
3709.113168  	-0.016729 
3711.041984  	-0.019868 
3712.970800  	-0.019324 
3714.899616  	-0.015709 
3716.828432  	-0.014633 
3718.757248  	-0.015235 
3720.686064  	-0.016114 
3722.614880  	-0.016930 
3724.543696  	-0.016104 
3726.472512  	-0.016595 
3728.401328  	-0.016644 
3730.330144  	-0.016967 
3732.258960  	-0.019243 
3734.187776  	-0.018239 
3736.116592  	-0.019377 
3738.045408  	-0.019112 
3739.974224  	-0.016577 
3741.903040  	-0.014805 
3743.831856  	-0.017686 
3745.760672  	-0.020621 
3747.689488  	-0.017641 
3749.618304  	-0.020344 
3751.547120  	-0.023038 
3753.475936  	-0.020476 
3755.404752  	-0.017089 
3757.333568  	-0.016772 
3759.262384  	-0.017860 
3761.191200  	-0.017573 
3763.120016  	-0.015222 
3765.048832  	-0.015968 
3766.977648  	-0.016048 
3768.906464  	-0.016881 
3770.835280  	-0.018167 
3772.764096  	-0.016432 
3774.692912  	-0.015482 
3776.621728  	-0.015102 
3778.550544  	-0.016468 
3780.479360  	-0.017806 
3782.408176  	-0.015908 
3784.336992  	-0.015975 
3786.265808  	-0.015859 
3788.194624  	-0.015343 
3790.123440  	-0.015391 
3792.052256  	-0.015476 
3793.981072  	-0.015348 
3795.909888  	-0.017015 
3797.838704  	-0.016964 
3799.767520  	-0.016773 
3801.696336  	-0.021742 
3803.625152  	-0.019400 
3805.553968  	-0.017482 
3807.482784  	-0.019900 
3809.411600  	-0.017255 
3811.340416  	-0.015223 
3813.269232  	-0.014454 
3815.198048  	-0.017606 
3817.126864  	-0.019829 
3819.055680  	-0.017318 
3820.984496  	-0.021247 
3822.913312  	-0.020324 
3824.842128  	-0.016728 
3826.770944  	-0.017254 
3828.699760  	-0.016394 
3830.628576  	-0.016507 
3832.557392  	-0.017571 
3834.486208  	-0.017288 
3836.415024  	-0.018420 
3838.343840  	-0.020493 
3840.272656  	-0.019544 
3842.201472  	-0.017701 
3844.130288  	-0.017334 
3846.059104  	-0.016026 
3847.987920  	-0.014654 
3849.916736  	-0.014269 
3851.845552  	-0.016906 
3853.774368  	-0.024289 
3855.703184  	-0.020669 
3857.632000  	-0.016624 
3859.560816  	-0.015024 
3861.489632  	-0.014966 
3863.418448  	-0.016058 
3865.347264  	-0.017066 
3867.276080  	-0.015111 
3869.204896  	-0.016235 
3871.133712  	-0.017272 
3873.062528  	-0.016063 
3874.991344  	-0.017155 
3876.920160  	-0.015039 
3878.848976  	-0.014108 
3880.777792  	-0.015556 
3882.706608  	-0.014675 
3884.635424  	-0.014859 
3886.564240  	-0.016940 
3888.493056  	-0.015176 
3890.421872  	-0.015525 
3892.350688  	-0.017054 
3894.279504  	-0.015589 
3896.208320  	-0.014095 
3898.137136  	-0.013845 
3900.065952  	-0.014385 
3901.994768  	-0.014398 
3903.923584  	-0.015830 
3905.852400  	-0.016508 
3907.781216  	-0.015727 
3909.710032  	-0.015406 
3911.638848  	-0.015330 
3913.567664  	-0.014779 
3915.496480  	-0.014017 
3917.425296  	-0.014322 
3919.354112  	-0.014781 
3921.282928  	-0.014627 
3923.211744  	-0.013966 
3925.140560  	-0.014396 
3927.069376  	-0.014653 
3928.998192  	-0.014410 
3930.927008  	-0.013848 
3932.855824  	-0.014217 
3934.784640  	-0.014998 
3936.713456  	-0.015086 
3938.642272  	-0.014768 
3940.571088  	-0.014193 
3942.499904  	-0.014110 
3944.428720  	-0.014439 
3946.357536  	-0.013843 
3948.286352  	-0.013672 
3950.215168  	-0.014533 
3952.143984  	-0.015314 
3954.072800  	-0.015417 
3956.001616  	-0.015151 
3957.930432  	-0.015089 
3959.859248  	-0.014907 
3961.788064  	-0.014901 
3963.716880  	-0.015333 
3965.645696  	-0.015581 
3967.574512  	-0.015241 
3969.503328  	-0.014898 
3971.432144  	-0.015130 
3973.360960  	-0.015207 
3975.289776  	-0.014946 
3977.218592  	-0.014897 
3979.147408  	-0.015139 
3981.076224  	-0.015156 
3983.005040  	-0.015070 
3984.933856  	-0.015037 
3986.862672  	-0.015149 
3988.791488  	-0.014865 
3990.720304  	-0.014550 
3992.649120  	-0.014694 
3994.577936  	-0.015109 
3996.506752  	-0.015299 
3998.435568  	-0.015099 
4000.364384  	-0.015070 