##TITLE=No Description
##DATA TYPE=INFRARED SPECTRUM
##XUNITS=1/CM
##YUNITS=Abs
399.264912  	0.634683 
401.193728  	0.620534 
403.122544  	0.624425 
405.051360  	0.610844 
406.980176  	0.591464 
408.908992  	0.580755 
410.837808  	0.584265 
412.766624  	0.587261 
414.695440  	0.592945 
416.624256  	0.589174 
418.553072  	0.591328 
420.481888  	0.568719 
422.410704  	0.567190 
424.339520  	0.571412 
426.268336  	0.570182 
428.197152  	0.558937 
430.125968  	0.554445 
432.054784  	0.554618 
433.983600  	0.562817 
435.912416  	0.557448 
437.841232  	0.548225 
439.770048  	0.540458 
441.698864  	0.537012 
443.627680  	0.531606 
445.556496  	0.535336 
447.485312  	0.538814 
449.414128  	0.539206 
451.342944  	0.535766 
453.271760  	0.538016 
455.200576  	0.536119 
457.129392  	0.532309 
459.058208  	0.526751 
460.987024  	0.532380 
462.915840  	0.532254 
464.844656  	0.525547 
466.773472  	0.522838 
468.702288  	0.529264 
470.631104  	0.528251 
472.559920  	0.532134 
474.488736  	0.533865 
476.417552  	0.532845 
478.346368  	0.527263 
480.275184  	0.528700 
482.204000  	0.524273 
484.132816  	0.521466 
486.061632  	0.519375 
487.990448  	0.518528 
489.919264  	0.516116 
491.848080  	0.522171 
493.776896  	0.520616 
495.705712  	0.513941 
497.634528  	0.510683 
499.563344  	0.511494 
501.492160  	0.507946 
503.420976  	0.510014 
505.349792  	0.510259 
507.278608  	0.510357 
509.207424  	0.508951 
511.136240  	0.509353 
513.065056  	0.509206 
514.993872  	0.513241 
516.922688  	0.515384 
518.851504  	0.517085 
520.780320  	0.515099 
522.709136  	0.514880 
524.637952  	0.513286 
526.566768  	0.512193 
528.495584  	0.508367 
530.424400  	0.505393 
532.353216  	0.501269 
534.282032  	0.497882 
536.210848  	0.491013 
538.139664  	0.486471 
540.068480  	0.481020 
541.997296  	0.476571 
543.926112  	0.472560 
545.854928  	0.468976 
547.783744  	0.464468 
549.712560  	0.462035 
551.641376  	0.458149 
553.570192  	0.454521 
555.499008  	0.451271 
557.427824  	0.449164 
559.356640  	0.445891 
561.285456  	0.442957 
563.214272  	0.438807 
565.143088  	0.434591 
567.071904  	0.430533 
569.000720  	0.427796 
570.929536  	0.423600 
572.858352  	0.420969 
574.787168  	0.419022 
576.715984  	0.416842 
578.644800  	0.413009 
580.573616  	0.409393 
582.502432  	0.404110 
584.431248  	0.400879 
586.360064  	0.397503 
588.288880  	0.394769 
590.217696  	0.391107 
592.146512  	0.388189 
594.075328  	0.386119 
596.004144  	0.384550 
597.932960  	0.382850 
599.861776  	0.382154 
601.790592  	0.380353 
603.719408  	0.378889 
605.648224  	0.376919 
607.577040  	0.375329 
609.505856  	0.373787 
611.434672  	0.372546 
613.363488  	0.370369 
615.292304  	0.368907 
617.221120  	0.366835 
619.149936  	0.365235 
621.078752  	0.364452 
623.007568  	0.363658 
624.936384  	0.362237 
626.865200  	0.360895 
628.794016  	0.359501 
630.722832  	0.359536 
632.651648  	0.358945 
634.580464  	0.359020 
636.509280  	0.358835 
638.438096  	0.357831 
640.366912  	0.356635 
642.295728  	0.354728 
644.224544  	0.351682 
646.153360  	0.348286 
648.082176  	0.343607 
650.010992  	0.340134 
651.939808  	0.336192 
653.868624  	0.331741 
655.797440  	0.327520 
657.726256  	0.324083 
659.655072  	0.320818 
661.583888  	0.316778 
663.512704  	0.313062 
665.441520  	0.310370 
667.370336  	0.300653 
669.299152  	0.293572 
671.227968  	0.295438 
673.156784  	0.292837 
675.085600  	0.289743 
677.014416  	0.286563 
678.943232  	0.284391 
680.872048  	0.283513 
682.800864  	0.282275 
684.729680  	0.280761 
686.658496  	0.279523 
688.587312  	0.278605 
690.516128  	0.277019 
692.444944  	0.275820 
694.373760  	0.275105 
696.302576  	0.273274 
698.231392  	0.270888 
700.160208  	0.268777 
702.089024  	0.266541 
704.017840  	0.263885 
705.946656  	0.261480 
707.875472  	0.259432 
709.804288  	0.257728 
711.733104  	0.256159 
713.661920  	0.254329 
715.590736  	0.252796 
717.519552  	0.252111 
719.448368  	0.252198 
721.377184  	0.252696 
723.306000  	0.253623 
725.234816  	0.253820 
727.163632  	0.253061 
729.092448  	0.250781 
731.021264  	0.247843 
732.950080  	0.244545 
734.878896  	0.241226 
736.807712  	0.238091 
738.736528  	0.235730 
740.665344  	0.233793 
742.594160  	0.232144 
744.522976  	0.231059 
746.451792  	0.229704 
748.380608  	0.227807 
750.309424  	0.226391 
752.238240  	0.225355 
754.167056  	0.224550 
756.095872  	0.223332 
758.024688  	0.222492 
759.953504  	0.222024 
761.882320  	0.222571 
763.811136  	0.223240 
765.739952  	0.222604 
767.668768  	0.220245 
769.597584  	0.217901 
771.526400  	0.216819 
773.455216  	0.218295 
775.384032  	0.221704 
777.312848  	0.226743 
779.241664  	0.230937 
781.170480  	0.231461 
783.099296  	0.228170 
785.028112  	0.222207 
786.956928  	0.216009 
788.885744  	0.211143 
790.814560  	0.207495 
792.743376  	0.205043 
794.672192  	0.203685 
796.601008  	0.202559 
798.529824  	0.199774 
800.458640  	0.195480 
802.387456  	0.191745 
804.316272  	0.189691 
806.245088  	0.188464 
808.173904  	0.187665 
810.102720  	0.187420 
812.031536  	0.187311 
813.960352  	0.187553 
815.889168  	0.188113 
817.817984  	0.188540 
819.746800  	0.188531 
821.675616  	0.188506 
823.604432  	0.188345 
825.533248  	0.187852 
827.462064  	0.187269 
829.390880  	0.186636 
831.319696  	0.185373 
833.248512  	0.183217 
835.177328  	0.180800 
837.106144  	0.178349 
839.034960  	0.175180 
840.963776  	0.171431 
842.892592  	0.167520 
844.821408  	0.163971 
846.750224  	0.161440 
848.679040  	0.159333 
850.607856  	0.157385 
852.536672  	0.155926 
854.465488  	0.154951 
856.394304  	0.154179 
858.323120  	0.153745 
860.251936  	0.152909 
862.180752  	0.151453 
864.109568  	0.149634 
866.038384  	0.147907 
867.967200  	0.146450 
869.896016  	0.145036 
871.824832  	0.144335 
873.753648  	0.143785 
875.682464  	0.143871 
877.611280  	0.145946 
879.540096  	0.148682 
881.468912  	0.149440 
883.397728  	0.150227 
885.326544  	0.150940 
887.255360  	0.151390 
889.184176  	0.151421 
891.112992  	0.151066 
893.041808  	0.148885 
894.970624  	0.145475 
896.899440  	0.141738 
898.828256  	0.137261 
900.757072  	0.132773 
902.685888  	0.128827 
904.614704  	0.126107 
906.543520  	0.125469 
908.472336  	0.126075 
910.401152  	0.127832 
912.329968  	0.129967 
914.258784  	0.132296 
916.187600  	0.134624 
918.116416  	0.136836 
920.045232  	0.138403 
921.974048  	0.139024 
923.902864  	0.139172 
925.831680  	0.139024 
927.760496  	0.139041 
929.689312  	0.139285 
931.618128  	0.139823 
933.546944  	0.140257 
935.475760  	0.140432 
937.404576  	0.140298 
939.333392  	0.139957 
941.262208  	0.140077 
943.191024  	0.141541 
945.119840  	0.145401 
947.048656  	0.151399 
948.977472  	0.159296 
950.906288  	0.169063 
952.835104  	0.180161 
954.763920  	0.191710 
956.692736  	0.202585 
958.621552  	0.211835 
960.550368  	0.218500 
962.479184  	0.221749 
964.408000  	0.220826 
966.336816  	0.216168 
968.265632  	0.207852 
970.194448  	0.196561 
972.123264  	0.183375 
974.052080  	0.169584 
975.980896  	0.156233 
977.909712  	0.143694 
979.838528  	0.132419 
981.767344  	0.123165 
983.696160  	0.116250 
985.624976  	0.111969 
987.553792  	0.110718 
989.482608  	0.112406 
991.411424  	0.116564 
993.340240  	0.122310 
995.269056  	0.129526 
997.197872  	0.137341 
999.126688  	0.145219 
1001.055504  	0.153414 
1002.984320  	0.162095 
1004.913136  	0.170844 
1006.841952  	0.179231 
1008.770768  	0.186752 
1010.699584  	0.193153 
1012.628400  	0.197700 
1014.557216  	0.200707 
1016.486032  	0.202451 
1018.414848  	0.203497 
1020.343664  	0.203930 
1022.272480  	0.203990 
1024.201296  	0.205105 
1026.130112  	0.209192 
1028.058928  	0.211823 
1029.987744  	0.210284 
1031.916560  	0.213144 
1033.845376  	0.219702 
1035.774192  	0.228880 
1037.703008  	0.238741 
1039.631824  	0.248083 
1041.560640  	0.260428 
1043.489456  	0.276431 
1045.418272  	0.294310 
1047.347088  	0.312914 
1049.275904  	0.329631 
1051.204720  	0.342743 
1053.133536  	0.349933 
1055.062352  	0.354193 
1056.991168  	0.356191 
1058.919984  	0.353189 
1060.848800  	0.347825 
1062.777616  	0.346961 
1064.706432  	0.349205 
1066.635248  	0.347503 
1068.564064  	0.335831 
1070.492880  	0.325932 
1072.421696  	0.319796 
1074.350512  	0.315844 
1076.279328  	0.313449 
1078.208144  	0.313360 
1080.136960  	0.314109 
1082.065776  	0.314652 
1083.994592  	0.312700 
1085.923408  	0.308136 
1087.852224  	0.300822 
1089.781040  	0.291554 
1091.709856  	0.278992 
1093.638672  	0.266712 
1095.567488  	0.254133 
1097.496304  	0.241111 
1099.425120  	0.227311 
1101.353936  	0.213292 
1103.282752  	0.199112 
1105.211568  	0.185105 
1107.140384  	0.171236 
1109.069200  	0.158218 
1110.998016  	0.145630 
1112.926832  	0.134098 
1114.855648  	0.123817 
1116.784464  	0.114157 
1118.713280  	0.105166 
1120.642096  	0.097053 
1122.570912  	0.089824 
1124.499728  	0.083156 
1126.428544  	0.077070 
1128.357360  	0.071466 
1130.286176  	0.066915 
1132.214992  	0.063147 
1134.143808  	0.060137 
1136.072624  	0.057561 
1138.001440  	0.055267 
1139.930256  	0.052767 
1141.859072  	0.050179 
1143.787888  	0.047476 
1145.716704  	0.045063 
1147.645520  	0.042762 
1149.574336  	0.040779 
1151.503152  	0.039346 
1153.431968  	0.038684 
1155.360784  	0.038540 
1157.289600  	0.039306 
1159.218416  	0.040785 
1161.147232  	0.042961 
1163.076048  	0.045197 
1165.004864  	0.047563 
1166.933680  	0.049687 
1168.862496  	0.051940 
1170.791312  	0.054413 
1172.720128  	0.057485 
1174.648944  	0.060446 
1176.577760  	0.063328 
1178.506576  	0.065990 
1180.435392  	0.068993 
1182.364208  	0.071992 
1184.293024  	0.075451 
1186.221840  	0.079179 
1188.150656  	0.083506 
1190.079472  	0.088599 
1192.008288  	0.094686 
1193.937104  	0.101745 
1195.865920  	0.109929 
1197.794736  	0.118790 
1199.723552  	0.128341 
1201.652368  	0.138158 
1203.581184  	0.148137 
1205.510000  	0.158076 
1207.438816  	0.167713 
1209.367632  	0.176736 
1211.296448  	0.184871 
1213.225264  	0.192081 
1215.154080  	0.197813 
1217.082896  	0.202520 
1219.011712  	0.206106 
1220.940528  	0.209098 
1222.869344  	0.210999 
1224.798160  	0.212224 
1226.726976  	0.212337 
1228.655792  	0.211728 
1230.584608  	0.209813 
1232.513424  	0.206790 
1234.442240  	0.202323 
1236.371056  	0.197113 
1238.299872  	0.191518 
1240.228688  	0.187466 
1242.157504  	0.181633 
1244.086320  	0.172937 
1246.015136  	0.165406 
1247.943952  	0.159071 
1249.872768  	0.152289 
1251.801584  	0.144207 
1253.730400  	0.136101 
1255.659216  	0.128423 
1257.588032  	0.121201 
1259.516848  	0.113889 
1261.445664  	0.106761 
1263.374480  	0.099992 
1265.303296  	0.094100 
1267.232112  	0.088880 
1269.160928  	0.084702 
1271.089744  	0.081324 
1273.018560  	0.079207 
1274.947376  	0.078167 
1276.876192  	0.077764 
1278.805008  	0.077037 
1280.733824  	0.075526 
1282.662640  	0.072918 
1284.591456  	0.070101 
1286.520272  	0.067887 
1288.449088  	0.066421 
1290.377904  	0.065431 
1292.306720  	0.065386 
1294.235536  	0.065342 
1296.164352  	0.064564 
1298.093168  	0.062177 
1300.021984  	0.059169 
1301.950800  	0.055995 
1303.879616  	0.053136 
1305.808432  	0.049987 
1307.737248  	0.046803 
1309.666064  	0.043674 
1311.594880  	0.041549 
1313.523696  	0.039721 
1315.452512  	0.038440 
1317.381328  	0.037784 
1319.310144  	0.037598 
1321.238960  	0.037685 
1323.167776  	0.038387 
1325.096592  	0.039162 
1327.025408  	0.039716 
1328.954224  	0.039653 
1330.883040  	0.039237 
1332.811856  	0.038374 
1334.740672  	0.038114 
1336.669488  	0.038616 
1338.598304  	0.039334 
1340.527120  	0.037792 
1342.455936  	0.035786 
1344.384752  	0.035398 
1346.313568  	0.035905 
1348.242384  	0.036768 
1350.171200  	0.038342 
1352.100016  	0.040455 
1354.028832  	0.043041 
1355.957648  	0.045445 
1357.886464  	0.048213 
1359.815280  	0.051545 
1361.744096  	0.055199 
1363.672912  	0.057350 
1365.601728  	0.059249 
1367.530544  	0.061887 
1369.459360  	0.064060 
1371.388176  	0.065636 
1373.316992  	0.066151 
1375.245808  	0.064378 
1377.174624  	0.063483 
1379.103440  	0.062087 
1381.032256  	0.059771 
1382.961072  	0.057517 
1384.889888  	0.056236 
1386.818704  	0.054160 
1388.747520  	0.050752 
1390.676336  	0.050285 
1392.605152  	0.053556 
1394.533968  	0.053703 
1396.462784  	0.049145 
1398.391600  	0.047838 
1400.320416  	0.048316 
1402.249232  	0.050908 
1404.178048  	0.053461 
1406.106864  	0.054727 
1408.035680  	0.055969 
1409.964496  	0.057163 
1411.893312  	0.057785 
1413.822128  	0.058254 
1415.750944  	0.059882 
1417.679760  	0.060396 
1419.608576  	0.056527 
1421.537392  	0.055463 
1423.466208  	0.055041 
1425.395024  	0.052325 
1427.323840  	0.050456 
1429.252656  	0.047333 
1431.181472  	0.045144 
1433.110288  	0.045273 
1435.039104  	0.046014 
1436.967920  	0.044772 
1438.896736  	0.045291 
1440.825552  	0.046699 
1442.754368  	0.047229 
1444.683184  	0.047519 
1446.612000  	0.047667 
1448.540816  	0.047505 
1450.469632  	0.048730 
1452.398448  	0.049595 
1454.327264  	0.050372 
1456.256080  	0.047605 
1458.184896  	0.042082 
1460.113712  	0.044185 
1462.042528  	0.046213 
1463.971344  	0.045321 
1465.900160  	0.045257 
1467.828976  	0.048482 
1469.757792  	0.052043 
1471.686608  	0.054546 
1473.615424  	0.059535 
1475.544240  	0.066752 
1477.473056  	0.072612 
1479.401872  	0.076676 
1481.330688  	0.079588 
1483.259504  	0.081443 
1485.188320  	0.083025 
1487.117136  	0.082651 
1489.045952  	0.081613 
1490.974768  	0.077772 
1492.903584  	0.075797 
1494.832400  	0.072557 
1496.761216  	0.064557 
1498.690032  	0.058028 
1500.618848  	0.054654 
1502.547664  	0.051318 
1504.476480  	0.046655 
1506.405296  	0.038607 
1508.334112  	0.037090 
1510.262928  	0.038090 
1512.191744  	0.035881 
1514.120560  	0.034841 
1516.049376  	0.033745 
1517.978192  	0.031931 
1519.907008  	0.033307 
1521.835824  	0.032185 
1523.764640  	0.037056 
1525.693456  	0.042177 
1527.622272  	0.044391 
1529.551088  	0.045397 
1531.479904  	0.045417 
1533.408720  	0.040273 
1535.337536  	0.037368 
1537.266352  	0.035932 
1539.195168  	0.025782 
1541.123984  	0.017391 
1543.052800  	0.022543 
1544.981616  	0.024365 
1546.910432  	0.024168 
1548.839248  	0.024884 
1550.768064  	0.024765 
1552.696880  	0.024378 
1554.625696  	0.024188 
1556.554512  	0.023769 
1558.483328  	0.018679 
1560.412144  	0.023082 
1562.340960  	0.032778 
1564.269776  	0.037037 
1566.198592  	0.042290 
1568.127408  	0.046409 
1570.056224  	0.050413 
1571.985040  	0.058554 
1573.913856  	0.063884 
1575.842672  	0.063380 
1577.771488  	0.066403 
1579.700304  	0.070026 
1581.629120  	0.070318 
1583.557936  	0.069840 
1585.486752  	0.070522 
1587.415568  	0.072756 
1589.344384  	0.077093 
1591.273200  	0.082990 
1593.202016  	0.090062 
1595.130832  	0.097532 
1597.059648  	0.105582 
1598.988464  	0.112521 
1600.917280  	0.118587 
1602.846096  	0.122520 
1604.774912  	0.125050 
1606.703728  	0.125491 
1608.632544  	0.124368 
1610.561360  	0.122295 
1612.490176  	0.121125 
1614.418992  	0.118885 
1616.347808  	0.114066 
1618.276624  	0.115204 
1620.205440  	0.121503 
1622.134256  	0.124087 
1624.063072  	0.128467 
1625.991888  	0.136259 
1627.920704  	0.144331 
1629.849520  	0.154480 
1631.778336  	0.164807 
1633.707152  	0.171238 
1635.635968  	0.175641 
1637.564784  	0.186261 
1639.493600  	0.196689 
1641.422416  	0.202809 
1643.351232  	0.207055 
1645.280048  	0.206690 
1647.208864  	0.203442 
1649.137680  	0.206440 
1651.066496  	0.208859 
1652.995312  	0.197986 
1654.924128  	0.196772 
1656.852944  	0.200635 
1658.781760  	0.199733 
1660.710576  	0.196010 
1662.639392  	0.189278 
1664.568208  	0.185332 
1666.497024  	0.184105 
1668.425840  	0.177451 
1670.354656  	0.168549 
1672.283472  	0.166534 
1674.212288  	0.163937 
1676.141104  	0.158232 
1678.069920  	0.158765 
1679.998736  	0.158605 
1681.927552  	0.156987 
1683.856368  	0.149096 
1685.785184  	0.147393 
1687.714000  	0.152063 
1689.642816  	0.151657 
1691.571632  	0.149921 
1693.500448  	0.149504 
1695.429264  	0.144030 
1697.358080  	0.139927 
1699.286896  	0.138084 
1701.215712  	0.131398 
1703.144528  	0.132626 
1705.073344  	0.128400 
1707.002160  	0.122345 
1708.930976  	0.119327 
1710.859792  	0.114079 
1712.788608  	0.107801 
1714.717424  	0.099019 
1716.646240  	0.086790 
1718.575056  	0.072660 
1720.503872  	0.066773 
1722.432688  	0.061161 
1724.361504  	0.051963 
1726.290320  	0.044467 
1728.219136  	0.038363 
1730.147952  	0.032699 
1732.076768  	0.027684 
1734.005584  	0.019162 
1735.934400  	0.014510 
1737.863216  	0.015546 
1739.792032  	0.011248 
1741.720848  	0.010442 
1743.649664  	0.010588 
1745.578480  	0.009745 
1747.507296  	0.007776 
1749.436112  	0.006778 
1751.364928  	0.005668 
1753.293744  	0.005272 
1755.222560  	0.005294 
1757.151376  	0.004482 
1759.080192  	0.004110 
1761.009008  	0.003393 
1762.937824  	0.001625 
1764.866640  	0.002534 
1766.795456  	0.003207 
1768.724272  	0.002516 
1770.653088  	-0.000318 
1772.581904  	-0.003967 
1774.510720  	-0.001858 
1776.439536  	0.000624 
1778.368352  	0.001072 
1780.297168  	0.000548 
1782.225984  	0.000043 
1784.154800  	0.000678 
1786.083616  	-0.000086 
1788.012432  	0.000187 
1789.941248  	0.000600 
1791.870064  	-0.001534 
1793.798880  	-0.002998 
1795.727696  	-0.000745 
1797.656512  	-0.001065 
1799.585328  	-0.001496 
1801.514144  	-0.001033 
1803.442960  	-0.001026 
1805.371776  	-0.001655 
1807.300592  	-0.001333 
1809.229408  	-0.002106 
1811.158224  	-0.002598 
1813.087040  	-0.002595 
1815.015856  	-0.002010 
1816.944672  	-0.001937 
1818.873488  	-0.001983 
1820.802304  	-0.002165 
1822.731120  	-0.001401 
1824.659936  	-0.002124 
1826.588752  	-0.002806 
1828.517568  	-0.003607 
1830.446384  	-0.004368 
1832.375200  	-0.003097 
1834.304016  	-0.002032 
1836.232832  	-0.002268 
1838.161648  	-0.002350 
1840.090464  	-0.002512 
1842.019280  	-0.001614 
1843.948096  	-0.003205 
1845.876912  	-0.003361 
1847.805728  	-0.002530 
1849.734544  	-0.002721 
1851.663360  	-0.002943 
1853.592176  	-0.002833 
1855.520992  	-0.002995 
1857.449808  	-0.002646 
1859.378624  	-0.002657 
1861.307440  	-0.002670 
1863.236256  	-0.002956 
1865.165072  	-0.002738 
1867.093888  	-0.003253 
1869.022704  	-0.003805 
1870.951520  	-0.003527 
1872.880336  	-0.002822 
1874.809152  	-0.003161 
1876.737968  	-0.003191 
1878.666784  	-0.003497 
1880.595600  	-0.002925 
1882.524416  	-0.003183 
1884.453232  	-0.003082 
1886.382048  	-0.003283 
1888.310864  	-0.003188 
1890.239680  	-0.003749 
1892.168496  	-0.003016 
1894.097312  	-0.002762 
1896.026128  	-0.002604 
1897.954944  	-0.003022 
1899.883760  	-0.002674 
1901.812576  	-0.002677 
1903.741392  	-0.002667 
1905.670208  	-0.002449 
1907.599024  	-0.001826 
1909.527840  	-0.002463 
1911.456656  	-0.002072 
1913.385472  	-0.002215 
1915.314288  	-0.001772 
1917.243104  	-0.002295 
1919.171920  	-0.002727 
1921.100736  	-0.002118 
1923.029552  	-0.001379 
1924.958368  	-0.002447 
1926.887184  	-0.002310 
1928.816000  	-0.002668 
1930.744816  	-0.002553 
1932.673632  	-0.002352 
1934.602448  	-0.001736 
1936.531264  	-0.001835 
1938.460080  	-0.001277 
1940.388896  	-0.001300 
1942.317712  	-0.001659 
1944.246528  	-0.002426 
1946.175344  	-0.001583 
1948.104160  	-0.001716 
1950.032976  	-0.001734 
1951.961792  	-0.002346 
1953.890608  	-0.001891 
1955.819424  	-0.002407 
1957.748240  	-0.001750 
1959.677056  	-0.001989 
1961.605872  	-0.001691 
1963.534688  	-0.001980 
1965.463504  	-0.001252 
1967.392320  	-0.001903 
1969.321136  	-0.001666 
1971.249952  	-0.002421 
1973.178768  	-0.000938 
1975.107584  	-0.000980 
1977.036400  	-0.000314 
1978.965216  	-0.000117 
1980.894032  	-0.000642 
1982.822848  	-0.001442 
1984.751664  	-0.001025 
1986.680480  	-0.002453 
1988.609296  	-0.001947 
1990.538112  	-0.002104 
1992.466928  	-0.001497 
1994.395744  	-0.002349 
1996.324560  	-0.002954 
1998.253376  	-0.003523 
2000.182192  	-0.002750 
2002.111008  	-0.002281 
2004.039824  	-0.001135 
2005.968640  	-0.002025 
2007.897456  	-0.002291 
2009.826272  	-0.002138 
2011.755088  	-0.000535 
2013.683904  	-0.002049 
2015.612720  	-0.001951 
2017.541536  	-0.001607 
2019.470352  	-0.000898 
2021.399168  	-0.001505 
2023.327984  	-0.000799 
2025.256800  	-0.001106 
2027.185616  	-0.000781 
2029.114432  	-0.000320 
2031.043248  	0.000262 
2032.972064  	-0.000617 
2034.900880  	-0.000590 
2036.829696  	-0.001421 
2038.758512  	-0.000495 
2040.687328  	-0.001057 
2042.616144  	-0.001175 
2044.544960  	-0.001623 
2046.473776  	-0.000737 
2048.402592  	-0.001106 
2050.331408  	-0.001380 
2052.260224  	-0.002709 
2054.189040  	-0.003146 
2056.117856  	-0.003454 
2058.046672  	-0.003163 
2059.975488  	-0.003026 
2061.904304  	-0.002913 
2063.833120  	-0.002931 
2065.761936  	-0.002570 
2067.690752  	-0.002850 
2069.619568  	-0.002414 
2071.548384  	-0.002400 
2073.477200  	-0.002379 
2075.406016  	-0.002280 
2077.334832  	-0.001832 
2079.263648  	-0.002021 
2081.192464  	-0.002019 
2083.121280  	-0.002161 
2085.050096  	-0.002376 
2086.978912  	-0.002515 
2088.907728  	-0.001936 
2090.836544  	-0.002331 
2092.765360  	-0.001971 
2094.694176  	-0.001507 
2096.622992  	-0.001449 
2098.551808  	-0.001754 
2100.480624  	-0.001698 
2102.409440  	-0.002056 
2104.338256  	-0.002062 
2106.267072  	-0.002060 
2108.195888  	-0.001427 
2110.124704  	-0.001416 
2112.053520  	-0.001476 
2113.982336  	-0.001745 
2115.911152  	-0.001822 
2117.839968  	-0.002106 
2119.768784  	-0.002268 
2121.697600  	-0.002675 
2123.626416  	-0.002456 
2125.555232  	-0.002616 
2127.484048  	-0.002546 
2129.412864  	-0.002906 
2131.341680  	-0.002372 
2133.270496  	-0.002201 
2135.199312  	-0.001563 
2137.128128  	-0.001223 
2139.056944  	-0.001004 
2140.985760  	-0.001427 
2142.914576  	-0.001401 
2144.843392  	-0.001670 
2146.772208  	-0.001341 
2148.701024  	-0.001591 
2150.629840  	-0.001029 
2152.558656  	-0.001375 
2154.487472  	-0.000273 
2156.416288  	0.000007 
2158.345104  	0.001198 
2160.273920  	0.002074 
2162.202736  	0.001799 
2164.131552  	0.000987 
2166.060368  	0.001373 
2167.989184  	0.001151 
2169.918000  	0.001852 
2171.846816  	0.000628 
2173.775632  	-0.000100 
2175.704448  	0.000308 
2177.633264  	0.000721 
2179.562080  	-0.000377 
2181.490896  	-0.000444 
2183.419712  	-0.000844 
2185.348528  	-0.001225 
2187.277344  	-0.001288 
2189.206160  	-0.001077 
2191.134976  	-0.001612 
2193.063792  	-0.001341 
2194.992608  	-0.001515 
2196.921424  	-0.001465 
2198.850240  	-0.001376 
2200.779056  	-0.001002 
2202.707872  	-0.001666 
2204.636688  	-0.001563 
2206.565504  	-0.001090 
2208.494320  	-0.000741 
2210.423136  	-0.001479 
2212.351952  	-0.001845 
2214.280768  	-0.002177 
2216.209584  	-0.001876 
2218.138400  	-0.002394 
2220.067216  	-0.002511 
2221.996032  	-0.002782 
2223.924848  	-0.002299 
2225.853664  	-0.001665 
2227.782480  	-0.001683 
2229.711296  	-0.002729 
2231.640112  	-0.003138 
2233.568928  	-0.003008 
2235.497744  	-0.002244 
2237.426560  	-0.002319 
2239.355376  	-0.002893 
2241.284192  	-0.003218 
2243.213008  	-0.002897 
2245.141824  	-0.003107 
2247.070640  	-0.002929 
2248.999456  	-0.002985 
2250.928272  	-0.003315 
2252.857088  	-0.003688 
2254.785904  	-0.003622 
2256.714720  	-0.004055 
2258.643536  	-0.004395 
2260.572352  	-0.004372 
2262.501168  	-0.004217 
2264.429984  	-0.004524 
2266.358800  	-0.004527 
2268.287616  	-0.004606 
2270.216432  	-0.004364 
2272.145248  	-0.004283 
2274.074064  	-0.004299 
2276.002880  	-0.004179 
2277.931696  	-0.003851 
2279.860512  	-0.003750 
2281.789328  	-0.003327 
2283.718144  	-0.003319 
2285.646960  	-0.003255 
2287.575776  	-0.003207 
2289.504592  	-0.003431 
2291.433408  	-0.003879 
2293.362224  	-0.003764 
2295.291040  	-0.003548 
2297.219856  	-0.003420 
2299.148672  	-0.003645 
2301.077488  	-0.003628 
2303.006304  	-0.003679 
2304.935120  	-0.003618 
2306.863936  	-0.003959 
2308.792752  	-0.004708 
2310.721568  	-0.005734 
2312.650384  	-0.006795 
2314.579200  	-0.008101 
2316.508016  	-0.009282 
2318.436832  	-0.010900 
2320.365648  	-0.013140 
2322.294464  	-0.015631 
2324.223280  	-0.017931 
2326.152096  	-0.020645 
2328.080912  	-0.023100 
2330.009728  	-0.025710 
2331.938544  	-0.028342 
2333.867360  	-0.030339 
2335.796176  	-0.032074 
2337.724992  	-0.033550 
2339.653808  	-0.033866 
2341.582624  	-0.034051 
2343.511440  	-0.032478 
2345.440256  	-0.028667 
2347.369072  	-0.021312 
2349.297888  	-0.016974 
2351.226704  	-0.021148 
2353.155520  	-0.029556 
2355.084336  	-0.036254 
2357.013152  	-0.041707 
2358.941968  	-0.044501 
2360.870784  	-0.045804 
2362.799600  	-0.044839 
2364.728416  	-0.042403 
2366.657232  	-0.038164 
2368.586048  	-0.032672 
2370.514864  	-0.027065 
2372.443680  	-0.021807 
2374.372496  	-0.016508 
2376.301312  	-0.011836 
2378.230128  	-0.008074 
2380.158944  	-0.005665 
2382.087760  	-0.004219 
2384.016576  	-0.003728 
2385.945392  	-0.003809 
2387.874208  	-0.003973 
2389.803024  	-0.004253 
2391.731840  	-0.004702 
2393.660656  	-0.004610 
2395.589472  	-0.004584 
2397.518288  	-0.004469 
2399.447104  	-0.004480 
2401.375920  	-0.004474 
2403.304736  	-0.004662 
2405.233552  	-0.004631 
2407.162368  	-0.004610 
2409.091184  	-0.004470 
2411.020000  	-0.004373 
2412.948816  	-0.004321 
2414.877632  	-0.004256 
2416.806448  	-0.004161 
2418.735264  	-0.004335 
2420.664080  	-0.004458 
2422.592896  	-0.004581 
2424.521712  	-0.004428 
2426.450528  	-0.004489 
2428.379344  	-0.004402 
2430.308160  	-0.004209 
2432.236976  	-0.004060 
2434.165792  	-0.004134 
2436.094608  	-0.004141 
2438.023424  	-0.004055 
2439.952240  	-0.003859 
2441.881056  	-0.003835 
2443.809872  	-0.003988 
2445.738688  	-0.003949 
2447.667504  	-0.003661 
2449.596320  	-0.003537 
2451.525136  	-0.003517 
2453.453952  	-0.003685 
2455.382768  	-0.003699 
2457.311584  	-0.003740 
2459.240400  	-0.003750 
2461.169216  	-0.003913 
2463.098032  	-0.004113 
2465.026848  	-0.004101 
2466.955664  	-0.004095 
2468.884480  	-0.004299 
2470.813296  	-0.004218 
2472.742112  	-0.004237 
2474.670928  	-0.004195 
2476.599744  	-0.004120 
2478.528560  	-0.003827 
2480.457376  	-0.003777 
2482.386192  	-0.003923 
2484.315008  	-0.003926 
2486.243824  	-0.003744 
2488.172640  	-0.003668 
2490.101456  	-0.003375 
2492.030272  	-0.003349 
2493.959088  	-0.003393 
2495.887904  	-0.003381 
2497.816720  	-0.003438 
2499.745536  	-0.003486 
2501.674352  	-0.003221 
2503.603168  	-0.002931 
2505.531984  	-0.003006 
2507.460800  	-0.003242 
2509.389616  	-0.003172 
2511.318432  	-0.003261 
2513.247248  	-0.003201 
2515.176064  	-0.003082 
2517.104880  	-0.003021 
2519.033696  	-0.003191 
2520.962512  	-0.003208 
2522.891328  	-0.003048 
2524.820144  	-0.002954 
2526.748960  	-0.002813 
2528.677776  	-0.002582 
2530.606592  	-0.002667 
2532.535408  	-0.002753 
2534.464224  	-0.002748 
2536.393040  	-0.002728 
2538.321856  	-0.002624 
2540.250672  	-0.002392 
2542.179488  	-0.002481 
2544.108304  	-0.002602 
2546.037120  	-0.002516 
2547.965936  	-0.002360 
2549.894752  	-0.002345 
2551.823568  	-0.002283 
2553.752384  	-0.002073 
2555.681200  	-0.001681 
2557.610016  	-0.001437 
2559.538832  	-0.001360 
2561.467648  	-0.001263 
2563.396464  	-0.001448 
2565.325280  	-0.001574 
2567.254096  	-0.001413 
2569.182912  	-0.001386 
2571.111728  	-0.001282 
2573.040544  	-0.001282 
2574.969360  	-0.001058 
2576.898176  	-0.000725 
2578.826992  	-0.000781 
2580.755808  	-0.000885 
2582.684624  	-0.000773 
2584.613440  	-0.000834 
2586.542256  	-0.000797 
2588.471072  	-0.000511 
2590.399888  	-0.000343 
2592.328704  	-0.000382 
2594.257520  	-0.000431 
2596.186336  	-0.000406 
2598.115152  	-0.000310 
2600.043968  	-0.000297 
2601.972784  	-0.000180 
2603.901600  	-0.000010 
2605.830416  	0.000240 
2607.759232  	0.000437 
2609.688048  	0.000488 
2611.616864  	0.000444 
2613.545680  	0.000569 
2615.474496  	0.000791 
2617.403312  	0.000986 
2619.332128  	0.001288 
2621.260944  	0.001410 
2623.189760  	0.001374 
2625.118576  	0.001452 
2627.047392  	0.001627 
2628.976208  	0.001833 
2630.905024  	0.001876 
2632.833840  	0.001837 
2634.762656  	0.001919 
2636.691472  	0.002021 
2638.620288  	0.002169 
2640.549104  	0.002270 
2642.477920  	0.002343 
2644.406736  	0.002595 
2646.335552  	0.002735 
2648.264368  	0.002852 
2650.193184  	0.002867 
2652.122000  	0.003038 
2654.050816  	0.003269 
2655.979632  	0.003465 
2657.908448  	0.003526 
2659.837264  	0.003694 
2661.766080  	0.003866 
2663.694896  	0.003996 
2665.623712  	0.004072 
2667.552528  	0.004267 
2669.481344  	0.004487 
2671.410160  	0.004599 
2673.338976  	0.004620 
2675.267792  	0.004770 
2677.196608  	0.005018 
2679.125424  	0.005212 
2681.054240  	0.005388 
2682.983056  	0.005584 
2684.911872  	0.005527 
2686.840688  	0.005589 
2688.769504  	0.005745 
2690.698320  	0.005835 
2692.627136  	0.005862 
2694.555952  	0.005966 
2696.484768  	0.006054 
2698.413584  	0.006179 
2700.342400  	0.006341 
2702.271216  	0.006608 
2704.200032  	0.006840 
2706.128848  	0.006923 
2708.057664  	0.007053 
2709.986480  	0.007253 
2711.915296  	0.007375 
2713.844112  	0.007566 
2715.772928  	0.007796 
2717.701744  	0.008060 
2719.630560  	0.008311 
2721.559376  	0.008431 
2723.488192  	0.008618 
2725.417008  	0.008931 
2727.345824  	0.009204 
2729.274640  	0.009395 
2731.203456  	0.009572 
2733.132272  	0.009809 
2735.061088  	0.009998 
2736.989904  	0.010220 
2738.918720  	0.010418 
2740.847536  	0.010601 
2742.776352  	0.010755 
2744.705168  	0.010965 
2746.633984  	0.011107 
2748.562800  	0.011160 
2750.491616  	0.011215 
2752.420432  	0.011439 
2754.349248  	0.011439 
2756.278064  	0.011356 
2758.206880  	0.011332 
2760.135696  	0.011393 
2762.064512  	0.011552 
2763.993328  	0.011645 
2765.922144  	0.011679 
2767.850960  	0.011772 
2769.779776  	0.011773 
2771.708592  	0.011808 
2773.637408  	0.011831 
2775.566224  	0.011862 
2777.495040  	0.011930 
2779.423856  	0.012117 
2781.352672  	0.012294 
2783.281488  	0.012303 
2785.210304  	0.012347 
2787.139120  	0.012588 
2789.067936  	0.012766 
2790.996752  	0.012834 
2792.925568  	0.012802 
2794.854384  	0.012882 
2796.783200  	0.013062 
2798.712016  	0.013147 
2800.640832  	0.013221 
2802.569648  	0.013365 
2804.498464  	0.013440 
2806.427280  	0.013415 
2808.356096  	0.013502 
2810.284912  	0.013718 
2812.213728  	0.013933 
2814.142544  	0.014030 
2816.071360  	0.014098 
2818.000176  	0.014155 
2819.928992  	0.014400 
2821.857808  	0.014691 
2823.786624  	0.014813 
2825.715440  	0.014893 
2827.644256  	0.014895 
2829.573072  	0.015086 
2831.501888  	0.015350 
2833.430704  	0.015509 
2835.359520  	0.015637 
2837.288336  	0.015955 
2839.217152  	0.016316 
2841.145968  	0.016640 
2843.074784  	0.016983 
2845.003600  	0.017365 
2846.932416  	0.017858 
2848.861232  	0.018491 
2850.790048  	0.019269 
2852.718864  	0.020085 
2854.647680  	0.020937 
2856.576496  	0.021786 
2858.505312  	0.022869 
2860.434128  	0.024155 
2862.362944  	0.025443 
2864.291760  	0.026740 
2866.220576  	0.028102 
2868.149392  	0.029294 
2870.078208  	0.030158 
2872.007024  	0.031008 
2873.935840  	0.031990 
2875.864656  	0.033272 
2877.793472  	0.034790 
2879.722288  	0.036498 
2881.651104  	0.038418 
2883.579920  	0.040013 
2885.508736  	0.040838 
2887.437552  	0.041002 
2889.366368  	0.041459 
2891.295184  	0.042435 
2893.224000  	0.043163 
2895.152816  	0.043436 
2897.081632  	0.043861 
2899.010448  	0.045997 
2900.939264  	0.048102 
2902.868080  	0.046850 
2904.796896  	0.045462 
2906.725712  	0.045194 
2908.654528  	0.045226 
2910.583344  	0.045678 
2912.512160  	0.045399 
2914.440976  	0.044559 
2916.369792  	0.044348 
2918.298608  	0.044756 
2920.227424  	0.045263 
2922.156240  	0.045664 
2924.085056  	0.045829 
2926.013872  	0.046163 
2927.942688  	0.046712 
2929.871504  	0.047145 
2931.800320  	0.047546 
2933.729136  	0.048145 
2935.657952  	0.048782 
2937.586768  	0.049438 
2939.515584  	0.050235 
2941.444400  	0.051146 
2943.373216  	0.051952 
2945.302032  	0.052476 
2947.230848  	0.052833 
2949.159664  	0.053551 
2951.088480  	0.054593 
2953.017296  	0.055699 
2954.946112  	0.056540 
2956.874928  	0.057358 
2958.803744  	0.058032 
2960.732560  	0.058674 
2962.661376  	0.059499 
2964.590192  	0.060650 
2966.519008  	0.062052 
2968.447824  	0.063407 
2970.376640  	0.064105 
2972.305456  	0.064159 
2974.234272  	0.063672 
2976.163088  	0.063265 
2978.091904  	0.062731 
2980.020720  	0.062484 
2981.949536  	0.062321 
2983.878352  	0.062882 
2985.807168  	0.064163 
2987.735984  	0.065106 
2989.664800  	0.064317 
2991.593616  	0.060091 
2993.522432  	0.057663 
2995.451248  	0.057071 
2997.380064  	0.056103 
2999.308880  	0.054851 
3001.237696  	0.053443 
3003.166512  	0.052148 
3005.095328  	0.050822 
3007.024144  	0.049310 
3008.952960  	0.047776 
3010.881776  	0.046404 
3012.810592  	0.045121 
3014.739408  	0.043954 
3016.668224  	0.042804 
3018.597040  	0.041861 
3020.525856  	0.040922 
3022.454672  	0.040098 
3024.383488  	0.039471 
3026.312304  	0.038780 
3028.241120  	0.038293 
3030.169936  	0.037912 
3032.098752  	0.037463 
3034.027568  	0.037136 
3035.956384  	0.036924 
3037.885200  	0.036924 
3039.814016  	0.036937 
3041.742832  	0.037056 
3043.671648  	0.037100 
3045.600464  	0.037236 
3047.529280  	0.037429 
3049.458096  	0.037720 
3051.386912  	0.038306 
3053.315728  	0.038671 
3055.244544  	0.039074 
3057.173360  	0.039737 
3059.102176  	0.040288 
3061.030992  	0.040965 
3062.959808  	0.041693 
3064.888624  	0.042267 
3066.817440  	0.042982 
3068.746256  	0.043859 
3070.675072  	0.044653 
3072.603888  	0.045463 
3074.532704  	0.046331 
3076.461520  	0.047185 
3078.390336  	0.047904 
3080.319152  	0.048680 
3082.247968  	0.049635 
3084.176784  	0.050488 
3086.105600  	0.051359 
3088.034416  	0.052088 
3089.963232  	0.052806 
3091.892048  	0.053560 
3093.820864  	0.054293 
3095.749680  	0.055264 
3097.678496  	0.056290 
3099.607312  	0.057130 
3101.536128  	0.058004 
3103.464944  	0.058905 
3105.393760  	0.059779 
3107.322576  	0.060625 
3109.251392  	0.061345 
3111.180208  	0.062013 
3113.109024  	0.062809 
3115.037840  	0.063571 
3116.966656  	0.064263 
3118.895472  	0.065002 
3120.824288  	0.065648 
3122.753104  	0.066262 
3124.681920  	0.066879 
3126.610736  	0.067512 
3128.539552  	0.068352 
3130.468368  	0.069058 
3132.397184  	0.069617 
3134.326000  	0.070358 
3136.254816  	0.071013 
3138.183632  	0.071585 
3140.112448  	0.072376 
3142.041264  	0.073048 
3143.970080  	0.073593 
3145.898896  	0.074287 
3147.827712  	0.074836 
3149.756528  	0.075383 
3151.685344  	0.076030 
3153.614160  	0.076847 
3155.542976  	0.077763 
3157.471792  	0.078547 
3159.400608  	0.079213 
3161.329424  	0.079785 
3163.258240  	0.080207 
3165.187056  	0.080636 
3167.115872  	0.081253 
3169.044688  	0.081816 
3170.973504  	0.082211 
3172.902320  	0.082685 
3174.831136  	0.083225 
3176.759952  	0.083721 
3178.688768  	0.084082 
3180.617584  	0.084548 
3182.546400  	0.084899 
3184.475216  	0.084979 
3186.404032  	0.084948 
3188.332848  	0.085260 
3190.261664  	0.085759 
3192.190480  	0.086112 
3194.119296  	0.086081 
3196.048112  	0.086223 
3197.976928  	0.086176 
3199.905744  	0.086150 
3201.834560  	0.086125 
3203.763376  	0.086055 
3205.692192  	0.085958 
3207.621008  	0.085862 
3209.549824  	0.085688 
3211.478640  	0.085677 
3213.407456  	0.085595 
3215.336272  	0.085447 
3217.265088  	0.085336 
3219.193904  	0.085165 
3221.122720  	0.085050 
3223.051536  	0.084860 
3224.980352  	0.084831 
3226.909168  	0.084775 
3228.837984  	0.084361 
3230.766800  	0.084039 
3232.695616  	0.083974 
3234.624432  	0.083993 
3236.553248  	0.083844 
3238.482064  	0.083821 
3240.410880  	0.083844 
3242.339696  	0.083971 
3244.268512  	0.083715 
3246.197328  	0.083635 
3248.126144  	0.084006 
3250.054960  	0.084081 
3251.983776  	0.084248 
3253.912592  	0.084498 
3255.841408  	0.084777 
3257.770224  	0.085028 
3259.699040  	0.085289 
3261.627856  	0.085512 
3263.556672  	0.085781 
3265.485488  	0.086036 
3267.414304  	0.086124 
3269.343120  	0.086389 
3271.271936  	0.086487 
3273.200752  	0.086488 
3275.129568  	0.086722 
3277.058384  	0.087091 
3278.987200  	0.087348 
3280.916016  	0.087653 
3282.844832  	0.087804 
3284.773648  	0.087810 
3286.702464  	0.087955 
3288.631280  	0.088215 
3290.560096  	0.088606 
3292.488912  	0.089032 
3294.417728  	0.089328 
3296.346544  	0.089612 
3298.275360  	0.089791 
3300.204176  	0.090053 
3302.132992  	0.090446 
3304.061808  	0.090735 
3305.990624  	0.091070 
3307.919440  	0.091489 
3309.848256  	0.091765 
3311.777072  	0.092163 
3313.705888  	0.092575 
3315.634704  	0.093110 
3317.563520  	0.093547 
3319.492336  	0.093812 
3321.421152  	0.093927 
3323.349968  	0.094112 
3325.278784  	0.094331 
3327.207600  	0.094554 
3329.136416  	0.094330 
3331.065232  	0.094354 
3332.994048  	0.094703 
3334.922864  	0.094919 
3336.851680  	0.094825 
3338.780496  	0.094689 
3340.709312  	0.094545 
3342.638128  	0.094292 
3344.566944  	0.093967 
3346.495760  	0.093847 
3348.424576  	0.093544 
3350.353392  	0.093220 
3352.282208  	0.092958 
3354.211024  	0.092606 
3356.139840  	0.092300 
3358.068656  	0.091966 
3359.997472  	0.091624 
3361.926288  	0.091285 
3363.855104  	0.090871 
3365.783920  	0.090355 
3367.712736  	0.089901 
3369.641552  	0.089407 
3371.570368  	0.089032 
3373.499184  	0.088769 
3375.428000  	0.088423 
3377.356816  	0.087997 
3379.285632  	0.087812 
3381.214448  	0.087448 
3383.143264  	0.087057 
3385.072080  	0.086557 
3387.000896  	0.086000 
3388.929712  	0.085660 
3390.858528  	0.085474 
3392.787344  	0.085126 
3394.716160  	0.084611 
3396.644976  	0.084217 
3398.573792  	0.083622 
3400.502608  	0.083250 
3402.431424  	0.082756 
3404.360240  	0.082170 
3406.289056  	0.081544 
3408.217872  	0.081006 
3410.146688  	0.080549 
3412.075504  	0.080058 
3414.004320  	0.079637 
3415.933136  	0.079405 
3417.861952  	0.078898 
3419.790768  	0.078390 
3421.719584  	0.077586 
3423.648400  	0.076901 
3425.577216  	0.076345 
3427.506032  	0.075867 
3429.434848  	0.075360 
3431.363664  	0.074606 
3433.292480  	0.073842 
3435.221296  	0.073186 
3437.150112  	0.072936 
3439.078928  	0.072612 
3441.007744  	0.072040 
3442.936560  	0.071565 
3444.865376  	0.071143 
3446.794192  	0.070285 
3448.723008  	0.069261 
3450.651824  	0.068543 
3452.580640  	0.067780 
3454.509456  	0.067248 
3456.438272  	0.066557 
3458.367088  	0.066033 
3460.295904  	0.065390 
3462.224720  	0.064454 
3464.153536  	0.063710 
3466.082352  	0.063102 
3468.011168  	0.062176 
3469.939984  	0.061256 
3471.868800  	0.060521 
3473.797616  	0.059720 
3475.726432  	0.058901 
3477.655248  	0.058141 
3479.584064  	0.057740 
3481.512880  	0.057027 
3483.441696  	0.055885 
3485.370512  	0.055188 
3487.299328  	0.054226 
3489.228144  	0.053306 
3491.156960  	0.052499 
3493.085776  	0.051775 
3495.014592  	0.050999 
3496.943408  	0.050132 
3498.872224  	0.049624 
3500.801040  	0.049673 
3502.729856  	0.048800 
3504.658672  	0.047305 
3506.587488  	0.046788 
3508.516304  	0.046620 
3510.445120  	0.045481 
3512.373936  	0.044215 
3514.302752  	0.043588 
3516.231568  	0.043237 
3518.160384  	0.042614 
3520.089200  	0.041910 
3522.018016  	0.041813 
3523.946832  	0.041857 
3525.875648  	0.041139 
3527.804464  	0.039553 
3529.733280  	0.038282 
3531.662096  	0.037626 
3533.590912  	0.037221 
3535.519728  	0.037129 
3537.448544  	0.036554 
3539.377360  	0.035417 
3541.306176  	0.034751 
3543.234992  	0.034827 
3545.163808  	0.035199 
3547.092624  	0.034054 
3549.021440  	0.032293 
3550.950256  	0.031721 
3552.879072  	0.031074 
3554.807888  	0.030340 
3556.736704  	0.029812 
3558.665520  	0.029728 
3560.594336  	0.029409 
3562.523152  	0.028409 
3564.451968  	0.028368 
3566.380784  	0.028731 
3568.309600  	0.026714 
3570.238416  	0.025386 
3572.167232  	0.024738 
3574.096048  	0.023490 
3576.024864  	0.022558 
3577.953680  	0.022173 
3579.882496  	0.021573 
3581.811312  	0.020828 
3583.740128  	0.020422 
3585.668944  	0.020524 
3587.597760  	0.019089 
3589.526576  	0.017493 
3591.455392  	0.016889 
3593.384208  	0.016539 
3595.313024  	0.015502 
3597.241840  	0.013820 
3599.170656  	0.012245 
3601.099472  	0.011294 
3603.028288  	0.011419 
3604.957104  	0.011565 
3606.885920  	0.011103 
3608.814736  	0.010036 
3610.743552  	0.009783 
3612.672368  	0.008881 
3614.601184  	0.007628 
3616.530000  	0.007267 
3618.458816  	0.005104 
3620.387632  	0.003364 
3622.316448  	0.004142 
3624.245264  	0.004478 
3626.174080  	0.004402 
3628.102896  	0.001609 
3630.031712  	-0.001601 
3631.960528  	0.000849 
3633.889344  	0.001314 
3635.818160  	0.001243 
3637.746976  	0.001109 
3639.675792  	0.001261 
3641.604608  	0.001947 
3643.533424  	0.002405 
3645.462240  	0.002293 
3647.391056  	-0.000560 
3649.319872  	-0.005038 
3651.248688  	-0.005147 
3653.177504  	-0.000954 
3655.106320  	-0.000326 
3657.035136  	-0.001504 
3658.963952  	0.000026 
3660.892768  	0.000592 
3662.821584  	0.000428 
3664.750400  	0.000032 
3666.679216  	-0.000296 
3668.608032  	-0.002867 
3670.536848  	-0.006651 
3672.465664  	-0.004347 
3674.394480  	-0.004912 
3676.323296  	-0.008975 
3678.252112  	-0.007023 
3680.180928  	-0.006490 
3682.109744  	-0.005065 
3684.038560  	-0.004377 
3685.967376  	-0.005033 
3687.896192  	-0.008901 
3689.825008  	-0.012707 
3691.753824  	-0.011626 
3693.682640  	-0.009277 
3695.611456  	-0.008940 
3697.540272  	-0.009429 
3699.469088  	-0.009935 
3701.397904  	-0.012567 
3703.326720  	-0.013865 
3705.255536  	-0.012794 
3707.184352  	-0.013312 
3709.113168  	-0.016190 
3711.041984  	-0.019217 
3712.970800  	-0.017659 
3714.899616  	-0.014161 
3716.828432  	-0.013751 
3718.757248  	-0.014823 
3720.686064  	-0.015779 
3722.614880  	-0.016420 
3724.543696  	-0.015647 
3726.472512  	-0.015994 
3728.401328  	-0.016236 
3730.330144  	-0.017131 
3732.258960  	-0.019430 
3734.187776  	-0.018787 
3736.116592  	-0.019227 
3738.045408  	-0.018425 
3739.974224  	-0.016168 
3741.903040  	-0.014800 
3743.831856  	-0.017635 
3745.760672  	-0.020049 
3747.689488  	-0.017856 
3749.618304  	-0.021131 
3751.547120  	-0.023274 
3753.475936  	-0.019852 
3755.404752  	-0.016424 
3757.333568  	-0.015935 
3759.262384  	-0.016845 
3761.191200  	-0.016435 
3763.120016  	-0.014321 
3765.048832  	-0.015262 
3766.977648  	-0.015691 
3768.906464  	-0.016674 
3770.835280  	-0.017373 
3772.764096  	-0.015169 
3774.692912  	-0.014239 
3776.621728  	-0.014313 
3778.550544  	-0.015988 
3780.479360  	-0.016935 
3782.408176  	-0.015005 
3784.336992  	-0.015203 
3786.265808  	-0.014988 
3788.194624  	-0.014528 
3790.123440  	-0.014573 
3792.052256  	-0.014525 
3793.981072  	-0.014409 
3795.909888  	-0.016108 
3797.838704  	-0.016259 
3799.767520  	-0.016852 
3801.696336  	-0.021611 
3803.625152  	-0.018903 
3805.553968  	-0.017214 
3807.482784  	-0.019012 
3809.411600  	-0.016044 
3811.340416  	-0.014266 
3813.269232  	-0.014099 
3815.198048  	-0.017477 
3817.126864  	-0.019292 
3819.055680  	-0.017666 
3820.984496  	-0.021511 
3822.913312  	-0.019462 
3824.842128  	-0.016037 
3826.770944  	-0.016617 
3828.699760  	-0.015832 
3830.628576  	-0.015872 
3832.557392  	-0.016823 
3834.486208  	-0.016936 
3836.415024  	-0.018587 
3838.343840  	-0.020351 
3840.272656  	-0.019015 
3842.201472  	-0.017068 
3844.130288  	-0.016462 
3846.059104  	-0.014999 
3847.987920  	-0.013944 
3849.916736  	-0.014210 
3851.845552  	-0.017391 
3853.774368  	-0.023472 
3855.703184  	-0.019561 
3857.632000  	-0.015775 
3859.560816  	-0.014276 
3861.489632  	-0.014644 
3863.418448  	-0.015838 
3865.347264  	-0.016356 
3867.276080  	-0.014599 
3869.204896  	-0.015999 
3871.133712  	-0.016528 
3873.062528  	-0.015341 
3874.991344  	-0.016037 
3876.920160  	-0.014193 
3878.848976  	-0.013770 
3880.777792  	-0.014952 
3882.706608  	-0.013937 
3884.635424  	-0.014152 
3886.564240  	-0.015681 
3888.493056  	-0.014522 
3890.421872  	-0.015233 
3892.350688  	-0.016170 
3894.279504  	-0.014635 
3896.208320  	-0.013637 
3898.137136  	-0.013531 
3900.065952  	-0.013954 
3901.994768  	-0.014038 
3903.923584  	-0.015064 
3905.852400  	-0.015355 
3907.781216  	-0.014696 
3909.710032  	-0.014396 
3911.638848  	-0.014196 
3913.567664  	-0.013702 
3915.496480  	-0.013277 
3917.425296  	-0.013678 
3919.354112  	-0.014104 
3921.282928  	-0.013892 
3923.211744  	-0.013293 
3925.140560  	-0.013515 
3927.069376  	-0.013763 
3928.998192  	-0.013700 
3930.927008  	-0.013142 
3932.855824  	-0.013115 
3934.784640  	-0.013733 
3936.713456  	-0.014020 
3938.642272  	-0.013658 
3940.571088  	-0.013069 
3942.499904  	-0.012913 
3944.428720  	-0.013332 
3946.357536  	-0.013133 
3948.286352  	-0.012776 
3950.215168  	-0.013411 
3952.143984  	-0.014221 
3954.072800  	-0.014351 
3956.001616  	-0.013968 
3957.930432  	-0.013878 
3959.859248  	-0.013782 
3961.788064  	-0.013706 
3963.716880  	-0.013980 
3965.645696  	-0.014371 
3967.574512  	-0.014240 
3969.503328  	-0.013922 
3971.432144  	-0.014039 
3973.360960  	-0.013970 
3975.289776  	-0.013643 
3977.218592  	-0.013652 
3979.147408  	-0.013848 
3981.076224  	-0.014013 
3983.005040  	-0.014036 
3984.933856  	-0.013970 
3986.862672  	-0.014056 
3988.791488  	-0.013768 
3990.720304  	-0.013451 
3992.649120  	-0.013697 
3994.577936  	-0.013991 
3996.506752  	-0.014006 
3998.435568  	-0.013924 
4000.364384  	-0.013977 