##TITLE=No Description
##DATA TYPE=INFRARED SPECTRUM
##XUNITS=1/CM
##YUNITS=Abs
399.264912  	0.543502 
401.193728  	0.540386 
403.122544  	0.545525 
405.051360  	0.532572 
406.980176  	0.527106 
408.908992  	0.517706 
410.837808  	0.519934 
412.766624  	0.520479 
414.695440  	0.523591 
416.624256  	0.523857 
418.553072  	0.520434 
420.481888  	0.506302 
422.410704  	0.509319 
424.339520  	0.507133 
426.268336  	0.501249 
428.197152  	0.488278 
430.125968  	0.487748 
432.054784  	0.493522 
433.983600  	0.501437 
435.912416  	0.499018 
437.841232  	0.493468 
439.770048  	0.482796 
441.698864  	0.482118 
443.627680  	0.480085 
445.556496  	0.478007 
447.485312  	0.473791 
449.414128  	0.472177 
451.342944  	0.472283 
453.271760  	0.471463 
455.200576  	0.468684 
457.129392  	0.474471 
459.058208  	0.474111 
460.987024  	0.477383 
462.915840  	0.472676 
464.844656  	0.467053 
466.773472  	0.464226 
468.702288  	0.467431 
470.631104  	0.464632 
472.559920  	0.462921 
474.488736  	0.460530 
476.417552  	0.462145 
478.346368  	0.458113 
480.275184  	0.457640 
482.204000  	0.453713 
484.132816  	0.454336 
486.061632  	0.458311 
487.990448  	0.460490 
489.919264  	0.455378 
491.848080  	0.454084 
493.776896  	0.451164 
495.705712  	0.448837 
497.634528  	0.445989 
499.563344  	0.446074 
501.492160  	0.443611 
503.420976  	0.442949 
505.349792  	0.441867 
507.278608  	0.442024 
509.207424  	0.441783 
511.136240  	0.444275 
513.065056  	0.444177 
514.993872  	0.446834 
516.922688  	0.448130 
518.851504  	0.450024 
520.780320  	0.446949 
522.709136  	0.444096 
524.637952  	0.442357 
526.566768  	0.441712 
528.495584  	0.441129 
530.424400  	0.442657 
532.353216  	0.438501 
534.282032  	0.435067 
536.210848  	0.429680 
538.139664  	0.424638 
540.068480  	0.420660 
541.997296  	0.417263 
543.926112  	0.412003 
545.854928  	0.407502 
547.783744  	0.404316 
549.712560  	0.403453 
551.641376  	0.401394 
553.570192  	0.398378 
555.499008  	0.394577 
557.427824  	0.391677 
559.356640  	0.388059 
561.285456  	0.384845 
563.214272  	0.382041 
565.143088  	0.379628 
567.071904  	0.376152 
569.000720  	0.372692 
570.929536  	0.370068 
572.858352  	0.368551 
574.787168  	0.365949 
576.715984  	0.364337 
578.644800  	0.361042 
580.573616  	0.357659 
582.502432  	0.352747 
584.431248  	0.350078 
586.360064  	0.347553 
588.288880  	0.344897 
590.217696  	0.342050 
592.146512  	0.339986 
594.075328  	0.337543 
596.004144  	0.336078 
597.932960  	0.334520 
599.861776  	0.333222 
601.790592  	0.331547 
603.719408  	0.330191 
605.648224  	0.328421 
607.577040  	0.326947 
609.505856  	0.325241 
611.434672  	0.323667 
613.363488  	0.321483 
615.292304  	0.320780 
617.221120  	0.319050 
619.149936  	0.317609 
621.078752  	0.315872 
623.007568  	0.314586 
624.936384  	0.313686 
626.865200  	0.312773 
628.794016  	0.311325 
630.722832  	0.310887 
632.651648  	0.310338 
634.580464  	0.309328 
636.509280  	0.308989 
638.438096  	0.309097 
640.366912  	0.307911 
642.295728  	0.306170 
644.224544  	0.303693 
646.153360  	0.300852 
648.082176  	0.296654 
650.010992  	0.293364 
651.939808  	0.290271 
653.868624  	0.286818 
655.797440  	0.283354 
657.726256  	0.280515 
659.655072  	0.277360 
661.583888  	0.273802 
663.512704  	0.270312 
665.441520  	0.268107 
667.370336  	0.259847 
669.299152  	0.252690 
671.227968  	0.254745 
673.156784  	0.253010 
675.085600  	0.250244 
677.014416  	0.247512 
678.943232  	0.244917 
680.872048  	0.243580 
682.800864  	0.242892 
684.729680  	0.241297 
686.658496  	0.240038 
688.587312  	0.239345 
690.516128  	0.238225 
692.444944  	0.237261 
694.373760  	0.236741 
696.302576  	0.235282 
698.231392  	0.232815 
700.160208  	0.230486 
702.089024  	0.228770 
704.017840  	0.226642 
705.946656  	0.224486 
707.875472  	0.222682 
709.804288  	0.221050 
711.733104  	0.219337 
713.661920  	0.217289 
715.590736  	0.216016 
717.519552  	0.215701 
719.448368  	0.215541 
721.377184  	0.215341 
723.306000  	0.215779 
725.234816  	0.215807 
727.163632  	0.214799 
729.092448  	0.212793 
731.021264  	0.210070 
732.950080  	0.207358 
734.878896  	0.204885 
736.807712  	0.202348 
738.736528  	0.200244 
740.665344  	0.198201 
742.594160  	0.196587 
744.522976  	0.195357 
746.451792  	0.193678 
748.380608  	0.192026 
750.309424  	0.191022 
752.238240  	0.190084 
754.167056  	0.189288 
756.095872  	0.188475 
758.024688  	0.187621 
759.953504  	0.186979 
761.882320  	0.187173 
763.811136  	0.187486 
765.739952  	0.186874 
767.668768  	0.184717 
769.597584  	0.182545 
771.526400  	0.181553 
773.455216  	0.182423 
775.384032  	0.185067 
777.312848  	0.188928 
779.241664  	0.192320 
781.170480  	0.192719 
783.099296  	0.189848 
785.028112  	0.184928 
786.956928  	0.179853 
788.885744  	0.175674 
790.814560  	0.172474 
792.743376  	0.170205 
794.672192  	0.168947 
796.601008  	0.168367 
798.529824  	0.166130 
800.458640  	0.162505 
802.387456  	0.159262 
804.316272  	0.157265 
806.245088  	0.156006 
808.173904  	0.155166 
810.102720  	0.154799 
812.031536  	0.154736 
813.960352  	0.154760 
815.889168  	0.154739 
817.817984  	0.155039 
819.746800  	0.154967 
821.675616  	0.154830 
823.604432  	0.154582 
825.533248  	0.154118 
827.462064  	0.153457 
829.390880  	0.152399 
831.319696  	0.151200 
833.248512  	0.149702 
835.177328  	0.147776 
837.106144  	0.145626 
839.034960  	0.142996 
840.963776  	0.140048 
842.892592  	0.137089 
844.821408  	0.134267 
846.750224  	0.131742 
848.679040  	0.129576 
850.607856  	0.128157 
852.536672  	0.127252 
854.465488  	0.126401 
856.394304  	0.125731 
858.323120  	0.125274 
860.251936  	0.124560 
862.180752  	0.123524 
864.109568  	0.122289 
866.038384  	0.121086 
867.967200  	0.120084 
869.896016  	0.119012 
871.824832  	0.118019 
873.753648  	0.117189 
875.682464  	0.117273 
877.611280  	0.119222 
879.540096  	0.121705 
881.468912  	0.122048 
883.397728  	0.122887 
885.326544  	0.123650 
887.255360  	0.123907 
889.184176  	0.123980 
891.112992  	0.123722 
893.041808  	0.121923 
894.970624  	0.119216 
896.899440  	0.116252 
898.828256  	0.112487 
900.757072  	0.108655 
902.685888  	0.105427 
904.614704  	0.103163 
906.543520  	0.102354 
908.472336  	0.102446 
910.401152  	0.103387 
912.329968  	0.104661 
914.258784  	0.106435 
916.187600  	0.108156 
918.116416  	0.109706 
920.045232  	0.110617 
921.974048  	0.111213 
923.902864  	0.111437 
925.831680  	0.111127 
927.760496  	0.111014 
929.689312  	0.111328 
931.618128  	0.111978 
933.546944  	0.112412 
935.475760  	0.112510 
937.404576  	0.112199 
939.333392  	0.111640 
941.262208  	0.111626 
943.191024  	0.112597 
945.119840  	0.115300 
947.048656  	0.119907 
948.977472  	0.126018 
950.906288  	0.133285 
952.835104  	0.141494 
954.763920  	0.150303 
956.692736  	0.158879 
958.621552  	0.166230 
960.550368  	0.171454 
962.479184  	0.174246 
964.408000  	0.174107 
966.336816  	0.170801 
968.265632  	0.164412 
970.194448  	0.155809 
972.123264  	0.145831 
974.052080  	0.135166 
975.980896  	0.124790 
977.909712  	0.114954 
979.838528  	0.106327 
981.767344  	0.099094 
983.696160  	0.093610 
985.624976  	0.090159 
987.553792  	0.088988 
989.482608  	0.090154 
991.411424  	0.093278 
993.340240  	0.097635 
995.269056  	0.103110 
997.197872  	0.109034 
999.126688  	0.115244 
1001.055504  	0.121518 
1002.984320  	0.128170 
1004.913136  	0.134897 
1006.841952  	0.141408 
1008.770768  	0.147311 
1010.699584  	0.152300 
1012.628400  	0.155946 
1014.557216  	0.158476 
1016.486032  	0.160145 
1018.414848  	0.160937 
1020.343664  	0.161274 
1022.272480  	0.161421 
1024.201296  	0.162445 
1026.130112  	0.166542 
1028.058928  	0.169045 
1029.987744  	0.167005 
1031.916560  	0.169157 
1033.845376  	0.174913 
1035.774192  	0.183148 
1037.703008  	0.191573 
1039.631824  	0.198694 
1041.560640  	0.208160 
1043.489456  	0.220508 
1045.418272  	0.234431 
1047.347088  	0.248678 
1049.275904  	0.261194 
1051.204720  	0.271192 
1053.133536  	0.276622 
1055.062352  	0.279530 
1056.991168  	0.281116 
1058.919984  	0.278123 
1060.848800  	0.272837 
1062.777616  	0.272356 
1064.706432  	0.275587 
1066.635248  	0.274807 
1068.564064  	0.264598 
1070.492880  	0.256611 
1072.421696  	0.252539 
1074.350512  	0.249885 
1076.279328  	0.248103 
1078.208144  	0.248012 
1080.136960  	0.247902 
1082.065776  	0.247795 
1083.994592  	0.245993 
1085.923408  	0.242237 
1087.852224  	0.236609 
1089.781040  	0.229375 
1091.709856  	0.219203 
1093.638672  	0.209363 
1095.567488  	0.199696 
1097.496304  	0.189747 
1099.425120  	0.179368 
1101.353936  	0.168578 
1103.282752  	0.157253 
1105.211568  	0.146198 
1107.140384  	0.135308 
1109.069200  	0.124408 
1110.998016  	0.114002 
1112.926832  	0.104805 
1114.855648  	0.096603 
1116.784464  	0.088962 
1118.713280  	0.081767 
1120.642096  	0.075324 
1122.570912  	0.069397 
1124.499728  	0.063844 
1126.428544  	0.059060 
1128.357360  	0.054686 
1130.286176  	0.051041 
1132.214992  	0.047822 
1134.143808  	0.045392 
1136.072624  	0.043501 
1138.001440  	0.041639 
1139.930256  	0.039584 
1141.859072  	0.037619 
1143.787888  	0.035547 
1145.716704  	0.033721 
1147.645520  	0.031929 
1149.574336  	0.030481 
1151.503152  	0.029322 
1153.431968  	0.028732 
1155.360784  	0.028759 
1157.289600  	0.029319 
1159.218416  	0.030216 
1161.147232  	0.031828 
1163.076048  	0.033467 
1165.004864  	0.035070 
1166.933680  	0.036649 
1168.862496  	0.038309 
1170.791312  	0.039781 
1172.720128  	0.041798 
1174.648944  	0.043925 
1176.577760  	0.046190 
1178.506576  	0.048189 
1180.435392  	0.050319 
1182.364208  	0.052391 
1184.293024  	0.055126 
1186.221840  	0.058181 
1188.150656  	0.061457 
1190.079472  	0.065203 
1192.008288  	0.069731 
1193.937104  	0.075082 
1195.865920  	0.081309 
1197.794736  	0.087982 
1199.723552  	0.095093 
1201.652368  	0.102376 
1203.581184  	0.109941 
1205.510000  	0.117412 
1207.438816  	0.124318 
1209.367632  	0.131064 
1211.296448  	0.137183 
1213.225264  	0.142429 
1215.154080  	0.146690 
1217.082896  	0.150357 
1219.011712  	0.153210 
1220.940528  	0.155749 
1222.869344  	0.157735 
1224.798160  	0.158923 
1226.726976  	0.159060 
1228.655792  	0.158848 
1230.584608  	0.157474 
1232.513424  	0.154884 
1234.442240  	0.151499 
1236.371056  	0.147650 
1238.299872  	0.143489 
1240.228688  	0.141000 
1242.157504  	0.136826 
1244.086320  	0.129891 
1246.015136  	0.124328 
1247.943952  	0.119943 
1249.872768  	0.115107 
1251.801584  	0.109009 
1253.730400  	0.103026 
1255.659216  	0.097065 
1257.588032  	0.091486 
1259.516848  	0.085971 
1261.445664  	0.080502 
1263.374480  	0.075174 
1265.303296  	0.070539 
1267.232112  	0.066413 
1269.160928  	0.063056 
1271.089744  	0.060380 
1273.018560  	0.058749 
1274.947376  	0.057802 
1276.876192  	0.057406 
1278.805008  	0.056757 
1280.733824  	0.055477 
1282.662640  	0.053496 
1284.591456  	0.051415 
1286.520272  	0.049667 
1288.449088  	0.048536 
1290.377904  	0.047743 
1292.306720  	0.047881 
1294.235536  	0.047985 
1296.164352  	0.047542 
1298.093168  	0.045826 
1300.021984  	0.043674 
1301.950800  	0.041299 
1303.879616  	0.039176 
1305.808432  	0.036799 
1307.737248  	0.034475 
1309.666064  	0.032129 
1311.594880  	0.030714 
1313.523696  	0.029497 
1315.452512  	0.028578 
1317.381328  	0.028098 
1319.310144  	0.027881 
1321.238960  	0.027776 
1323.167776  	0.028208 
1325.096592  	0.028797 
1327.025408  	0.029149 
1328.954224  	0.029025 
1330.883040  	0.028687 
1332.811856  	0.028009 
1334.740672  	0.027915 
1336.669488  	0.028607 
1338.598304  	0.029466 
1340.527120  	0.027973 
1342.455936  	0.026048 
1344.384752  	0.025727 
1346.313568  	0.026188 
1348.242384  	0.026844 
1350.171200  	0.028027 
1352.100016  	0.029644 
1354.028832  	0.031716 
1355.957648  	0.033620 
1357.886464  	0.035879 
1359.815280  	0.038640 
1361.744096  	0.041701 
1363.672912  	0.043071 
1365.601728  	0.044475 
1367.530544  	0.046778 
1369.459360  	0.048465 
1371.388176  	0.049894 
1373.316992  	0.050630 
1375.245808  	0.049234 
1377.174624  	0.048962 
1379.103440  	0.048229 
1381.032256  	0.046529 
1382.961072  	0.044765 
1384.889888  	0.043913 
1386.818704  	0.042338 
1388.747520  	0.039212 
1390.676336  	0.039087 
1392.605152  	0.042788 
1394.533968  	0.043082 
1396.462784  	0.038422 
1398.391600  	0.037174 
1400.320416  	0.037440 
1402.249232  	0.039925 
1404.178048  	0.042212 
1406.106864  	0.042972 
1408.035680  	0.043780 
1409.964496  	0.044604 
1411.893312  	0.044579 
1413.822128  	0.044502 
1415.750944  	0.045774 
1417.679760  	0.046077 
1419.608576  	0.041856 
1421.537392  	0.040693 
1423.466208  	0.040550 
1425.395024  	0.038296 
1427.323840  	0.036989 
1429.252656  	0.034354 
1431.181472  	0.032451 
1433.110288  	0.032897 
1435.039104  	0.033813 
1436.967920  	0.032082 
1438.896736  	0.032194 
1440.825552  	0.033539 
1442.754368  	0.033857 
1444.683184  	0.034023 
1446.612000  	0.034236 
1448.540816  	0.033994 
1450.469632  	0.035032 
1452.398448  	0.035934 
1454.327264  	0.036842 
1456.256080  	0.033976 
1458.184896  	0.027821 
1460.113712  	0.029956 
1462.042528  	0.032184 
1463.971344  	0.031335 
1465.900160  	0.030698 
1467.828976  	0.033391 
1469.757792  	0.036403 
1471.686608  	0.037826 
1473.615424  	0.040498 
1475.544240  	0.046128 
1477.473056  	0.050209 
1479.401872  	0.053266 
1481.330688  	0.055384 
1483.259504  	0.056583 
1485.188320  	0.057852 
1487.117136  	0.057398 
1489.045952  	0.056470 
1490.974768  	0.053176 
1492.903584  	0.052167 
1494.832400  	0.050206 
1496.761216  	0.043589 
1498.690032  	0.038623 
1500.618848  	0.036762 
1502.547664  	0.034839 
1504.476480  	0.031361 
1506.405296  	0.024200 
1508.334112  	0.023324 
1510.262928  	0.025220 
1512.191744  	0.023618 
1514.120560  	0.022958 
1516.049376  	0.021991 
1517.978192  	0.019781 
1519.907008  	0.020852 
1521.835824  	0.018616 
1523.764640  	0.022712 
1525.693456  	0.027170 
1527.622272  	0.028577 
1529.551088  	0.029428 
1531.479904  	0.029848 
1533.408720  	0.025161 
1535.337536  	0.023029 
1537.266352  	0.022657 
1539.195168  	0.013474 
1541.123984  	0.005658 
1543.052800  	0.011489 
1544.981616  	0.013958 
1546.910432  	0.014122 
1548.839248  	0.015234 
1550.768064  	0.015067 
1552.696880  	0.014711 
1554.625696  	0.014140 
1556.554512  	0.013473 
1558.483328  	0.007395 
1560.412144  	0.009855 
1562.340960  	0.019207 
1564.269776  	0.022735 
1566.198592  	0.026572 
1568.127408  	0.029549 
1570.056224  	0.031133 
1571.985040  	0.037572 
1573.913856  	0.041935 
1575.842672  	0.040124 
1577.771488  	0.042096 
1579.700304  	0.046086 
1581.629120  	0.046523 
1583.557936  	0.046109 
1585.486752  	0.046620 
1587.415568  	0.048240 
1589.344384  	0.051241 
1591.273200  	0.055419 
1593.202016  	0.060403 
1595.130832  	0.065627 
1597.059648  	0.071321 
1598.988464  	0.076352 
1600.917280  	0.080565 
1602.846096  	0.083386 
1604.774912  	0.085242 
1606.703728  	0.085532 
1608.632544  	0.084501 
1610.561360  	0.083059 
1612.490176  	0.082401 
1614.418992  	0.081041 
1616.347808  	0.075976 
1618.276624  	0.076063 
1620.205440  	0.081962 
1622.134256  	0.083687 
1624.063072  	0.085653 
1625.991888  	0.091698 
1627.920704  	0.097124 
1629.849520  	0.104255 
1631.778336  	0.112258 
1633.707152  	0.116979 
1635.635968  	0.117359 
1637.564784  	0.124284 
1639.493600  	0.133697 
1641.422416  	0.138813 
1643.351232  	0.142707 
1645.280048  	0.142580 
1647.208864  	0.137634 
1649.137680  	0.140758 
1651.066496  	0.145267 
1652.995312  	0.134437 
1654.924128  	0.132211 
1656.852944  	0.138285 
1658.781760  	0.138875 
1660.710576  	0.136753 
1662.639392  	0.131075 
1664.568208  	0.128249 
1666.497024  	0.128966 
1668.425840  	0.123990 
1670.354656  	0.115742 
1672.283472  	0.115037 
1674.212288  	0.114002 
1676.141104  	0.108554 
1678.069920  	0.109981 
1679.998736  	0.110511 
1681.927552  	0.109713 
1683.856368  	0.101694 
1685.785184  	0.098704 
1687.714000  	0.104590 
1689.642816  	0.104735 
1691.571632  	0.103641 
1693.500448  	0.104274 
1695.429264  	0.099145 
1697.358080  	0.095471 
1699.286896  	0.095279 
1701.215712  	0.088366 
1703.144528  	0.091682 
1705.073344  	0.089221 
1707.002160  	0.084339 
1708.930976  	0.082972 
1710.859792  	0.079676 
1712.788608  	0.075636 
1714.717424  	0.069331 
1716.646240  	0.059703 
1718.575056  	0.047853 
1720.503872  	0.044491 
1722.432688  	0.041317 
1724.361504  	0.034505 
1726.290320  	0.029091 
1728.219136  	0.024763 
1730.147952  	0.020580 
1732.076768  	0.017030 
1734.005584  	0.009653 
1735.934400  	0.005841 
1737.863216  	0.007630 
1739.792032  	0.003898 
1741.720848  	0.003570 
1743.649664  	0.004223 
1745.578480  	0.003801 
1747.507296  	0.002297 
1749.436112  	0.001583 
1751.364928  	0.000705 
1753.293744  	0.000384 
1755.222560  	0.000680 
1757.151376  	-0.000177 
1759.080192  	-0.000512 
1761.009008  	-0.001169 
1762.937824  	-0.002761 
1764.866640  	-0.001567 
1766.795456  	-0.000667 
1768.724272  	-0.001393 
1770.653088  	-0.004019 
1772.581904  	-0.007697 
1774.510720  	-0.005622 
1776.439536  	-0.003124 
1778.368352  	-0.002525 
1780.297168  	-0.003044 
1782.225984  	-0.003494 
1784.154800  	-0.002775 
1786.083616  	-0.003551 
1788.012432  	-0.003252 
1789.941248  	-0.002739 
1791.870064  	-0.004838 
1793.798880  	-0.006273 
1795.727696  	-0.004045 
1797.656512  	-0.004212 
1799.585328  	-0.004493 
1801.514144  	-0.003970 
1803.442960  	-0.004100 
1805.371776  	-0.004772 
1807.300592  	-0.004377 
1809.229408  	-0.004910 
1811.158224  	-0.005407 
1813.087040  	-0.005527 
1815.015856  	-0.004969 
1816.944672  	-0.004742 
1818.873488  	-0.004798 
1820.802304  	-0.005048 
1822.731120  	-0.004332 
1824.659936  	-0.004999 
1826.588752  	-0.005726 
1828.517568  	-0.006349 
1830.446384  	-0.007291 
1832.375200  	-0.006109 
1834.304016  	-0.005045 
1836.232832  	-0.005270 
1838.161648  	-0.005215 
1840.090464  	-0.005146 
1842.019280  	-0.004172 
1843.948096  	-0.006058 
1845.876912  	-0.006425 
1847.805728  	-0.005200 
1849.734544  	-0.005266 
1851.663360  	-0.005639 
1853.592176  	-0.005687 
1855.520992  	-0.005795 
1857.449808  	-0.005544 
1859.378624  	-0.005620 
1861.307440  	-0.005441 
1863.236256  	-0.005542 
1865.165072  	-0.005425 
1867.093888  	-0.005975 
1869.022704  	-0.006718 
1870.951520  	-0.006612 
1872.880336  	-0.005848 
1874.809152  	-0.006077 
1876.737968  	-0.005977 
1878.666784  	-0.006134 
1880.595600  	-0.005638 
1882.524416  	-0.005902 
1884.453232  	-0.005757 
1886.382048  	-0.005769 
1888.310864  	-0.005510 
1890.239680  	-0.006244 
1892.168496  	-0.005615 
1894.097312  	-0.005279 
1896.026128  	-0.005293 
1897.954944  	-0.005541 
1899.883760  	-0.005349 
1901.812576  	-0.005406 
1903.741392  	-0.005505 
1905.670208  	-0.005665 
1907.599024  	-0.005172 
1909.527840  	-0.005322 
1911.456656  	-0.004965 
1913.385472  	-0.005042 
1915.314288  	-0.004373 
1917.243104  	-0.004822 
1919.171920  	-0.005306 
1921.100736  	-0.004857 
1923.029552  	-0.004639 
1924.958368  	-0.005136 
1926.887184  	-0.004770 
1928.816000  	-0.005341 
1930.744816  	-0.005509 
1932.673632  	-0.005494 
1934.602448  	-0.005030 
1936.531264  	-0.004776 
1938.460080  	-0.003796 
1940.388896  	-0.004138 
1942.317712  	-0.004810 
1944.246528  	-0.005519 
1946.175344  	-0.004519 
1948.104160  	-0.004572 
1950.032976  	-0.004707 
1951.961792  	-0.005355 
1953.890608  	-0.005274 
1955.819424  	-0.005598 
1957.748240  	-0.004813 
1959.677056  	-0.005317 
1961.605872  	-0.005666 
1963.534688  	-0.006651 
1965.463504  	-0.005569 
1967.392320  	-0.004937 
1969.321136  	-0.004438 
1971.249952  	-0.005004 
1973.178768  	-0.004936 
1975.107584  	-0.005495 
1977.036400  	-0.004393 
1978.965216  	-0.003618 
1980.894032  	-0.003563 
1982.822848  	-0.004449 
1984.751664  	-0.004958 
1986.680480  	-0.005936 
1988.609296  	-0.005128 
1990.538112  	-0.005674 
1992.466928  	-0.005305 
1994.395744  	-0.005850 
1996.324560  	-0.005991 
1998.253376  	-0.006135 
2000.182192  	-0.005831 
2002.111008  	-0.005400 
2004.039824  	-0.004637 
2005.968640  	-0.005693 
2007.897456  	-0.005706 
2009.826272  	-0.005547 
2011.755088  	-0.004889 
2013.683904  	-0.004878 
2015.612720  	-0.004021 
2017.541536  	-0.005028 
2019.470352  	-0.004968 
2021.399168  	-0.005955 
2023.327984  	-0.006638 
2025.256800  	-0.006551 
2027.185616  	-0.005208 
2029.114432  	-0.005444 
2031.043248  	-0.004295 
2032.972064  	-0.004058 
2034.900880  	-0.004059 
2036.829696  	-0.005105 
2038.758512  	-0.004535 
2040.687328  	-0.004439 
2042.616144  	-0.003599 
2044.544960  	-0.004166 
2046.473776  	-0.004939 
2048.402592  	-0.005683 
2050.331408  	-0.005175 
2052.260224  	-0.005259 
2054.189040  	-0.005777 
2056.117856  	-0.006663 
2058.046672  	-0.006557 
2059.975488  	-0.006495 
2061.904304  	-0.006153 
2063.833120  	-0.005800 
2065.761936  	-0.005602 
2067.690752  	-0.005910 
2069.619568  	-0.005293 
2071.548384  	-0.004870 
2073.477200  	-0.004824 
2075.406016  	-0.004743 
2077.334832  	-0.004599 
2079.263648  	-0.004914 
2081.192464  	-0.004822 
2083.121280  	-0.005080 
2085.050096  	-0.005564 
2086.978912  	-0.005707 
2088.907728  	-0.005144 
2090.836544  	-0.004993 
2092.765360  	-0.004734 
2094.694176  	-0.004662 
2096.622992  	-0.004606 
2098.551808  	-0.004655 
2100.480624  	-0.004418 
2102.409440  	-0.004939 
2104.338256  	-0.005356 
2106.267072  	-0.005236 
2108.195888  	-0.004512 
2110.124704  	-0.004596 
2112.053520  	-0.004777 
2113.982336  	-0.004993 
2115.911152  	-0.004683 
2117.839968  	-0.004771 
2119.768784  	-0.005009 
2121.697600  	-0.005362 
2123.626416  	-0.005241 
2125.555232  	-0.005488 
2127.484048  	-0.005408 
2129.412864  	-0.005576 
2131.341680  	-0.005223 
2133.270496  	-0.004873 
2135.199312  	-0.004450 
2137.128128  	-0.004814 
2139.056944  	-0.004296 
2140.985760  	-0.004221 
2142.914576  	-0.004711 
2144.843392  	-0.004416 
2146.772208  	-0.003626 
2148.701024  	-0.004982 
2150.629840  	-0.003992 
2152.558656  	-0.003367 
2154.487472  	-0.003316 
2156.416288  	-0.003746 
2158.345104  	-0.003791 
2160.273920  	-0.003137 
2162.202736  	-0.002527 
2164.131552  	-0.003559 
2166.060368  	-0.004229 
2167.989184  	-0.004110 
2169.918000  	-0.002370 
2171.846816  	-0.002279 
2173.775632  	-0.002550 
2175.704448  	-0.003317 
2177.633264  	-0.004245 
2179.562080  	-0.004769 
2181.490896  	-0.004295 
2183.419712  	-0.005048 
2185.348528  	-0.004738 
2187.277344  	-0.004942 
2189.206160  	-0.005603 
2191.134976  	-0.005480 
2193.063792  	-0.005139 
2194.992608  	-0.005423 
2196.921424  	-0.005508 
2198.850240  	-0.005480 
2200.779056  	-0.005539 
2202.707872  	-0.006218 
2204.636688  	-0.005917 
2206.565504  	-0.005185 
2208.494320  	-0.005108 
2210.423136  	-0.005681 
2212.351952  	-0.005810 
2214.280768  	-0.006192 
2216.209584  	-0.005837 
2218.138400  	-0.005755 
2220.067216  	-0.005516 
2221.996032  	-0.005834 
2223.924848  	-0.005417 
2225.853664  	-0.005097 
2227.782480  	-0.005137 
2229.711296  	-0.005992 
2231.640112  	-0.006748 
2233.568928  	-0.006735 
2235.497744  	-0.006145 
2237.426560  	-0.006595 
2239.355376  	-0.006323 
2241.284192  	-0.006178 
2243.213008  	-0.006277 
2245.141824  	-0.006564 
2247.070640  	-0.006401 
2248.999456  	-0.006494 
2250.928272  	-0.006723 
2252.857088  	-0.006998 
2254.785904  	-0.006826 
2256.714720  	-0.007199 
2258.643536  	-0.007194 
2260.572352  	-0.007262 
2262.501168  	-0.007260 
2264.429984  	-0.007391 
2266.358800  	-0.007340 
2268.287616  	-0.007319 
2270.216432  	-0.007049 
2272.145248  	-0.006946 
2274.074064  	-0.007039 
2276.002880  	-0.007149 
2277.931696  	-0.006866 
2279.860512  	-0.006778 
2281.789328  	-0.006576 
2283.718144  	-0.006667 
2285.646960  	-0.006480 
2287.575776  	-0.006412 
2289.504592  	-0.006833 
2291.433408  	-0.007125 
2293.362224  	-0.006824 
2295.291040  	-0.006637 
2297.219856  	-0.006460 
2299.148672  	-0.006537 
2301.077488  	-0.006356 
2303.006304  	-0.006397 
2304.935120  	-0.006494 
2306.863936  	-0.006742 
2308.792752  	-0.007150 
2310.721568  	-0.008037 
2312.650384  	-0.009159 
2314.579200  	-0.010447 
2316.508016  	-0.011835 
2318.436832  	-0.013757 
2320.365648  	-0.016089 
2322.294464  	-0.018467 
2324.223280  	-0.020876 
2326.152096  	-0.023544 
2328.080912  	-0.025836 
2330.009728  	-0.028358 
2331.938544  	-0.030927 
2333.867360  	-0.032824 
2335.796176  	-0.034283 
2337.724992  	-0.035777 
2339.653808  	-0.036408 
2341.582624  	-0.036778 
2343.511440  	-0.035376 
2345.440256  	-0.031443 
2347.369072  	-0.023838 
2349.297888  	-0.019401 
2351.226704  	-0.023419 
2353.155520  	-0.031542 
2355.084336  	-0.038187 
2357.013152  	-0.043644 
2358.941968  	-0.046903 
2360.870784  	-0.048228 
2362.799600  	-0.046952 
2364.728416  	-0.044399 
2366.657232  	-0.040301 
2368.586048  	-0.034913 
2370.514864  	-0.029559 
2372.443680  	-0.024234 
2374.372496  	-0.018905 
2376.301312  	-0.014384 
2378.230128  	-0.010656 
2380.158944  	-0.008308 
2382.087760  	-0.007031 
2384.016576  	-0.006446 
2385.945392  	-0.006406 
2387.874208  	-0.006712 
2389.803024  	-0.006997 
2391.731840  	-0.007150 
2393.660656  	-0.007030 
2395.589472  	-0.007004 
2397.518288  	-0.006969 
2399.447104  	-0.007062 
2401.375920  	-0.007107 
2403.304736  	-0.007217 
2405.233552  	-0.007054 
2407.162368  	-0.007184 
2409.091184  	-0.007218 
2411.020000  	-0.007076 
2412.948816  	-0.007083 
2414.877632  	-0.007161 
2416.806448  	-0.007009 
2418.735264  	-0.007153 
2420.664080  	-0.007389 
2422.592896  	-0.007420 
2424.521712  	-0.007410 
2426.450528  	-0.007559 
2428.379344  	-0.007321 
2430.308160  	-0.007042 
2432.236976  	-0.006898 
2434.165792  	-0.007018 
2436.094608  	-0.007234 
2438.023424  	-0.007178 
2439.952240  	-0.006843 
2441.881056  	-0.006698 
2443.809872  	-0.006699 
2445.738688  	-0.006798 
2447.667504  	-0.006720 
2449.596320  	-0.006714 
2451.525136  	-0.006763 
2453.453952  	-0.006779 
2455.382768  	-0.006836 
2457.311584  	-0.006963 
2459.240400  	-0.006930 
2461.169216  	-0.006828 
2463.098032  	-0.006949 
2465.026848  	-0.007056 
2466.955664  	-0.006983 
2468.884480  	-0.007235 
2470.813296  	-0.007252 
2472.742112  	-0.007082 
2474.670928  	-0.007147 
2476.599744  	-0.007296 
2478.528560  	-0.006983 
2480.457376  	-0.006888 
2482.386192  	-0.006924 
2484.315008  	-0.006915 
2486.243824  	-0.006850 
2488.172640  	-0.006919 
2490.101456  	-0.006880 
2492.030272  	-0.006780 
2493.959088  	-0.006705 
2495.887904  	-0.006624 
2497.816720  	-0.006536 
2499.745536  	-0.006555 
2501.674352  	-0.006384 
2503.603168  	-0.006098 
2505.531984  	-0.006099 
2507.460800  	-0.006318 
2509.389616  	-0.006414 
2511.318432  	-0.006452 
2513.247248  	-0.006456 
2515.176064  	-0.006426 
2517.104880  	-0.006314 
2519.033696  	-0.006477 
2520.962512  	-0.006503 
2522.891328  	-0.006363 
2524.820144  	-0.006309 
2526.748960  	-0.006250 
2528.677776  	-0.006170 
2530.606592  	-0.006288 
2532.535408  	-0.006204 
2534.464224  	-0.006187 
2536.393040  	-0.006348 
2538.321856  	-0.006065 
2540.250672  	-0.005818 
2542.179488  	-0.005982 
2544.108304  	-0.005991 
2546.037120  	-0.005982 
2547.965936  	-0.005957 
2549.894752  	-0.005853 
2551.823568  	-0.005886 
2553.752384  	-0.005728 
2555.681200  	-0.005213 
2557.610016  	-0.005208 
2559.538832  	-0.005218 
2561.467648  	-0.005056 
2563.396464  	-0.004964 
2565.325280  	-0.004984 
2567.254096  	-0.005228 
2569.182912  	-0.005343 
2571.111728  	-0.005105 
2573.040544  	-0.005022 
2574.969360  	-0.004997 
2576.898176  	-0.004847 
2578.826992  	-0.004783 
2580.755808  	-0.004832 
2582.684624  	-0.005014 
2584.613440  	-0.005023 
2586.542256  	-0.004841 
2588.471072  	-0.004743 
2590.399888  	-0.004609 
2592.328704  	-0.004497 
2594.257520  	-0.004600 
2596.186336  	-0.004574 
2598.115152  	-0.004376 
2600.043968  	-0.004314 
2601.972784  	-0.004217 
2603.901600  	-0.004151 
2605.830416  	-0.003961 
2607.759232  	-0.003908 
2609.688048  	-0.003787 
2611.616864  	-0.003500 
2613.545680  	-0.003356 
2615.474496  	-0.003319 
2617.403312  	-0.003287 
2619.332128  	-0.003239 
2621.260944  	-0.003164 
2623.189760  	-0.003184 
2625.118576  	-0.003085 
2627.047392  	-0.003041 
2628.976208  	-0.003010 
2630.905024  	-0.002873 
2632.833840  	-0.002725 
2634.762656  	-0.002649 
2636.691472  	-0.002695 
2638.620288  	-0.002699 
2640.549104  	-0.002584 
2642.477920  	-0.002563 
2644.406736  	-0.002411 
2646.335552  	-0.002205 
2648.264368  	-0.002075 
2650.193184  	-0.002056 
2652.122000  	-0.001933 
2654.050816  	-0.001756 
2655.979632  	-0.001655 
2657.908448  	-0.001617 
2659.837264  	-0.001446 
2661.766080  	-0.001344 
2663.694896  	-0.001295 
2665.623712  	-0.001261 
2667.552528  	-0.001134 
2669.481344  	-0.000924 
2671.410160  	-0.000840 
2673.338976  	-0.000770 
2675.267792  	-0.000602 
2677.196608  	-0.000399 
2679.125424  	-0.000313 
2681.054240  	-0.000185 
2682.983056  	-0.000059 
2684.911872  	-0.000107 
2686.840688  	-0.000004 
2688.769504  	0.000139 
2690.698320  	0.000114 
2692.627136  	0.000155 
2694.555952  	0.000284 
2696.484768  	0.000333 
2698.413584  	0.000348 
2700.342400  	0.000388 
2702.271216  	0.000592 
2704.200032  	0.000867 
2706.128848  	0.000940 
2708.057664  	0.000896 
2709.986480  	0.000962 
2711.915296  	0.001091 
2713.844112  	0.001277 
2715.772928  	0.001335 
2717.701744  	0.001483 
2719.630560  	0.001776 
2721.559376  	0.001963 
2723.488192  	0.002087 
2725.417008  	0.002266 
2727.345824  	0.002416 
2729.274640  	0.002587 
2731.203456  	0.002819 
2733.132272  	0.003033 
2735.061088  	0.003206 
2736.989904  	0.003388 
2738.918720  	0.003464 
2740.847536  	0.003606 
2742.776352  	0.003687 
2744.705168  	0.003853 
2746.633984  	0.004001 
2748.562800  	0.004015 
2750.491616  	0.004077 
2752.420432  	0.004228 
2754.349248  	0.004159 
2756.278064  	0.004122 
2758.206880  	0.004162 
2760.135696  	0.004193 
2762.064512  	0.004216 
2763.993328  	0.004174 
2765.922144  	0.004294 
2767.850960  	0.004406 
2769.779776  	0.004474 
2771.708592  	0.004656 
2773.637408  	0.004661 
2775.566224  	0.004613 
2777.495040  	0.004702 
2779.423856  	0.004952 
2781.352672  	0.005053 
2783.281488  	0.004991 
2785.210304  	0.005062 
2787.139120  	0.005258 
2789.067936  	0.005410 
2790.996752  	0.005564 
2792.925568  	0.005617 
2794.854384  	0.005669 
2796.783200  	0.005739 
2798.712016  	0.005830 
2800.640832  	0.005867 
2802.569648  	0.005994 
2804.498464  	0.006184 
2806.427280  	0.006296 
2808.356096  	0.006310 
2810.284912  	0.006415 
2812.213728  	0.006579 
2814.142544  	0.006695 
2816.071360  	0.006843 
2818.000176  	0.006926 
2819.928992  	0.007054 
2821.857808  	0.007246 
2823.786624  	0.007445 
2825.715440  	0.007614 
2827.644256  	0.007663 
2829.573072  	0.007799 
2831.501888  	0.008035 
2833.430704  	0.008293 
2835.359520  	0.008614 
2837.288336  	0.009015 
2839.217152  	0.009452 
2841.145968  	0.009929 
2843.074784  	0.010358 
2845.003600  	0.010718 
2846.932416  	0.011221 
2848.861232  	0.011931 
2850.790048  	0.012728 
2852.718864  	0.013558 
2854.647680  	0.014513 
2856.576496  	0.015362 
2858.505312  	0.016430 
2860.434128  	0.017768 
2862.362944  	0.019001 
2864.291760  	0.020172 
2866.220576  	0.021563 
2868.149392  	0.022746 
2870.078208  	0.023481 
2872.007024  	0.024306 
2873.935840  	0.025202 
2875.864656  	0.026175 
2877.793472  	0.027466 
2879.722288  	0.029125 
2881.651104  	0.030865 
2883.579920  	0.032280 
2885.508736  	0.033006 
2887.437552  	0.033127 
2889.366368  	0.033426 
2891.295184  	0.034191 
2893.224000  	0.034851 
2895.152816  	0.034998 
2897.081632  	0.035512 
2899.010448  	0.037885 
2900.939264  	0.040165 
2902.868080  	0.038781 
2904.796896  	0.037133 
2906.725712  	0.036843 
2908.654528  	0.036895 
2910.583344  	0.037103 
2912.512160  	0.036648 
2914.440976  	0.035671 
2916.369792  	0.035128 
2918.298608  	0.035311 
2920.227424  	0.035662 
2922.156240  	0.035798 
2924.085056  	0.035704 
2926.013872  	0.035783 
2927.942688  	0.035943 
2929.871504  	0.036027 
2931.800320  	0.036246 
2933.729136  	0.036504 
2935.657952  	0.036925 
2937.586768  	0.037406 
2939.515584  	0.037893 
2941.444400  	0.038516 
2943.373216  	0.039123 
2945.302032  	0.039554 
2947.230848  	0.039840 
2949.159664  	0.040518 
2951.088480  	0.041504 
2953.017296  	0.042437 
2954.946112  	0.043308 
2956.874928  	0.044255 
2958.803744  	0.045051 
2960.732560  	0.045698 
2962.661376  	0.046547 
2964.590192  	0.047818 
2966.519008  	0.049285 
2968.447824  	0.050591 
2970.376640  	0.051485 
2972.305456  	0.051631 
2974.234272  	0.051064 
2976.163088  	0.050689 
2978.091904  	0.050292 
2980.020720  	0.050059 
2981.949536  	0.049832 
2983.878352  	0.050183 
2985.807168  	0.051409 
2987.735984  	0.052644 
2989.664800  	0.051816 
2991.593616  	0.047264 
2993.522432  	0.044675 
2995.451248  	0.043994 
2997.380064  	0.043009 
2999.308880  	0.041580 
3001.237696  	0.040024 
3003.166512  	0.038628 
3005.095328  	0.037041 
3007.024144  	0.035462 
3008.952960  	0.033933 
3010.881776  	0.032397 
3012.810592  	0.030874 
3014.739408  	0.029500 
3016.668224  	0.028205 
3018.597040  	0.027150 
3020.525856  	0.026263 
3022.454672  	0.025241 
3024.383488  	0.024290 
3026.312304  	0.023435 
3028.241120  	0.022854 
3030.169936  	0.022316 
3032.098752  	0.021670 
3034.027568  	0.021241 
3035.956384  	0.020974 
3037.885200  	0.020843 
3039.814016  	0.020694 
3041.742832  	0.020610 
3043.671648  	0.020479 
3045.600464  	0.020435 
3047.529280  	0.020379 
3049.458096  	0.020551 
3051.386912  	0.020912 
3053.315728  	0.021122 
3055.244544  	0.021459 
3057.173360  	0.021810 
3059.102176  	0.022022 
3061.030992  	0.022335 
3062.959808  	0.022827 
3064.888624  	0.023277 
3066.817440  	0.023823 
3068.746256  	0.024381 
3070.675072  	0.024883 
3072.603888  	0.025368 
3074.532704  	0.025915 
3076.461520  	0.026433 
3078.390336  	0.027032 
3080.319152  	0.027525 
3082.247968  	0.028066 
3084.176784  	0.028489 
3086.105600  	0.029052 
3088.034416  	0.029675 
3089.963232  	0.030341 
3091.892048  	0.030768 
3093.820864  	0.031125 
3095.749680  	0.031634 
3097.678496  	0.032346 
3099.607312  	0.033022 
3101.536128  	0.033588 
3103.464944  	0.034239 
3105.393760  	0.034785 
3107.322576  	0.035292 
3109.251392  	0.035795 
3111.180208  	0.036182 
3113.109024  	0.036592 
3115.037840  	0.037037 
3116.966656  	0.037558 
3118.895472  	0.037923 
3120.824288  	0.038307 
3122.753104  	0.038773 
3124.681920  	0.039211 
3126.610736  	0.039565 
3128.539552  	0.040191 
3130.468368  	0.040779 
3132.397184  	0.041031 
3134.326000  	0.041522 
3136.254816  	0.042135 
3138.183632  	0.042594 
3140.112448  	0.042906 
3142.041264  	0.043200 
3143.970080  	0.043664 
3145.898896  	0.044188 
3147.827712  	0.044797 
3149.756528  	0.045288 
3151.685344  	0.045546 
3153.614160  	0.045945 
3155.542976  	0.046482 
3157.471792  	0.047033 
3159.400608  	0.047623 
3161.329424  	0.048020 
3163.258240  	0.048155 
3165.187056  	0.048434 
3167.115872  	0.048981 
3169.044688  	0.049337 
3170.973504  	0.049704 
3172.902320  	0.050012 
3174.831136  	0.050366 
3176.759952  	0.050662 
3178.688768  	0.050729 
3180.617584  	0.051151 
3182.546400  	0.051636 
3184.475216  	0.051797 
3186.404032  	0.051797 
3188.332848  	0.051892 
3190.261664  	0.052083 
3192.190480  	0.052232 
3194.119296  	0.052270 
3196.048112  	0.052505 
3197.976928  	0.052530 
3199.905744  	0.052468 
3201.834560  	0.052509 
3203.763376  	0.052651 
3205.692192  	0.052653 
3207.621008  	0.052550 
3209.549824  	0.052601 
3211.478640  	0.052664 
3213.407456  	0.052582 
3215.336272  	0.052437 
3217.265088  	0.052346 
3219.193904  	0.052177 
3221.122720  	0.052015 
3223.051536  	0.052044 
3224.980352  	0.052125 
3226.909168  	0.051898 
3228.837984  	0.051656 
3230.766800  	0.051612 
3232.695616  	0.051607 
3234.624432  	0.051522 
3236.553248  	0.051396 
3238.482064  	0.051279 
3240.410880  	0.051236 
3242.339696  	0.051329 
3244.268512  	0.051294 
3246.197328  	0.051244 
3248.126144  	0.051365 
3250.054960  	0.051522 
3251.983776  	0.051804 
3253.912592  	0.051854 
3255.841408  	0.051857 
3257.770224  	0.051945 
3259.699040  	0.052121 
3261.627856  	0.052428 
3263.556672  	0.052643 
3265.485488  	0.052598 
3267.414304  	0.052755 
3269.343120  	0.053114 
3271.271936  	0.053189 
3273.200752  	0.053043 
3275.129568  	0.053037 
3277.058384  	0.053290 
3278.987200  	0.053485 
3280.916016  	0.053645 
3282.844832  	0.053697 
3284.773648  	0.053690 
3286.702464  	0.053804 
3288.631280  	0.053936 
3290.560096  	0.054083 
3292.488912  	0.054420 
3294.417728  	0.054619 
3296.346544  	0.054787 
3298.275360  	0.054911 
3300.204176  	0.055183 
3302.132992  	0.055469 
3304.061808  	0.055558 
3305.990624  	0.055781 
3307.919440  	0.056000 
3309.848256  	0.056208 
3311.777072  	0.056356 
3313.705888  	0.056624 
3315.634704  	0.057184 
3317.563520  	0.057570 
3319.492336  	0.057627 
3321.421152  	0.057538 
3323.349968  	0.057635 
3325.278784  	0.057785 
3327.207600  	0.057981 
3329.136416  	0.057969 
3331.065232  	0.057966 
3332.994048  	0.058071 
3334.922864  	0.058114 
3336.851680  	0.058048 
3338.780496  	0.057974 
3340.709312  	0.057892 
3342.638128  	0.057751 
3344.566944  	0.057540 
3346.495760  	0.057385 
3348.424576  	0.057185 
3350.353392  	0.056943 
3352.282208  	0.056605 
3354.211024  	0.056507 
3356.139840  	0.056493 
3358.068656  	0.056210 
3359.997472  	0.055789 
3361.926288  	0.055537 
3363.855104  	0.055452 
3365.783920  	0.055102 
3367.712736  	0.054798 
3369.641552  	0.054461 
3371.570368  	0.054071 
3373.499184  	0.053814 
3375.428000  	0.053661 
3377.356816  	0.053489 
3379.285632  	0.053578 
3381.214448  	0.053472 
3383.143264  	0.053141 
3385.072080  	0.052592 
3387.000896  	0.052212 
3388.929712  	0.052061 
3390.858528  	0.052049 
3392.787344  	0.051677 
3394.716160  	0.051271 
3396.644976  	0.051169 
3398.573792  	0.050832 
3400.502608  	0.050520 
3402.431424  	0.050219 
3404.360240  	0.049881 
3406.289056  	0.049558 
3408.217872  	0.049023 
3410.146688  	0.048554 
3412.075504  	0.048318 
3414.004320  	0.048052 
3415.933136  	0.047793 
3417.861952  	0.047374 
3419.790768  	0.047046 
3421.719584  	0.046654 
3423.648400  	0.046284 
3425.577216  	0.045689 
3427.506032  	0.045077 
3429.434848  	0.044699 
3431.363664  	0.044382 
3433.292480  	0.043961 
3435.221296  	0.043668 
3437.150112  	0.043528 
3439.078928  	0.043215 
3441.007744  	0.042762 
3442.936560  	0.042333 
3444.865376  	0.042173 
3446.794192  	0.041465 
3448.723008  	0.040639 
3450.651824  	0.040421 
3452.580640  	0.040038 
3454.509456  	0.039576 
3456.438272  	0.039188 
3458.367088  	0.038822 
3460.295904  	0.038396 
3462.224720  	0.037752 
3464.153536  	0.037168 
3466.082352  	0.036590 
3468.011168  	0.035881 
3469.939984  	0.035292 
3471.868800  	0.034847 
3473.797616  	0.034393 
3475.726432  	0.033887 
3477.655248  	0.033514 
3479.584064  	0.033354 
3481.512880  	0.032866 
3483.441696  	0.031907 
3485.370512  	0.031506 
3487.299328  	0.030864 
3489.228144  	0.030133 
3491.156960  	0.029559 
3493.085776  	0.029068 
3495.014592  	0.028604 
3496.943408  	0.028111 
3498.872224  	0.027926 
3500.801040  	0.028223 
3502.729856  	0.027527 
3504.658672  	0.026042 
3506.587488  	0.025758 
3508.516304  	0.025773 
3510.445120  	0.025002 
3512.373936  	0.024078 
3514.302752  	0.023710 
3516.231568  	0.023717 
3518.160384  	0.023409 
3520.089200  	0.022912 
3522.018016  	0.022777 
3523.946832  	0.022820 
3525.875648  	0.022228 
3527.804464  	0.020936 
3529.733280  	0.020134 
3531.662096  	0.019661 
3533.590912  	0.019331 
3535.519728  	0.019444 
3537.448544  	0.018962 
3539.377360  	0.018002 
3541.306176  	0.017725 
3543.234992  	0.018046 
3545.163808  	0.018574 
3547.092624  	0.017454 
3549.021440  	0.015906 
3550.950256  	0.015697 
3552.879072  	0.015266 
3554.807888  	0.014766 
3556.736704  	0.014260 
3558.665520  	0.014278 
3560.594336  	0.014251 
3562.523152  	0.013473 
3564.451968  	0.013894 
3566.380784  	0.014371 
3568.309600  	0.011905 
3570.238416  	0.010709 
3572.167232  	0.010679 
3574.096048  	0.010013 
3576.024864  	0.009078 
3577.953680  	0.008937 
3579.882496  	0.008701 
3581.811312  	0.008103 
3583.740128  	0.007941 
3585.668944  	0.008410 
3587.597760  	0.006785 
3589.526576  	0.005009 
3591.455392  	0.005267 
3593.384208  	0.005261 
3595.313024  	0.004110 
3597.241840  	0.002914 
3599.170656  	0.001866 
3601.099472  	0.001204 
3603.028288  	0.001570 
3604.957104  	0.002001 
3606.885920  	0.001679 
3608.814736  	0.000332 
3610.743552  	0.000447 
3612.672368  	-0.000213 
3614.601184  	-0.001221 
3616.530000  	-0.000755 
3618.458816  	-0.002444 
3620.387632  	-0.004074 
3622.316448  	-0.003169 
3624.245264  	-0.002490 
3626.174080  	-0.002143 
3628.102896  	-0.004908 
3630.031712  	-0.008678 
3631.960528  	-0.005407 
3633.889344  	-0.004493 
3635.818160  	-0.004478 
3637.746976  	-0.004338 
3639.675792  	-0.003845 
3641.604608  	-0.002933 
3643.533424  	-0.002332 
3645.462240  	-0.002058 
3647.391056  	-0.004998 
3649.319872  	-0.009460 
3651.248688  	-0.009328 
3653.177504  	-0.004681 
3655.106320  	-0.003714 
3657.035136  	-0.004989 
3658.963952  	-0.003063 
3660.892768  	-0.001953 
3662.821584  	-0.002064 
3664.750400  	-0.002333 
3666.679216  	-0.002349 
3668.608032  	-0.004787 
3670.536848  	-0.008956 
3672.465664  	-0.006339 
3674.394480  	-0.006737 
3676.323296  	-0.011324 
3678.252112  	-0.009194 
3680.180928  	-0.008283 
3682.109744  	-0.006525 
3684.038560  	-0.005630 
3685.967376  	-0.005932 
3687.896192  	-0.009676 
3689.825008  	-0.014173 
3691.753824  	-0.013051 
3693.682640  	-0.010604 
3695.611456  	-0.010227 
3697.540272  	-0.010674 
3699.469088  	-0.011070 
3701.397904  	-0.013706 
3703.326720  	-0.015099 
3705.255536  	-0.014054 
3707.184352  	-0.014259 
3709.113168  	-0.016860 
3711.041984  	-0.020275 
3712.970800  	-0.019182 
3714.899616  	-0.015507 
3716.828432  	-0.014693 
3718.757248  	-0.015620 
3720.686064  	-0.016401 
3722.614880  	-0.017411 
3724.543696  	-0.016778 
3726.472512  	-0.017010 
3728.401328  	-0.017150 
3730.330144  	-0.017716 
3732.258960  	-0.020043 
3734.187776  	-0.019413 
3736.116592  	-0.020173 
3738.045408  	-0.019706 
3739.974224  	-0.017317 
3741.903040  	-0.015608 
3743.831856  	-0.018361 
3745.760672  	-0.021475 
3747.689488  	-0.018764 
3749.618304  	-0.022041 
3751.547120  	-0.024617 
3753.475936  	-0.021189 
3755.404752  	-0.017459 
3757.333568  	-0.016955 
3759.262384  	-0.018069 
3761.191200  	-0.017799 
3763.120016  	-0.015488 
3765.048832  	-0.016186 
3766.977648  	-0.016503 
3768.906464  	-0.017308 
3770.835280  	-0.018176 
3772.764096  	-0.016165 
3774.692912  	-0.015183 
3776.621728  	-0.015053 
3778.550544  	-0.016794 
3780.479360  	-0.018056 
3782.408176  	-0.015935 
3784.336992  	-0.016039 
3786.265808  	-0.016111 
3788.194624  	-0.015514 
3790.123440  	-0.015369 
3792.052256  	-0.015415 
3793.981072  	-0.015294 
3795.909888  	-0.017020 
3797.838704  	-0.017436 
3799.767520  	-0.017797 
3801.696336  	-0.022611 
3803.625152  	-0.020022 
3805.553968  	-0.018060 
3807.482784  	-0.020108 
3809.411600  	-0.017168 
3811.340416  	-0.015218 
3813.269232  	-0.014922 
3815.198048  	-0.018174 
3817.126864  	-0.020320 
3819.055680  	-0.018482 
3820.984496  	-0.022753 
3822.913312  	-0.021014 
3824.842128  	-0.016972 
3826.770944  	-0.017432 
3828.699760  	-0.016607 
3830.628576  	-0.016592 
3832.557392  	-0.017694 
3834.486208  	-0.017655 
3836.415024  	-0.018950 
3838.343840  	-0.020839 
3840.272656  	-0.019782 
3842.201472  	-0.017918 
3844.130288  	-0.017480 
3846.059104  	-0.016059 
3847.987920  	-0.014707 
3849.916736  	-0.014729 
3851.845552  	-0.017920 
3853.774368  	-0.025119 
3855.703184  	-0.021184 
3857.632000  	-0.016870 
3859.560816  	-0.015151 
3861.489632  	-0.015432 
3863.418448  	-0.016818 
3865.347264  	-0.017409 
3867.276080  	-0.015308 
3869.204896  	-0.016595 
3871.133712  	-0.017805 
3873.062528  	-0.016407 
3874.991344  	-0.017104 
3876.920160  	-0.014886 
3878.848976  	-0.014132 
3880.777792  	-0.015802 
3882.706608  	-0.015013 
3884.635424  	-0.015002 
3886.564240  	-0.016799 
3888.493056  	-0.015317 
3890.421872  	-0.015847 
3892.350688  	-0.017108 
3894.279504  	-0.015344 
3896.208320  	-0.014048 
3898.137136  	-0.014055 
3900.065952  	-0.014754 
3901.994768  	-0.014811 
3903.923584  	-0.016037 
3905.852400  	-0.016519 
3907.781216  	-0.015666 
3909.710032  	-0.015152 
3911.638848  	-0.014849 
3913.567664  	-0.014356 
3915.496480  	-0.013872 
3917.425296  	-0.014394 
3919.354112  	-0.014935 
3921.282928  	-0.014770 
3923.211744  	-0.014062 
3925.140560  	-0.014278 
3927.069376  	-0.014580 
3928.998192  	-0.014543 
3930.927008  	-0.013975 
3932.855824  	-0.013919 
3934.784640  	-0.014602 
3936.713456  	-0.014822 
3938.642272  	-0.014514 
3940.571088  	-0.014018 
3942.499904  	-0.013834 
3944.428720  	-0.014194 
3946.357536  	-0.013871 
3948.286352  	-0.013699 
3950.215168  	-0.014593 
3952.143984  	-0.015287 
3954.072800  	-0.015136 
3956.001616  	-0.014715 
3957.930432  	-0.014765 
3959.859248  	-0.014734 
3961.788064  	-0.014591 
3963.716880  	-0.014946 
3965.645696  	-0.015189 
3967.574512  	-0.015003 
3969.503328  	-0.014697 
3971.432144  	-0.014854 
3973.360960  	-0.014923 
3975.289776  	-0.014640 
3977.218592  	-0.014593 
3979.147408  	-0.014820 
3981.076224  	-0.014834 
3983.005040  	-0.014758 
3984.933856  	-0.014694 
3986.862672  	-0.014708 
3988.791488  	-0.014495 
3990.720304  	-0.014254 
3992.649120  	-0.014435 
3994.577936  	-0.014740 
3996.506752  	-0.014945 
3998.435568  	-0.014840 
4000.364384  	-0.014764 