##TITLE=No Description
##DATA TYPE=INFRARED SPECTRUM
##XUNITS=1/CM
##YUNITS=Abs
399.264912  	0.615792 
401.193728  	0.605197 
403.122544  	0.615783 
405.051360  	0.597517 
406.980176  	0.588561 
408.908992  	0.583142 
410.837808  	0.590171 
412.766624  	0.588278 
414.695440  	0.585936 
416.624256  	0.577346 
418.553072  	0.585041 
420.481888  	0.567992 
422.410704  	0.570946 
424.339520  	0.569997 
426.268336  	0.568201 
428.197152  	0.561403 
430.125968  	0.559338 
432.054784  	0.554872 
433.983600  	0.557336 
435.912416  	0.548144 
437.841232  	0.544714 
439.770048  	0.541141 
441.698864  	0.542025 
443.627680  	0.536342 
445.556496  	0.542084 
447.485312  	0.542897 
449.414128  	0.538413 
451.342944  	0.533271 
453.271760  	0.530883 
455.200576  	0.526235 
457.129392  	0.529048 
459.058208  	0.525369 
460.987024  	0.528507 
462.915840  	0.525108 
464.844656  	0.526009 
466.773472  	0.523334 
468.702288  	0.519978 
470.631104  	0.520090 
472.559920  	0.521461 
474.488736  	0.516538 
476.417552  	0.518218 
478.346368  	0.513361 
480.275184  	0.509636 
482.204000  	0.508031 
484.132816  	0.514535 
486.061632  	0.512647 
487.990448  	0.510525 
489.919264  	0.507441 
491.848080  	0.511728 
493.776896  	0.510873 
495.705712  	0.508708 
497.634528  	0.503733 
499.563344  	0.503474 
501.492160  	0.502830 
503.420976  	0.504192 
505.349792  	0.502120 
507.278608  	0.502756 
509.207424  	0.505435 
511.136240  	0.509083 
513.065056  	0.504874 
514.993872  	0.503074 
516.922688  	0.502527 
518.851504  	0.504682 
520.780320  	0.503250 
522.709136  	0.502364 
524.637952  	0.500765 
526.566768  	0.499263 
528.495584  	0.496991 
530.424400  	0.497427 
532.353216  	0.493511 
534.282032  	0.490198 
536.210848  	0.483689 
538.139664  	0.478782 
540.068480  	0.474670 
541.997296  	0.471772 
543.926112  	0.466790 
545.854928  	0.464331 
547.783744  	0.460267 
549.712560  	0.457900 
551.641376  	0.455075 
553.570192  	0.451863 
555.499008  	0.447675 
557.427824  	0.444989 
559.356640  	0.440754 
561.285456  	0.437938 
563.214272  	0.434155 
565.143088  	0.432607 
567.071904  	0.429187 
569.000720  	0.426155 
570.929536  	0.423750 
572.858352  	0.421810 
574.787168  	0.418502 
576.715984  	0.415886 
578.644800  	0.412423 
580.573616  	0.409238 
582.502432  	0.405042 
584.431248  	0.401412 
586.360064  	0.397171 
588.288880  	0.394894 
590.217696  	0.392830 
592.146512  	0.390659 
594.075328  	0.387956 
596.004144  	0.386208 
597.932960  	0.384401 
599.861776  	0.382258 
601.790592  	0.379549 
603.719408  	0.378454 
605.648224  	0.376643 
607.577040  	0.375114 
609.505856  	0.373901 
611.434672  	0.372610 
613.363488  	0.370888 
615.292304  	0.370328 
617.221120  	0.368418 
619.149936  	0.366482 
621.078752  	0.364622 
623.007568  	0.363474 
624.936384  	0.361698 
626.865200  	0.360296 
628.794016  	0.359336 
630.722832  	0.359344 
632.651648  	0.358442 
634.580464  	0.357687 
636.509280  	0.357061 
638.438096  	0.356187 
640.366912  	0.354529 
642.295728  	0.352732 
644.224544  	0.349532 
646.153360  	0.345769 
648.082176  	0.341254 
650.010992  	0.338086 
651.939808  	0.334276 
653.868624  	0.331050 
655.797440  	0.328176 
657.726256  	0.324953 
659.655072  	0.321190 
661.583888  	0.317426 
663.512704  	0.314053 
665.441520  	0.310936 
667.370336  	0.301855 
669.299152  	0.295229 
671.227968  	0.296731 
673.156784  	0.294421 
675.085600  	0.291765 
677.014416  	0.289144 
678.943232  	0.286724 
680.872048  	0.285160 
682.800864  	0.283908 
684.729680  	0.282199 
686.658496  	0.280613 
688.587312  	0.279638 
690.516128  	0.278217 
692.444944  	0.276991 
694.373760  	0.275904 
696.302576  	0.274407 
698.231392  	0.272104 
700.160208  	0.269563 
702.089024  	0.267482 
704.017840  	0.265453 
705.946656  	0.263133 
707.875472  	0.260875 
709.804288  	0.258795 
711.733104  	0.256786 
713.661920  	0.254717 
715.590736  	0.253190 
717.519552  	0.252227 
719.448368  	0.251638 
721.377184  	0.251355 
723.306000  	0.251508 
725.234816  	0.251411 
727.163632  	0.250917 
729.092448  	0.249143 
731.021264  	0.246355 
732.950080  	0.243192 
734.878896  	0.240241 
736.807712  	0.237393 
738.736528  	0.235211 
740.665344  	0.233232 
742.594160  	0.231446 
744.522976  	0.229691 
746.451792  	0.227872 
748.380608  	0.226260 
750.309424  	0.224827 
752.238240  	0.223802 
754.167056  	0.222820 
756.095872  	0.221701 
758.024688  	0.220647 
759.953504  	0.219470 
761.882320  	0.219398 
763.811136  	0.219638 
765.739952  	0.218826 
767.668768  	0.216419 
769.597584  	0.213657 
771.526400  	0.211975 
773.455216  	0.212651 
775.384032  	0.215029 
777.312848  	0.218820 
779.241664  	0.221924 
781.170480  	0.221962 
783.099296  	0.218759 
785.028112  	0.213895 
786.956928  	0.208823 
788.885744  	0.204168 
790.814560  	0.200591 
792.743376  	0.198097 
794.672192  	0.196611 
796.601008  	0.195560 
798.529824  	0.192953 
800.458640  	0.189097 
802.387456  	0.185605 
804.316272  	0.183015 
806.245088  	0.181367 
808.173904  	0.180286 
810.102720  	0.179772 
812.031536  	0.179482 
813.960352  	0.179432 
815.889168  	0.179277 
817.817984  	0.179046 
819.746800  	0.178654 
821.675616  	0.178002 
823.604432  	0.177393 
825.533248  	0.176730 
827.462064  	0.176051 
829.390880  	0.174909 
831.319696  	0.173238 
833.248512  	0.171643 
835.177328  	0.169559 
837.106144  	0.167097 
839.034960  	0.164136 
840.963776  	0.160893 
842.892592  	0.157566 
844.821408  	0.154387 
846.750224  	0.151685 
848.679040  	0.149427 
850.607856  	0.147739 
852.536672  	0.146537 
854.465488  	0.145579 
856.394304  	0.144925 
858.323120  	0.144250 
860.251936  	0.143190 
862.180752  	0.141551 
864.109568  	0.139915 
866.038384  	0.138463 
867.967200  	0.136729 
869.896016  	0.135028 
871.824832  	0.133946 
873.753648  	0.133132 
875.682464  	0.133188 
877.611280  	0.134759 
879.540096  	0.136688 
881.468912  	0.137205 
883.397728  	0.137747 
885.326544  	0.138121 
887.255360  	0.138329 
889.184176  	0.138170 
891.112992  	0.137915 
893.041808  	0.136089 
894.970624  	0.132889 
896.899440  	0.129683 
898.828256  	0.126026 
900.757072  	0.122028 
902.685888  	0.118525 
904.614704  	0.116054 
906.543520  	0.114903 
908.472336  	0.114872 
910.401152  	0.116012 
912.329968  	0.117475 
914.258784  	0.119247 
916.187600  	0.120934 
918.116416  	0.122414 
920.045232  	0.123432 
921.974048  	0.123940 
923.902864  	0.123884 
925.831680  	0.123492 
927.760496  	0.123350 
929.689312  	0.123440 
931.618128  	0.123683 
933.546944  	0.123861 
935.475760  	0.123883 
937.404576  	0.123784 
939.333392  	0.123273 
941.262208  	0.123063 
943.191024  	0.123894 
945.119840  	0.126442 
947.048656  	0.130884 
948.977472  	0.136989 
950.906288  	0.144342 
952.835104  	0.152665 
954.763920  	0.161650 
956.692736  	0.170291 
958.621552  	0.177616 
960.550368  	0.182955 
962.479184  	0.185893 
964.408000  	0.185791 
966.336816  	0.182329 
968.265632  	0.175797 
970.194448  	0.166896 
972.123264  	0.156374 
974.052080  	0.144909 
975.980896  	0.133746 
977.909712  	0.123343 
979.838528  	0.113936 
981.767344  	0.106030 
983.696160  	0.100017 
985.624976  	0.096315 
987.553792  	0.094941 
989.482608  	0.095709 
991.411424  	0.098755 
993.340240  	0.103283 
995.269056  	0.108845 
997.197872  	0.114835 
999.126688  	0.121253 
1001.055504  	0.127778 
1002.984320  	0.134600 
1004.913136  	0.141355 
1006.841952  	0.147977 
1008.770768  	0.154044 
1010.699584  	0.159216 
1012.628400  	0.163071 
1014.557216  	0.165597 
1016.486032  	0.167074 
1018.414848  	0.167974 
1020.343664  	0.168380 
1022.272480  	0.168460 
1024.201296  	0.169488 
1026.130112  	0.173151 
1028.058928  	0.175223 
1029.987744  	0.173547 
1031.916560  	0.175742 
1033.845376  	0.181225 
1035.774192  	0.188554 
1037.703008  	0.196271 
1039.631824  	0.203625 
1041.560640  	0.213317 
1043.489456  	0.225897 
1045.418272  	0.240219 
1047.347088  	0.255149 
1049.275904  	0.268636 
1051.204720  	0.279968 
1053.133536  	0.287214 
1055.062352  	0.291411 
1056.991168  	0.293825 
1058.919984  	0.292069 
1060.848800  	0.288017 
1062.777616  	0.287983 
1064.706432  	0.290839 
1066.635248  	0.290119 
1068.564064  	0.280809 
1070.492880  	0.273359 
1072.421696  	0.269182 
1074.350512  	0.266060 
1076.279328  	0.263727 
1078.208144  	0.263594 
1080.136960  	0.264020 
1082.065776  	0.264490 
1083.994592  	0.263504 
1085.923408  	0.260520 
1087.852224  	0.255215 
1089.781040  	0.248252 
1091.709856  	0.238601 
1093.638672  	0.228803 
1095.567488  	0.218665 
1097.496304  	0.208227 
1099.425120  	0.197003 
1101.353936  	0.185027 
1103.282752  	0.172900 
1105.211568  	0.161248 
1107.140384  	0.149450 
1109.069200  	0.137709 
1110.998016  	0.126756 
1112.926832  	0.117051 
1114.855648  	0.108196 
1116.784464  	0.099827 
1118.713280  	0.092066 
1120.642096  	0.085195 
1122.570912  	0.078779 
1124.499728  	0.072554 
1126.428544  	0.067168 
1128.357360  	0.062490 
1130.286176  	0.058528 
1132.214992  	0.054997 
1134.143808  	0.052190 
1136.072624  	0.049903 
1138.001440  	0.047976 
1139.930256  	0.045728 
1141.859072  	0.043418 
1143.787888  	0.041190 
1145.716704  	0.039156 
1147.645520  	0.036980 
1149.574336  	0.035158 
1151.503152  	0.033813 
1153.431968  	0.033213 
1155.360784  	0.033269 
1157.289600  	0.033819 
1159.218416  	0.034730 
1161.147232  	0.036324 
1163.076048  	0.038046 
1165.004864  	0.039958 
1166.933680  	0.041758 
1168.862496  	0.043789 
1170.791312  	0.045768 
1172.720128  	0.048329 
1174.648944  	0.050712 
1176.577760  	0.053102 
1178.506576  	0.055333 
1180.435392  	0.057911 
1182.364208  	0.060381 
1184.293024  	0.063138 
1186.221840  	0.066279 
1188.150656  	0.069806 
1190.079472  	0.073747 
1192.008288  	0.078587 
1193.937104  	0.084404 
1195.865920  	0.090910 
1197.794736  	0.097851 
1199.723552  	0.105576 
1201.652368  	0.113642 
1203.581184  	0.121801 
1205.510000  	0.129848 
1207.438816  	0.137661 
1209.367632  	0.145173 
1211.296448  	0.152116 
1213.225264  	0.158309 
1215.154080  	0.163459 
1217.082896  	0.167735 
1219.011712  	0.171001 
1220.940528  	0.173951 
1222.869344  	0.176114 
1224.798160  	0.177286 
1226.726976  	0.177655 
1228.655792  	0.177791 
1230.584608  	0.176523 
1232.513424  	0.174170 
1234.442240  	0.170822 
1236.371056  	0.166847 
1238.299872  	0.162546 
1240.228688  	0.159456 
1242.157504  	0.154480 
1244.086320  	0.147083 
1246.015136  	0.140860 
1247.943952  	0.135660 
1249.872768  	0.129808 
1251.801584  	0.122878 
1253.730400  	0.116149 
1255.659216  	0.109535 
1257.588032  	0.103311 
1259.516848  	0.097055 
1261.445664  	0.090776 
1263.374480  	0.084823 
1265.303296  	0.079761 
1267.232112  	0.075285 
1269.160928  	0.071684 
1271.089744  	0.068779 
1273.018560  	0.066950 
1274.947376  	0.065910 
1276.876192  	0.065542 
1278.805008  	0.064943 
1280.733824  	0.063572 
1282.662640  	0.061308 
1284.591456  	0.058869 
1286.520272  	0.056802 
1288.449088  	0.055375 
1290.377904  	0.054219 
1292.306720  	0.054034 
1294.235536  	0.053945 
1296.164352  	0.053275 
1298.093168  	0.051151 
1300.021984  	0.048500 
1301.950800  	0.045714 
1303.879616  	0.043249 
1305.808432  	0.040579 
1307.737248  	0.037964 
1309.666064  	0.035304 
1311.594880  	0.033726 
1313.523696  	0.032399 
1315.452512  	0.031350 
1317.381328  	0.030813 
1319.310144  	0.030597 
1321.238960  	0.030457 
1323.167776  	0.030984 
1325.096592  	0.031670 
1327.025408  	0.032053 
1328.954224  	0.031982 
1330.883040  	0.031701 
1332.811856  	0.030888 
1334.740672  	0.030748 
1336.669488  	0.031455 
1338.598304  	0.032296 
1340.527120  	0.030672 
1342.455936  	0.028586 
1344.384752  	0.028170 
1346.313568  	0.028559 
1348.242384  	0.029245 
1350.171200  	0.030617 
1352.100016  	0.032445 
1354.028832  	0.034678 
1355.957648  	0.036740 
1357.886464  	0.039198 
1359.815280  	0.042118 
1361.744096  	0.045292 
1363.672912  	0.046815 
1365.601728  	0.048354 
1367.530544  	0.050708 
1369.459360  	0.052441 
1371.388176  	0.053783 
1373.316992  	0.054330 
1375.245808  	0.052734 
1377.174624  	0.052241 
1379.103440  	0.051167 
1381.032256  	0.049162 
1382.961072  	0.047300 
1384.889888  	0.046427 
1386.818704  	0.044790 
1388.747520  	0.041554 
1390.676336  	0.041108 
1392.605152  	0.044239 
1394.533968  	0.044409 
1396.462784  	0.040427 
1398.391600  	0.039299 
1400.320416  	0.039362 
1402.249232  	0.041728 
1404.178048  	0.044004 
1406.106864  	0.044863 
1408.035680  	0.045982 
1409.964496  	0.047160 
1411.893312  	0.047580 
1413.822128  	0.047916 
1415.750944  	0.049619 
1417.679760  	0.050169 
1419.608576  	0.046081 
1421.537392  	0.045101 
1423.466208  	0.045038 
1425.395024  	0.042704 
1427.323840  	0.041268 
1429.252656  	0.038460 
1431.181472  	0.036373 
1433.110288  	0.036712 
1435.039104  	0.037668 
1436.967920  	0.036007 
1438.896736  	0.036204 
1440.825552  	0.037660 
1442.754368  	0.038165 
1444.683184  	0.038503 
1446.612000  	0.038657 
1448.540816  	0.038248 
1450.469632  	0.039342 
1452.398448  	0.040332 
1454.327264  	0.041330 
1456.256080  	0.038602 
1458.184896  	0.032558 
1460.113712  	0.034719 
1462.042528  	0.037003 
1463.971344  	0.036206 
1465.900160  	0.035799 
1467.828976  	0.038905 
1469.757792  	0.042201 
1471.686608  	0.043898 
1473.615424  	0.047526 
1475.544240  	0.054001 
1477.473056  	0.058820 
1479.401872  	0.062306 
1481.330688  	0.064844 
1483.259504  	0.066422 
1485.188320  	0.067769 
1487.117136  	0.067213 
1489.045952  	0.066135 
1490.974768  	0.062707 
1492.903584  	0.061341 
1494.832400  	0.058872 
1496.761216  	0.051644 
1498.690032  	0.046058 
1500.618848  	0.043613 
1502.547664  	0.041111 
1504.476480  	0.037194 
1506.405296  	0.029588 
1508.334112  	0.028375 
1510.262928  	0.030162 
1512.191744  	0.028433 
1514.120560  	0.027711 
1516.049376  	0.026766 
1517.978192  	0.024444 
1519.907008  	0.025689 
1521.835824  	0.023836 
1523.764640  	0.028226 
1525.693456  	0.033009 
1527.622272  	0.034841 
1529.551088  	0.035944 
1531.479904  	0.036372 
1533.408720  	0.031611 
1535.337536  	0.029224 
1537.266352  	0.028490 
1539.195168  	0.018933 
1541.123984  	0.010703 
1543.052800  	0.016197 
1544.981616  	0.018466 
1546.910432  	0.018582 
1548.839248  	0.019585 
1550.768064  	0.019244 
1552.696880  	0.018717 
1554.625696  	0.018251 
1556.554512  	0.017763 
1558.483328  	0.011812 
1560.412144  	0.014686 
1562.340960  	0.024504 
1564.269776  	0.028575 
1566.198592  	0.033022 
1568.127408  	0.036370 
1570.056224  	0.038999 
1571.985040  	0.046225 
1573.913856  	0.050894 
1575.842672  	0.049578 
1577.771488  	0.052073 
1579.700304  	0.055901 
1581.629120  	0.056312 
1583.557936  	0.055874 
1585.486752  	0.056431 
1587.415568  	0.058332 
1589.344384  	0.061884 
1591.273200  	0.066752 
1593.202016  	0.072509 
1595.130832  	0.078596 
1597.059648  	0.085195 
1598.988464  	0.091005 
1600.917280  	0.095958 
1602.846096  	0.099245 
1604.774912  	0.101547 
1606.703728  	0.101904 
1608.632544  	0.100868 
1610.561360  	0.099348 
1612.490176  	0.098566 
1614.418992  	0.096701 
1616.347808  	0.091806 
1618.276624  	0.092557 
1620.205440  	0.098489 
1622.134256  	0.100487 
1624.063072  	0.103548 
1625.991888  	0.110287 
1627.920704  	0.116730 
1629.849520  	0.125325 
1631.778336  	0.134406 
1633.707152  	0.139593 
1635.635968  	0.142058 
1637.564784  	0.151364 
1639.493600  	0.161301 
1641.422416  	0.167033 
1643.351232  	0.171322 
1645.280048  	0.171176 
1647.208864  	0.168179 
1649.137680  	0.171862 
1651.066496  	0.174929 
1652.995312  	0.164754 
1654.924128  	0.164645 
1656.852944  	0.169422 
1658.781760  	0.169411 
1660.710576  	0.166759 
1662.639392  	0.161153 
1664.568208  	0.158222 
1666.497024  	0.157882 
1668.425840  	0.152298 
1670.354656  	0.144329 
1672.283472  	0.143085 
1674.212288  	0.141147 
1676.141104  	0.136070 
1678.069920  	0.137257 
1679.998736  	0.137546 
1681.927552  	0.136096 
1683.856368  	0.127978 
1685.785184  	0.126542 
1687.714000  	0.131965 
1689.642816  	0.131923 
1691.571632  	0.130470 
1693.500448  	0.130449 
1695.429264  	0.125215 
1697.358080  	0.121518 
1699.286896  	0.120269 
1701.215712  	0.114123 
1703.144528  	0.116274 
1705.073344  	0.112856 
1707.002160  	0.107464 
1708.930976  	0.105208 
1710.859792  	0.100857 
1712.788608  	0.095729 
1714.717424  	0.088076 
1716.646240  	0.076872 
1718.575056  	0.063691 
1720.503872  	0.059162 
1722.432688  	0.054685 
1724.361504  	0.046434 
1726.290320  	0.039701 
1728.219136  	0.034330 
1730.147952  	0.029186 
1732.076768  	0.024680 
1734.005584  	0.016173 
1735.934400  	0.011478 
1737.863216  	0.012802 
1739.792032  	0.008454 
1741.720848  	0.007779 
1743.649664  	0.008188 
1745.578480  	0.007449 
1747.507296  	0.005499 
1749.436112  	0.004463 
1751.364928  	0.003261 
1753.293744  	0.002840 
1755.222560  	0.003167 
1757.151376  	0.002280 
1759.080192  	0.001887 
1761.009008  	0.001124 
1762.937824  	-0.000741 
1764.866640  	0.000413 
1766.795456  	0.001329 
1768.724272  	0.000510 
1770.653088  	-0.002323 
1772.581904  	-0.006183 
1774.510720  	-0.004054 
1776.439536  	-0.001530 
1778.368352  	-0.001029 
1780.297168  	-0.001556 
1782.225984  	-0.001966 
1784.154800  	-0.001034 
1786.083616  	-0.001881 
1788.012432  	-0.001722 
1789.941248  	-0.001132 
1791.870064  	-0.003281 
1793.798880  	-0.005092 
1795.727696  	-0.002831 
1797.656512  	-0.002939 
1799.585328  	-0.003246 
1801.514144  	-0.002799 
1803.442960  	-0.002797 
1805.371776  	-0.003414 
1807.300592  	-0.003024 
1809.229408  	-0.003747 
1811.158224  	-0.004325 
1813.087040  	-0.004284 
1815.015856  	-0.003571 
1816.944672  	-0.003366 
1818.873488  	-0.003522 
1820.802304  	-0.003783 
1822.731120  	-0.003076 
1824.659936  	-0.003995 
1826.588752  	-0.004723 
1828.517568  	-0.005423 
1830.446384  	-0.006511 
1832.375200  	-0.005211 
1834.304016  	-0.003966 
1836.232832  	-0.004124 
1838.161648  	-0.004039 
1840.090464  	-0.004013 
1842.019280  	-0.003160 
1843.948096  	-0.005072 
1845.876912  	-0.005211 
1847.805728  	-0.003912 
1849.734544  	-0.004054 
1851.663360  	-0.004559 
1853.592176  	-0.004541 
1855.520992  	-0.004726 
1857.449808  	-0.004418 
1859.378624  	-0.004388 
1861.307440  	-0.004330 
1863.236256  	-0.004637 
1865.165072  	-0.004439 
1867.093888  	-0.004802 
1869.022704  	-0.005482 
1870.951520  	-0.005387 
1872.880336  	-0.004670 
1874.809152  	-0.004958 
1876.737968  	-0.004810 
1878.666784  	-0.004959 
1880.595600  	-0.004438 
1882.524416  	-0.004754 
1884.453232  	-0.004799 
1886.382048  	-0.005025 
1888.310864  	-0.004753 
1890.239680  	-0.005317 
1892.168496  	-0.004647 
1894.097312  	-0.004205 
1896.026128  	-0.004047 
1897.954944  	-0.004446 
1899.883760  	-0.004267 
1901.812576  	-0.004391 
1903.741392  	-0.004515 
1905.670208  	-0.004498 
1907.599024  	-0.003939 
1909.527840  	-0.004513 
1911.456656  	-0.004544 
1913.385472  	-0.004358 
1915.314288  	-0.003648 
1917.243104  	-0.004371 
1919.171920  	-0.004794 
1921.100736  	-0.003841 
1923.029552  	-0.003430 
1924.958368  	-0.004255 
1926.887184  	-0.003876 
1928.816000  	-0.004533 
1930.744816  	-0.004573 
1932.673632  	-0.004298 
1934.602448  	-0.003805 
1936.531264  	-0.003956 
1938.460080  	-0.003295 
1940.388896  	-0.003739 
1942.317712  	-0.003912 
1944.246528  	-0.004263 
1946.175344  	-0.003338 
1948.104160  	-0.003770 
1950.032976  	-0.003688 
1951.961792  	-0.004105 
1953.890608  	-0.004040 
1955.819424  	-0.004439 
1957.748240  	-0.003766 
1959.677056  	-0.004430 
1961.605872  	-0.003683 
1963.534688  	-0.004341 
1965.463504  	-0.004025 
1967.392320  	-0.004544 
1969.321136  	-0.004099 
1971.249952  	-0.004179 
1973.178768  	-0.003619 
1975.107584  	-0.003909 
1977.036400  	-0.002979 
1978.965216  	-0.002938 
1980.894032  	-0.004119 
1982.822848  	-0.005095 
1984.751664  	-0.004428 
1986.680480  	-0.004650 
1988.609296  	-0.003524 
1990.538112  	-0.003885 
1992.466928  	-0.003745 
1994.395744  	-0.004673 
1996.324560  	-0.004924 
1998.253376  	-0.006115 
2000.182192  	-0.006133 
2002.111008  	-0.005519 
2004.039824  	-0.004554 
2005.968640  	-0.005066 
2007.897456  	-0.004569 
2009.826272  	-0.004808 
2011.755088  	-0.003307 
2013.683904  	-0.004020 
2015.612720  	-0.004362 
2017.541536  	-0.004926 
2019.470352  	-0.003959 
2021.399168  	-0.005095 
2023.327984  	-0.005391 
2025.256800  	-0.004893 
2027.185616  	-0.004201 
2029.114432  	-0.004539 
2031.043248  	-0.004428 
2032.972064  	-0.004299 
2034.900880  	-0.003173 
2036.829696  	-0.003614 
2038.758512  	-0.002478 
2040.687328  	-0.002576 
2042.616144  	-0.002242 
2044.544960  	-0.002851 
2046.473776  	-0.003108 
2048.402592  	-0.003796 
2050.331408  	-0.003883 
2052.260224  	-0.004361 
2054.189040  	-0.004667 
2056.117856  	-0.005505 
2058.046672  	-0.004982 
2059.975488  	-0.004713 
2061.904304  	-0.004707 
2063.833120  	-0.004693 
2065.761936  	-0.004224 
2067.690752  	-0.004598 
2069.619568  	-0.003909 
2071.548384  	-0.003994 
2073.477200  	-0.004259 
2075.406016  	-0.003891 
2077.334832  	-0.003318 
2079.263648  	-0.003558 
2081.192464  	-0.003659 
2083.121280  	-0.004117 
2085.050096  	-0.004205 
2086.978912  	-0.004207 
2088.907728  	-0.003788 
2090.836544  	-0.003710 
2092.765360  	-0.003410 
2094.694176  	-0.003216 
2096.622992  	-0.002833 
2098.551808  	-0.003081 
2100.480624  	-0.002820 
2102.409440  	-0.002865 
2104.338256  	-0.003163 
2106.267072  	-0.003357 
2108.195888  	-0.002973 
2110.124704  	-0.003154 
2112.053520  	-0.002883 
2113.982336  	-0.003010 
2115.911152  	-0.003159 
2117.839968  	-0.003299 
2119.768784  	-0.003326 
2121.697600  	-0.003718 
2123.626416  	-0.003761 
2125.555232  	-0.003798 
2127.484048  	-0.003270 
2129.412864  	-0.003833 
2131.341680  	-0.003953 
2133.270496  	-0.003717 
2135.199312  	-0.002666 
2137.128128  	-0.002515 
2139.056944  	-0.002415 
2140.985760  	-0.002724 
2142.914576  	-0.002713 
2144.843392  	-0.002656 
2146.772208  	-0.001959 
2148.701024  	-0.002422 
2150.629840  	-0.001900 
2152.558656  	-0.002103 
2154.487472  	-0.002292 
2156.416288  	-0.002314 
2158.345104  	-0.001000 
2160.273920  	0.000349 
2162.202736  	0.000869 
2164.131552  	-0.000366 
2166.060368  	-0.000678 
2167.989184  	-0.000166 
2169.918000  	0.001340 
2171.846816  	-0.000328 
2173.775632  	-0.000997 
2175.704448  	-0.000612 
2177.633264  	-0.000494 
2179.562080  	-0.001478 
2181.490896  	-0.001486 
2183.419712  	-0.002298 
2185.348528  	-0.002265 
2187.277344  	-0.002172 
2189.206160  	-0.002079 
2191.134976  	-0.002315 
2193.063792  	-0.001322 
2194.992608  	-0.001562 
2196.921424  	-0.002118 
2198.850240  	-0.002228 
2200.779056  	-0.002135 
2202.707872  	-0.002422 
2204.636688  	-0.002667 
2206.565504  	-0.002602 
2208.494320  	-0.002755 
2210.423136  	-0.003071 
2212.351952  	-0.003155 
2214.280768  	-0.004013 
2216.209584  	-0.003769 
2218.138400  	-0.004024 
2220.067216  	-0.003956 
2221.996032  	-0.003942 
2223.924848  	-0.003388 
2225.853664  	-0.003071 
2227.782480  	-0.002943 
2229.711296  	-0.004014 
2231.640112  	-0.004546 
2233.568928  	-0.004522 
2235.497744  	-0.003889 
2237.426560  	-0.004287 
2239.355376  	-0.004201 
2241.284192  	-0.004020 
2243.213008  	-0.003843 
2245.141824  	-0.004199 
2247.070640  	-0.004456 
2248.999456  	-0.004564 
2250.928272  	-0.004629 
2252.857088  	-0.005123 
2254.785904  	-0.005070 
2256.714720  	-0.005403 
2258.643536  	-0.005496 
2260.572352  	-0.005566 
2262.501168  	-0.005458 
2264.429984  	-0.005456 
2266.358800  	-0.005394 
2268.287616  	-0.005620 
2270.216432  	-0.005415 
2272.145248  	-0.005276 
2274.074064  	-0.005303 
2276.002880  	-0.005495 
2277.931696  	-0.005314 
2279.860512  	-0.005086 
2281.789328  	-0.004624 
2283.718144  	-0.004553 
2285.646960  	-0.004523 
2287.575776  	-0.004691 
2289.504592  	-0.004877 
2291.433408  	-0.005177 
2293.362224  	-0.005331 
2295.291040  	-0.005053 
2297.219856  	-0.004624 
2299.148672  	-0.004664 
2301.077488  	-0.004872 
2303.006304  	-0.004933 
2304.935120  	-0.004901 
2306.863936  	-0.005304 
2308.792752  	-0.005658 
2310.721568  	-0.006338 
2312.650384  	-0.007477 
2314.579200  	-0.008819 
2316.508016  	-0.010043 
2318.436832  	-0.011725 
2320.365648  	-0.014010 
2322.294464  	-0.016335 
2324.223280  	-0.018786 
2326.152096  	-0.021643 
2328.080912  	-0.023958 
2330.009728  	-0.026609 
2331.938544  	-0.029202 
2333.867360  	-0.031124 
2335.796176  	-0.032740 
2337.724992  	-0.034140 
2339.653808  	-0.034655 
2341.582624  	-0.034993 
2343.511440  	-0.033482 
2345.440256  	-0.029836 
2347.369072  	-0.022519 
2349.297888  	-0.017964 
2351.226704  	-0.021796 
2353.155520  	-0.030020 
2355.084336  	-0.036706 
2357.013152  	-0.041861 
2358.941968  	-0.044800 
2360.870784  	-0.046108 
2362.799600  	-0.045068 
2364.728416  	-0.042920 
2366.657232  	-0.038700 
2368.586048  	-0.033183 
2370.514864  	-0.027981 
2372.443680  	-0.022912 
2374.372496  	-0.017519 
2376.301312  	-0.013072 
2378.230128  	-0.009388 
2380.158944  	-0.006827 
2382.087760  	-0.005579 
2384.016576  	-0.005167 
2385.945392  	-0.005049 
2387.874208  	-0.005270 
2389.803024  	-0.005550 
2391.731840  	-0.005819 
2393.660656  	-0.005738 
2395.589472  	-0.005776 
2397.518288  	-0.005735 
2399.447104  	-0.005748 
2401.375920  	-0.005874 
2403.304736  	-0.006088 
2405.233552  	-0.005945 
2407.162368  	-0.005886 
2409.091184  	-0.005771 
2411.020000  	-0.005826 
2412.948816  	-0.005783 
2414.877632  	-0.005635 
2416.806448  	-0.005455 
2418.735264  	-0.005644 
2420.664080  	-0.005783 
2422.592896  	-0.005657 
2424.521712  	-0.005546 
2426.450528  	-0.005708 
2428.379344  	-0.005713 
2430.308160  	-0.005567 
2432.236976  	-0.005354 
2434.165792  	-0.005347 
2436.094608  	-0.005331 
2438.023424  	-0.005232 
2439.952240  	-0.004990 
2441.881056  	-0.005026 
2443.809872  	-0.005185 
2445.738688  	-0.005150 
2447.667504  	-0.004932 
2449.596320  	-0.004959 
2451.525136  	-0.004758 
2453.453952  	-0.004679 
2455.382768  	-0.004872 
2457.311584  	-0.005017 
2459.240400  	-0.005138 
2461.169216  	-0.005163 
2463.098032  	-0.005105 
2465.026848  	-0.005129 
2466.955664  	-0.005426 
2468.884480  	-0.005761 
2470.813296  	-0.005681 
2472.742112  	-0.005521 
2474.670928  	-0.005416 
2476.599744  	-0.005467 
2478.528560  	-0.005243 
2480.457376  	-0.005176 
2482.386192  	-0.005241 
2484.315008  	-0.005145 
2486.243824  	-0.005078 
2488.172640  	-0.005124 
2490.101456  	-0.004894 
2492.030272  	-0.004708 
2493.959088  	-0.004623 
2495.887904  	-0.004619 
2497.816720  	-0.004643 
2499.745536  	-0.004666 
2501.674352  	-0.004554 
2503.603168  	-0.004258 
2505.531984  	-0.004180 
2507.460800  	-0.004402 
2509.389616  	-0.004317 
2511.318432  	-0.004401 
2513.247248  	-0.004560 
2515.176064  	-0.004617 
2517.104880  	-0.004528 
2519.033696  	-0.004532 
2520.962512  	-0.004379 
2522.891328  	-0.004220 
2524.820144  	-0.004325 
2526.748960  	-0.004442 
2528.677776  	-0.004266 
2530.606592  	-0.004250 
2532.535408  	-0.004311 
2534.464224  	-0.004287 
2536.393040  	-0.004170 
2538.321856  	-0.003902 
2540.250672  	-0.003645 
2542.179488  	-0.003701 
2544.108304  	-0.003834 
2546.037120  	-0.003828 
2547.965936  	-0.003656 
2549.894752  	-0.003545 
2551.823568  	-0.003721 
2553.752384  	-0.003619 
2555.681200  	-0.003222 
2557.610016  	-0.003172 
2559.538832  	-0.003106 
2561.467648  	-0.003024 
2563.396464  	-0.002941 
2565.325280  	-0.002866 
2567.254096  	-0.002909 
2569.182912  	-0.002945 
2571.111728  	-0.002724 
2573.040544  	-0.002768 
2574.969360  	-0.002701 
2576.898176  	-0.002439 
2578.826992  	-0.002484 
2580.755808  	-0.002546 
2582.684624  	-0.002462 
2584.613440  	-0.002450 
2586.542256  	-0.002510 
2588.471072  	-0.002445 
2590.399888  	-0.002261 
2592.328704  	-0.002149 
2594.257520  	-0.002250 
2596.186336  	-0.002102 
2598.115152  	-0.002034 
2600.043968  	-0.002180 
2601.972784  	-0.001904 
2603.901600  	-0.001743 
2605.830416  	-0.001582 
2607.759232  	-0.001330 
2609.688048  	-0.001242 
2611.616864  	-0.001236 
2613.545680  	-0.001055 
2615.474496  	-0.000851 
2617.403312  	-0.000818 
2619.332128  	-0.000753 
2621.260944  	-0.000687 
2623.189760  	-0.000808 
2625.118576  	-0.000738 
2627.047392  	-0.000618 
2628.976208  	-0.000514 
2630.905024  	-0.000396 
2632.833840  	-0.000306 
2634.762656  	-0.000156 
2636.691472  	-0.000144 
2638.620288  	-0.000101 
2640.549104  	0.000074 
2642.477920  	0.000108 
2644.406736  	0.000226 
2646.335552  	0.000401 
2648.264368  	0.000534 
2650.193184  	0.000627 
2652.122000  	0.000850 
2654.050816  	0.001039 
2655.979632  	0.001016 
2657.908448  	0.001136 
2659.837264  	0.001350 
2661.766080  	0.001420 
2663.694896  	0.001594 
2665.623712  	0.001704 
2667.552528  	0.001833 
2669.481344  	0.001967 
2671.410160  	0.002021 
2673.338976  	0.002125 
2675.267792  	0.002331 
2677.196608  	0.002557 
2679.125424  	0.002681 
2681.054240  	0.002859 
2682.983056  	0.003005 
2684.911872  	0.002955 
2686.840688  	0.003017 
2688.769504  	0.003160 
2690.698320  	0.003199 
2692.627136  	0.003214 
2694.555952  	0.003303 
2696.484768  	0.003380 
2698.413584  	0.003432 
2700.342400  	0.003492 
2702.271216  	0.003739 
2704.200032  	0.004020 
2706.128848  	0.004121 
2708.057664  	0.004149 
2709.986480  	0.004262 
2711.915296  	0.004428 
2713.844112  	0.004685 
2715.772928  	0.004833 
2717.701744  	0.005023 
2719.630560  	0.005317 
2721.559376  	0.005438 
2723.488192  	0.005551 
2725.417008  	0.005816 
2727.345824  	0.006049 
2729.274640  	0.006174 
2731.203456  	0.006351 
2733.132272  	0.006616 
2735.061088  	0.006903 
2736.989904  	0.007097 
2738.918720  	0.007250 
2740.847536  	0.007425 
2742.776352  	0.007415 
2744.705168  	0.007449 
2746.633984  	0.007610 
2748.562800  	0.007761 
2750.491616  	0.007904 
2752.420432  	0.008016 
2754.349248  	0.008000 
2756.278064  	0.007964 
2758.206880  	0.007921 
2760.135696  	0.008014 
2762.064512  	0.008076 
2763.993328  	0.008055 
2765.922144  	0.008081 
2767.850960  	0.008164 
2769.779776  	0.008298 
2771.708592  	0.008394 
2773.637408  	0.008408 
2775.566224  	0.008499 
2777.495040  	0.008533 
2779.423856  	0.008587 
2781.352672  	0.008682 
2783.281488  	0.008784 
2785.210304  	0.008900 
2787.139120  	0.009023 
2789.067936  	0.009097 
2790.996752  	0.009245 
2792.925568  	0.009273 
2794.854384  	0.009387 
2796.783200  	0.009486 
2798.712016  	0.009617 
2800.640832  	0.009713 
2802.569648  	0.009817 
2804.498464  	0.009885 
2806.427280  	0.009830 
2808.356096  	0.009858 
2810.284912  	0.009985 
2812.213728  	0.010093 
2814.142544  	0.010217 
2816.071360  	0.010416 
2818.000176  	0.010439 
2819.928992  	0.010552 
2821.857808  	0.010732 
2823.786624  	0.010857 
2825.715440  	0.010980 
2827.644256  	0.010965 
2829.573072  	0.011130 
2831.501888  	0.011378 
2833.430704  	0.011553 
2835.359520  	0.011718 
2837.288336  	0.011972 
2839.217152  	0.012281 
2841.145968  	0.012626 
2843.074784  	0.012941 
2845.003600  	0.013163 
2846.932416  	0.013537 
2848.861232  	0.014107 
2850.790048  	0.014830 
2852.718864  	0.015536 
2854.647680  	0.016344 
2856.576496  	0.017107 
2858.505312  	0.017975 
2860.434128  	0.019140 
2862.362944  	0.020316 
2864.291760  	0.021450 
2866.220576  	0.022582 
2868.149392  	0.023633 
2870.078208  	0.024393 
2872.007024  	0.025165 
2873.935840  	0.026047 
2875.864656  	0.026983 
2877.793472  	0.028250 
2879.722288  	0.029833 
2881.651104  	0.031501 
2883.579920  	0.032992 
2885.508736  	0.033830 
2887.437552  	0.034014 
2889.366368  	0.034380 
2891.295184  	0.035177 
2893.224000  	0.035779 
2895.152816  	0.035924 
2897.081632  	0.036296 
2899.010448  	0.038336 
2900.939264  	0.040288 
2902.868080  	0.039149 
2904.796896  	0.037836 
2906.725712  	0.037613 
2908.654528  	0.037702 
2910.583344  	0.037952 
2912.512160  	0.037553 
2914.440976  	0.036972 
2916.369792  	0.036802 
2918.298608  	0.036976 
2920.227424  	0.037332 
2922.156240  	0.037777 
2924.085056  	0.038121 
2926.013872  	0.038382 
2927.942688  	0.038790 
2929.871504  	0.039142 
2931.800320  	0.039418 
2933.729136  	0.039976 
2935.657952  	0.040662 
2937.586768  	0.041207 
2939.515584  	0.041887 
2941.444400  	0.042746 
2943.373216  	0.043375 
2945.302032  	0.043874 
2947.230848  	0.044214 
2949.159664  	0.044883 
2951.088480  	0.045887 
2953.017296  	0.046808 
2954.946112  	0.047489 
2956.874928  	0.048303 
2958.803744  	0.049004 
2960.732560  	0.049536 
2962.661376  	0.050127 
2964.590192  	0.051122 
2966.519008  	0.052435 
2968.447824  	0.053614 
2970.376640  	0.054170 
2972.305456  	0.054228 
2974.234272  	0.053801 
2976.163088  	0.053511 
2978.091904  	0.053106 
2980.020720  	0.052886 
2981.949536  	0.052739 
2983.878352  	0.053045 
2985.807168  	0.054015 
2987.735984  	0.055105 
2989.664800  	0.054407 
2991.593616  	0.050528 
2993.522432  	0.048435 
2995.451248  	0.047940 
2997.380064  	0.047182 
2999.308880  	0.046139 
3001.237696  	0.044893 
3003.166512  	0.043786 
3005.095328  	0.042469 
3007.024144  	0.041110 
3008.952960  	0.039820 
3010.881776  	0.038626 
3012.810592  	0.037477 
3014.739408  	0.036377 
3016.668224  	0.035331 
3018.597040  	0.034467 
3020.525856  	0.033784 
3022.454672  	0.033150 
3024.383488  	0.032501 
3026.312304  	0.031896 
3028.241120  	0.031449 
3030.169936  	0.030959 
3032.098752  	0.030530 
3034.027568  	0.030243 
3035.956384  	0.030049 
3037.885200  	0.030144 
3039.814016  	0.030123 
3041.742832  	0.030073 
3043.671648  	0.030095 
3045.600464  	0.030175 
3047.529280  	0.030257 
3049.458096  	0.030638 
3051.386912  	0.031241 
3053.315728  	0.031619 
3055.244544  	0.031961 
3057.173360  	0.032410 
3059.102176  	0.032800 
3061.030992  	0.033307 
3062.959808  	0.034074 
3064.888624  	0.034708 
3066.817440  	0.035062 
3068.746256  	0.035675 
3070.675072  	0.036559 
3072.603888  	0.037322 
3074.532704  	0.037984 
3076.461520  	0.038693 
3078.390336  	0.039403 
3080.319152  	0.040063 
3082.247968  	0.040918 
3084.176784  	0.041564 
3086.105600  	0.042113 
3088.034416  	0.042724 
3089.963232  	0.043513 
3091.892048  	0.044086 
3093.820864  	0.044680 
3095.749680  	0.045381 
3097.678496  	0.046344 
3099.607312  	0.047283 
3101.536128  	0.048084 
3103.464944  	0.048901 
3105.393760  	0.049484 
3107.322576  	0.050090 
3109.251392  	0.050844 
3111.180208  	0.051502 
3113.109024  	0.052044 
3115.037840  	0.052541 
3116.966656  	0.053289 
3118.895472  	0.053946 
3120.824288  	0.054452 
3122.753104  	0.054931 
3124.681920  	0.055427 
3126.610736  	0.055983 
3128.539552  	0.056679 
3130.468368  	0.057330 
3132.397184  	0.057887 
3134.326000  	0.058593 
3136.254816  	0.059190 
3138.183632  	0.059722 
3140.112448  	0.060327 
3142.041264  	0.060955 
3143.970080  	0.061459 
3145.898896  	0.062011 
3147.827712  	0.062649 
3149.756528  	0.063144 
3151.685344  	0.063607 
3153.614160  	0.064290 
3155.542976  	0.064974 
3157.471792  	0.065539 
3159.400608  	0.066170 
3161.329424  	0.066783 
3163.258240  	0.067140 
3165.187056  	0.067551 
3167.115872  	0.068089 
3169.044688  	0.068571 
3170.973504  	0.069102 
3172.902320  	0.069626 
3174.831136  	0.070085 
3176.759952  	0.070496 
3178.688768  	0.070692 
3180.617584  	0.071065 
3182.546400  	0.071575 
3184.475216  	0.071897 
3186.404032  	0.071886 
3188.332848  	0.072056 
3190.261664  	0.072440 
3192.190480  	0.072810 
3194.119296  	0.072749 
3196.048112  	0.072804 
3197.976928  	0.072886 
3199.905744  	0.072884 
3201.834560  	0.072897 
3203.763376  	0.072956 
3205.692192  	0.072975 
3207.621008  	0.072939 
3209.549824  	0.072873 
3211.478640  	0.072810 
3213.407456  	0.072843 
3215.336272  	0.072685 
3217.265088  	0.072613 
3219.193904  	0.072500 
3221.122720  	0.072299 
3223.051536  	0.072259 
3224.980352  	0.072086 
3226.909168  	0.071764 
3228.837984  	0.071566 
3230.766800  	0.071472 
3232.695616  	0.071435 
3234.624432  	0.071521 
3236.553248  	0.071437 
3238.482064  	0.071284 
3240.410880  	0.071266 
3242.339696  	0.071399 
3244.268512  	0.071305 
3246.197328  	0.071307 
3248.126144  	0.071445 
3250.054960  	0.071553 
3251.983776  	0.071691 
3253.912592  	0.071791 
3255.841408  	0.072150 
3257.770224  	0.072537 
3259.699040  	0.072690 
3261.627856  	0.072911 
3263.556672  	0.073088 
3265.485488  	0.073058 
3267.414304  	0.073275 
3269.343120  	0.073746 
3271.271936  	0.074025 
3273.200752  	0.073862 
3275.129568  	0.073937 
3277.058384  	0.074451 
3278.987200  	0.074792 
3280.916016  	0.074963 
3282.844832  	0.075047 
3284.773648  	0.075105 
3286.702464  	0.075338 
3288.631280  	0.075646 
3290.560096  	0.075899 
3292.488912  	0.076242 
3294.417728  	0.076472 
3296.346544  	0.076790 
3298.275360  	0.076975 
3300.204176  	0.077217 
3302.132992  	0.077675 
3304.061808  	0.077975 
3305.990624  	0.078357 
3307.919440  	0.078760 
3309.848256  	0.078865 
3311.777072  	0.078989 
3313.705888  	0.079369 
3315.634704  	0.080030 
3317.563520  	0.080356 
3319.492336  	0.080609 
3321.421152  	0.080875 
3323.349968  	0.081136 
3325.278784  	0.081399 
3327.207600  	0.081576 
3329.136416  	0.081483 
3331.065232  	0.081619 
3332.994048  	0.081927 
3334.922864  	0.082056 
3336.851680  	0.082013 
3338.780496  	0.081946 
3340.709312  	0.081790 
3342.638128  	0.081615 
3344.566944  	0.081350 
3346.495760  	0.081213 
3348.424576  	0.080898 
3350.353392  	0.080522 
3352.282208  	0.080403 
3354.211024  	0.080216 
3356.139840  	0.079922 
3358.068656  	0.079756 
3359.997472  	0.079511 
3361.926288  	0.079127 
3363.855104  	0.078737 
3365.783920  	0.078363 
3367.712736  	0.078223 
3369.641552  	0.077803 
3371.570368  	0.077314 
3373.499184  	0.077074 
3375.428000  	0.076766 
3377.356816  	0.076579 
3379.285632  	0.076518 
3381.214448  	0.076083 
3383.143264  	0.075774 
3385.072080  	0.075460 
3387.000896  	0.074944 
3388.929712  	0.074506 
3390.858528  	0.074260 
3392.787344  	0.073977 
3394.716160  	0.073594 
3396.644976  	0.073414 
3398.573792  	0.073087 
3400.502608  	0.072638 
3402.431424  	0.072002 
3404.360240  	0.071551 
3406.289056  	0.071148 
3408.217872  	0.070576 
3410.146688  	0.070069 
3412.075504  	0.069840 
3414.004320  	0.069464 
3415.933136  	0.068906 
3417.861952  	0.068317 
3419.790768  	0.067918 
3421.719584  	0.067424 
3423.648400  	0.067077 
3425.577216  	0.066658 
3427.506032  	0.065999 
3429.434848  	0.065433 
3431.363664  	0.064976 
3433.292480  	0.064356 
3435.221296  	0.063770 
3437.150112  	0.063341 
3439.078928  	0.063014 
3441.007744  	0.062537 
3442.936560  	0.061922 
3444.865376  	0.061493 
3446.794192  	0.060792 
3448.723008  	0.059845 
3450.651824  	0.059337 
3452.580640  	0.058806 
3454.509456  	0.058407 
3456.438272  	0.057919 
3458.367088  	0.057424 
3460.295904  	0.056852 
3462.224720  	0.055979 
3464.153536  	0.055299 
3466.082352  	0.054892 
3468.011168  	0.053946 
3469.939984  	0.053078 
3471.868800  	0.052443 
3473.797616  	0.051728 
3475.726432  	0.050837 
3477.655248  	0.050176 
3479.584064  	0.049972 
3481.512880  	0.049255 
3483.441696  	0.048086 
3485.370512  	0.047584 
3487.299328  	0.046718 
3489.228144  	0.045868 
3491.156960  	0.045277 
3493.085776  	0.044605 
3495.014592  	0.043762 
3496.943408  	0.042934 
3498.872224  	0.042618 
3500.801040  	0.042900 
3502.729856  	0.042119 
3504.658672  	0.040582 
3506.587488  	0.040177 
3508.516304  	0.039985 
3510.445120  	0.038916 
3512.373936  	0.037811 
3514.302752  	0.037201 
3516.231568  	0.036933 
3518.160384  	0.036509 
3520.089200  	0.035831 
3522.018016  	0.035705 
3523.946832  	0.035785 
3525.875648  	0.034871 
3527.804464  	0.033307 
3529.733280  	0.032312 
3531.662096  	0.031973 
3533.590912  	0.031639 
3535.519728  	0.031538 
3537.448544  	0.030999 
3539.377360  	0.030014 
3541.306176  	0.029396 
3543.234992  	0.029479 
3545.163808  	0.030095 
3547.092624  	0.029104 
3549.021440  	0.027448 
3550.950256  	0.026806 
3552.879072  	0.025864 
3554.807888  	0.025122 
3556.736704  	0.024774 
3558.665520  	0.024811 
3560.594336  	0.024675 
3562.523152  	0.023762 
3564.451968  	0.024074 
3566.380784  	0.024647 
3568.309600  	0.022052 
3570.238416  	0.020454 
3572.167232  	0.020181 
3574.096048  	0.019425 
3576.024864  	0.018310 
3577.953680  	0.017839 
3579.882496  	0.017549 
3581.811312  	0.016750 
3583.740128  	0.016290 
3585.668944  	0.016684 
3587.597760  	0.015080 
3589.526576  	0.012995 
3591.455392  	0.012806 
3593.384208  	0.012561 
3595.313024  	0.011508 
3597.241840  	0.010224 
3599.170656  	0.008990 
3601.099472  	0.007952 
3603.028288  	0.007973 
3604.957104  	0.008365 
3606.885920  	0.007916 
3608.814736  	0.006383 
3610.743552  	0.006281 
3612.672368  	0.005715 
3614.601184  	0.004320 
3616.530000  	0.004280 
3618.458816  	0.002422 
3620.387632  	0.000268 
3622.316448  	0.000997 
3624.245264  	0.001544 
3626.174080  	0.001673 
3628.102896  	-0.001031 
3630.031712  	-0.004913 
3631.960528  	-0.001943 
3633.889344  	-0.001361 
3635.818160  	-0.001690 
3637.746976  	-0.001843 
3639.675792  	-0.001423 
3641.604608  	-0.000538 
3643.533424  	-0.000104 
3645.462240  	0.000023 
3647.391056  	-0.002822 
3649.319872  	-0.007645 
3651.248688  	-0.008109 
3653.177504  	-0.003575 
3655.106320  	-0.002645 
3657.035136  	-0.004528 
3658.963952  	-0.003142 
3660.892768  	-0.002117 
3662.821584  	-0.002181 
3664.750400  	-0.002281 
3666.679216  	-0.002142 
3668.608032  	-0.004884 
3670.536848  	-0.009643 
3672.465664  	-0.007104 
3674.394480  	-0.007013 
3676.323296  	-0.012156 
3678.252112  	-0.009870 
3680.180928  	-0.008539 
3682.109744  	-0.006845 
3684.038560  	-0.006250 
3685.967376  	-0.006721 
3687.896192  	-0.010709 
3689.825008  	-0.015140 
3691.753824  	-0.013821 
3693.682640  	-0.011259 
3695.611456  	-0.010714 
3697.540272  	-0.011082 
3699.469088  	-0.011436 
3701.397904  	-0.013981 
3703.326720  	-0.015226 
3705.255536  	-0.014012 
3707.184352  	-0.014144 
3709.113168  	-0.016750 
3711.041984  	-0.020386 
3712.970800  	-0.019522 
3714.899616  	-0.015575 
3716.828432  	-0.014511 
3718.757248  	-0.015427 
3720.686064  	-0.016170 
3722.614880  	-0.017034 
3724.543696  	-0.016441 
3726.472512  	-0.016897 
3728.401328  	-0.017040 
3730.330144  	-0.017508 
3732.258960  	-0.019782 
3734.187776  	-0.019277 
3736.116592  	-0.020423 
3738.045408  	-0.020001 
3739.974224  	-0.017290 
3741.903040  	-0.015566 
3743.831856  	-0.018268 
3745.760672  	-0.021634 
3747.689488  	-0.018891 
3749.618304  	-0.022113 
3751.547120  	-0.024736 
3753.475936  	-0.021396 
3755.404752  	-0.017600 
3757.333568  	-0.016785 
3759.262384  	-0.017859 
3761.191200  	-0.017769 
3763.120016  	-0.015290 
3765.048832  	-0.015929 
3766.977648  	-0.016286 
3768.906464  	-0.017138 
3770.835280  	-0.018309 
3772.764096  	-0.016209 
3774.692912  	-0.015083 
3776.621728  	-0.015044 
3778.550544  	-0.016720 
3780.479360  	-0.017897 
3782.408176  	-0.015947 
3784.336992  	-0.016145 
3786.265808  	-0.016107 
3788.194624  	-0.015453 
3790.123440  	-0.015374 
3792.052256  	-0.015323 
3793.981072  	-0.015101 
3795.909888  	-0.016994 
3797.838704  	-0.017515 
3799.767520  	-0.017779 
3801.696336  	-0.023078 
3803.625152  	-0.020387 
3805.553968  	-0.017939 
3807.482784  	-0.020152 
3809.411600  	-0.017287 
3811.340416  	-0.015129 
3813.269232  	-0.014718 
3815.198048  	-0.018097 
3817.126864  	-0.020627 
3819.055680  	-0.018470 
3820.984496  	-0.022394 
3822.913312  	-0.021028 
3824.842128  	-0.016944 
3826.770944  	-0.017289 
3828.699760  	-0.016501 
3830.628576  	-0.016685 
3832.557392  	-0.018052 
3834.486208  	-0.017953 
3836.415024  	-0.019148 
3838.343840  	-0.021199 
3840.272656  	-0.020158 
3842.201472  	-0.017989 
3844.130288  	-0.017428 
3846.059104  	-0.015916 
3847.987920  	-0.014611 
3849.916736  	-0.014696 
3851.845552  	-0.017562 
3853.774368  	-0.024980 
3855.703184  	-0.021626 
3857.632000  	-0.017134 
3859.560816  	-0.015226 
3861.489632  	-0.015347 
3863.418448  	-0.016622 
3865.347264  	-0.017563 
3867.276080  	-0.015594 
3869.204896  	-0.016778 
3871.133712  	-0.018057 
3873.062528  	-0.016471 
3874.991344  	-0.017355 
3876.920160  	-0.015132 
3878.848976  	-0.014103 
3880.777792  	-0.015552 
3882.706608  	-0.014762 
3884.635424  	-0.014916 
3886.564240  	-0.017087 
3888.493056  	-0.015458 
3890.421872  	-0.015815 
3892.350688  	-0.017188 
3894.279504  	-0.015425 
3896.208320  	-0.014201 
3898.137136  	-0.014180 
3900.065952  	-0.014738 
3901.994768  	-0.014760 
3903.923584  	-0.015947 
3905.852400  	-0.016503 
3907.781216  	-0.015691 
3909.710032  	-0.015266 
3911.638848  	-0.014953 
3913.567664  	-0.014504 
3915.496480  	-0.014022 
3917.425296  	-0.014539 
3919.354112  	-0.015041 
3921.282928  	-0.014910 
3923.211744  	-0.014175 
3925.140560  	-0.014305 
3927.069376  	-0.014621 
3928.998192  	-0.014486 
3930.927008  	-0.013873 
3932.855824  	-0.013978 
3934.784640  	-0.014675 
3936.713456  	-0.014792 
3938.642272  	-0.014615 
3940.571088  	-0.014110 
3942.499904  	-0.014032 
3944.428720  	-0.014404 
3946.357536  	-0.013760 
3948.286352  	-0.013469 
3950.215168  	-0.014517 
3952.143984  	-0.015299 
3954.072800  	-0.015226 
3956.001616  	-0.014904 
3957.930432  	-0.014806 
3959.859248  	-0.014678 
3961.788064  	-0.014722 
3963.716880  	-0.015077 
3965.645696  	-0.015232 
3967.574512  	-0.015006 
3969.503328  	-0.014720 
3971.432144  	-0.014888 
3973.360960  	-0.014925 
3975.289776  	-0.014605 
3977.218592  	-0.014624 
3979.147408  	-0.014899 
3981.076224  	-0.014933 
3983.005040  	-0.014956 
3984.933856  	-0.015021 
3986.862672  	-0.015065 
3988.791488  	-0.014739 
3990.720304  	-0.014520 
3992.649120  	-0.014692 
3994.577936  	-0.014894 
3996.506752  	-0.014945 
3998.435568  	-0.015108 
4000.364384  	-0.015149 