##TITLE=No Description
##DATA TYPE=INFRARED SPECTRUM
##XUNITS=1/CM
##YUNITS=Abs
399.264912  	0.616408 
401.193728  	0.601430 
403.122544  	0.610695 
405.051360  	0.615608 
406.980176  	0.618681 
408.908992  	0.599243 
410.837808  	0.593968 
412.766624  	0.595413 
414.695440  	0.600747 
416.624256  	0.593515 
418.553072  	0.601655 
420.481888  	0.588145 
422.410704  	0.591992 
424.339520  	0.583013 
426.268336  	0.574011 
428.197152  	0.568289 
430.125968  	0.572037 
432.054784  	0.568246 
433.983600  	0.564097 
435.912416  	0.557424 
437.841232  	0.559667 
439.770048  	0.555596 
441.698864  	0.548167 
443.627680  	0.539026 
445.556496  	0.538926 
447.485312  	0.539315 
449.414128  	0.538718 
451.342944  	0.537235 
453.271760  	0.536237 
455.200576  	0.532663 
457.129392  	0.532726 
459.058208  	0.531368 
460.987024  	0.536221 
462.915840  	0.534003 
464.844656  	0.533507 
466.773472  	0.532530 
468.702288  	0.534850 
470.631104  	0.533629 
472.559920  	0.533038 
474.488736  	0.524832 
476.417552  	0.525127 
478.346368  	0.524817 
480.275184  	0.528700 
482.204000  	0.525976 
484.132816  	0.524555 
486.061632  	0.525678 
487.990448  	0.525645 
489.919264  	0.519418 
491.848080  	0.518566 
493.776896  	0.515686 
495.705712  	0.512839 
497.634528  	0.507903 
499.563344  	0.511059 
501.492160  	0.510515 
503.420976  	0.509337 
505.349792  	0.506992 
507.278608  	0.508549 
509.207424  	0.510205 
511.136240  	0.511193 
513.065056  	0.509332 
514.993872  	0.512741 
516.922688  	0.514552 
518.851504  	0.515511 
520.780320  	0.514256 
522.709136  	0.515958 
524.637952  	0.515493 
526.566768  	0.513654 
528.495584  	0.509757 
530.424400  	0.507719 
532.353216  	0.503122 
534.282032  	0.499022 
536.210848  	0.491797 
538.139664  	0.487770 
540.068480  	0.481669 
541.997296  	0.475928 
543.926112  	0.470703 
545.854928  	0.468158 
547.783744  	0.464937 
549.712560  	0.463119 
551.641376  	0.459125 
553.570192  	0.455701 
555.499008  	0.450698 
557.427824  	0.448081 
559.356640  	0.444114 
561.285456  	0.440770 
563.214272  	0.437156 
565.143088  	0.434100 
567.071904  	0.431209 
569.000720  	0.428449 
570.929536  	0.425236 
572.858352  	0.422430 
574.787168  	0.419366 
576.715984  	0.416957 
578.644800  	0.412954 
580.573616  	0.409782 
582.502432  	0.405004 
584.431248  	0.401553 
586.360064  	0.397526 
588.288880  	0.395141 
590.217696  	0.393496 
592.146512  	0.391443 
594.075328  	0.387770 
596.004144  	0.385767 
597.932960  	0.384283 
599.861776  	0.382767 
601.790592  	0.380317 
603.719408  	0.379040 
605.648224  	0.377654 
607.577040  	0.376048 
609.505856  	0.373883 
611.434672  	0.372224 
613.363488  	0.370410 
615.292304  	0.369173 
617.221120  	0.367716 
619.149936  	0.366552 
621.078752  	0.364831 
623.007568  	0.363603 
624.936384  	0.362112 
626.865200  	0.361115 
628.794016  	0.359745 
630.722832  	0.359051 
632.651648  	0.358342 
634.580464  	0.358201 
636.509280  	0.358364 
638.438096  	0.358367 
640.366912  	0.356987 
642.295728  	0.354886 
644.224544  	0.351813 
646.153360  	0.347900 
648.082176  	0.343486 
650.010992  	0.339974 
651.939808  	0.335621 
653.868624  	0.331403 
655.797440  	0.327467 
657.726256  	0.323888 
659.655072  	0.320542 
661.583888  	0.316674 
663.512704  	0.312999 
665.441520  	0.309765 
667.370336  	0.300414 
669.299152  	0.293654 
671.227968  	0.295756 
673.156784  	0.293399 
675.085600  	0.290158 
677.014416  	0.287328 
678.943232  	0.284700 
680.872048  	0.283017 
682.800864  	0.282035 
684.729680  	0.280989 
686.658496  	0.279953 
688.587312  	0.278567 
690.516128  	0.277009 
692.444944  	0.276010 
694.373760  	0.274943 
696.302576  	0.273467 
698.231392  	0.271292 
700.160208  	0.268682 
702.089024  	0.266245 
704.017840  	0.264025 
705.946656  	0.261797 
707.875472  	0.259429 
709.804288  	0.257310 
711.733104  	0.255591 
713.661920  	0.253810 
715.590736  	0.252362 
717.519552  	0.251941 
719.448368  	0.251522 
721.377184  	0.251562 
723.306000  	0.252516 
725.234816  	0.252842 
727.163632  	0.252244 
729.092448  	0.250333 
731.021264  	0.247431 
732.950080  	0.244188 
734.878896  	0.241193 
736.807712  	0.238080 
738.736528  	0.235234 
740.665344  	0.233255 
742.594160  	0.231745 
744.522976  	0.230253 
746.451792  	0.228609 
748.380608  	0.226966 
750.309424  	0.225536 
752.238240  	0.224367 
754.167056  	0.223570 
756.095872  	0.222347 
758.024688  	0.221403 
759.953504  	0.220930 
761.882320  	0.221558 
763.811136  	0.222331 
765.739952  	0.221566 
767.668768  	0.218948 
769.597584  	0.216415 
771.526400  	0.215512 
773.455216  	0.216706 
775.384032  	0.220084 
777.312848  	0.224837 
779.241664  	0.229084 
781.170480  	0.229738 
783.099296  	0.226200 
785.028112  	0.220511 
786.956928  	0.214326 
788.885744  	0.209284 
790.814560  	0.205918 
792.743376  	0.203273 
794.672192  	0.201668 
796.601008  	0.200841 
798.529824  	0.198259 
800.458640  	0.194034 
802.387456  	0.190440 
804.316272  	0.188131 
806.245088  	0.186600 
808.173904  	0.185893 
810.102720  	0.185742 
812.031536  	0.185691 
813.960352  	0.185712 
815.889168  	0.185796 
817.817984  	0.185906 
819.746800  	0.185893 
821.675616  	0.185893 
823.604432  	0.185898 
825.533248  	0.185850 
827.462064  	0.185346 
829.390880  	0.184070 
831.319696  	0.182536 
833.248512  	0.180814 
835.177328  	0.178785 
837.106144  	0.176101 
839.034960  	0.172496 
840.963776  	0.168783 
842.892592  	0.165546 
844.821408  	0.162146 
846.750224  	0.159189 
848.679040  	0.156938 
850.607856  	0.155023 
852.536672  	0.153547 
854.465488  	0.152529 
856.394304  	0.152038 
858.323120  	0.151382 
860.251936  	0.150095 
862.180752  	0.148691 
864.109568  	0.146962 
866.038384  	0.145430 
867.967200  	0.143962 
869.896016  	0.142313 
871.824832  	0.141081 
873.753648  	0.140272 
875.682464  	0.140489 
877.611280  	0.142621 
879.540096  	0.145145 
881.468912  	0.145755 
883.397728  	0.146620 
885.326544  	0.147431 
887.255360  	0.147682 
889.184176  	0.147473 
891.112992  	0.147281 
893.041808  	0.145256 
894.970624  	0.141704 
896.899440  	0.138048 
898.828256  	0.133713 
900.757072  	0.129178 
902.685888  	0.125331 
904.614704  	0.122819 
906.543520  	0.122212 
908.472336  	0.122774 
910.401152  	0.124330 
912.329968  	0.126332 
914.258784  	0.128585 
916.187600  	0.131033 
918.116416  	0.133291 
920.045232  	0.134638 
921.974048  	0.135414 
923.902864  	0.135599 
925.831680  	0.135045 
927.760496  	0.134929 
929.689312  	0.135367 
931.618128  	0.136010 
933.546944  	0.136537 
935.475760  	0.136694 
937.404576  	0.136373 
939.333392  	0.135945 
941.262208  	0.136226 
943.191024  	0.137679 
945.119840  	0.141163 
947.048656  	0.147034 
948.977472  	0.154742 
950.906288  	0.163887 
952.835104  	0.174285 
954.763920  	0.185516 
956.692736  	0.196275 
958.621552  	0.205512 
960.550368  	0.212094 
962.479184  	0.215422 
964.408000  	0.214823 
966.336816  	0.210277 
968.265632  	0.202180 
970.194448  	0.191186 
972.123264  	0.178429 
974.052080  	0.165020 
975.980896  	0.151830 
977.909712  	0.139565 
979.838528  	0.128564 
981.767344  	0.119355 
983.696160  	0.112639 
985.624976  	0.108381 
987.553792  	0.106950 
989.482608  	0.108476 
991.411424  	0.112402 
993.340240  	0.117984 
995.269056  	0.124741 
997.197872  	0.132112 
999.126688  	0.140132 
1001.055504  	0.148189 
1002.984320  	0.156555 
1004.913136  	0.164978 
1006.841952  	0.172918 
1008.770768  	0.179892 
1010.699584  	0.185838 
1012.628400  	0.190159 
1014.557216  	0.192912 
1016.486032  	0.194753 
1018.414848  	0.195747 
1020.343664  	0.196069 
1022.272480  	0.196148 
1024.201296  	0.197121 
1026.130112  	0.200827 
1028.058928  	0.203185 
1029.987744  	0.201854 
1031.916560  	0.204537 
1033.845376  	0.210657 
1035.774192  	0.219260 
1037.703008  	0.228549 
1039.631824  	0.237394 
1041.560640  	0.249029 
1043.489456  	0.264332 
1045.418272  	0.281875 
1047.347088  	0.300314 
1049.275904  	0.316497 
1051.204720  	0.329746 
1053.133536  	0.337684 
1055.062352  	0.341931 
1056.991168  	0.343914 
1058.919984  	0.341302 
1060.848800  	0.336211 
1062.777616  	0.335607 
1064.706432  	0.337864 
1066.635248  	0.336061 
1068.564064  	0.325240 
1070.492880  	0.316237 
1072.421696  	0.310430 
1074.350512  	0.306119 
1076.279328  	0.303536 
1078.208144  	0.303675 
1080.136960  	0.304326 
1082.065776  	0.305465 
1083.994592  	0.304255 
1085.923408  	0.300443 
1087.852224  	0.293851 
1089.781040  	0.284817 
1091.709856  	0.273087 
1093.638672  	0.261230 
1095.567488  	0.248812 
1097.496304  	0.235841 
1099.425120  	0.222206 
1101.353936  	0.208494 
1103.282752  	0.194833 
1105.211568  	0.181266 
1107.140384  	0.167537 
1109.069200  	0.154193 
1110.998016  	0.141888 
1112.926832  	0.130871 
1114.855648  	0.121028 
1116.784464  	0.111644 
1118.713280  	0.102768 
1120.642096  	0.094762 
1122.570912  	0.087477 
1124.499728  	0.080677 
1126.428544  	0.074587 
1128.357360  	0.069292 
1130.286176  	0.064884 
1132.214992  	0.061109 
1134.143808  	0.058084 
1136.072624  	0.055530 
1138.001440  	0.053301 
1139.930256  	0.050715 
1141.859072  	0.048184 
1143.787888  	0.045548 
1145.716704  	0.043049 
1147.645520  	0.040667 
1149.574336  	0.038850 
1151.503152  	0.037400 
1153.431968  	0.036841 
1155.360784  	0.036810 
1157.289600  	0.037434 
1159.218416  	0.038746 
1161.147232  	0.040786 
1163.076048  	0.042847 
1165.004864  	0.045235 
1166.933680  	0.047464 
1168.862496  	0.049711 
1170.791312  	0.051963 
1172.720128  	0.054910 
1174.648944  	0.057877 
1176.577760  	0.060650 
1178.506576  	0.063325 
1180.435392  	0.066435 
1182.364208  	0.069299 
1184.293024  	0.072721 
1186.221840  	0.076405 
1188.150656  	0.080463 
1190.079472  	0.085220 
1192.008288  	0.091150 
1193.937104  	0.098022 
1195.865920  	0.105831 
1197.794736  	0.114433 
1199.723552  	0.123771 
1201.652368  	0.133419 
1203.581184  	0.143234 
1205.510000  	0.153001 
1207.438816  	0.162450 
1209.367632  	0.171519 
1211.296448  	0.179697 
1213.225264  	0.186836 
1215.154080  	0.192567 
1217.082896  	0.197236 
1219.011712  	0.200686 
1220.940528  	0.203720 
1222.869344  	0.205834 
1224.798160  	0.206960 
1226.726976  	0.207162 
1228.655792  	0.206620 
1230.584608  	0.204752 
1232.513424  	0.201933 
1234.442240  	0.197803 
1236.371056  	0.192859 
1238.299872  	0.187457 
1240.228688  	0.183247 
1242.157504  	0.177229 
1244.086320  	0.168824 
1246.015136  	0.161537 
1247.943952  	0.155127 
1249.872768  	0.148262 
1251.801584  	0.140357 
1253.730400  	0.132441 
1255.659216  	0.124808 
1257.588032  	0.117565 
1259.516848  	0.110452 
1261.445664  	0.103403 
1263.374480  	0.096746 
1265.303296  	0.091067 
1267.232112  	0.086006 
1269.160928  	0.081945 
1271.089744  	0.078664 
1273.018560  	0.076664 
1274.947376  	0.075653 
1276.876192  	0.075282 
1278.805008  	0.074556 
1280.733824  	0.073048 
1282.662640  	0.070483 
1284.591456  	0.067760 
1286.520272  	0.065546 
1288.449088  	0.064005 
1290.377904  	0.063004 
1292.306720  	0.063023 
1294.235536  	0.062992 
1296.164352  	0.062198 
1298.093168  	0.059842 
1300.021984  	0.056833 
1301.950800  	0.053759 
1303.879616  	0.050887 
1305.808432  	0.047625 
1307.737248  	0.044525 
1309.666064  	0.041428 
1311.594880  	0.039394 
1313.523696  	0.037733 
1315.452512  	0.036579 
1317.381328  	0.035982 
1319.310144  	0.035842 
1321.238960  	0.035871 
1323.167776  	0.036446 
1325.096592  	0.037114 
1327.025408  	0.037640 
1328.954224  	0.037602 
1330.883040  	0.037264 
1332.811856  	0.036378 
1334.740672  	0.036084 
1336.669488  	0.036726 
1338.598304  	0.037513 
1340.527120  	0.035830 
1342.455936  	0.033722 
1344.384752  	0.033383 
1346.313568  	0.033914 
1348.242384  	0.034721 
1350.171200  	0.036162 
1352.100016  	0.038209 
1354.028832  	0.040783 
1355.957648  	0.043153 
1357.886464  	0.045892 
1359.815280  	0.049157 
1361.744096  	0.052781 
1363.672912  	0.054733 
1365.601728  	0.056456 
1367.530544  	0.058986 
1369.459360  	0.060868 
1371.388176  	0.062299 
1373.316992  	0.062833 
1375.245808  	0.060930 
1377.174624  	0.059899 
1379.103440  	0.058433 
1381.032256  	0.056159 
1382.961072  	0.053970 
1384.889888  	0.052856 
1386.818704  	0.050997 
1388.747520  	0.047546 
1390.676336  	0.046926 
1392.605152  	0.049957 
1394.533968  	0.050062 
1396.462784  	0.046035 
1398.391600  	0.044953 
1400.320416  	0.045071 
1402.249232  	0.047515 
1404.178048  	0.049952 
1406.106864  	0.051021 
1408.035680  	0.052337 
1409.964496  	0.053744 
1411.893312  	0.054431 
1413.822128  	0.055046 
1415.750944  	0.057097 
1417.679760  	0.057800 
1419.608576  	0.053732 
1421.537392  	0.052722 
1423.466208  	0.052460 
1425.395024  	0.049780 
1427.323840  	0.047992 
1429.252656  	0.044792 
1431.181472  	0.042561 
1433.110288  	0.042919 
1435.039104  	0.043916 
1436.967920  	0.042325 
1438.896736  	0.042703 
1440.825552  	0.044169 
1442.754368  	0.044712 
1444.683184  	0.044989 
1446.612000  	0.045090 
1448.540816  	0.044745 
1450.469632  	0.046003 
1452.398448  	0.047061 
1454.327264  	0.048107 
1456.256080  	0.045352 
1458.184896  	0.039358 
1460.113712  	0.041462 
1462.042528  	0.043684 
1463.971344  	0.042949 
1465.900160  	0.042754 
1467.828976  	0.046114 
1469.757792  	0.049846 
1471.686608  	0.052328 
1473.615424  	0.057049 
1475.544240  	0.064227 
1477.473056  	0.069745 
1479.401872  	0.073695 
1481.330688  	0.076685 
1483.259504  	0.078524 
1485.188320  	0.080091 
1487.117136  	0.079706 
1489.045952  	0.078586 
1490.974768  	0.074595 
1492.903584  	0.072800 
1494.832400  	0.069807 
1496.761216  	0.061847 
1498.690032  	0.055383 
1500.618848  	0.052198 
1502.547664  	0.049101 
1504.476480  	0.044790 
1506.405296  	0.036848 
1508.334112  	0.034923 
1510.262928  	0.036164 
1512.191744  	0.034091 
1514.120560  	0.033244 
1516.049376  	0.032316 
1517.978192  	0.030207 
1519.907008  	0.031534 
1521.835824  	0.030032 
1523.764640  	0.034950 
1525.693456  	0.040174 
1527.622272  	0.042267 
1529.551088  	0.043291 
1531.479904  	0.043551 
1533.408720  	0.038358 
1535.337536  	0.035475 
1537.266352  	0.034548 
1539.195168  	0.024484 
1541.123984  	0.015592 
1543.052800  	0.020805 
1544.981616  	0.022709 
1546.910432  	0.022591 
1548.839248  	0.023585 
1550.768064  	0.023462 
1552.696880  	0.023104 
1554.625696  	0.022820 
1556.554512  	0.022478 
1558.483328  	0.017148 
1560.412144  	0.020587 
1562.340960  	0.030600 
1564.269776  	0.035056 
1566.198592  	0.040367 
1568.127408  	0.044448 
1570.056224  	0.048081 
1571.985040  	0.056107 
1573.913856  	0.061469 
1575.842672  	0.060662 
1577.771488  	0.063419 
1579.700304  	0.067169 
1581.629120  	0.067535 
1583.557936  	0.067075 
1585.486752  	0.067754 
1587.415568  	0.070001 
1589.344384  	0.074219 
1591.273200  	0.080030 
1593.202016  	0.086921 
1595.130832  	0.094124 
1597.059648  	0.102134 
1598.988464  	0.109157 
1600.917280  	0.115047 
1602.846096  	0.118759 
1604.774912  	0.121300 
1606.703728  	0.121704 
1608.632544  	0.120567 
1610.561360  	0.118547 
1612.490176  	0.117447 
1614.418992  	0.115369 
1616.347808  	0.110469 
1618.276624  	0.111256 
1620.205440  	0.117554 
1622.134256  	0.120240 
1624.063072  	0.124610 
1625.991888  	0.132436 
1627.920704  	0.140202 
1629.849520  	0.150244 
1631.778336  	0.160505 
1633.707152  	0.166779 
1635.635968  	0.171319 
1637.564784  	0.182052 
1639.493600  	0.192337 
1641.422416  	0.198378 
1643.351232  	0.202900 
1645.280048  	0.202805 
1647.208864  	0.199627 
1649.137680  	0.202469 
1651.066496  	0.204967 
1652.995312  	0.194122 
1654.924128  	0.193284 
1656.852944  	0.197266 
1658.781760  	0.196262 
1660.710576  	0.192548 
1662.639392  	0.186003 
1664.568208  	0.182176 
1666.497024  	0.181130 
1668.425840  	0.174868 
1670.354656  	0.166003 
1672.283472  	0.163991 
1674.212288  	0.161418 
1676.141104  	0.155829 
1678.069920  	0.156584 
1679.998736  	0.156511 
1681.927552  	0.154861 
1683.856368  	0.146864 
1685.785184  	0.145026 
1687.714000  	0.149760 
1689.642816  	0.149378 
1691.571632  	0.147713 
1693.500448  	0.147374 
1695.429264  	0.141740 
1697.358080  	0.137795 
1699.286896  	0.135953 
1701.215712  	0.129296 
1703.144528  	0.130773 
1705.073344  	0.126642 
1707.002160  	0.120620 
1708.930976  	0.117478 
1710.859792  	0.112235 
1712.788608  	0.106128 
1714.717424  	0.097583 
1716.646240  	0.085543 
1718.575056  	0.070913 
1720.503872  	0.065145 
1722.432688  	0.059780 
1724.361504  	0.050578 
1726.290320  	0.043149 
1728.219136  	0.037274 
1730.147952  	0.031802 
1732.076768  	0.027032 
1734.005584  	0.018296 
1735.934400  	0.013296 
1737.863216  	0.014514 
1739.792032  	0.010156 
1741.720848  	0.009361 
1743.649664  	0.009563 
1745.578480  	0.008784 
1747.507296  	0.006819 
1749.436112  	0.005788 
1751.364928  	0.004601 
1753.293744  	0.004193 
1755.222560  	0.004405 
1757.151376  	0.003506 
1759.080192  	0.003074 
1761.009008  	0.002286 
1762.937824  	0.000402 
1764.866640  	0.001537 
1766.795456  	0.002484 
1768.724272  	0.001715 
1770.653088  	-0.001147 
1772.581904  	-0.005071 
1774.510720  	-0.003029 
1776.439536  	-0.000475 
1778.368352  	0.000039 
1780.297168  	-0.000468 
1782.225984  	-0.000947 
1784.154800  	-0.000207 
1786.083616  	-0.001098 
1788.012432  	-0.000782 
1789.941248  	-0.000308 
1791.870064  	-0.002511 
1793.798880  	-0.004191 
1795.727696  	-0.001892 
1797.656512  	-0.002130 
1799.585328  	-0.002400 
1801.514144  	-0.001955 
1803.442960  	-0.002017 
1805.371776  	-0.002727 
1807.300592  	-0.002282 
1809.229408  	-0.002952 
1811.158224  	-0.003559 
1813.087040  	-0.003665 
1815.015856  	-0.003153 
1816.944672  	-0.003053 
1818.873488  	-0.003096 
1820.802304  	-0.003251 
1822.731120  	-0.002415 
1824.659936  	-0.003183 
1826.588752  	-0.003879 
1828.517568  	-0.004601 
1830.446384  	-0.005510 
1832.375200  	-0.004286 
1834.304016  	-0.003228 
1836.232832  	-0.003589 
1838.161648  	-0.003583 
1840.090464  	-0.003557 
1842.019280  	-0.002424 
1843.948096  	-0.004229 
1845.876912  	-0.004608 
1847.805728  	-0.003491 
1849.734544  	-0.003613 
1851.663360  	-0.004046 
1853.592176  	-0.003922 
1855.520992  	-0.003980 
1857.449808  	-0.003781 
1859.378624  	-0.003863 
1861.307440  	-0.003914 
1863.236256  	-0.004083 
1865.165072  	-0.003568 
1867.093888  	-0.004053 
1869.022704  	-0.005068 
1870.951520  	-0.005104 
1872.880336  	-0.004230 
1874.809152  	-0.004371 
1876.737968  	-0.004336 
1878.666784  	-0.004556 
1880.595600  	-0.003924 
1882.524416  	-0.004043 
1884.453232  	-0.004054 
1886.382048  	-0.004088 
1888.310864  	-0.003648 
1890.239680  	-0.004758 
1892.168496  	-0.004455 
1894.097312  	-0.004079 
1896.026128  	-0.003735 
1897.954944  	-0.003936 
1899.883760  	-0.003791 
1901.812576  	-0.004095 
1903.741392  	-0.003931 
1905.670208  	-0.003744 
1907.599024  	-0.003047 
1909.527840  	-0.003618 
1911.456656  	-0.003491 
1913.385472  	-0.003525 
1915.314288  	-0.003097 
1917.243104  	-0.003501 
1919.171920  	-0.003701 
1921.100736  	-0.003160 
1923.029552  	-0.002884 
1924.958368  	-0.003585 
1926.887184  	-0.003321 
1928.816000  	-0.003746 
1930.744816  	-0.003678 
1932.673632  	-0.003772 
1934.602448  	-0.003448 
1936.531264  	-0.003652 
1938.460080  	-0.003280 
1940.388896  	-0.003598 
1942.317712  	-0.003772 
1944.246528  	-0.004120 
1946.175344  	-0.003007 
1948.104160  	-0.003139 
1950.032976  	-0.002936 
1951.961792  	-0.003590 
1953.890608  	-0.003717 
1955.819424  	-0.004616 
1957.748240  	-0.003592 
1959.677056  	-0.003973 
1961.605872  	-0.003711 
1963.534688  	-0.004063 
1965.463504  	-0.002817 
1967.392320  	-0.003349 
1969.321136  	-0.003349 
1971.249952  	-0.003403 
1973.178768  	-0.002292 
1975.107584  	-0.003311 
1977.036400  	-0.002641 
1978.965216  	-0.002511 
1980.894032  	-0.002296 
1982.822848  	-0.003054 
1984.751664  	-0.002853 
1986.680480  	-0.003824 
1988.609296  	-0.003295 
1990.538112  	-0.004094 
1992.466928  	-0.003857 
1994.395744  	-0.004228 
1996.324560  	-0.003932 
1998.253376  	-0.004873 
2000.182192  	-0.005547 
2002.111008  	-0.005521 
2004.039824  	-0.004167 
2005.968640  	-0.004409 
2007.897456  	-0.003152 
2009.826272  	-0.003564 
2011.755088  	-0.003216 
2013.683904  	-0.004257 
2015.612720  	-0.004063 
2017.541536  	-0.004254 
2019.470352  	-0.002573 
2021.399168  	-0.003586 
2023.327984  	-0.003952 
2025.256800  	-0.003816 
2027.185616  	-0.002612 
2029.114432  	-0.003025 
2031.043248  	-0.003128 
2032.972064  	-0.002792 
2034.900880  	-0.002138 
2036.829696  	-0.003195 
2038.758512  	-0.002359 
2040.687328  	-0.002972 
2042.616144  	-0.002487 
2044.544960  	-0.002870 
2046.473776  	-0.002690 
2048.402592  	-0.002996 
2050.331408  	-0.003193 
2052.260224  	-0.004469 
2054.189040  	-0.004606 
2056.117856  	-0.004535 
2058.046672  	-0.004284 
2059.975488  	-0.004752 
2061.904304  	-0.004844 
2063.833120  	-0.004874 
2065.761936  	-0.004368 
2067.690752  	-0.004967 
2069.619568  	-0.004899 
2071.548384  	-0.004738 
2073.477200  	-0.004458 
2075.406016  	-0.004106 
2077.334832  	-0.003604 
2079.263648  	-0.003830 
2081.192464  	-0.003574 
2083.121280  	-0.003530 
2085.050096  	-0.003707 
2086.978912  	-0.003794 
2088.907728  	-0.003124 
2090.836544  	-0.003480 
2092.765360  	-0.003439 
2094.694176  	-0.003015 
2096.622992  	-0.003065 
2098.551808  	-0.003975 
2100.480624  	-0.003584 
2102.409440  	-0.003561 
2104.338256  	-0.003596 
2106.267072  	-0.003117 
2108.195888  	-0.002311 
2110.124704  	-0.002601 
2112.053520  	-0.002880 
2113.982336  	-0.003347 
2115.911152  	-0.003095 
2117.839968  	-0.002910 
2119.768784  	-0.002893 
2121.697600  	-0.003457 
2123.626416  	-0.003677 
2125.555232  	-0.004038 
2127.484048  	-0.003807 
2129.412864  	-0.004082 
2131.341680  	-0.004009 
2133.270496  	-0.004297 
2135.199312  	-0.003981 
2137.128128  	-0.003592 
2139.056944  	-0.002523 
2140.985760  	-0.002681 
2142.914576  	-0.002729 
2144.843392  	-0.003221 
2146.772208  	-0.003048 
2148.701024  	-0.003050 
2150.629840  	-0.002843 
2152.558656  	-0.003461 
2154.487472  	-0.003147 
2156.416288  	-0.003106 
2158.345104  	-0.002128 
2160.273920  	-0.001323 
2162.202736  	-0.000157 
2164.131552  	-0.000938 
2166.060368  	-0.001863 
2167.989184  	-0.001718 
2169.918000  	-0.000551 
2171.846816  	-0.002151 
2173.775632  	-0.001997 
2175.704448  	-0.001508 
2177.633264  	-0.001895 
2179.562080  	-0.002609 
2181.490896  	-0.001818 
2183.419712  	-0.002628 
2185.348528  	-0.002777 
2187.277344  	-0.002487 
2189.206160  	-0.002428 
2191.134976  	-0.002830 
2193.063792  	-0.002005 
2194.992608  	-0.002386 
2196.921424  	-0.002662 
2198.850240  	-0.002861 
2200.779056  	-0.003269 
2202.707872  	-0.003539 
2204.636688  	-0.003635 
2206.565504  	-0.003378 
2208.494320  	-0.002610 
2210.423136  	-0.003215 
2212.351952  	-0.003315 
2214.280768  	-0.003794 
2216.209584  	-0.003893 
2218.138400  	-0.004240 
2220.067216  	-0.003763 
2221.996032  	-0.003804 
2223.924848  	-0.003495 
2225.853664  	-0.003383 
2227.782480  	-0.003229 
2229.711296  	-0.003928 
2231.640112  	-0.004452 
2233.568928  	-0.004431 
2235.497744  	-0.004068 
2237.426560  	-0.004240 
2239.355376  	-0.004019 
2241.284192  	-0.004547 
2243.213008  	-0.004665 
2245.141824  	-0.004881 
2247.070640  	-0.004633 
2248.999456  	-0.004597 
2250.928272  	-0.004887 
2252.857088  	-0.005044 
2254.785904  	-0.004924 
2256.714720  	-0.005476 
2258.643536  	-0.005830 
2260.572352  	-0.005831 
2262.501168  	-0.005329 
2264.429984  	-0.005419 
2266.358800  	-0.005651 
2268.287616  	-0.005422 
2270.216432  	-0.005245 
2272.145248  	-0.005499 
2274.074064  	-0.005685 
2276.002880  	-0.005454 
2277.931696  	-0.004848 
2279.860512  	-0.004736 
2281.789328  	-0.004562 
2283.718144  	-0.004613 
2285.646960  	-0.004675 
2287.575776  	-0.004733 
2289.504592  	-0.004957 
2291.433408  	-0.005213 
2293.362224  	-0.005109 
2295.291040  	-0.004860 
2297.219856  	-0.004512 
2299.148672  	-0.004499 
2301.077488  	-0.004424 
2303.006304  	-0.004633 
2304.935120  	-0.004643 
2306.863936  	-0.004811 
2308.792752  	-0.005390 
2310.721568  	-0.006284 
2312.650384  	-0.007331 
2314.579200  	-0.008406 
2316.508016  	-0.009611 
2318.436832  	-0.011307 
2320.365648  	-0.013474 
2322.294464  	-0.015962 
2324.223280  	-0.018438 
2326.152096  	-0.021158 
2328.080912  	-0.023551 
2330.009728  	-0.026183 
2331.938544  	-0.028667 
2333.867360  	-0.030842 
2335.796176  	-0.032462 
2337.724992  	-0.033975 
2339.653808  	-0.034475 
2341.582624  	-0.034745 
2343.511440  	-0.033107 
2345.440256  	-0.029182 
2347.369072  	-0.021686 
2349.297888  	-0.017147 
2351.226704  	-0.021241 
2353.155520  	-0.029759 
2355.084336  	-0.036491 
2357.013152  	-0.041701 
2358.941968  	-0.044498 
2360.870784  	-0.045757 
2362.799600  	-0.044605 
2364.728416  	-0.042330 
2366.657232  	-0.038179 
2368.586048  	-0.033061 
2370.514864  	-0.027527 
2372.443680  	-0.022281 
2374.372496  	-0.017343 
2376.301312  	-0.012866 
2378.230128  	-0.009072 
2380.158944  	-0.006603 
2382.087760  	-0.005233 
2384.016576  	-0.004811 
2385.945392  	-0.004902 
2387.874208  	-0.005223 
2389.803024  	-0.005454 
2391.731840  	-0.005695 
2393.660656  	-0.005760 
2395.589472  	-0.005716 
2397.518288  	-0.005394 
2399.447104  	-0.005482 
2401.375920  	-0.005760 
2403.304736  	-0.006015 
2405.233552  	-0.005869 
2407.162368  	-0.005800 
2409.091184  	-0.005666 
2411.020000  	-0.005664 
2412.948816  	-0.005620 
2414.877632  	-0.005592 
2416.806448  	-0.005524 
2418.735264  	-0.005611 
2420.664080  	-0.005728 
2422.592896  	-0.005819 
2424.521712  	-0.005734 
2426.450528  	-0.005823 
2428.379344  	-0.005740 
2430.308160  	-0.005564 
2432.236976  	-0.005337 
2434.165792  	-0.005561 
2436.094608  	-0.005724 
2438.023424  	-0.005521 
2439.952240  	-0.005233 
2441.881056  	-0.005374 
2443.809872  	-0.005370 
2445.738688  	-0.005264 
2447.667504  	-0.004987 
2449.596320  	-0.005032 
2451.525136  	-0.005016 
2453.453952  	-0.005086 
2455.382768  	-0.005228 
2457.311584  	-0.005219 
2459.240400  	-0.005149 
2461.169216  	-0.005337 
2463.098032  	-0.005480 
2465.026848  	-0.005470 
2466.955664  	-0.005376 
2468.884480  	-0.005584 
2470.813296  	-0.005740 
2472.742112  	-0.005715 
2474.670928  	-0.005630 
2476.599744  	-0.005609 
2478.528560  	-0.005253 
2480.457376  	-0.005227 
2482.386192  	-0.005268 
2484.315008  	-0.005071 
2486.243824  	-0.004997 
2488.172640  	-0.005211 
2490.101456  	-0.005094 
2492.030272  	-0.004776 
2493.959088  	-0.004561 
2495.887904  	-0.004663 
2497.816720  	-0.004754 
2499.745536  	-0.004729 
2501.674352  	-0.004721 
2503.603168  	-0.004435 
2505.531984  	-0.004351 
2507.460800  	-0.004604 
2509.389616  	-0.004690 
2511.318432  	-0.004729 
2513.247248  	-0.004650 
2515.176064  	-0.004565 
2517.104880  	-0.004350 
2519.033696  	-0.004464 
2520.962512  	-0.004390 
2522.891328  	-0.004341 
2524.820144  	-0.004288 
2526.748960  	-0.004288 
2528.677776  	-0.004135 
2530.606592  	-0.004201 
2532.535408  	-0.004267 
2534.464224  	-0.004210 
2536.393040  	-0.004168 
2538.321856  	-0.004120 
2540.250672  	-0.003938 
2542.179488  	-0.003985 
2544.108304  	-0.003897 
2546.037120  	-0.003770 
2547.965936  	-0.003708 
2549.894752  	-0.003642 
2551.823568  	-0.003538 
2553.752384  	-0.003395 
2555.681200  	-0.003032 
2557.610016  	-0.002968 
2559.538832  	-0.002988 
2561.467648  	-0.002849 
2563.396464  	-0.002709 
2565.325280  	-0.002709 
2567.254096  	-0.002637 
2569.182912  	-0.002595 
2571.111728  	-0.002559 
2573.040544  	-0.002597 
2574.969360  	-0.002549 
2576.898176  	-0.002358 
2578.826992  	-0.002265 
2580.755808  	-0.002303 
2582.684624  	-0.002183 
2584.613440  	-0.002039 
2586.542256  	-0.001906 
2588.471072  	-0.001910 
2590.399888  	-0.001866 
2592.328704  	-0.001958 
2594.257520  	-0.001998 
2596.186336  	-0.001791 
2598.115152  	-0.001589 
2600.043968  	-0.001587 
2601.972784  	-0.001514 
2603.901600  	-0.001397 
2605.830416  	-0.001124 
2607.759232  	-0.001005 
2609.688048  	-0.000939 
2611.616864  	-0.000744 
2613.545680  	-0.000564 
2615.474496  	-0.000548 
2617.403312  	-0.000348 
2619.332128  	-0.000212 
2621.260944  	-0.000160 
2623.189760  	-0.000121 
2625.118576  	-0.000017 
2627.047392  	-0.000031 
2628.976208  	0.000074 
2630.905024  	0.000277 
2632.833840  	0.000428 
2634.762656  	0.000626 
2636.691472  	0.000676 
2638.620288  	0.000747 
2640.549104  	0.000892 
2642.477920  	0.000926 
2644.406736  	0.001122 
2646.335552  	0.001297 
2648.264368  	0.001486 
2650.193184  	0.001578 
2652.122000  	0.001675 
2654.050816  	0.001809 
2655.979632  	0.001921 
2657.908448  	0.002026 
2659.837264  	0.002188 
2661.766080  	0.002364 
2663.694896  	0.002574 
2665.623712  	0.002728 
2667.552528  	0.002829 
2669.481344  	0.002889 
2671.410160  	0.003005 
2673.338976  	0.003194 
2675.267792  	0.003415 
2677.196608  	0.003564 
2679.125424  	0.003711 
2681.054240  	0.003844 
2682.983056  	0.004004 
2684.911872  	0.004091 
2686.840688  	0.004219 
2688.769504  	0.004312 
2690.698320  	0.004368 
2692.627136  	0.004452 
2694.555952  	0.004581 
2696.484768  	0.004726 
2698.413584  	0.004818 
2700.342400  	0.004894 
2702.271216  	0.005072 
2704.200032  	0.005246 
2706.128848  	0.005427 
2708.057664  	0.005533 
2709.986480  	0.005564 
2711.915296  	0.005712 
2713.844112  	0.005938 
2715.772928  	0.006083 
2717.701744  	0.006373 
2719.630560  	0.006722 
2721.559376  	0.006905 
2723.488192  	0.007032 
2725.417008  	0.007229 
2727.345824  	0.007475 
2729.274640  	0.007754 
2731.203456  	0.007999 
2733.132272  	0.008194 
2735.061088  	0.008374 
2736.989904  	0.008564 
2738.918720  	0.008693 
2740.847536  	0.008862 
2742.776352  	0.008957 
2744.705168  	0.009091 
2746.633984  	0.009269 
2748.562800  	0.009460 
2750.491616  	0.009557 
2752.420432  	0.009704 
2754.349248  	0.009707 
2756.278064  	0.009558 
2758.206880  	0.009485 
2760.135696  	0.009692 
2762.064512  	0.009783 
2763.993328  	0.009755 
2765.922144  	0.009808 
2767.850960  	0.009830 
2769.779776  	0.009906 
2771.708592  	0.010034 
2773.637408  	0.009936 
2775.566224  	0.009953 
2777.495040  	0.010070 
2779.423856  	0.010241 
2781.352672  	0.010380 
2783.281488  	0.010434 
2785.210304  	0.010492 
2787.139120  	0.010653 
2789.067936  	0.010819 
2790.996752  	0.011015 
2792.925568  	0.011006 
2794.854384  	0.011074 
2796.783200  	0.011248 
2798.712016  	0.011316 
2800.640832  	0.011263 
2802.569648  	0.011353 
2804.498464  	0.011570 
2806.427280  	0.011620 
2808.356096  	0.011628 
2810.284912  	0.011780 
2812.213728  	0.011893 
2814.142544  	0.011973 
2816.071360  	0.012149 
2818.000176  	0.012285 
2819.928992  	0.012414 
2821.857808  	0.012538 
2823.786624  	0.012697 
2825.715440  	0.012841 
2827.644256  	0.012913 
2829.573072  	0.013079 
2831.501888  	0.013221 
2833.430704  	0.013389 
2835.359520  	0.013578 
2837.288336  	0.013756 
2839.217152  	0.013966 
2841.145968  	0.014268 
2843.074784  	0.014594 
2845.003600  	0.014910 
2846.932416  	0.015255 
2848.861232  	0.015793 
2850.790048  	0.016550 
2852.718864  	0.017364 
2854.647680  	0.018131 
2856.576496  	0.018848 
2858.505312  	0.019698 
2860.434128  	0.020871 
2862.362944  	0.022039 
2864.291760  	0.023238 
2866.220576  	0.024510 
2868.149392  	0.025603 
2870.078208  	0.026316 
2872.007024  	0.027067 
2873.935840  	0.028029 
2875.864656  	0.029098 
2877.793472  	0.030407 
2879.722288  	0.032069 
2881.651104  	0.033809 
2883.579920  	0.035376 
2885.508736  	0.036364 
2887.437552  	0.036596 
2889.366368  	0.036928 
2891.295184  	0.037717 
2893.224000  	0.038238 
2895.152816  	0.038448 
2897.081632  	0.038993 
2899.010448  	0.041010 
2900.939264  	0.042920 
2902.868080  	0.041821 
2904.796896  	0.040563 
2906.725712  	0.040305 
2908.654528  	0.040472 
2910.583344  	0.040839 
2912.512160  	0.040490 
2914.440976  	0.039814 
2916.369792  	0.039575 
2918.298608  	0.039807 
2920.227424  	0.040350 
2922.156240  	0.040892 
2924.085056  	0.041197 
2926.013872  	0.041509 
2927.942688  	0.041952 
2929.871504  	0.042412 
2931.800320  	0.042803 
2933.729136  	0.043326 
2935.657952  	0.044011 
2937.586768  	0.044771 
2939.515584  	0.045541 
2941.444400  	0.046443 
2943.373216  	0.047212 
2945.302032  	0.047741 
2947.230848  	0.048005 
2949.159664  	0.048536 
2951.088480  	0.049641 
2953.017296  	0.050593 
2954.946112  	0.051314 
2956.874928  	0.052067 
2958.803744  	0.052717 
2960.732560  	0.053339 
2962.661376  	0.053972 
2964.590192  	0.054932 
2966.519008  	0.056162 
2968.447824  	0.057258 
2970.376640  	0.058000 
2972.305456  	0.058117 
2974.234272  	0.057674 
2976.163088  	0.057273 
2978.091904  	0.056856 
2980.020720  	0.056721 
2981.949536  	0.056727 
2983.878352  	0.057043 
2985.807168  	0.057939 
2987.735984  	0.058939 
2989.664800  	0.058117 
2991.593616  	0.054270 
2993.522432  	0.052203 
2995.451248  	0.051620 
2997.380064  	0.050812 
2999.308880  	0.049787 
3001.237696  	0.048491 
3003.166512  	0.047405 
3005.095328  	0.046281 
3007.024144  	0.044971 
3008.952960  	0.043485 
3010.881776  	0.042275 
3012.810592  	0.041273 
3014.739408  	0.040198 
3016.668224  	0.039137 
3018.597040  	0.038342 
3020.525856  	0.037598 
3022.454672  	0.036836 
3024.383488  	0.036352 
3026.312304  	0.035827 
3028.241120  	0.035363 
3030.169936  	0.035023 
3032.098752  	0.034691 
3034.027568  	0.034446 
3035.956384  	0.034311 
3037.885200  	0.034400 
3039.814016  	0.034540 
3041.742832  	0.034566 
3043.671648  	0.034588 
3045.600464  	0.034862 
3047.529280  	0.035071 
3049.458096  	0.035391 
3051.386912  	0.035865 
3053.315728  	0.036373 
3055.244544  	0.036943 
3057.173360  	0.037434 
3059.102176  	0.037886 
3061.030992  	0.038553 
3062.959808  	0.039283 
3064.888624  	0.039805 
3066.817440  	0.040428 
3068.746256  	0.041304 
3070.675072  	0.042110 
3072.603888  	0.042895 
3074.532704  	0.043843 
3076.461520  	0.044732 
3078.390336  	0.045400 
3080.319152  	0.046004 
3082.247968  	0.046786 
3084.176784  	0.047655 
3086.105600  	0.048558 
3088.034416  	0.049352 
3089.963232  	0.050223 
3091.892048  	0.050984 
3093.820864  	0.051664 
3095.749680  	0.052388 
3097.678496  	0.053253 
3099.607312  	0.054149 
3101.536128  	0.055050 
3103.464944  	0.056081 
3105.393760  	0.056909 
3107.322576  	0.057640 
3109.251392  	0.058468 
3111.180208  	0.059198 
3113.109024  	0.059945 
3115.037840  	0.060662 
3116.966656  	0.061371 
3118.895472  	0.062023 
3120.824288  	0.062732 
3122.753104  	0.063330 
3124.681920  	0.063875 
3126.610736  	0.064408 
3128.539552  	0.065298 
3130.468368  	0.066062 
3132.397184  	0.066438 
3134.326000  	0.066941 
3136.254816  	0.067681 
3138.183632  	0.068536 
3140.112448  	0.069229 
3142.041264  	0.069871 
3143.970080  	0.070478 
3145.898896  	0.071133 
3147.827712  	0.071752 
3149.756528  	0.072296 
3151.685344  	0.072919 
3153.614160  	0.073785 
3155.542976  	0.074598 
3157.471792  	0.075297 
3159.400608  	0.075886 
3161.329424  	0.076407 
3163.258240  	0.076837 
3165.187056  	0.077409 
3167.115872  	0.078051 
3169.044688  	0.078441 
3170.973504  	0.079032 
3172.902320  	0.079391 
3174.831136  	0.079825 
3176.759952  	0.080469 
3178.688768  	0.080940 
3180.617584  	0.081359 
3182.546400  	0.081581 
3184.475216  	0.081655 
3186.404032  	0.081822 
3188.332848  	0.082103 
3190.261664  	0.082337 
3192.190480  	0.082643 
3194.119296  	0.082644 
3196.048112  	0.082707 
3197.976928  	0.082740 
3199.905744  	0.082902 
3201.834560  	0.083032 
3203.763376  	0.082970 
3205.692192  	0.082862 
3207.621008  	0.082814 
3209.549824  	0.082716 
3211.478640  	0.082473 
3213.407456  	0.082402 
3215.336272  	0.082225 
3217.265088  	0.082074 
3219.193904  	0.081872 
3221.122720  	0.081580 
3223.051536  	0.081487 
3224.980352  	0.081351 
3226.909168  	0.081118 
3228.837984  	0.080964 
3230.766800  	0.080912 
3232.695616  	0.080751 
3234.624432  	0.080442 
3236.553248  	0.080304 
3238.482064  	0.080429 
3240.410880  	0.080472 
3242.339696  	0.080549 
3244.268512  	0.080563 
3246.197328  	0.080625 
3248.126144  	0.080772 
3250.054960  	0.080845 
3251.983776  	0.081056 
3253.912592  	0.081232 
3255.841408  	0.081447 
3257.770224  	0.081867 
3259.699040  	0.082077 
3261.627856  	0.082210 
3263.556672  	0.082401 
3265.485488  	0.082376 
3267.414304  	0.082557 
3269.343120  	0.082965 
3271.271936  	0.083367 
3273.200752  	0.083423 
3275.129568  	0.083424 
3277.058384  	0.083731 
3278.987200  	0.084037 
3280.916016  	0.084170 
3282.844832  	0.084370 
3284.773648  	0.084489 
3286.702464  	0.084640 
3288.631280  	0.084946 
3290.560096  	0.085280 
3292.488912  	0.085600 
3294.417728  	0.085765 
3296.346544  	0.086095 
3298.275360  	0.086313 
3300.204176  	0.086615 
3302.132992  	0.087000 
3304.061808  	0.087320 
3305.990624  	0.087709 
3307.919440  	0.088150 
3309.848256  	0.088546 
3311.777072  	0.088847 
3313.705888  	0.089146 
3315.634704  	0.089635 
3317.563520  	0.090026 
3319.492336  	0.090310 
3321.421152  	0.090329 
3323.349968  	0.090648 
3325.278784  	0.090997 
3327.207600  	0.091229 
3329.136416  	0.091177 
3331.065232  	0.091151 
3332.994048  	0.091340 
3334.922864  	0.091481 
3336.851680  	0.091370 
3338.780496  	0.091165 
3340.709312  	0.091000 
3342.638128  	0.090891 
3344.566944  	0.090776 
3346.495760  	0.090374 
3348.424576  	0.090002 
3350.353392  	0.089783 
3352.282208  	0.089652 
3354.211024  	0.089426 
3356.139840  	0.089111 
3358.068656  	0.088760 
3359.997472  	0.088303 
3361.926288  	0.087642 
3363.855104  	0.087249 
3365.783920  	0.087067 
3367.712736  	0.086748 
3369.641552  	0.086262 
3371.570368  	0.085752 
3373.499184  	0.085437 
3375.428000  	0.085178 
3377.356816  	0.084826 
3379.285632  	0.084601 
3381.214448  	0.084177 
3383.143264  	0.083663 
3385.072080  	0.083113 
3387.000896  	0.082679 
3388.929712  	0.082564 
3390.858528  	0.082408 
3392.787344  	0.081970 
3394.716160  	0.081411 
3396.644976  	0.081085 
3398.573792  	0.080666 
3400.502608  	0.080239 
3402.431424  	0.079539 
3404.360240  	0.078875 
3406.289056  	0.078341 
3408.217872  	0.077881 
3410.146688  	0.077349 
3412.075504  	0.077037 
3414.004320  	0.076789 
3415.933136  	0.076201 
3417.861952  	0.075293 
3419.790768  	0.074856 
3421.719584  	0.074445 
3423.648400  	0.073972 
3425.577216  	0.073258 
3427.506032  	0.072744 
3429.434848  	0.072283 
3431.363664  	0.071620 
3433.292480  	0.070909 
3435.221296  	0.070202 
3437.150112  	0.069834 
3439.078928  	0.069518 
3441.007744  	0.068958 
3442.936560  	0.068374 
3444.865376  	0.068002 
3446.794192  	0.067192 
3448.723008  	0.066262 
3450.651824  	0.065445 
3452.580640  	0.064866 
3454.509456  	0.064439 
3456.438272  	0.063868 
3458.367088  	0.063136 
3460.295904  	0.062556 
3462.224720  	0.061728 
3464.153536  	0.060908 
3466.082352  	0.060209 
3468.011168  	0.059180 
3469.939984  	0.058364 
3471.868800  	0.057705 
3473.797616  	0.056962 
3475.726432  	0.056145 
3477.655248  	0.055381 
3479.584064  	0.054923 
3481.512880  	0.054180 
3483.441696  	0.052909 
3485.370512  	0.052306 
3487.299328  	0.051471 
3489.228144  	0.050519 
3491.156960  	0.049630 
3493.085776  	0.048891 
3495.014592  	0.048148 
3496.943408  	0.047400 
3498.872224  	0.046914 
3500.801040  	0.046976 
3502.729856  	0.046309 
3504.658672  	0.044829 
3506.587488  	0.044176 
3508.516304  	0.043814 
3510.445120  	0.042772 
3512.373936  	0.041606 
3514.302752  	0.040829 
3516.231568  	0.040590 
3518.160384  	0.040084 
3520.089200  	0.039368 
3522.018016  	0.039260 
3523.946832  	0.039528 
3525.875648  	0.038668 
3527.804464  	0.036797 
3529.733280  	0.035723 
3531.662096  	0.035340 
3533.590912  	0.034766 
3535.519728  	0.034391 
3537.448544  	0.033534 
3539.377360  	0.032629 
3541.306176  	0.032525 
3543.234992  	0.032755 
3545.163808  	0.033110 
3547.092624  	0.031924 
3549.021440  	0.030143 
3550.950256  	0.029304 
3552.879072  	0.028307 
3554.807888  	0.027691 
3556.736704  	0.027143 
3558.665520  	0.027056 
3560.594336  	0.026835 
3562.523152  	0.025942 
3564.451968  	0.026315 
3566.380784  	0.026680 
3568.309600  	0.024152 
3570.238416  	0.022732 
3572.167232  	0.022192 
3574.096048  	0.021243 
3576.024864  	0.020290 
3577.953680  	0.019786 
3579.882496  	0.019267 
3581.811312  	0.018671 
3583.740128  	0.018327 
3585.668944  	0.018571 
3587.597760  	0.016970 
3589.526576  	0.014846 
3591.455392  	0.014366 
3593.384208  	0.013979 
3595.313024  	0.012933 
3597.241840  	0.011655 
3599.170656  	0.010218 
3601.099472  	0.009051 
3603.028288  	0.009293 
3604.957104  	0.009854 
3606.885920  	0.009329 
3608.814736  	0.007889 
3610.743552  	0.007742 
3612.672368  	0.006656 
3614.601184  	0.005307 
3616.530000  	0.005402 
3618.458816  	0.002993 
3620.387632  	0.000875 
3622.316448  	0.001805 
3624.245264  	0.002303 
3626.174080  	0.002505 
3628.102896  	-0.000525 
3630.031712  	-0.004455 
3631.960528  	-0.001599 
3633.889344  	-0.001063 
3635.818160  	-0.001099 
3637.746976  	-0.001374 
3639.675792  	-0.001173 
3641.604608  	-0.000331 
3643.533424  	0.000141 
3645.462240  	0.000147 
3647.391056  	-0.002988 
3649.319872  	-0.008256 
3651.248688  	-0.008565 
3653.177504  	-0.003445 
3655.106320  	-0.002679 
3657.035136  	-0.004649 
3658.963952  	-0.003295 
3660.892768  	-0.002541 
3662.821584  	-0.002591 
3664.750400  	-0.002673 
3666.679216  	-0.002623 
3668.608032  	-0.005247 
3670.536848  	-0.009776 
3672.465664  	-0.007064 
3674.394480  	-0.007552 
3676.323296  	-0.013001 
3678.252112  	-0.010461 
3680.180928  	-0.009557 
3682.109744  	-0.007842 
3684.038560  	-0.006939 
3685.967376  	-0.007260 
3687.896192  	-0.011222 
3689.825008  	-0.015630 
3691.753824  	-0.014588 
3693.682640  	-0.011981 
3695.611456  	-0.011494 
3697.540272  	-0.011901 
3699.469088  	-0.012104 
3701.397904  	-0.014668 
3703.326720  	-0.016027 
3705.255536  	-0.014942 
3707.184352  	-0.015170 
3709.113168  	-0.017599 
3711.041984  	-0.020781 
3712.970800  	-0.020106 
3714.899616  	-0.016362 
3716.828432  	-0.015552 
3718.757248  	-0.016515 
3720.686064  	-0.017349 
3722.614880  	-0.018001 
3724.543696  	-0.017101 
3726.472512  	-0.017476 
3728.401328  	-0.017520 
3730.330144  	-0.018166 
3732.258960  	-0.020738 
3734.187776  	-0.020103 
3736.116592  	-0.021040 
3738.045408  	-0.020452 
3739.974224  	-0.017719 
3741.903040  	-0.016007 
3743.831856  	-0.018984 
3745.760672  	-0.022236 
3747.689488  	-0.019659 
3749.618304  	-0.022945 
3751.547120  	-0.025564 
3753.475936  	-0.022079 
3755.404752  	-0.018335 
3757.333568  	-0.017761 
3759.262384  	-0.018927 
3761.191200  	-0.018731 
3763.120016  	-0.016214 
3765.048832  	-0.016871 
3766.977648  	-0.017150 
3768.906464  	-0.018002 
3770.835280  	-0.019048 
3772.764096  	-0.017083 
3774.692912  	-0.015919 
3776.621728  	-0.015814 
3778.550544  	-0.017603 
3780.479360  	-0.018838 
3782.408176  	-0.016743 
3784.336992  	-0.016878 
3786.265808  	-0.016832 
3788.194624  	-0.016232 
3790.123440  	-0.016216 
3792.052256  	-0.016211 
3793.981072  	-0.015970 
3795.909888  	-0.017774 
3797.838704  	-0.018027 
3799.767520  	-0.018280 
3801.696336  	-0.023595 
3803.625152  	-0.020966 
3805.553968  	-0.018812 
3807.482784  	-0.021127 
3809.411600  	-0.018225 
3811.340416  	-0.016133 
3813.269232  	-0.015830 
3815.198048  	-0.019225 
3817.126864  	-0.021266 
3819.055680  	-0.019248 
3820.984496  	-0.023527 
3822.913312  	-0.021871 
3824.842128  	-0.017825 
3826.770944  	-0.018232 
3828.699760  	-0.017259 
3830.628576  	-0.017468 
3832.557392  	-0.018630 
3834.486208  	-0.018407 
3836.415024  	-0.019875 
3838.343840  	-0.022132 
3840.272656  	-0.020984 
3842.201472  	-0.018895 
3844.130288  	-0.018489 
3846.059104  	-0.016852 
3847.987920  	-0.015499 
3849.916736  	-0.015662 
3851.845552  	-0.018921 
3853.774368  	-0.026194 
3855.703184  	-0.022191 
3857.632000  	-0.017659 
3859.560816  	-0.015772 
3861.489632  	-0.016092 
3863.418448  	-0.017578 
3865.347264  	-0.018384 
3867.276080  	-0.016344 
3869.204896  	-0.017719 
3871.133712  	-0.018682 
3873.062528  	-0.017226 
3874.991344  	-0.018065 
3876.920160  	-0.015847 
3878.848976  	-0.015117 
3880.777792  	-0.016657 
3882.706608  	-0.015642 
3884.635424  	-0.015755 
3886.564240  	-0.017720 
3888.493056  	-0.016079 
3890.421872  	-0.016530 
3892.350688  	-0.017962 
3894.279504  	-0.016344 
3896.208320  	-0.014940 
3898.137136  	-0.014842 
3900.065952  	-0.015712 
3901.994768  	-0.015861 
3903.923584  	-0.017017 
3905.852400  	-0.017353 
3907.781216  	-0.016394 
3909.710032  	-0.015990 
3911.638848  	-0.015951 
3913.567664  	-0.015384 
3915.496480  	-0.014607 
3917.425296  	-0.015098 
3919.354112  	-0.015851 
3921.282928  	-0.015702 
3923.211744  	-0.014917 
3925.140560  	-0.015264 
3927.069376  	-0.015667 
3928.998192  	-0.015385 
3930.927008  	-0.014721 
3932.855824  	-0.014753 
3934.784640  	-0.015420 
3936.713456  	-0.015662 
3938.642272  	-0.015420 
3940.571088  	-0.014823 
3942.499904  	-0.014619 
3944.428720  	-0.014982 
3946.357536  	-0.014640 
3948.286352  	-0.014445 
3950.215168  	-0.015330 
3952.143984  	-0.016086 
3954.072800  	-0.016020 
3956.001616  	-0.015593 
3957.930432  	-0.015580 
3959.859248  	-0.015495 
3961.788064  	-0.015314 
3963.716880  	-0.015753 
3965.645696  	-0.016267 
3967.574512  	-0.016081 
3969.503328  	-0.015700 
3971.432144  	-0.015741 
3973.360960  	-0.015685 
3975.289776  	-0.015538 
3977.218592  	-0.015594 
3979.147408  	-0.015804 
3981.076224  	-0.015917 
3983.005040  	-0.015895 
3984.933856  	-0.015806 
3986.862672  	-0.015794 
3988.791488  	-0.015470 
3990.720304  	-0.015186 
3992.649120  	-0.015435 
3994.577936  	-0.015773 
3996.506752  	-0.015912 
3998.435568  	-0.015985 
4000.364384  	-0.015960 