##TITLE=No Description
##DATA TYPE=INFRARED SPECTRUM
##XUNITS=1/CM
##YUNITS=Abs
399.264912  	0.673818 
401.193728  	0.646733 
403.122544  	0.632286 
405.051360  	0.625523 
406.980176  	0.629549 
408.908992  	0.625783 
410.837808  	0.623514 
412.766624  	0.614810 
414.695440  	0.619452 
416.624256  	0.598608 
418.553072  	0.584164 
420.481888  	0.581665 
422.410704  	0.592170 
424.339520  	0.591328 
426.268336  	0.591782 
428.197152  	0.583765 
430.125968  	0.584432 
432.054784  	0.578555 
433.983600  	0.575924 
435.912416  	0.569839 
437.841232  	0.567119 
439.770048  	0.565237 
441.698864  	0.567043 
443.627680  	0.558630 
445.556496  	0.558693 
447.485312  	0.553512 
449.414128  	0.551151 
451.342944  	0.552534 
453.271760  	0.557184 
455.200576  	0.558349 
457.129392  	0.558700 
459.058208  	0.551907 
460.987024  	0.557277 
462.915840  	0.557751 
464.844656  	0.555463 
466.773472  	0.553757 
468.702288  	0.555213 
470.631104  	0.551983 
472.559920  	0.552201 
474.488736  	0.545821 
476.417552  	0.545084 
478.346368  	0.541942 
480.275184  	0.542130 
482.204000  	0.540278 
484.132816  	0.538717 
486.061632  	0.536498 
487.990448  	0.540986 
489.919264  	0.539674 
491.848080  	0.537731 
493.776896  	0.532757 
495.705712  	0.532114 
497.634528  	0.532602 
499.563344  	0.533874 
501.492160  	0.530711 
503.420976  	0.531936 
505.349792  	0.530364 
507.278608  	0.529384 
509.207424  	0.527787 
511.136240  	0.528172 
513.065056  	0.528069 
514.993872  	0.532402 
516.922688  	0.533803 
518.851504  	0.536159 
520.780320  	0.535314 
522.709136  	0.534420 
524.637952  	0.531463 
526.566768  	0.530289 
528.495584  	0.529575 
530.424400  	0.531104 
532.353216  	0.525395 
534.282032  	0.517633 
536.210848  	0.508673 
538.139664  	0.503114 
540.068480  	0.499423 
541.997296  	0.495662 
543.926112  	0.490070 
545.854928  	0.486688 
547.783744  	0.482671 
549.712560  	0.479832 
551.641376  	0.475588 
553.570192  	0.471937 
555.499008  	0.467860 
557.427824  	0.465285 
559.356640  	0.462019 
561.285456  	0.459656 
563.214272  	0.455416 
565.143088  	0.452490 
567.071904  	0.448987 
569.000720  	0.445259 
570.929536  	0.440894 
572.858352  	0.438683 
574.787168  	0.435171 
576.715984  	0.432957 
578.644800  	0.429222 
580.573616  	0.424877 
582.502432  	0.419234 
584.431248  	0.416743 
586.360064  	0.413921 
588.288880  	0.410933 
590.217696  	0.408403 
592.146512  	0.406675 
594.075328  	0.402820 
596.004144  	0.399766 
597.932960  	0.397631 
599.861776  	0.396477 
601.790592  	0.394504 
603.719408  	0.393916 
605.648224  	0.392858 
607.577040  	0.391276 
609.505856  	0.389142 
611.434672  	0.387642 
613.363488  	0.385451 
615.292304  	0.384279 
617.221120  	0.382653 
619.149936  	0.381439 
621.078752  	0.379954 
623.007568  	0.379238 
624.936384  	0.378055 
626.865200  	0.376536 
628.794016  	0.374811 
630.722832  	0.373560 
632.651648  	0.373097 
634.580464  	0.373792 
636.509280  	0.374373 
638.438096  	0.374466 
640.366912  	0.373078 
642.295728  	0.371229 
644.224544  	0.368088 
646.153360  	0.363825 
648.082176  	0.358816 
650.010992  	0.354409 
651.939808  	0.350769 
653.868624  	0.347619 
655.797440  	0.343260 
657.726256  	0.338920 
659.655072  	0.334647 
661.583888  	0.330304 
663.512704  	0.326823 
665.441520  	0.324099 
667.370336  	0.315175 
669.299152  	0.308092 
671.227968  	0.309221 
673.156784  	0.306785 
675.085600  	0.304114 
677.014416  	0.301443 
678.943232  	0.298825 
680.872048  	0.297566 
682.800864  	0.296373 
684.729680  	0.294371 
686.658496  	0.292708 
688.587312  	0.291985 
690.516128  	0.290650 
692.444944  	0.289250 
694.373760  	0.288073 
696.302576  	0.286390 
698.231392  	0.284355 
700.160208  	0.281817 
702.089024  	0.279586 
704.017840  	0.277641 
705.946656  	0.275005 
707.875472  	0.272245 
709.804288  	0.269867 
711.733104  	0.267920 
713.661920  	0.266040 
715.590736  	0.265110 
717.519552  	0.264524 
719.448368  	0.264381 
721.377184  	0.264544 
723.306000  	0.265239 
725.234816  	0.266039 
727.163632  	0.265607 
729.092448  	0.263223 
731.021264  	0.259955 
732.950080  	0.256747 
734.878896  	0.253536 
736.807712  	0.250119 
738.736528  	0.247345 
740.665344  	0.245203 
742.594160  	0.243658 
744.522976  	0.242329 
746.451792  	0.240733 
748.380608  	0.238965 
750.309424  	0.237593 
752.238240  	0.236468 
754.167056  	0.235468 
756.095872  	0.234301 
758.024688  	0.233329 
759.953504  	0.232794 
761.882320  	0.233809 
763.811136  	0.234657 
765.739952  	0.233505 
767.668768  	0.230926 
769.597584  	0.228530 
771.526400  	0.227629 
773.455216  	0.229203 
775.384032  	0.233026 
777.312848  	0.238515 
779.241664  	0.242863 
781.170480  	0.243284 
783.099296  	0.239721 
785.028112  	0.234277 
786.956928  	0.227952 
788.885744  	0.222502 
790.814560  	0.218533 
792.743376  	0.215770 
794.672192  	0.214358 
796.601008  	0.213266 
798.529824  	0.210432 
800.458640  	0.206185 
802.387456  	0.202117 
804.316272  	0.199693 
806.245088  	0.198407 
808.173904  	0.197838 
810.102720  	0.197452 
812.031536  	0.197140 
813.960352  	0.197269 
815.889168  	0.197831 
817.817984  	0.198004 
819.746800  	0.198118 
821.675616  	0.198551 
823.604432  	0.198501 
825.533248  	0.197871 
827.462064  	0.196953 
829.390880  	0.195788 
831.319696  	0.194286 
833.248512  	0.192425 
835.177328  	0.190268 
837.106144  	0.187557 
839.034960  	0.184294 
840.963776  	0.180590 
842.892592  	0.176863 
844.821408  	0.173469 
846.750224  	0.170585 
848.679040  	0.168019 
850.607856  	0.165962 
852.536672  	0.164575 
854.465488  	0.163478 
856.394304  	0.162754 
858.323120  	0.162293 
860.251936  	0.161366 
862.180752  	0.159853 
864.109568  	0.158068 
866.038384  	0.156495 
867.967200  	0.154772 
869.896016  	0.153198 
871.824832  	0.152094 
873.753648  	0.151242 
875.682464  	0.151517 
877.611280  	0.153759 
879.540096  	0.156393 
881.468912  	0.157089 
883.397728  	0.157986 
885.326544  	0.158712 
887.255360  	0.159134 
889.184176  	0.159024 
891.112992  	0.158630 
893.041808  	0.156260 
894.970624  	0.152628 
896.899440  	0.149118 
898.828256  	0.144594 
900.757072  	0.139945 
902.685888  	0.136027 
904.614704  	0.133369 
906.543520  	0.132423 
908.472336  	0.132797 
910.401152  	0.134455 
912.329968  	0.136703 
914.258784  	0.139407 
916.187600  	0.141847 
918.116416  	0.143959 
920.045232  	0.145554 
921.974048  	0.146380 
923.902864  	0.146496 
925.831680  	0.146232 
927.760496  	0.146198 
929.689312  	0.146520 
931.618128  	0.147036 
933.546944  	0.147465 
935.475760  	0.147759 
937.404576  	0.147724 
939.333392  	0.147277 
941.262208  	0.147306 
943.191024  	0.149002 
945.119840  	0.153081 
947.048656  	0.159295 
948.977472  	0.167425 
950.906288  	0.177299 
952.835104  	0.188540 
954.763920  	0.200389 
956.692736  	0.211628 
958.621552  	0.221372 
960.550368  	0.228186 
962.479184  	0.231534 
964.408000  	0.230956 
966.336816  	0.226070 
968.265632  	0.217363 
970.194448  	0.205726 
972.123264  	0.192335 
974.052080  	0.178019 
975.980896  	0.164014 
977.909712  	0.150946 
979.838528  	0.139331 
981.767344  	0.129861 
983.696160  	0.122898 
985.624976  	0.118632 
987.553792  	0.117376 
989.482608  	0.119042 
991.411424  	0.123285 
993.340240  	0.129430 
995.269056  	0.137059 
997.197872  	0.145161 
999.126688  	0.153761 
1001.055504  	0.162676 
1002.984320  	0.171922 
1004.913136  	0.181145 
1006.841952  	0.189964 
1008.770768  	0.197781 
1010.699584  	0.204424 
1012.628400  	0.209365 
1014.557216  	0.212617 
1016.486032  	0.214469 
1018.414848  	0.215634 
1020.343664  	0.216228 
1022.272480  	0.216307 
1024.201296  	0.217549 
1026.130112  	0.221965 
1028.058928  	0.224746 
1029.987744  	0.223062 
1031.916560  	0.226011 
1033.845376  	0.232800 
1035.774192  	0.242523 
1037.703008  	0.252816 
1039.631824  	0.262479 
1041.560640  	0.275237 
1043.489456  	0.291643 
1045.418272  	0.310284 
1047.347088  	0.329969 
1049.275904  	0.347822 
1051.204720  	0.361964 
1053.133536  	0.370649 
1055.062352  	0.375675 
1056.991168  	0.377982 
1058.919984  	0.375164 
1060.848800  	0.369638 
1062.777616  	0.368905 
1064.706432  	0.371295 
1066.635248  	0.369349 
1068.564064  	0.357054 
1070.492880  	0.346961 
1072.421696  	0.340485 
1074.350512  	0.336198 
1076.279328  	0.333210 
1078.208144  	0.332953 
1080.136960  	0.333498 
1082.065776  	0.333830 
1083.994592  	0.331643 
1085.923408  	0.326799 
1087.852224  	0.318805 
1089.781040  	0.308693 
1091.709856  	0.295601 
1093.638672  	0.282761 
1095.567488  	0.269451 
1097.496304  	0.255606 
1099.425120  	0.241099 
1101.353936  	0.226645 
1103.282752  	0.211864 
1105.211568  	0.197038 
1107.140384  	0.182574 
1109.069200  	0.168634 
1110.998016  	0.155339 
1112.926832  	0.143426 
1114.855648  	0.132656 
1116.784464  	0.122539 
1118.713280  	0.112999 
1120.642096  	0.104453 
1122.570912  	0.096550 
1124.499728  	0.089266 
1126.428544  	0.082970 
1128.357360  	0.077237 
1130.286176  	0.072551 
1132.214992  	0.068313 
1134.143808  	0.064876 
1136.072624  	0.061941 
1138.001440  	0.059514 
1139.930256  	0.056757 
1141.859072  	0.053904 
1143.787888  	0.051124 
1145.716704  	0.048610 
1147.645520  	0.046073 
1149.574336  	0.044010 
1151.503152  	0.042531 
1153.431968  	0.041753 
1155.360784  	0.041823 
1157.289600  	0.042747 
1159.218416  	0.044030 
1161.147232  	0.046190 
1163.076048  	0.048602 
1165.004864  	0.051048 
1166.933680  	0.053318 
1168.862496  	0.055999 
1170.791312  	0.058773 
1172.720128  	0.062074 
1174.648944  	0.065291 
1176.577760  	0.068404 
1178.506576  	0.071283 
1180.435392  	0.074509 
1182.364208  	0.077735 
1184.293024  	0.081291 
1186.221840  	0.085239 
1188.150656  	0.089901 
1190.079472  	0.095200 
1192.008288  	0.101495 
1193.937104  	0.108786 
1195.865920  	0.117294 
1197.794736  	0.126897 
1199.723552  	0.137153 
1201.652368  	0.147509 
1203.581184  	0.158239 
1205.510000  	0.169036 
1207.438816  	0.179269 
1209.367632  	0.188944 
1211.296448  	0.197658 
1213.225264  	0.205374 
1215.154080  	0.211747 
1217.082896  	0.216888 
1219.011712  	0.220596 
1220.940528  	0.223944 
1222.869344  	0.226315 
1224.798160  	0.227678 
1226.726976  	0.227760 
1228.655792  	0.227143 
1230.584608  	0.225203 
1232.513424  	0.222080 
1234.442240  	0.217422 
1236.371056  	0.211955 
1238.299872  	0.205962 
1240.228688  	0.201595 
1242.157504  	0.195194 
1244.086320  	0.185904 
1246.015136  	0.178037 
1247.943952  	0.171271 
1249.872768  	0.163816 
1251.801584  	0.155112 
1253.730400  	0.146604 
1255.659216  	0.138412 
1257.588032  	0.130533 
1259.516848  	0.122796 
1261.445664  	0.115304 
1263.374480  	0.108019 
1265.303296  	0.101658 
1267.232112  	0.096149 
1269.160928  	0.091761 
1271.089744  	0.088222 
1273.018560  	0.085880 
1274.947376  	0.084533 
1276.876192  	0.084021 
1278.805008  	0.083340 
1280.733824  	0.081660 
1282.662640  	0.078923 
1284.591456  	0.075994 
1286.520272  	0.073429 
1288.449088  	0.071686 
1290.377904  	0.070517 
1292.306720  	0.070426 
1294.235536  	0.070384 
1296.164352  	0.069412 
1298.093168  	0.066784 
1300.021984  	0.063577 
1301.950800  	0.060198 
1303.879616  	0.057031 
1305.808432  	0.053567 
1307.737248  	0.050237 
1309.666064  	0.046949 
1311.594880  	0.044711 
1313.523696  	0.042960 
1315.452512  	0.041698 
1317.381328  	0.040982 
1319.310144  	0.040785 
1321.238960  	0.040878 
1323.167776  	0.041580 
1325.096592  	0.042415 
1327.025408  	0.043033 
1328.954224  	0.043083 
1330.883040  	0.042759 
1332.811856  	0.041891 
1334.740672  	0.041536 
1336.669488  	0.042032 
1338.598304  	0.042769 
1340.527120  	0.041119 
1342.455936  	0.038889 
1344.384752  	0.038439 
1346.313568  	0.039053 
1348.242384  	0.040087 
1350.171200  	0.041762 
1352.100016  	0.043994 
1354.028832  	0.046867 
1355.957648  	0.049502 
1357.886464  	0.052487 
1359.815280  	0.055938 
1361.744096  	0.059777 
1363.672912  	0.062270 
1365.601728  	0.064309 
1367.530544  	0.067081 
1369.459360  	0.069300 
1371.388176  	0.070806 
1373.316992  	0.071371 
1375.245808  	0.069783 
1377.174624  	0.068720 
1379.103440  	0.067136 
1381.032256  	0.064755 
1382.961072  	0.062429 
1384.889888  	0.060930 
1386.818704  	0.058791 
1388.747520  	0.055225 
1390.676336  	0.054555 
1392.605152  	0.057873 
1394.533968  	0.058208 
1396.462784  	0.053454 
1398.391600  	0.052077 
1400.320416  	0.052719 
1402.249232  	0.055290 
1404.178048  	0.058020 
1406.106864  	0.059539 
1408.035680  	0.060878 
1409.964496  	0.062172 
1411.893312  	0.062879 
1413.822128  	0.063335 
1415.750944  	0.064943 
1417.679760  	0.065507 
1419.608576  	0.061961 
1421.537392  	0.060647 
1423.466208  	0.059905 
1425.395024  	0.057100 
1427.323840  	0.054974 
1429.252656  	0.051587 
1431.181472  	0.049187 
1433.110288  	0.049263 
1435.039104  	0.050064 
1436.967920  	0.049078 
1438.896736  	0.049471 
1440.825552  	0.050764 
1442.754368  	0.051341 
1444.683184  	0.051584 
1446.612000  	0.051666 
1448.540816  	0.051688 
1450.469632  	0.052996 
1452.398448  	0.053996 
1454.327264  	0.054730 
1456.256080  	0.052023 
1458.184896  	0.047038 
1460.113712  	0.048709 
1462.042528  	0.050477 
1463.971344  	0.049835 
1465.900160  	0.050164 
1467.828976  	0.053408 
1469.757792  	0.057129 
1471.686608  	0.060247 
1473.615424  	0.066145 
1475.544240  	0.073627 
1477.473056  	0.079768 
1479.401872  	0.083913 
1481.330688  	0.087083 
1483.259504  	0.089023 
1485.188320  	0.090443 
1487.117136  	0.089997 
1489.045952  	0.089018 
1490.974768  	0.085147 
1492.903584  	0.082632 
1494.832400  	0.078878 
1496.761216  	0.070782 
1498.690032  	0.063941 
1500.618848  	0.060097 
1502.547664  	0.056173 
1504.476480  	0.051201 
1506.405296  	0.043596 
1508.334112  	0.041918 
1510.262928  	0.042233 
1512.191744  	0.039722 
1514.120560  	0.038388 
1516.049376  	0.037360 
1517.978192  	0.035805 
1519.907008  	0.037082 
1521.835824  	0.036638 
1523.764640  	0.041591 
1525.693456  	0.046797 
1527.622272  	0.049246 
1529.551088  	0.050122 
1531.479904  	0.049956 
1533.408720  	0.044872 
1535.337536  	0.041775 
1537.266352  	0.039892 
1539.195168  	0.030124 
1541.123984  	0.021929 
1543.052800  	0.026339 
1544.981616  	0.027659 
1546.910432  	0.027179 
1548.839248  	0.027833 
1550.768064  	0.027896 
1552.696880  	0.027448 
1554.625696  	0.027461 
1556.554512  	0.027059 
1558.483328  	0.022706 
1560.412144  	0.027894 
1562.340960  	0.037207 
1564.269776  	0.041647 
1566.198592  	0.047406 
1568.127408  	0.051842 
1570.056224  	0.056853 
1571.985040  	0.065358 
1573.913856  	0.070737 
1575.842672  	0.070828 
1577.771488  	0.074421 
1579.700304  	0.077656 
1581.629120  	0.077771 
1583.557936  	0.077174 
1585.486752  	0.077920 
1587.415568  	0.080444 
1589.344384  	0.085267 
1591.273200  	0.091594 
1593.202016  	0.099334 
1595.130832  	0.107487 
1597.059648  	0.116209 
1598.988464  	0.123649 
1600.917280  	0.130085 
1602.846096  	0.134345 
1604.774912  	0.137148 
1606.703728  	0.137424 
1608.632544  	0.136245 
1610.561360  	0.134039 
1612.490176  	0.132664 
1614.418992  	0.130151 
1616.347808  	0.125907 
1618.276624  	0.127548 
1620.205440  	0.133601 
1622.134256  	0.136550 
1624.063072  	0.142204 
1625.991888  	0.150415 
1627.920704  	0.159137 
1629.849520  	0.170147 
1631.778336  	0.181071 
1633.707152  	0.187958 
1635.635968  	0.194393 
1637.564784  	0.206262 
1639.493600  	0.216299 
1641.422416  	0.222521 
1643.351232  	0.226984 
1645.280048  	0.226709 
1647.208864  	0.224472 
1649.137680  	0.227092 
1651.066496  	0.228259 
1652.995312  	0.217857 
1654.924128  	0.217149 
1656.852944  	0.219824 
1658.781760  	0.218115 
1660.710576  	0.213684 
1662.639392  	0.206928 
1664.568208  	0.202982 
1666.497024  	0.201027 
1668.425840  	0.194170 
1670.354656  	0.185617 
1672.283472  	0.182935 
1674.212288  	0.179780 
1676.141104  	0.174338 
1678.069920  	0.174324 
1679.998736  	0.173698 
1681.927552  	0.171726 
1683.856368  	0.164250 
1685.785184  	0.163207 
1687.714000  	0.167117 
1689.642816  	0.166509 
1691.571632  	0.164453 
1693.500448  	0.163140 
1695.429264  	0.157368 
1697.358080  	0.153514 
1699.286896  	0.150990 
1701.215712  	0.144580 
1703.144528  	0.145101 
1705.073344  	0.140257 
1707.002160  	0.133705 
1708.930976  	0.129786 
1710.859792  	0.123746 
1712.788608  	0.116683 
1714.717424  	0.107375 
1716.646240  	0.094783 
1718.575056  	0.080240 
1720.503872  	0.073425 
1722.432688  	0.066945 
1724.361504  	0.057065 
1726.290320  	0.048979 
1728.219136  	0.042409 
1730.147952  	0.036550 
1732.076768  	0.031250 
1734.005584  	0.022670 
1735.934400  	0.017452 
1737.863216  	0.017872 
1739.792032  	0.013559 
1741.720848  	0.012672 
1743.649664  	0.012574 
1745.578480  	0.011621 
1747.507296  	0.009580 
1749.436112  	0.008572 
1751.364928  	0.007322 
1753.293744  	0.006605 
1755.222560  	0.006470 
1757.151376  	0.005785 
1759.080192  	0.005255 
1761.009008  	0.004398 
1762.937824  	0.002726 
1764.866640  	0.003537 
1766.795456  	0.004148 
1768.724272  	0.003450 
1770.653088  	0.000585 
1772.581904  	-0.002624 
1774.510720  	-0.000702 
1776.439536  	0.001469 
1778.368352  	0.001849 
1780.297168  	0.001369 
1782.225984  	0.000753 
1784.154800  	0.001463 
1786.083616  	0.000726 
1788.012432  	0.000881 
1789.941248  	0.001211 
1791.870064  	-0.000758 
1793.798880  	-0.002116 
1795.727696  	0.000039 
1797.656512  	-0.000370 
1799.585328  	-0.000772 
1801.514144  	-0.000308 
1803.442960  	-0.000455 
1805.371776  	-0.001223 
1807.300592  	-0.000848 
1809.229408  	-0.001416 
1811.158224  	-0.001764 
1813.087040  	-0.001852 
1815.015856  	-0.001501 
1816.944672  	-0.001433 
1818.873488  	-0.001566 
1820.802304  	-0.001740 
1822.731120  	-0.000803 
1824.659936  	-0.001419 
1826.588752  	-0.002072 
1828.517568  	-0.002932 
1830.446384  	-0.003622 
1832.375200  	-0.002551 
1834.304016  	-0.001733 
1836.232832  	-0.001998 
1838.161648  	-0.001886 
1840.090464  	-0.001947 
1842.019280  	-0.001101 
1843.948096  	-0.002520 
1845.876912  	-0.002473 
1847.805728  	-0.001712 
1849.734544  	-0.002012 
1851.663360  	-0.002482 
1853.592176  	-0.002514 
1855.520992  	-0.002787 
1857.449808  	-0.002217 
1859.378624  	-0.002094 
1861.307440  	-0.002184 
1863.236256  	-0.002689 
1865.165072  	-0.002446 
1867.093888  	-0.002821 
1869.022704  	-0.003124 
1870.951520  	-0.002945 
1872.880336  	-0.002503 
1874.809152  	-0.002909 
1876.737968  	-0.002722 
1878.666784  	-0.002995 
1880.595600  	-0.002629 
1882.524416  	-0.002877 
1884.453232  	-0.002581 
1886.382048  	-0.002851 
1888.310864  	-0.002706 
1890.239680  	-0.003223 
1892.168496  	-0.002678 
1894.097312  	-0.002563 
1896.026128  	-0.002109 
1897.954944  	-0.002233 
1899.883760  	-0.002192 
1901.812576  	-0.002576 
1903.741392  	-0.002754 
1905.670208  	-0.002652 
1907.599024  	-0.001827 
1909.527840  	-0.001971 
1911.456656  	-0.001790 
1913.385472  	-0.002023 
1915.314288  	-0.001367 
1917.243104  	-0.001836 
1919.171920  	-0.002295 
1921.100736  	-0.002137 
1923.029552  	-0.001251 
1924.958368  	-0.002017 
1926.887184  	-0.002178 
1928.816000  	-0.002558 
1930.744816  	-0.001939 
1932.673632  	-0.001721 
1934.602448  	-0.001274 
1936.531264  	-0.001561 
1938.460080  	-0.001334 
1940.388896  	-0.001741 
1942.317712  	-0.001728 
1944.246528  	-0.002493 
1946.175344  	-0.001879 
1948.104160  	-0.002890 
1950.032976  	-0.002399 
1951.961792  	-0.002011 
1953.890608  	-0.001675 
1955.819424  	-0.002366 
1957.748240  	-0.002378 
1959.677056  	-0.003392 
1961.605872  	-0.002945 
1963.534688  	-0.003412 
1965.463504  	-0.002333 
1967.392320  	-0.003286 
1969.321136  	-0.003109 
1971.249952  	-0.003150 
1973.178768  	-0.002215 
1975.107584  	-0.002773 
1977.036400  	-0.002066 
1978.965216  	-0.001225 
1980.894032  	-0.001319 
1982.822848  	-0.002257 
1984.751664  	-0.001774 
1986.680480  	-0.002629 
1988.609296  	-0.002143 
1990.538112  	-0.003239 
1992.466928  	-0.002697 
1994.395744  	-0.002761 
1996.324560  	-0.002553 
1998.253376  	-0.003126 
2000.182192  	-0.003208 
2002.111008  	-0.003219 
2004.039824  	-0.001932 
2005.968640  	-0.002426 
2007.897456  	-0.002211 
2009.826272  	-0.002935 
2011.755088  	-0.002086 
2013.683904  	-0.002367 
2015.612720  	-0.001952 
2017.541536  	-0.002928 
2019.470352  	-0.001729 
2021.399168  	-0.002782 
2023.327984  	-0.002876 
2025.256800  	-0.001916 
2027.185616  	-0.000829 
2029.114432  	-0.001252 
2031.043248  	-0.001153 
2032.972064  	-0.001362 
2034.900880  	-0.000533 
2036.829696  	-0.001263 
2038.758512  	-0.001014 
2040.687328  	-0.001541 
2042.616144  	-0.000501 
2044.544960  	-0.001459 
2046.473776  	-0.001791 
2048.402592  	-0.001683 
2050.331408  	-0.001626 
2052.260224  	-0.002847 
2054.189040  	-0.003077 
2056.117856  	-0.003347 
2058.046672  	-0.002995 
2059.975488  	-0.003434 
2061.904304  	-0.003264 
2063.833120  	-0.002940 
2065.761936  	-0.002087 
2067.690752  	-0.002630 
2069.619568  	-0.002284 
2071.548384  	-0.001821 
2073.477200  	-0.001871 
2075.406016  	-0.002180 
2077.334832  	-0.001801 
2079.263648  	-0.001680 
2081.192464  	-0.001491 
2083.121280  	-0.001804 
2085.050096  	-0.002104 
2086.978912  	-0.002240 
2088.907728  	-0.001629 
2090.836544  	-0.001833 
2092.765360  	-0.001713 
2094.694176  	-0.001232 
2096.622992  	-0.001247 
2098.551808  	-0.001711 
2100.480624  	-0.001322 
2102.409440  	-0.001204 
2104.338256  	-0.001343 
2106.267072  	-0.001467 
2108.195888  	-0.001256 
2110.124704  	-0.001314 
2112.053520  	-0.000984 
2113.982336  	-0.000817 
2115.911152  	-0.000855 
2117.839968  	-0.001352 
2119.768784  	-0.001238 
2121.697600  	-0.001570 
2123.626416  	-0.001645 
2125.555232  	-0.001943 
2127.484048  	-0.001825 
2129.412864  	-0.002004 
2131.341680  	-0.001772 
2133.270496  	-0.001829 
2135.199312  	-0.000881 
2137.128128  	-0.000384 
2139.056944  	0.000138 
2140.985760  	-0.000845 
2142.914576  	-0.000786 
2144.843392  	-0.000415 
2146.772208  	-0.000174 
2148.701024  	-0.000977 
2150.629840  	-0.000235 
2152.558656  	-0.000340 
2154.487472  	-0.000192 
2156.416288  	0.000062 
2158.345104  	0.000852 
2160.273920  	0.002105 
2162.202736  	0.002829 
2164.131552  	0.001622 
2166.060368  	0.001559 
2167.989184  	0.001634 
2169.918000  	0.002308 
2171.846816  	0.001329 
2173.775632  	0.001536 
2175.704448  	0.001340 
2177.633264  	0.001342 
2179.562080  	0.001042 
2181.490896  	0.000559 
2183.419712  	-0.000783 
2185.348528  	-0.000348 
2187.277344  	-0.000443 
2189.206160  	-0.000244 
2191.134976  	-0.000057 
2193.063792  	0.000400 
2194.992608  	0.000476 
2196.921424  	0.000273 
2198.850240  	-0.000301 
2200.779056  	-0.000563 
2202.707872  	-0.001290 
2204.636688  	-0.001393 
2206.565504  	-0.001405 
2208.494320  	-0.001192 
2210.423136  	-0.001366 
2212.351952  	-0.001319 
2214.280768  	-0.002235 
2216.209584  	-0.002420 
2218.138400  	-0.002551 
2220.067216  	-0.001995 
2221.996032  	-0.001887 
2223.924848  	-0.001572 
2225.853664  	-0.001303 
2227.782480  	-0.001232 
2229.711296  	-0.002025 
2231.640112  	-0.002559 
2233.568928  	-0.002701 
2235.497744  	-0.002110 
2237.426560  	-0.002725 
2239.355376  	-0.002865 
2241.284192  	-0.002502 
2243.213008  	-0.002171 
2245.141824  	-0.002659 
2247.070640  	-0.002537 
2248.999456  	-0.002446 
2250.928272  	-0.002771 
2252.857088  	-0.003199 
2254.785904  	-0.003213 
2256.714720  	-0.003683 
2258.643536  	-0.003581 
2260.572352  	-0.003638 
2262.501168  	-0.003681 
2264.429984  	-0.003700 
2266.358800  	-0.003502 
2268.287616  	-0.003394 
2270.216432  	-0.003106 
2272.145248  	-0.003330 
2274.074064  	-0.003350 
2276.002880  	-0.003096 
2277.931696  	-0.002880 
2279.860512  	-0.003001 
2281.789328  	-0.002728 
2283.718144  	-0.002502 
2285.646960  	-0.002366 
2287.575776  	-0.002611 
2289.504592  	-0.002965 
2291.433408  	-0.003092 
2293.362224  	-0.002839 
2295.291040  	-0.002554 
2297.219856  	-0.002296 
2299.148672  	-0.002461 
2301.077488  	-0.002373 
2303.006304  	-0.002461 
2304.935120  	-0.002552 
2306.863936  	-0.002854 
2308.792752  	-0.003282 
2310.721568  	-0.004056 
2312.650384  	-0.004967 
2314.579200  	-0.006227 
2316.508016  	-0.007541 
2318.436832  	-0.009168 
2320.365648  	-0.011382 
2322.294464  	-0.013553 
2324.223280  	-0.015721 
2326.152096  	-0.018547 
2328.080912  	-0.020824 
2330.009728  	-0.023169 
2331.938544  	-0.025578 
2333.867360  	-0.027339 
2335.796176  	-0.028772 
2337.724992  	-0.030213 
2339.653808  	-0.030662 
2341.582624  	-0.031020 
2343.511440  	-0.029637 
2345.440256  	-0.026110 
2347.369072  	-0.018942 
2349.297888  	-0.015123 
2351.226704  	-0.019153 
2353.155520  	-0.026768 
2355.084336  	-0.033096 
2357.013152  	-0.038086 
2358.941968  	-0.040927 
2360.870784  	-0.042420 
2362.799600  	-0.041342 
2364.728416  	-0.038871 
2366.657232  	-0.034937 
2368.586048  	-0.029943 
2370.514864  	-0.024550 
2372.443680  	-0.019499 
2374.372496  	-0.014587 
2376.301312  	-0.010346 
2378.230128  	-0.006689 
2380.158944  	-0.004409 
2382.087760  	-0.003347 
2384.016576  	-0.003094 
2385.945392  	-0.003165 
2387.874208  	-0.003233 
2389.803024  	-0.003396 
2391.731840  	-0.003774 
2393.660656  	-0.003854 
2395.589472  	-0.003799 
2397.518288  	-0.003548 
2399.447104  	-0.003628 
2401.375920  	-0.003707 
2403.304736  	-0.003901 
2405.233552  	-0.003836 
2407.162368  	-0.003797 
2409.091184  	-0.003675 
2411.020000  	-0.003758 
2412.948816  	-0.003786 
2414.877632  	-0.003557 
2416.806448  	-0.003250 
2418.735264  	-0.003333 
2420.664080  	-0.003634 
2422.592896  	-0.003860 
2424.521712  	-0.003833 
2426.450528  	-0.003743 
2428.379344  	-0.003484 
2430.308160  	-0.003364 
2432.236976  	-0.003296 
2434.165792  	-0.003492 
2436.094608  	-0.003567 
2438.023424  	-0.003354 
2439.952240  	-0.003064 
2441.881056  	-0.003030 
2443.809872  	-0.002920 
2445.738688  	-0.002782 
2447.667504  	-0.002643 
2449.596320  	-0.002678 
2451.525136  	-0.002558 
2453.453952  	-0.002587 
2455.382768  	-0.002582 
2457.311584  	-0.002743 
2459.240400  	-0.002890 
2461.169216  	-0.002980 
2463.098032  	-0.003120 
2465.026848  	-0.003170 
2466.955664  	-0.003143 
2468.884480  	-0.003294 
2470.813296  	-0.003283 
2472.742112  	-0.003258 
2474.670928  	-0.003172 
2476.599744  	-0.003148 
2478.528560  	-0.002922 
2480.457376  	-0.002808 
2482.386192  	-0.002782 
2484.315008  	-0.002743 
2486.243824  	-0.002662 
2488.172640  	-0.002673 
2490.101456  	-0.002510 
2492.030272  	-0.002282 
2493.959088  	-0.002154 
2495.887904  	-0.002178 
2497.816720  	-0.002206 
2499.745536  	-0.002128 
2501.674352  	-0.002005 
2503.603168  	-0.001884 
2505.531984  	-0.001904 
2507.460800  	-0.002157 
2509.389616  	-0.002079 
2511.318432  	-0.001909 
2513.247248  	-0.001849 
2515.176064  	-0.001957 
2517.104880  	-0.001803 
2519.033696  	-0.001909 
2520.962512  	-0.001907 
2522.891328  	-0.001765 
2524.820144  	-0.001693 
2526.748960  	-0.001637 
2528.677776  	-0.001558 
2530.606592  	-0.001757 
2532.535408  	-0.001664 
2534.464224  	-0.001507 
2536.393040  	-0.001427 
2538.321856  	-0.001407 
2540.250672  	-0.001185 
2542.179488  	-0.001259 
2544.108304  	-0.001294 
2546.037120  	-0.001245 
2547.965936  	-0.001169 
2549.894752  	-0.001149 
2551.823568  	-0.001141 
2553.752384  	-0.001001 
2555.681200  	-0.000502 
2557.610016  	-0.000376 
2559.538832  	-0.000306 
2561.467648  	-0.000261 
2563.396464  	-0.000287 
2565.325280  	-0.000258 
2567.254096  	-0.000215 
2569.182912  	-0.000331 
2571.111728  	-0.000222 
2573.040544  	-0.000084 
2574.969360  	-0.000061 
2576.898176  	0.000215 
2578.826992  	0.000341 
2580.755808  	0.000274 
2582.684624  	0.000374 
2584.613440  	0.000509 
2586.542256  	0.000593 
2588.471072  	0.000707 
2590.399888  	0.000803 
2592.328704  	0.000795 
2594.257520  	0.000782 
2596.186336  	0.000973 
2598.115152  	0.001112 
2600.043968  	0.000984 
2601.972784  	0.001074 
2603.901600  	0.001280 
2605.830416  	0.001558 
2607.759232  	0.001694 
2609.688048  	0.001720 
2611.616864  	0.001809 
2613.545680  	0.002031 
2615.474496  	0.002221 
2617.403312  	0.002316 
2619.332128  	0.002550 
2621.260944  	0.002736 
2623.189760  	0.002704 
2625.118576  	0.002778 
2627.047392  	0.002860 
2628.976208  	0.003137 
2630.905024  	0.003332 
2632.833840  	0.003422 
2634.762656  	0.003526 
2636.691472  	0.003534 
2638.620288  	0.003527 
2640.549104  	0.003727 
2642.477920  	0.003846 
2644.406736  	0.004033 
2646.335552  	0.004227 
2648.264368  	0.004353 
2650.193184  	0.004434 
2652.122000  	0.004714 
2654.050816  	0.004943 
2655.979632  	0.005099 
2657.908448  	0.005245 
2659.837264  	0.005352 
2661.766080  	0.005418 
2663.694896  	0.005467 
2665.623712  	0.005558 
2667.552528  	0.005878 
2669.481344  	0.006088 
2671.410160  	0.006250 
2673.338976  	0.006443 
2675.267792  	0.006581 
2677.196608  	0.006794 
2679.125424  	0.006982 
2681.054240  	0.007120 
2682.983056  	0.007292 
2684.911872  	0.007357 
2686.840688  	0.007501 
2688.769504  	0.007643 
2690.698320  	0.007706 
2692.627136  	0.007747 
2694.555952  	0.007931 
2696.484768  	0.008055 
2698.413584  	0.008097 
2700.342400  	0.008220 
2702.271216  	0.008519 
2704.200032  	0.008790 
2706.128848  	0.008946 
2708.057664  	0.009077 
2709.986480  	0.009258 
2711.915296  	0.009430 
2713.844112  	0.009662 
2715.772928  	0.009810 
2717.701744  	0.010025 
2719.630560  	0.010356 
2721.559376  	0.010608 
2723.488192  	0.010740 
2725.417008  	0.010986 
2727.345824  	0.011244 
2729.274640  	0.011523 
2731.203456  	0.011745 
2733.132272  	0.012055 
2735.061088  	0.012380 
2736.989904  	0.012669 
2738.918720  	0.012807 
2740.847536  	0.012935 
2742.776352  	0.013087 
2744.705168  	0.013298 
2746.633984  	0.013536 
2748.562800  	0.013680 
2750.491616  	0.013746 
2752.420432  	0.013966 
2754.349248  	0.013967 
2756.278064  	0.013918 
2758.206880  	0.013868 
2760.135696  	0.013878 
2762.064512  	0.013958 
2763.993328  	0.014085 
2765.922144  	0.014154 
2767.850960  	0.014173 
2769.779776  	0.014273 
2771.708592  	0.014424 
2773.637408  	0.014441 
2775.566224  	0.014460 
2777.495040  	0.014548 
2779.423856  	0.014797 
2781.352672  	0.014900 
2783.281488  	0.014877 
2785.210304  	0.014868 
2787.139120  	0.015007 
2789.067936  	0.015223 
2790.996752  	0.015471 
2792.925568  	0.015549 
2794.854384  	0.015619 
2796.783200  	0.015714 
2798.712016  	0.015787 
2800.640832  	0.015859 
2802.569648  	0.016112 
2804.498464  	0.016326 
2806.427280  	0.016254 
2808.356096  	0.016347 
2810.284912  	0.016586 
2812.213728  	0.016719 
2814.142544  	0.016875 
2816.071360  	0.017048 
2818.000176  	0.017115 
2819.928992  	0.017282 
2821.857808  	0.017519 
2823.786624  	0.017669 
2825.715440  	0.017807 
2827.644256  	0.017925 
2829.573072  	0.018030 
2831.501888  	0.018177 
2833.430704  	0.018311 
2835.359520  	0.018453 
2837.288336  	0.018765 
2839.217152  	0.019105 
2841.145968  	0.019433 
2843.074784  	0.019866 
2845.003600  	0.020223 
2846.932416  	0.020626 
2848.861232  	0.021398 
2850.790048  	0.022245 
2852.718864  	0.023073 
2854.647680  	0.024011 
2856.576496  	0.025043 
2858.505312  	0.026164 
2860.434128  	0.027494 
2862.362944  	0.028909 
2864.291760  	0.030278 
2866.220576  	0.031634 
2868.149392  	0.032904 
2870.078208  	0.033939 
2872.007024  	0.034951 
2873.935840  	0.035961 
2875.864656  	0.037206 
2877.793472  	0.038835 
2879.722288  	0.040748 
2881.651104  	0.042884 
2883.579920  	0.044702 
2885.508736  	0.045595 
2887.437552  	0.045742 
2889.366368  	0.046212 
2891.295184  	0.047149 
2893.224000  	0.047782 
2895.152816  	0.048021 
2897.081632  	0.048663 
2899.010448  	0.051238 
2900.939264  	0.053659 
2902.868080  	0.052177 
2904.796896  	0.050537 
2906.725712  	0.050279 
2908.654528  	0.050332 
2910.583344  	0.050699 
2912.512160  	0.050345 
2914.440976  	0.049529 
2916.369792  	0.049341 
2918.298608  	0.049689 
2920.227424  	0.050339 
2922.156240  	0.050963 
2924.085056  	0.051263 
2926.013872  	0.051636 
2927.942688  	0.052328 
2929.871504  	0.052889 
2931.800320  	0.053103 
2933.729136  	0.053600 
2935.657952  	0.054404 
2937.586768  	0.055156 
2939.515584  	0.056125 
2941.444400  	0.057191 
2943.373216  	0.058196 
2945.302032  	0.058792 
2947.230848  	0.059086 
2949.159664  	0.059698 
2951.088480  	0.060876 
2953.017296  	0.062048 
2954.946112  	0.062906 
2956.874928  	0.063876 
2958.803744  	0.064688 
2960.732560  	0.065421 
2962.661376  	0.066199 
2964.590192  	0.067276 
2966.519008  	0.068763 
2968.447824  	0.070149 
2970.376640  	0.070997 
2972.305456  	0.071278 
2974.234272  	0.070674 
2976.163088  	0.070154 
2978.091904  	0.069776 
2980.020720  	0.069528 
2981.949536  	0.069372 
2983.878352  	0.069906 
2985.807168  	0.071131 
2987.735984  	0.072293 
2989.664800  	0.071499 
2991.593616  	0.066809 
2993.522432  	0.064243 
2995.451248  	0.063738 
2997.380064  	0.062776 
2999.308880  	0.061456 
3001.237696  	0.060036 
3003.166512  	0.058473 
3005.095328  	0.056914 
3007.024144  	0.055336 
3008.952960  	0.053828 
3010.881776  	0.052433 
3012.810592  	0.051025 
3014.739408  	0.049692 
3016.668224  	0.048461 
3018.597040  	0.047483 
3020.525856  	0.046545 
3022.454672  	0.045747 
3024.383488  	0.045082 
3026.312304  	0.044384 
3028.241120  	0.043906 
3030.169936  	0.043529 
3032.098752  	0.043195 
3034.027568  	0.042923 
3035.956384  	0.042792 
3037.885200  	0.042821 
3039.814016  	0.042816 
3041.742832  	0.042930 
3043.671648  	0.043018 
3045.600464  	0.043158 
3047.529280  	0.043486 
3049.458096  	0.043811 
3051.386912  	0.044348 
3053.315728  	0.044906 
3055.244544  	0.045394 
3057.173360  	0.046070 
3059.102176  	0.046590 
3061.030992  	0.047180 
3062.959808  	0.048037 
3064.888624  	0.048721 
3066.817440  	0.049460 
3068.746256  	0.050577 
3070.675072  	0.051679 
3072.603888  	0.052504 
3074.532704  	0.053385 
3076.461520  	0.054289 
3078.390336  	0.055200 
3080.319152  	0.055999 
3082.247968  	0.056868 
3084.176784  	0.057772 
3086.105600  	0.058754 
3088.034416  	0.059730 
3089.963232  	0.060676 
3091.892048  	0.061603 
3093.820864  	0.062522 
3095.749680  	0.063379 
3097.678496  	0.064386 
3099.607312  	0.065454 
3101.536128  	0.066489 
3103.464944  	0.067434 
3105.393760  	0.068126 
3107.322576  	0.068998 
3109.251392  	0.070139 
3111.180208  	0.071032 
3113.109024  	0.071635 
3115.037840  	0.072273 
3116.966656  	0.073230 
3118.895472  	0.074051 
3120.824288  	0.074763 
3122.753104  	0.075546 
3124.681920  	0.076266 
3126.610736  	0.076853 
3128.539552  	0.077621 
3130.468368  	0.078466 
3132.397184  	0.079101 
3134.326000  	0.079805 
3136.254816  	0.080580 
3138.183632  	0.081437 
3140.112448  	0.082098 
3142.041264  	0.082730 
3143.970080  	0.083572 
3145.898896  	0.084335 
3147.827712  	0.085080 
3149.756528  	0.085804 
3151.685344  	0.086444 
3153.614160  	0.087204 
3155.542976  	0.088084 
3157.471792  	0.088879 
3159.400608  	0.089612 
3161.329424  	0.090286 
3163.258240  	0.090769 
3165.187056  	0.091412 
3167.115872  	0.092123 
3169.044688  	0.092640 
3170.973504  	0.093133 
3172.902320  	0.093706 
3174.831136  	0.094321 
3176.759952  	0.094871 
3178.688768  	0.095264 
3180.617584  	0.095681 
3182.546400  	0.096012 
3184.475216  	0.096326 
3186.404032  	0.096422 
3188.332848  	0.096633 
3190.261664  	0.096921 
3192.190480  	0.097264 
3194.119296  	0.097395 
3196.048112  	0.097369 
3197.976928  	0.097351 
3199.905744  	0.097464 
3201.834560  	0.097462 
3203.763376  	0.097398 
3205.692192  	0.097371 
3207.621008  	0.097341 
3209.549824  	0.097146 
3211.478640  	0.097141 
3213.407456  	0.097128 
3215.336272  	0.096922 
3217.265088  	0.096687 
3219.193904  	0.096479 
3221.122720  	0.096454 
3223.051536  	0.096220 
3224.980352  	0.095878 
3226.909168  	0.095664 
3228.837984  	0.095441 
3230.766800  	0.095255 
3232.695616  	0.095250 
3234.624432  	0.095059 
3236.553248  	0.094924 
3238.482064  	0.094982 
3240.410880  	0.094997 
3242.339696  	0.095034 
3244.268512  	0.094737 
3246.197328  	0.094713 
3248.126144  	0.095129 
3250.054960  	0.095355 
3251.983776  	0.095486 
3253.912592  	0.095603 
3255.841408  	0.095784 
3257.770224  	0.096174 
3259.699040  	0.096491 
3261.627856  	0.096609 
3263.556672  	0.096787 
3265.485488  	0.097109 
3267.414304  	0.097346 
3269.343120  	0.097720 
3271.271936  	0.098096 
3273.200752  	0.098113 
3275.129568  	0.098176 
3277.058384  	0.098496 
3278.987200  	0.098709 
3280.916016  	0.098977 
3282.844832  	0.099334 
3284.773648  	0.099505 
3286.702464  	0.099649 
3288.631280  	0.099931 
3290.560096  	0.100290 
3292.488912  	0.100611 
3294.417728  	0.100910 
3296.346544  	0.101400 
3298.275360  	0.101725 
3300.204176  	0.101905 
3302.132992  	0.102346 
3304.061808  	0.102798 
3305.990624  	0.103218 
3307.919440  	0.103688 
3309.848256  	0.103906 
3311.777072  	0.104241 
3313.705888  	0.104852 
3315.634704  	0.105350 
3317.563520  	0.105658 
3319.492336  	0.105982 
3321.421152  	0.106142 
3323.349968  	0.106456 
3325.278784  	0.106731 
3327.207600  	0.106872 
3329.136416  	0.106856 
3331.065232  	0.106947 
3332.994048  	0.107050 
3334.922864  	0.107267 
3336.851680  	0.107364 
3338.780496  	0.107212 
3340.709312  	0.106940 
3342.638128  	0.106794 
3344.566944  	0.106260 
3346.495760  	0.105920 
3348.424576  	0.105733 
3350.353392  	0.105456 
3352.282208  	0.105182 
3354.211024  	0.104852 
3356.139840  	0.104447 
3358.068656  	0.104128 
3359.997472  	0.103766 
3361.926288  	0.103326 
3363.855104  	0.102745 
3365.783920  	0.102016 
3367.712736  	0.101650 
3369.641552  	0.101439 
3371.570368  	0.100952 
3373.499184  	0.100398 
3375.428000  	0.099967 
3377.356816  	0.099643 
3379.285632  	0.099384 
3381.214448  	0.098937 
3383.143264  	0.098621 
3385.072080  	0.098364 
3387.000896  	0.097906 
3388.929712  	0.097360 
3390.858528  	0.096847 
3392.787344  	0.096360 
3394.716160  	0.095854 
3396.644976  	0.095388 
3398.573792  	0.094980 
3400.502608  	0.094374 
3402.431424  	0.093607 
3404.360240  	0.092945 
3406.289056  	0.092417 
3408.217872  	0.091941 
3410.146688  	0.091459 
3412.075504  	0.090967 
3414.004320  	0.090339 
3415.933136  	0.089830 
3417.861952  	0.089135 
3419.790768  	0.088625 
3421.719584  	0.088198 
3423.648400  	0.087523 
3425.577216  	0.086568 
3427.506032  	0.085782 
3429.434848  	0.085180 
3431.363664  	0.084580 
3433.292480  	0.083872 
3435.221296  	0.083179 
3437.150112  	0.082620 
3439.078928  	0.082024 
3441.007744  	0.081471 
3442.936560  	0.081129 
3444.865376  	0.080612 
3446.794192  	0.079690 
3448.723008  	0.078558 
3450.651824  	0.077597 
3452.580640  	0.076995 
3454.509456  	0.076595 
3456.438272  	0.075893 
3458.367088  	0.075137 
3460.295904  	0.074382 
3462.224720  	0.073372 
3464.153536  	0.072482 
3466.082352  	0.071863 
3468.011168  	0.071015 
3469.939984  	0.069946 
3471.868800  	0.069027 
3473.797616  	0.068137 
3475.726432  	0.067182 
3477.655248  	0.066208 
3479.584064  	0.065546 
3481.512880  	0.064862 
3483.441696  	0.063732 
3485.370512  	0.062848 
3487.299328  	0.061752 
3489.228144  	0.060770 
3491.156960  	0.059894 
3493.085776  	0.059103 
3495.014592  	0.058252 
3496.943408  	0.057410 
3498.872224  	0.056839 
3500.801040  	0.056808 
3502.729856  	0.055914 
3504.658672  	0.054409 
3506.587488  	0.053750 
3508.516304  	0.053203 
3510.445120  	0.052200 
3512.373936  	0.051137 
3514.302752  	0.050342 
3516.231568  	0.049888 
3518.160384  	0.049229 
3520.089200  	0.048427 
3522.018016  	0.048048 
3523.946832  	0.048126 
3525.875648  	0.047295 
3527.804464  	0.045562 
3529.733280  	0.044374 
3531.662096  	0.043642 
3533.590912  	0.043056 
3535.519728  	0.042664 
3537.448544  	0.042020 
3539.377360  	0.041076 
3541.306176  	0.040506 
3543.234992  	0.040514 
3545.163808  	0.040961 
3547.092624  	0.039926 
3549.021440  	0.038044 
3550.950256  	0.036906 
3552.879072  	0.036168 
3554.807888  	0.035478 
3556.736704  	0.034818 
3558.665520  	0.034685 
3560.594336  	0.034363 
3562.523152  	0.033242 
3564.451968  	0.033215 
3566.380784  	0.033913 
3568.309600  	0.032199 
3570.238416  	0.030319 
3572.167232  	0.029205 
3574.096048  	0.028071 
3576.024864  	0.027235 
3577.953680  	0.026826 
3579.882496  	0.026080 
3581.811312  	0.024982 
3583.740128  	0.024163 
3585.668944  	0.024286 
3587.597760  	0.023376 
3589.526576  	0.021636 
3591.455392  	0.020710 
3593.384208  	0.020048 
3595.313024  	0.018921 
3597.241840  	0.017442 
3599.170656  	0.016061 
3601.099472  	0.014923 
3603.028288  	0.014758 
3604.957104  	0.014735 
3606.885920  	0.014159 
3608.814736  	0.013040 
3610.743552  	0.012641 
3612.672368  	0.011634 
3614.601184  	0.010494 
3616.530000  	0.009932 
3618.458816  	0.007931 
3620.387632  	0.006428 
3622.316448  	0.006651 
3624.245264  	0.006598 
3626.174080  	0.006450 
3628.102896  	0.003753 
3630.031712  	0.001365 
3631.960528  	0.003561 
3633.889344  	0.003595 
3635.818160  	0.003154 
3637.746976  	0.002695 
3639.675792  	0.003150 
3641.604608  	0.003879 
3643.533424  	0.003958 
3645.462240  	0.003401 
3647.391056  	0.000738 
3649.319872  	-0.002817 
3651.248688  	-0.002613 
3653.177504  	0.000957 
3655.106320  	0.001106 
3657.035136  	0.000216 
3658.963952  	0.001627 
3660.892768  	0.001998 
3662.821584  	0.001667 
3664.750400  	0.001289 
3666.679216  	0.000999 
3668.608032  	-0.001503 
3670.536848  	-0.004749 
3672.465664  	-0.002581 
3674.394480  	-0.003625 
3676.323296  	-0.007076 
3678.252112  	-0.005626 
3680.180928  	-0.005325 
3682.109744  	-0.004023 
3684.038560  	-0.003616 
3685.967376  	-0.004398 
3687.896192  	-0.008093 
3689.825008  	-0.011321 
3691.753824  	-0.010267 
3693.682640  	-0.008285 
3695.611456  	-0.008267 
3697.540272  	-0.008919 
3699.469088  	-0.009527 
3701.397904  	-0.011749 
3703.326720  	-0.012792 
3705.255536  	-0.012232 
3707.184352  	-0.013048 
3709.113168  	-0.015575 
3711.041984  	-0.018123 
3712.970800  	-0.016656 
3714.899616  	-0.013593 
3716.828432  	-0.013297 
3718.757248  	-0.014190 
3720.686064  	-0.015081 
3722.614880  	-0.015822 
3724.543696  	-0.015167 
3726.472512  	-0.015379 
3728.401328  	-0.015670 
3730.330144  	-0.016889 
3732.258960  	-0.019085 
3734.187776  	-0.018010 
3736.116592  	-0.017919 
3738.045408  	-0.017407 
3739.974224  	-0.015714 
3741.903040  	-0.014706 
3743.831856  	-0.017225 
3745.760672  	-0.018778 
3747.689488  	-0.017359 
3749.618304  	-0.020783 
3751.547120  	-0.022157 
3753.475936  	-0.018755 
3755.404752  	-0.016065 
3757.333568  	-0.015863 
3759.262384  	-0.016610 
3761.191200  	-0.016193 
3763.120016  	-0.014404 
3765.048832  	-0.015119 
3766.977648  	-0.015143 
3768.906464  	-0.016111 
3770.835280  	-0.016602 
3772.764096  	-0.014731 
3774.692912  	-0.014055 
3776.621728  	-0.014033 
3778.550544  	-0.015566 
3780.479360  	-0.016432 
3782.408176  	-0.014781 
3784.336992  	-0.014957 
3786.265808  	-0.014752 
3788.194624  	-0.014217 
3790.123440  	-0.014170 
3792.052256  	-0.014255 
3793.981072  	-0.014492 
3795.909888  	-0.016174 
3797.838704  	-0.016017 
3799.767520  	-0.016774 
3801.696336  	-0.020858 
3803.625152  	-0.017950 
3805.553968  	-0.016703 
3807.482784  	-0.018357 
3809.411600  	-0.015618 
3811.340416  	-0.014125 
3813.269232  	-0.014211 
3815.198048  	-0.017461 
3817.126864  	-0.018830 
3819.055680  	-0.017381 
3820.984496  	-0.020525 
3822.913312  	-0.018288 
3824.842128  	-0.015368 
3826.770944  	-0.015908 
3828.699760  	-0.015280 
3830.628576  	-0.015615 
3832.557392  	-0.016496 
3834.486208  	-0.016556 
3836.415024  	-0.018054 
3838.343840  	-0.019445 
3840.272656  	-0.018006 
3842.201472  	-0.016296 
3844.130288  	-0.015763 
3846.059104  	-0.014552 
3847.987920  	-0.013977 
3849.916736  	-0.014502 
3851.845552  	-0.017534 
3853.774368  	-0.022385 
3855.703184  	-0.018228 
3857.632000  	-0.015042 
3859.560816  	-0.014027 
3861.489632  	-0.014421 
3863.418448  	-0.015544 
3865.347264  	-0.015912 
3867.276080  	-0.014422 
3869.204896  	-0.015980 
3871.133712  	-0.016070 
3873.062528  	-0.015076 
3874.991344  	-0.015560 
3876.920160  	-0.013809 
3878.848976  	-0.013477 
3880.777792  	-0.014340 
3882.706608  	-0.013504 
3884.635424  	-0.013957 
3886.564240  	-0.015063 
3888.493056  	-0.014147 
3890.421872  	-0.015030 
3892.350688  	-0.015710 
3894.279504  	-0.014195 
3896.208320  	-0.013338 
3898.137136  	-0.013464 
3900.065952  	-0.013849 
3901.994768  	-0.013515 
3903.923584  	-0.014389 
3905.852400  	-0.014731 
3907.781216  	-0.014272 
3909.710032  	-0.014254 
3911.638848  	-0.014148 
3913.567664  	-0.013762 
3915.496480  	-0.013272 
3917.425296  	-0.013412 
3919.354112  	-0.013860 
3921.282928  	-0.013760 
3923.211744  	-0.013252 
3925.140560  	-0.013225 
3927.069376  	-0.013511 
3928.998192  	-0.013627 
3930.927008  	-0.012969 
3932.855824  	-0.012805 
3934.784640  	-0.013443 
3936.713456  	-0.013718 
3938.642272  	-0.013550 
3940.571088  	-0.013273 
3942.499904  	-0.013017 
3944.428720  	-0.013143 
3946.357536  	-0.012920 
3948.286352  	-0.012629 
3950.215168  	-0.013234 
3952.143984  	-0.014031 
3954.072800  	-0.014064 
3956.001616  	-0.013749 
3957.930432  	-0.013770 
3959.859248  	-0.013705 
3961.788064  	-0.013521 
3963.716880  	-0.013700 
3965.645696  	-0.014129 
3967.574512  	-0.014012 
3969.503328  	-0.013685 
3971.432144  	-0.013760 
3973.360960  	-0.013645 
3975.289776  	-0.013380 
3977.218592  	-0.013440 
3979.147408  	-0.013672 
3981.076224  	-0.013814 
3983.005040  	-0.013927 
3984.933856  	-0.013784 
3986.862672  	-0.013771 
3988.791488  	-0.013625 
3990.720304  	-0.013359 
3992.649120  	-0.013489 
3994.577936  	-0.013856 
3996.506752  	-0.013990 
3998.435568  	-0.013932 
4000.364384  	-0.013860 