##TITLE=No Description
##DATA TYPE=INFRARED SPECTRUM
##XUNITS=1/CM
##YUNITS=Abs
399.264912  	0.589444 
401.193728  	0.561558 
403.122544  	0.558681 
405.051360  	0.562260 
406.980176  	0.579547 
408.908992  	0.566762 
410.837808  	0.558534 
412.766624  	0.555954 
414.695440  	0.554455 
416.624256  	0.548178 
418.553072  	0.552228 
420.481888  	0.540553 
422.410704  	0.549380 
424.339520  	0.543992 
426.268336  	0.539140 
428.197152  	0.527753 
430.125968  	0.524310 
432.054784  	0.524944 
433.983600  	0.532695 
435.912416  	0.532068 
437.841232  	0.522051 
439.770048  	0.507139 
441.698864  	0.510698 
443.627680  	0.508332 
445.556496  	0.502904 
447.485312  	0.500770 
449.414128  	0.502302 
451.342944  	0.497680 
453.271760  	0.498882 
455.200576  	0.498165 
457.129392  	0.501178 
459.058208  	0.496600 
460.987024  	0.497766 
462.915840  	0.496166 
464.844656  	0.497886 
466.773472  	0.493995 
468.702288  	0.493482 
470.631104  	0.489868 
472.559920  	0.489312 
474.488736  	0.485397 
476.417552  	0.484169 
478.346368  	0.481815 
480.275184  	0.484954 
482.204000  	0.479078 
484.132816  	0.477192 
486.061632  	0.478624 
487.990448  	0.482345 
489.919264  	0.478286 
491.848080  	0.477369 
493.776896  	0.476333 
495.705712  	0.473995 
497.634528  	0.471964 
499.563344  	0.473576 
501.492160  	0.470455 
503.420976  	0.470620 
505.349792  	0.470387 
507.278608  	0.470275 
509.207424  	0.467728 
511.136240  	0.469937 
513.065056  	0.470205 
514.993872  	0.471470 
516.922688  	0.471832 
518.851504  	0.474946 
520.780320  	0.471391 
522.709136  	0.468795 
524.637952  	0.468721 
526.566768  	0.468126 
528.495584  	0.466019 
530.424400  	0.465690 
532.353216  	0.461048 
534.282032  	0.458193 
536.210848  	0.453521 
538.139664  	0.448974 
540.068480  	0.442459 
541.997296  	0.438829 
543.926112  	0.435968 
545.854928  	0.434405 
547.783744  	0.431560 
549.712560  	0.429034 
551.641376  	0.425755 
553.570192  	0.422145 
555.499008  	0.417953 
557.427824  	0.416598 
559.356640  	0.414646 
561.285456  	0.413769 
563.214272  	0.410503 
565.143088  	0.406303 
567.071904  	0.402655 
569.000720  	0.400592 
570.929536  	0.397727 
572.858352  	0.394686 
574.787168  	0.392004 
576.715984  	0.391627 
578.644800  	0.388804 
580.573616  	0.385335 
582.502432  	0.380343 
584.431248  	0.377233 
586.360064  	0.374228 
588.288880  	0.372043 
590.217696  	0.370252 
592.146512  	0.368649 
594.075328  	0.365531 
596.004144  	0.363878 
597.932960  	0.362223 
599.861776  	0.361616 
601.790592  	0.358908 
603.719408  	0.356721 
605.648224  	0.354772 
607.577040  	0.353273 
609.505856  	0.351773 
611.434672  	0.350969 
613.363488  	0.349211 
615.292304  	0.347465 
617.221120  	0.345598 
619.149936  	0.344738 
621.078752  	0.342784 
623.007568  	0.341396 
624.936384  	0.339895 
626.865200  	0.338271 
628.794016  	0.336649 
630.722832  	0.336533 
632.651648  	0.336132 
634.580464  	0.336040 
636.509280  	0.335323 
638.438096  	0.334568 
640.366912  	0.332626 
642.295728  	0.330177 
644.224544  	0.327679 
646.153360  	0.324674 
648.082176  	0.320424 
650.010992  	0.316993 
651.939808  	0.314059 
653.868624  	0.310951 
655.797440  	0.307055 
657.726256  	0.303853 
659.655072  	0.300686 
661.583888  	0.297839 
663.512704  	0.294562 
665.441520  	0.291418 
667.370336  	0.283570 
669.299152  	0.278765 
671.227968  	0.279585 
673.156784  	0.277633 
675.085600  	0.275191 
677.014416  	0.272175 
678.943232  	0.270154 
680.872048  	0.268844 
682.800864  	0.266741 
684.729680  	0.264729 
686.658496  	0.263038 
688.587312  	0.262752 
690.516128  	0.261754 
692.444944  	0.260511 
694.373760  	0.259837 
696.302576  	0.258820 
698.231392  	0.256139 
700.160208  	0.253133 
702.089024  	0.251337 
704.017840  	0.249574 
705.946656  	0.247013 
707.875472  	0.244870 
709.804288  	0.243190 
711.733104  	0.241386 
713.661920  	0.239544 
715.590736  	0.238049 
717.519552  	0.237144 
719.448368  	0.237014 
721.377184  	0.236592 
723.306000  	0.236693 
725.234816  	0.236311 
727.163632  	0.235596 
729.092448  	0.233715 
731.021264  	0.231014 
732.950080  	0.228219 
734.878896  	0.225689 
736.807712  	0.222740 
738.736528  	0.220403 
740.665344  	0.218713 
742.594160  	0.217273 
744.522976  	0.215822 
746.451792  	0.214218 
748.380608  	0.212308 
750.309424  	0.210863 
752.238240  	0.209715 
754.167056  	0.208797 
756.095872  	0.207372 
758.024688  	0.205851 
759.953504  	0.205150 
761.882320  	0.205664 
763.811136  	0.205714 
765.739952  	0.204662 
767.668768  	0.202454 
769.597584  	0.200027 
771.526400  	0.198377 
773.455216  	0.198836 
775.384032  	0.201075 
777.312848  	0.204311 
779.241664  	0.207033 
781.170480  	0.206883 
783.099296  	0.203832 
785.028112  	0.199299 
786.956928  	0.194454 
788.885744  	0.190562 
790.814560  	0.187704 
792.743376  	0.185372 
794.672192  	0.183490 
796.601008  	0.182473 
798.529824  	0.180304 
800.458640  	0.176352 
802.387456  	0.173112 
804.316272  	0.171174 
806.245088  	0.169732 
808.173904  	0.168581 
810.102720  	0.167922 
812.031536  	0.167475 
813.960352  	0.167199 
815.889168  	0.167063 
817.817984  	0.166540 
819.746800  	0.166026 
821.675616  	0.165787 
823.604432  	0.165391 
825.533248  	0.164676 
827.462064  	0.163806 
829.390880  	0.162741 
831.319696  	0.161418 
833.248512  	0.159576 
835.177328  	0.157435 
837.106144  	0.155364 
839.034960  	0.153057 
840.963776  	0.150289 
842.892592  	0.147325 
844.821408  	0.144283 
846.750224  	0.141544 
848.679040  	0.139454 
850.607856  	0.137901 
852.536672  	0.136808 
854.465488  	0.135631 
856.394304  	0.134789 
858.323120  	0.134111 
860.251936  	0.132926 
862.180752  	0.131523 
864.109568  	0.130133 
866.038384  	0.128751 
867.967200  	0.127454 
869.896016  	0.125921 
871.824832  	0.124671 
873.753648  	0.123982 
875.682464  	0.124134 
877.611280  	0.125618 
879.540096  	0.127056 
881.468912  	0.127444 
883.397728  	0.128199 
885.326544  	0.128908 
887.255360  	0.129279 
889.184176  	0.129035 
891.112992  	0.128417 
893.041808  	0.126678 
894.970624  	0.124088 
896.899440  	0.121147 
898.828256  	0.117454 
900.757072  	0.114083 
902.685888  	0.111156 
904.614704  	0.109108 
906.543520  	0.108525 
908.472336  	0.108683 
910.401152  	0.109563 
912.329968  	0.111073 
914.258784  	0.112836 
916.187600  	0.114397 
918.116416  	0.115805 
920.045232  	0.116686 
921.974048  	0.117022 
923.902864  	0.117074 
925.831680  	0.116918 
927.760496  	0.116625 
929.689312  	0.116521 
931.618128  	0.116831 
933.546944  	0.116942 
935.475760  	0.116852 
937.404576  	0.116420 
939.333392  	0.115712 
941.262208  	0.115484 
943.191024  	0.116309 
945.119840  	0.118653 
947.048656  	0.122583 
948.977472  	0.128071 
950.906288  	0.134698 
952.835104  	0.142203 
954.763920  	0.150341 
956.692736  	0.158288 
958.621552  	0.165159 
960.550368  	0.169995 
962.479184  	0.172695 
964.408000  	0.172535 
966.336816  	0.169432 
968.265632  	0.163587 
970.194448  	0.155350 
972.123264  	0.145606 
974.052080  	0.135362 
975.980896  	0.125185 
977.909712  	0.115575 
979.838528  	0.107002 
981.767344  	0.099853 
983.696160  	0.094375 
985.624976  	0.090822 
987.553792  	0.089531 
989.482608  	0.090478 
991.411424  	0.093094 
993.340240  	0.096742 
995.269056  	0.101434 
997.197872  	0.106743 
999.126688  	0.112287 
1001.055504  	0.117862 
1002.984320  	0.123887 
1004.913136  	0.129957 
1006.841952  	0.135754 
1008.770768  	0.141129 
1010.699584  	0.145615 
1012.628400  	0.148871 
1014.557216  	0.151167 
1016.486032  	0.152598 
1018.414848  	0.153349 
1020.343664  	0.153711 
1022.272480  	0.154026 
1024.201296  	0.154609 
1026.130112  	0.157021 
1028.058928  	0.158693 
1029.987744  	0.157588 
1031.916560  	0.159375 
1033.845376  	0.163700 
1035.774192  	0.169740 
1037.703008  	0.176114 
1039.631824  	0.182296 
1041.560640  	0.190702 
1043.489456  	0.201733 
1045.418272  	0.214486 
1047.347088  	0.228294 
1049.275904  	0.240679 
1051.204720  	0.250723 
1053.133536  	0.256883 
1055.062352  	0.260568 
1056.991168  	0.262588 
1058.919984  	0.261479 
1060.848800  	0.258724 
1062.777616  	0.258424 
1064.706432  	0.260066 
1066.635248  	0.259319 
1068.564064  	0.252199 
1070.492880  	0.245666 
1072.421696  	0.241117 
1074.350512  	0.238018 
1076.279328  	0.235813 
1078.208144  	0.235926 
1080.136960  	0.237371 
1082.065776  	0.238879 
1083.994592  	0.238792 
1085.923408  	0.237100 
1087.852224  	0.232923 
1089.781040  	0.227163 
1091.709856  	0.218728 
1093.638672  	0.209831 
1095.567488  	0.200567 
1097.496304  	0.191073 
1099.425120  	0.180724 
1101.353936  	0.169644 
1103.282752  	0.158683 
1105.211568  	0.147961 
1107.140384  	0.137062 
1109.069200  	0.126535 
1110.998016  	0.116670 
1112.926832  	0.107752 
1114.855648  	0.099566 
1116.784464  	0.091844 
1118.713280  	0.084841 
1120.642096  	0.078369 
1122.570912  	0.072278 
1124.499728  	0.066763 
1126.428544  	0.061991 
1128.357360  	0.057721 
1130.286176  	0.054170 
1132.214992  	0.051134 
1134.143808  	0.048724 
1136.072624  	0.046674 
1138.001440  	0.044804 
1139.930256  	0.042710 
1141.859072  	0.040702 
1143.787888  	0.038718 
1145.716704  	0.036871 
1147.645520  	0.034805 
1149.574336  	0.033276 
1151.503152  	0.032152 
1153.431968  	0.031567 
1155.360784  	0.031474 
1157.289600  	0.031865 
1159.218416  	0.032988 
1161.147232  	0.034636 
1163.076048  	0.035972 
1165.004864  	0.037554 
1166.933680  	0.039110 
1168.862496  	0.040799 
1170.791312  	0.042578 
1172.720128  	0.044770 
1174.648944  	0.046807 
1176.577760  	0.048694 
1178.506576  	0.050567 
1180.435392  	0.052747 
1182.364208  	0.054930 
1184.293024  	0.057522 
1186.221840  	0.060311 
1188.150656  	0.063375 
1190.079472  	0.066917 
1192.008288  	0.071372 
1193.937104  	0.076675 
1195.865920  	0.082569 
1197.794736  	0.088989 
1199.723552  	0.096208 
1201.652368  	0.103552 
1203.581184  	0.110865 
1205.510000  	0.118120 
1207.438816  	0.125291 
1209.367632  	0.132109 
1211.296448  	0.138216 
1213.225264  	0.143533 
1215.154080  	0.147978 
1217.082896  	0.151790 
1219.011712  	0.154580 
1220.940528  	0.157131 
1222.869344  	0.159058 
1224.798160  	0.160304 
1226.726976  	0.160630 
1228.655792  	0.160483 
1230.584608  	0.159551 
1232.513424  	0.157711 
1234.442240  	0.154784 
1236.371056  	0.151262 
1238.299872  	0.147412 
1240.228688  	0.144144 
1242.157504  	0.139568 
1244.086320  	0.133240 
1246.015136  	0.127565 
1247.943952  	0.122581 
1249.872768  	0.117178 
1251.801584  	0.111128 
1253.730400  	0.105099 
1255.659216  	0.099043 
1257.588032  	0.093317 
1259.516848  	0.087637 
1261.445664  	0.082054 
1263.374480  	0.076775 
1265.303296  	0.072277 
1267.232112  	0.068312 
1269.160928  	0.065066 
1271.089744  	0.062497 
1273.018560  	0.060851 
1274.947376  	0.059935 
1276.876192  	0.059611 
1278.805008  	0.059083 
1280.733824  	0.057933 
1282.662640  	0.056057 
1284.591456  	0.053887 
1286.520272  	0.052099 
1288.449088  	0.051005 
1290.377904  	0.050231 
1292.306720  	0.050242 
1294.235536  	0.050308 
1296.164352  	0.049830 
1298.093168  	0.048057 
1300.021984  	0.045825 
1301.950800  	0.043432 
1303.879616  	0.041133 
1305.808432  	0.038557 
1307.737248  	0.036076 
1309.666064  	0.033612 
1311.594880  	0.032031 
1313.523696  	0.030834 
1315.452512  	0.029828 
1317.381328  	0.029271 
1319.310144  	0.029099 
1321.238960  	0.028944 
1323.167776  	0.029275 
1325.096592  	0.029764 
1327.025408  	0.030117 
1328.954224  	0.030086 
1330.883040  	0.029771 
1332.811856  	0.029033 
1334.740672  	0.028858 
1336.669488  	0.029493 
1338.598304  	0.030389 
1340.527120  	0.029053 
1342.455936  	0.026976 
1344.384752  	0.026446 
1346.313568  	0.026767 
1348.242384  	0.027391 
1350.171200  	0.028561 
1352.100016  	0.030102 
1354.028832  	0.032174 
1355.957648  	0.034086 
1357.886464  	0.036137 
1359.815280  	0.038731 
1361.744096  	0.041809 
1363.672912  	0.043424 
1365.601728  	0.044373 
1367.530544  	0.046279 
1369.459360  	0.047828 
1371.388176  	0.048780 
1373.316992  	0.049290 
1375.245808  	0.047976 
1377.174624  	0.046978 
1379.103440  	0.045667 
1381.032256  	0.043631 
1382.961072  	0.041808 
1384.889888  	0.040859 
1386.818704  	0.039749 
1388.747520  	0.037196 
1390.676336  	0.036343 
1392.605152  	0.038232 
1394.533968  	0.038524 
1396.462784  	0.035821 
1398.391600  	0.034864 
1400.320416  	0.034856 
1402.249232  	0.036315 
1404.178048  	0.038155 
1406.106864  	0.039101 
1408.035680  	0.040037 
1409.964496  	0.041151 
1411.893312  	0.041837 
1413.822128  	0.042347 
1415.750944  	0.044016 
1417.679760  	0.044927 
1419.608576  	0.042408 
1421.537392  	0.041323 
1423.466208  	0.041067 
1425.395024  	0.039195 
1427.323840  	0.037565 
1429.252656  	0.035201 
1431.181472  	0.033582 
1433.110288  	0.033653 
1435.039104  	0.034173 
1436.967920  	0.033594 
1438.896736  	0.033738 
1440.825552  	0.034537 
1442.754368  	0.034911 
1444.683184  	0.035054 
1446.612000  	0.035117 
1448.540816  	0.035083 
1450.469632  	0.035888 
1452.398448  	0.036649 
1454.327264  	0.037244 
1456.256080  	0.035266 
1458.184896  	0.031678 
1460.113712  	0.033176 
1462.042528  	0.034361 
1463.971344  	0.033502 
1465.900160  	0.033543 
1467.828976  	0.035730 
1469.757792  	0.038030 
1471.686608  	0.039880 
1473.615424  	0.044205 
1475.544240  	0.049886 
1477.473056  	0.054193 
1479.401872  	0.057003 
1481.330688  	0.059648 
1483.259504  	0.061257 
1485.188320  	0.062285 
1487.117136  	0.061950 
1489.045952  	0.061748 
1490.974768  	0.059405 
1492.903584  	0.057323 
1494.832400  	0.054313 
1496.761216  	0.048484 
1498.690032  	0.043899 
1500.618848  	0.041401 
1502.547664  	0.038352 
1504.476480  	0.033870 
1506.405296  	0.028412 
1508.334112  	0.029345 
1510.262928  	0.029522 
1512.191744  	0.027192 
1514.120560  	0.026078 
1516.049376  	0.025247 
1517.978192  	0.023710 
1519.907008  	0.024285 
1521.835824  	0.023646 
1523.764640  	0.027510 
1525.693456  	0.031585 
1527.622272  	0.033373 
1529.551088  	0.033831 
1531.479904  	0.033603 
1533.408720  	0.029868 
1535.337536  	0.027605 
1537.266352  	0.025574 
1539.195168  	0.017355 
1541.123984  	0.012051 
1543.052800  	0.016739 
1544.981616  	0.018313 
1546.910432  	0.017684 
1548.839248  	0.018341 
1550.768064  	0.018490 
1552.696880  	0.017592 
1554.625696  	0.017271 
1556.554512  	0.016212 
1558.483328  	0.011765 
1560.412144  	0.016555 
1562.340960  	0.023626 
1564.269776  	0.026542 
1566.198592  	0.030458 
1568.127408  	0.033003 
1570.056224  	0.036164 
1571.985040  	0.042494 
1573.913856  	0.045845 
1575.842672  	0.045348 
1577.771488  	0.048717 
1579.700304  	0.051411 
1581.629120  	0.051441 
1583.557936  	0.051048 
1585.486752  	0.051643 
1587.415568  	0.053270 
1589.344384  	0.056421 
1591.273200  	0.060722 
1593.202016  	0.065998 
1595.130832  	0.071630 
1597.059648  	0.077811 
1598.988464  	0.083144 
1600.917280  	0.087825 
1602.846096  	0.091112 
1604.774912  	0.093333 
1606.703728  	0.093715 
1608.632544  	0.093133 
1610.561360  	0.091976 
1612.490176  	0.091047 
1614.418992  	0.088580 
1616.347808  	0.084732 
1618.276624  	0.086305 
1620.205440  	0.090531 
1622.134256  	0.091959 
1624.063072  	0.095841 
1625.991888  	0.101562 
1627.920704  	0.107563 
1629.849520  	0.115670 
1631.778336  	0.122973 
1633.707152  	0.126744 
1635.635968  	0.130975 
1637.564784  	0.141043 
1639.493600  	0.148630 
1641.422416  	0.153374 
1643.351232  	0.156585 
1645.280048  	0.156231 
1647.208864  	0.155871 
1649.137680  	0.158821 
1651.066496  	0.158614 
1652.995312  	0.152222 
1654.924128  	0.155719 
1656.852944  	0.157515 
1658.781760  	0.156195 
1660.710576  	0.153073 
1662.639392  	0.148751 
1664.568208  	0.146668 
1666.497024  	0.145071 
1668.425840  	0.139889 
1670.354656  	0.133974 
1672.283472  	0.132371 
1674.212288  	0.129709 
1676.141104  	0.126261 
1678.069920  	0.126272 
1679.998736  	0.125937 
1681.927552  	0.123811 
1683.856368  	0.117971 
1685.785184  	0.118780 
1687.714000  	0.121833 
1689.642816  	0.121573 
1691.571632  	0.119961 
1693.500448  	0.118696 
1695.429264  	0.114647 
1697.358080  	0.112489 
1699.286896  	0.110417 
1701.215712  	0.107525 
1703.144528  	0.107864 
1705.073344  	0.104322 
1707.002160  	0.100232 
1708.930976  	0.097603 
1710.859792  	0.093154 
1712.788608  	0.087948 
1714.717424  	0.080919 
1716.646240  	0.071210 
1718.575056  	0.060123 
1720.503872  	0.054830 
1722.432688  	0.049835 
1724.361504  	0.042295 
1726.290320  	0.035676 
1728.219136  	0.030466 
1730.147952  	0.026047 
1732.076768  	0.021712 
1734.005584  	0.015124 
1735.934400  	0.011536 
1737.863216  	0.011650 
1739.792032  	0.008135 
1741.720848  	0.007700 
1743.649664  	0.008052 
1745.578480  	0.007155 
1747.507296  	0.005366 
1749.436112  	0.004807 
1751.364928  	0.004312 
1753.293744  	0.003617 
1755.222560  	0.003293 
1757.151376  	0.002958 
1759.080192  	0.002431 
1761.009008  	0.001526 
1762.937824  	0.000229 
1764.866640  	0.000868 
1766.795456  	0.001608 
1768.724272  	0.001230 
1770.653088  	-0.001478 
1772.581904  	-0.004268 
1774.510720  	-0.002372 
1776.439536  	-0.000557 
1778.368352  	-0.000288 
1780.297168  	-0.000652 
1782.225984  	-0.001084 
1784.154800  	-0.000385 
1786.083616  	-0.000833 
1788.012432  	-0.000894 
1789.941248  	-0.000629 
1791.870064  	-0.002120 
1793.798880  	-0.003228 
1795.727696  	-0.001567 
1797.656512  	-0.002032 
1799.585328  	-0.002417 
1801.514144  	-0.001566 
1803.442960  	-0.001618 
1805.371776  	-0.002452 
1807.300592  	-0.002169 
1809.229408  	-0.002702 
1811.158224  	-0.003188 
1813.087040  	-0.003271 
1815.015856  	-0.002895 
1816.944672  	-0.002537 
1818.873488  	-0.002680 
1820.802304  	-0.003021 
1822.731120  	-0.002410 
1824.659936  	-0.002961 
1826.588752  	-0.003481 
1828.517568  	-0.004268 
1830.446384  	-0.004742 
1832.375200  	-0.003711 
1834.304016  	-0.002962 
1836.232832  	-0.003029 
1838.161648  	-0.002928 
1840.090464  	-0.003081 
1842.019280  	-0.002496 
1843.948096  	-0.003669 
1845.876912  	-0.003486 
1847.805728  	-0.002830 
1849.734544  	-0.003150 
1851.663360  	-0.003358 
1853.592176  	-0.003358 
1855.520992  	-0.003727 
1857.449808  	-0.003365 
1859.378624  	-0.003140 
1861.307440  	-0.003165 
1863.236256  	-0.003696 
1865.165072  	-0.003503 
1867.093888  	-0.003683 
1869.022704  	-0.003830 
1870.951520  	-0.003753 
1872.880336  	-0.003573 
1874.809152  	-0.004023 
1876.737968  	-0.003971 
1878.666784  	-0.004148 
1880.595600  	-0.003633 
1882.524416  	-0.003610 
1884.453232  	-0.003567 
1886.382048  	-0.003809 
1888.310864  	-0.003686 
1890.239680  	-0.003925 
1892.168496  	-0.003263 
1894.097312  	-0.003142 
1896.026128  	-0.003106 
1897.954944  	-0.003486 
1899.883760  	-0.003223 
1901.812576  	-0.003340 
1903.741392  	-0.003637 
1905.670208  	-0.003697 
1907.599024  	-0.003005 
1909.527840  	-0.002988 
1911.456656  	-0.002678 
1913.385472  	-0.002827 
1915.314288  	-0.002501 
1917.243104  	-0.002670 
1919.171920  	-0.002911 
1921.100736  	-0.002759 
1923.029552  	-0.002432 
1924.958368  	-0.003289 
1926.887184  	-0.003398 
1928.816000  	-0.003806 
1930.744816  	-0.003819 
1932.673632  	-0.003727 
1934.602448  	-0.003139 
1936.531264  	-0.003335 
1938.460080  	-0.003030 
1940.388896  	-0.002995 
1942.317712  	-0.002880 
1944.246528  	-0.003157 
1946.175344  	-0.002417 
1948.104160  	-0.002835 
1950.032976  	-0.003299 
1951.961792  	-0.004025 
1953.890608  	-0.003506 
1955.819424  	-0.003389 
1957.748240  	-0.003441 
1959.677056  	-0.004018 
1961.605872  	-0.003599 
1963.534688  	-0.004159 
1965.463504  	-0.003427 
1967.392320  	-0.003266 
1969.321136  	-0.003589 
1971.249952  	-0.004475 
1973.178768  	-0.003467 
1975.107584  	-0.003577 
1977.036400  	-0.002457 
1978.965216  	-0.001513 
1980.894032  	-0.002056 
1982.822848  	-0.003524 
1984.751664  	-0.003550 
1986.680480  	-0.004110 
1988.609296  	-0.003362 
1990.538112  	-0.003897 
1992.466928  	-0.003623 
1994.395744  	-0.004644 
1996.324560  	-0.004957 
1998.253376  	-0.004390 
2000.182192  	-0.004102 
2002.111008  	-0.003941 
2004.039824  	-0.003246 
2005.968640  	-0.004664 
2007.897456  	-0.004314 
2009.826272  	-0.004434 
2011.755088  	-0.003709 
2013.683904  	-0.003883 
2015.612720  	-0.003606 
2017.541536  	-0.004146 
2019.470352  	-0.003706 
2021.399168  	-0.005436 
2023.327984  	-0.004711 
2025.256800  	-0.003308 
2027.185616  	-0.002697 
2029.114432  	-0.002435 
2031.043248  	-0.001977 
2032.972064  	-0.003114 
2034.900880  	-0.002758 
2036.829696  	-0.002993 
2038.758512  	-0.002435 
2040.687328  	-0.002452 
2042.616144  	-0.001908 
2044.544960  	-0.002836 
2046.473776  	-0.002843 
2048.402592  	-0.002737 
2050.331408  	-0.002634 
2052.260224  	-0.003874 
2054.189040  	-0.003866 
2056.117856  	-0.004058 
2058.046672  	-0.003690 
2059.975488  	-0.003343 
2061.904304  	-0.003448 
2063.833120  	-0.003826 
2065.761936  	-0.003901 
2067.690752  	-0.003886 
2069.619568  	-0.003234 
2071.548384  	-0.003146 
2073.477200  	-0.003110 
2075.406016  	-0.003135 
2077.334832  	-0.002966 
2079.263648  	-0.003030 
2081.192464  	-0.002874 
2083.121280  	-0.003009 
2085.050096  	-0.003061 
2086.978912  	-0.003279 
2088.907728  	-0.003246 
2090.836544  	-0.003481 
2092.765360  	-0.003421 
2094.694176  	-0.002984 
2096.622992  	-0.002638 
2098.551808  	-0.002877 
2100.480624  	-0.002795 
2102.409440  	-0.002858 
2104.338256  	-0.003039 
2106.267072  	-0.002786 
2108.195888  	-0.002357 
2110.124704  	-0.002417 
2112.053520  	-0.002300 
2113.982336  	-0.002441 
2115.911152  	-0.002324 
2117.839968  	-0.002450 
2119.768784  	-0.002668 
2121.697600  	-0.003130 
2123.626416  	-0.002935 
2125.555232  	-0.003052 
2127.484048  	-0.003096 
2129.412864  	-0.003543 
2131.341680  	-0.003853 
2133.270496  	-0.004191 
2135.199312  	-0.003607 
2137.128128  	-0.003003 
2139.056944  	-0.002886 
2140.985760  	-0.002972 
2142.914576  	-0.002563 
2144.843392  	-0.002651 
2146.772208  	-0.002671 
2148.701024  	-0.002822 
2150.629840  	-0.001808 
2152.558656  	-0.002479 
2154.487472  	-0.003154 
2156.416288  	-0.003344 
2158.345104  	-0.001932 
2160.273920  	-0.000073 
2162.202736  	0.000054 
2164.131552  	-0.000926 
2166.060368  	-0.000778 
2167.989184  	-0.000179 
2169.918000  	0.000120 
2171.846816  	-0.001773 
2173.775632  	-0.001623 
2175.704448  	-0.000958 
2177.633264  	-0.000970 
2179.562080  	-0.002711 
2181.490896  	-0.002747 
2183.419712  	-0.002547 
2185.348528  	-0.002674 
2187.277344  	-0.002835 
2189.206160  	-0.002505 
2191.134976  	-0.002440 
2193.063792  	-0.002266 
2194.992608  	-0.002280 
2196.921424  	-0.002364 
2198.850240  	-0.002684 
2200.779056  	-0.002720 
2202.707872  	-0.003039 
2204.636688  	-0.003143 
2206.565504  	-0.003325 
2208.494320  	-0.002898 
2210.423136  	-0.003102 
2212.351952  	-0.003020 
2214.280768  	-0.003292 
2216.209584  	-0.003280 
2218.138400  	-0.003916 
2220.067216  	-0.003512 
2221.996032  	-0.003104 
2223.924848  	-0.002526 
2225.853664  	-0.002550 
2227.782480  	-0.002729 
2229.711296  	-0.003499 
2231.640112  	-0.004236 
2233.568928  	-0.004451 
2235.497744  	-0.003793 
2237.426560  	-0.003642 
2239.355376  	-0.003902 
2241.284192  	-0.004093 
2243.213008  	-0.003878 
2245.141824  	-0.004140 
2247.070640  	-0.003853 
2248.999456  	-0.003863 
2250.928272  	-0.004129 
2252.857088  	-0.004325 
2254.785904  	-0.004437 
2256.714720  	-0.005064 
2258.643536  	-0.005112 
2260.572352  	-0.004943 
2262.501168  	-0.005006 
2264.429984  	-0.004942 
2266.358800  	-0.004680 
2268.287616  	-0.004826 
2270.216432  	-0.004670 
2272.145248  	-0.004724 
2274.074064  	-0.004963 
2276.002880  	-0.004833 
2277.931696  	-0.004473 
2279.860512  	-0.004279 
2281.789328  	-0.003943 
2283.718144  	-0.003705 
2285.646960  	-0.003655 
2287.575776  	-0.003674 
2289.504592  	-0.003947 
2291.433408  	-0.004355 
2293.362224  	-0.004297 
2295.291040  	-0.004086 
2297.219856  	-0.003701 
2299.148672  	-0.003789 
2301.077488  	-0.003874 
2303.006304  	-0.003955 
2304.935120  	-0.004010 
2306.863936  	-0.004152 
2308.792752  	-0.004516 
2310.721568  	-0.005090 
2312.650384  	-0.005960 
2314.579200  	-0.007176 
2316.508016  	-0.008717 
2318.436832  	-0.010497 
2320.365648  	-0.012573 
2322.294464  	-0.014494 
2324.223280  	-0.016504 
2326.152096  	-0.019327 
2328.080912  	-0.021916 
2330.009728  	-0.024360 
2331.938544  	-0.026576 
2333.867360  	-0.028371 
2335.796176  	-0.029952 
2337.724992  	-0.031250 
2339.653808  	-0.031612 
2341.582624  	-0.031816 
2343.511440  	-0.030341 
2345.440256  	-0.026317 
2347.369072  	-0.019287 
2349.297888  	-0.015902 
2351.226704  	-0.020308 
2353.155520  	-0.027985 
2355.084336  	-0.033908 
2357.013152  	-0.038731 
2358.941968  	-0.041434 
2360.870784  	-0.042667 
2362.799600  	-0.041678 
2364.728416  	-0.039362 
2366.657232  	-0.035275 
2368.586048  	-0.030167 
2370.514864  	-0.024986 
2372.443680  	-0.019929 
2374.372496  	-0.014910 
2376.301312  	-0.010816 
2378.230128  	-0.007585 
2380.158944  	-0.005409 
2382.087760  	-0.004267 
2384.016576  	-0.004073 
2385.945392  	-0.004232 
2387.874208  	-0.004453 
2389.803024  	-0.004661 
2391.731840  	-0.004868 
2393.660656  	-0.004972 
2395.589472  	-0.004896 
2397.518288  	-0.004467 
2399.447104  	-0.004479 
2401.375920  	-0.004887 
2403.304736  	-0.005164 
2405.233552  	-0.004902 
2407.162368  	-0.004892 
2409.091184  	-0.004919 
2411.020000  	-0.004870 
2412.948816  	-0.004730 
2414.877632  	-0.004640 
2416.806448  	-0.004681 
2418.735264  	-0.004828 
2420.664080  	-0.004938 
2422.592896  	-0.004996 
2424.521712  	-0.004955 
2426.450528  	-0.005122 
2428.379344  	-0.004996 
2430.308160  	-0.004678 
2432.236976  	-0.004473 
2434.165792  	-0.004650 
2436.094608  	-0.004628 
2438.023424  	-0.004381 
2439.952240  	-0.004221 
2441.881056  	-0.004235 
2443.809872  	-0.004249 
2445.738688  	-0.004233 
2447.667504  	-0.004113 
2449.596320  	-0.004135 
2451.525136  	-0.003966 
2453.453952  	-0.003863 
2455.382768  	-0.004067 
2457.311584  	-0.004351 
2459.240400  	-0.004617 
2461.169216  	-0.004859 
2463.098032  	-0.004861 
2465.026848  	-0.004565 
2466.955664  	-0.004390 
2468.884480  	-0.004723 
2470.813296  	-0.004971 
2472.742112  	-0.004884 
2474.670928  	-0.004630 
2476.599744  	-0.004540 
2478.528560  	-0.004347 
2480.457376  	-0.004298 
2482.386192  	-0.004379 
2484.315008  	-0.004263 
2486.243824  	-0.004325 
2488.172640  	-0.004397 
2490.101456  	-0.004178 
2492.030272  	-0.003951 
2493.959088  	-0.003928 
2495.887904  	-0.003910 
2497.816720  	-0.003832 
2499.745536  	-0.003837 
2501.674352  	-0.003681 
2503.603168  	-0.003501 
2505.531984  	-0.003548 
2507.460800  	-0.003860 
2509.389616  	-0.003882 
2511.318432  	-0.003797 
2513.247248  	-0.003671 
2515.176064  	-0.003627 
2517.104880  	-0.003702 
2519.033696  	-0.003903 
2520.962512  	-0.003658 
2522.891328  	-0.003349 
2524.820144  	-0.003392 
2526.748960  	-0.003454 
2528.677776  	-0.003302 
2530.606592  	-0.003480 
2532.535408  	-0.003649 
2534.464224  	-0.003676 
2536.393040  	-0.003581 
2538.321856  	-0.003402 
2540.250672  	-0.003276 
2542.179488  	-0.003262 
2544.108304  	-0.003251 
2546.037120  	-0.003188 
2547.965936  	-0.003080 
2549.894752  	-0.002984 
2551.823568  	-0.003016 
2553.752384  	-0.003049 
2555.681200  	-0.002742 
2557.610016  	-0.002608 
2559.538832  	-0.002707 
2561.467648  	-0.002481 
2563.396464  	-0.002359 
2565.325280  	-0.002341 
2567.254096  	-0.002397 
2569.182912  	-0.002400 
2571.111728  	-0.002284 
2573.040544  	-0.002239 
2574.969360  	-0.002086 
2576.898176  	-0.001857 
2578.826992  	-0.001929 
2580.755808  	-0.001886 
2582.684624  	-0.001747 
2584.613440  	-0.001805 
2586.542256  	-0.001799 
2588.471072  	-0.001803 
2590.399888  	-0.001803 
2592.328704  	-0.001659 
2594.257520  	-0.001620 
2596.186336  	-0.001590 
2598.115152  	-0.001502 
2600.043968  	-0.001495 
2601.972784  	-0.001320 
2603.901600  	-0.001225 
2605.830416  	-0.001162 
2607.759232  	-0.000972 
2609.688048  	-0.000882 
2611.616864  	-0.000813 
2613.545680  	-0.000610 
2615.474496  	-0.000469 
2617.403312  	-0.000335 
2619.332128  	-0.000153 
2621.260944  	-0.000191 
2623.189760  	-0.000327 
2625.118576  	-0.000206 
2627.047392  	-0.000119 
2628.976208  	0.000050 
2630.905024  	0.000190 
2632.833840  	0.000306 
2634.762656  	0.000470 
2636.691472  	0.000514 
2638.620288  	0.000505 
2640.549104  	0.000504 
2642.477920  	0.000571 
2644.406736  	0.000809 
2646.335552  	0.000934 
2648.264368  	0.001006 
2650.193184  	0.001099 
2652.122000  	0.001188 
2654.050816  	0.001374 
2655.979632  	0.001516 
2657.908448  	0.001536 
2659.837264  	0.001639 
2661.766080  	0.001776 
2663.694896  	0.001865 
2665.623712  	0.001873 
2667.552528  	0.001951 
2669.481344  	0.002063 
2671.410160  	0.002161 
2673.338976  	0.002247 
2675.267792  	0.002422 
2677.196608  	0.002685 
2679.125424  	0.002843 
2681.054240  	0.002968 
2682.983056  	0.003082 
2684.911872  	0.003065 
2686.840688  	0.003172 
2688.769504  	0.003311 
2690.698320  	0.003353 
2692.627136  	0.003382 
2694.555952  	0.003382 
2696.484768  	0.003409 
2698.413584  	0.003453 
2700.342400  	0.003576 
2702.271216  	0.003759 
2704.200032  	0.003945 
2706.128848  	0.004081 
2708.057664  	0.004114 
2709.986480  	0.004230 
2711.915296  	0.004371 
2713.844112  	0.004560 
2715.772928  	0.004695 
2717.701744  	0.004830 
2719.630560  	0.005130 
2721.559376  	0.005340 
2723.488192  	0.005389 
2725.417008  	0.005569 
2727.345824  	0.005754 
2729.274640  	0.005885 
2731.203456  	0.006047 
2733.132272  	0.006315 
2735.061088  	0.006517 
2736.989904  	0.006649 
2738.918720  	0.006767 
2740.847536  	0.006927 
2742.776352  	0.007087 
2744.705168  	0.007231 
2746.633984  	0.007295 
2748.562800  	0.007375 
2750.491616  	0.007490 
2752.420432  	0.007612 
2754.349248  	0.007572 
2756.278064  	0.007544 
2758.206880  	0.007481 
2760.135696  	0.007491 
2762.064512  	0.007565 
2763.993328  	0.007648 
2765.922144  	0.007627 
2767.850960  	0.007702 
2769.779776  	0.007810 
2771.708592  	0.007894 
2773.637408  	0.007895 
2775.566224  	0.007874 
2777.495040  	0.007899 
2779.423856  	0.007979 
2781.352672  	0.008085 
2783.281488  	0.008099 
2785.210304  	0.008121 
2787.139120  	0.008246 
2789.067936  	0.008447 
2790.996752  	0.008620 
2792.925568  	0.008564 
2794.854384  	0.008625 
2796.783200  	0.008757 
2798.712016  	0.008756 
2800.640832  	0.008809 
2802.569648  	0.009005 
2804.498464  	0.009059 
2806.427280  	0.009071 
2808.356096  	0.009098 
2810.284912  	0.009232 
2812.213728  	0.009389 
2814.142544  	0.009421 
2816.071360  	0.009515 
2818.000176  	0.009518 
2819.928992  	0.009561 
2821.857808  	0.009727 
2823.786624  	0.009725 
2825.715440  	0.009786 
2827.644256  	0.009952 
2829.573072  	0.010095 
2831.501888  	0.010174 
2833.430704  	0.010228 
2835.359520  	0.010335 
2837.288336  	0.010519 
2839.217152  	0.010736 
2841.145968  	0.010961 
2843.074784  	0.011188 
2845.003600  	0.011345 
2846.932416  	0.011601 
2848.861232  	0.012114 
2850.790048  	0.012593 
2852.718864  	0.013021 
2854.647680  	0.013725 
2856.576496  	0.014322 
2858.505312  	0.014896 
2860.434128  	0.015769 
2862.362944  	0.016687 
2864.291760  	0.017563 
2866.220576  	0.018423 
2868.149392  	0.019183 
2870.078208  	0.019701 
2872.007024  	0.020298 
2873.935840  	0.021018 
2875.864656  	0.021765 
2877.793472  	0.022738 
2879.722288  	0.023846 
2881.651104  	0.025002 
2883.579920  	0.026150 
2885.508736  	0.026897 
2887.437552  	0.027019 
2889.366368  	0.027248 
2891.295184  	0.027864 
2893.224000  	0.028443 
2895.152816  	0.028606 
2897.081632  	0.028865 
2899.010448  	0.030233 
2900.939264  	0.031572 
2902.868080  	0.030764 
2904.796896  	0.029838 
2906.725712  	0.029684 
2908.654528  	0.029870 
2910.583344  	0.030192 
2912.512160  	0.029919 
2914.440976  	0.029475 
2916.369792  	0.029502 
2918.298608  	0.029584 
2920.227424  	0.029883 
2922.156240  	0.030392 
2924.085056  	0.030620 
2926.013872  	0.030947 
2927.942688  	0.031494 
2929.871504  	0.031780 
2931.800320  	0.031995 
2933.729136  	0.032479 
2935.657952  	0.032941 
2937.586768  	0.033423 
2939.515584  	0.034063 
2941.444400  	0.034762 
2943.373216  	0.035294 
2945.302032  	0.035690 
2947.230848  	0.035868 
2949.159664  	0.036263 
2951.088480  	0.037079 
2953.017296  	0.037738 
2954.946112  	0.038141 
2956.874928  	0.038641 
2958.803744  	0.039078 
2960.732560  	0.039520 
2962.661376  	0.040054 
2964.590192  	0.040827 
2966.519008  	0.041675 
2968.447824  	0.042407 
2970.376640  	0.042906 
2972.305456  	0.042994 
2974.234272  	0.042600 
2976.163088  	0.042355 
2978.091904  	0.042037 
2980.020720  	0.041754 
2981.949536  	0.041693 
2983.878352  	0.042135 
2985.807168  	0.042908 
2987.735984  	0.043485 
2989.664800  	0.042834 
2991.593616  	0.040144 
2993.522432  	0.038732 
2995.451248  	0.038444 
2997.380064  	0.037869 
2999.308880  	0.037031 
3001.237696  	0.036066 
3003.166512  	0.035291 
3005.095328  	0.034650 
3007.024144  	0.033744 
3008.952960  	0.032706 
3010.881776  	0.031905 
3012.810592  	0.031244 
3014.739408  	0.030591 
3016.668224  	0.029841 
3018.597040  	0.029230 
3020.525856  	0.028862 
3022.454672  	0.028492 
3024.383488  	0.028067 
3026.312304  	0.027680 
3028.241120  	0.027551 
3030.169936  	0.027335 
3032.098752  	0.027024 
3034.027568  	0.026921 
3035.956384  	0.026889 
3037.885200  	0.027032 
3039.814016  	0.027200 
3041.742832  	0.027306 
3043.671648  	0.027268 
3045.600464  	0.027374 
3047.529280  	0.027568 
3049.458096  	0.027841 
3051.386912  	0.028275 
3053.315728  	0.028674 
3055.244544  	0.029058 
3057.173360  	0.029473 
3059.102176  	0.029924 
3061.030992  	0.030431 
3062.959808  	0.031034 
3064.888624  	0.031563 
3066.817440  	0.032021 
3068.746256  	0.032658 
3070.675072  	0.033301 
3072.603888  	0.033853 
3074.532704  	0.034424 
3076.461520  	0.035076 
3078.390336  	0.035729 
3080.319152  	0.036347 
3082.247968  	0.037016 
3084.176784  	0.037730 
3086.105600  	0.038390 
3088.034416  	0.039036 
3089.963232  	0.039835 
3091.892048  	0.040446 
3093.820864  	0.040912 
3095.749680  	0.041535 
3097.678496  	0.042294 
3099.607312  	0.042975 
3101.536128  	0.043697 
3103.464944  	0.044588 
3105.393760  	0.045290 
3107.322576  	0.045839 
3109.251392  	0.046509 
3111.180208  	0.047007 
3113.109024  	0.047581 
3115.037840  	0.048268 
3116.966656  	0.048883 
3118.895472  	0.049295 
3120.824288  	0.049821 
3122.753104  	0.050461 
3124.681920  	0.051002 
3126.610736  	0.051451 
3128.539552  	0.052118 
3130.468368  	0.052708 
3132.397184  	0.053067 
3134.326000  	0.053657 
3136.254816  	0.054292 
3138.183632  	0.054785 
3140.112448  	0.055319 
3142.041264  	0.055923 
3143.970080  	0.056493 
3145.898896  	0.056930 
3147.827712  	0.057497 
3149.756528  	0.057879 
3151.685344  	0.058340 
3153.614160  	0.059163 
3155.542976  	0.059943 
3157.471792  	0.060595 
3159.400608  	0.061140 
3161.329424  	0.061651 
3163.258240  	0.061954 
3165.187056  	0.062090 
3167.115872  	0.062685 
3169.044688  	0.063325 
3170.973504  	0.063763 
3172.902320  	0.064150 
3174.831136  	0.064545 
3176.759952  	0.065070 
3178.688768  	0.065521 
3180.617584  	0.065837 
3182.546400  	0.066085 
3184.475216  	0.066396 
3186.404032  	0.066458 
3188.332848  	0.066537 
3190.261664  	0.066965 
3192.190480  	0.067295 
3194.119296  	0.067300 
3196.048112  	0.067386 
3197.976928  	0.067555 
3199.905744  	0.067737 
3201.834560  	0.067767 
3203.763376  	0.067805 
3205.692192  	0.067717 
3207.621008  	0.067483 
3209.549824  	0.067317 
3211.478640  	0.067406 
3213.407456  	0.067486 
3215.336272  	0.067377 
3217.265088  	0.067427 
3219.193904  	0.067507 
3221.122720  	0.067285 
3223.051536  	0.066975 
3224.980352  	0.066837 
3226.909168  	0.066741 
3228.837984  	0.066610 
3230.766800  	0.066535 
3232.695616  	0.066598 
3234.624432  	0.066509 
3236.553248  	0.066406 
3238.482064  	0.066373 
3240.410880  	0.066337 
3242.339696  	0.066373 
3244.268512  	0.066186 
3246.197328  	0.066237 
3248.126144  	0.066571 
3250.054960  	0.066560 
3251.983776  	0.066696 
3253.912592  	0.067040 
3255.841408  	0.067321 
3257.770224  	0.067547 
3259.699040  	0.067699 
3261.627856  	0.067840 
3263.556672  	0.068075 
3265.485488  	0.068187 
3267.414304  	0.068210 
3269.343120  	0.068442 
3271.271936  	0.068748 
3273.200752  	0.068886 
3275.129568  	0.069054 
3277.058384  	0.069415 
3278.987200  	0.069640 
3280.916016  	0.069793 
3282.844832  	0.069969 
3284.773648  	0.070146 
3286.702464  	0.070286 
3288.631280  	0.070447 
3290.560096  	0.070495 
3292.488912  	0.070738 
3294.417728  	0.071071 
3296.346544  	0.071454 
3298.275360  	0.071830 
3300.204176  	0.072190 
3302.132992  	0.072405 
3304.061808  	0.072472 
3305.990624  	0.072719 
3307.919440  	0.073114 
3309.848256  	0.073393 
3311.777072  	0.073628 
3313.705888  	0.073912 
3315.634704  	0.074380 
3317.563520  	0.074760 
3319.492336  	0.074986 
3321.421152  	0.075171 
3323.349968  	0.075531 
3325.278784  	0.075812 
3327.207600  	0.075999 
3329.136416  	0.076021 
3331.065232  	0.076077 
3332.994048  	0.076145 
3334.922864  	0.076187 
3336.851680  	0.076308 
3338.780496  	0.076232 
3340.709312  	0.076136 
3342.638128  	0.075955 
3344.566944  	0.075536 
3346.495760  	0.075312 
3348.424576  	0.075272 
3350.353392  	0.075152 
3352.282208  	0.074883 
3354.211024  	0.074591 
3356.139840  	0.074516 
3358.068656  	0.074449 
3359.997472  	0.074279 
3361.926288  	0.073779 
3363.855104  	0.073256 
3365.783920  	0.072930 
3367.712736  	0.072675 
3369.641552  	0.072365 
3371.570368  	0.071966 
3373.499184  	0.071610 
3375.428000  	0.071384 
3377.356816  	0.071172 
3379.285632  	0.071175 
3381.214448  	0.070959 
3383.143264  	0.070594 
3385.072080  	0.070228 
3387.000896  	0.069750 
3388.929712  	0.069315 
3390.858528  	0.069095 
3392.787344  	0.068932 
3394.716160  	0.068518 
3396.644976  	0.068287 
3398.573792  	0.068029 
3400.502608  	0.067661 
3402.431424  	0.067297 
3404.360240  	0.066735 
3406.289056  	0.066078 
3408.217872  	0.065571 
3410.146688  	0.065161 
3412.075504  	0.064890 
3414.004320  	0.064560 
3415.933136  	0.064212 
3417.861952  	0.063697 
3419.790768  	0.063304 
3421.719584  	0.063005 
3423.648400  	0.062559 
3425.577216  	0.061797 
3427.506032  	0.061263 
3429.434848  	0.060852 
3431.363664  	0.060369 
3433.292480  	0.059768 
3435.221296  	0.059309 
3437.150112  	0.059090 
3439.078928  	0.058729 
3441.007744  	0.058116 
3442.936560  	0.057764 
3444.865376  	0.057369 
3446.794192  	0.056671 
3448.723008  	0.056007 
3450.651824  	0.055437 
3452.580640  	0.054879 
3454.509456  	0.054527 
3456.438272  	0.054217 
3458.367088  	0.053717 
3460.295904  	0.053179 
3462.224720  	0.052446 
3464.153536  	0.051684 
3466.082352  	0.051043 
3468.011168  	0.050221 
3469.939984  	0.049456 
3471.868800  	0.048925 
3473.797616  	0.048337 
3475.726432  	0.047701 
3477.655248  	0.047042 
3479.584064  	0.046611 
3481.512880  	0.046006 
3483.441696  	0.045157 
3485.370512  	0.044352 
3487.299328  	0.043522 
3489.228144  	0.042932 
3491.156960  	0.042292 
3493.085776  	0.041537 
3495.014592  	0.040971 
3496.943408  	0.040470 
3498.872224  	0.039957 
3500.801040  	0.039870 
3502.729856  	0.039367 
3504.658672  	0.038349 
3506.587488  	0.037775 
3508.516304  	0.037464 
3510.445120  	0.036828 
3512.373936  	0.035737 
3514.302752  	0.034996 
3516.231568  	0.034720 
3518.160384  	0.034464 
3520.089200  	0.033826 
3522.018016  	0.033625 
3523.946832  	0.033971 
3525.875648  	0.033218 
3527.804464  	0.031598 
3529.733280  	0.030695 
3531.662096  	0.030189 
3533.590912  	0.029682 
3535.519728  	0.029697 
3537.448544  	0.029512 
3539.377360  	0.028338 
3541.306176  	0.027539 
3543.234992  	0.027636 
3545.163808  	0.028551 
3547.092624  	0.027903 
3549.021440  	0.025980 
3550.950256  	0.024959 
3552.879072  	0.024818 
3554.807888  	0.024185 
3556.736704  	0.023360 
3558.665520  	0.023214 
3560.594336  	0.023058 
3562.523152  	0.022068 
3564.451968  	0.022137 
3566.380784  	0.023478 
3568.309600  	0.022772 
3570.238416  	0.020711 
3572.167232  	0.019391 
3574.096048  	0.018413 
3576.024864  	0.017625 
3577.953680  	0.017285 
3579.882496  	0.016793 
3581.811312  	0.016175 
3583.740128  	0.015555 
3585.668944  	0.015564 
3587.597760  	0.015469 
3589.526576  	0.014156 
3591.455392  	0.012764 
3593.384208  	0.012218 
3595.313024  	0.011628 
3597.241840  	0.010488 
3599.170656  	0.009199 
3601.099472  	0.008487 
3603.028288  	0.008480 
3604.957104  	0.008231 
3606.885920  	0.007673 
3608.814736  	0.007095 
3610.743552  	0.006893 
3612.672368  	0.006065 
3614.601184  	0.005253 
3616.530000  	0.004544 
3618.458816  	0.003008 
3620.387632  	0.002472 
3622.316448  	0.002654 
3624.245264  	0.001927 
3626.174080  	0.000941 
3628.102896  	-0.001243 
3630.031712  	-0.001626 
3631.960528  	-0.000153 
3633.889344  	-0.000341 
3635.818160  	-0.000602 
3637.746976  	-0.001019 
3639.675792  	-0.000857 
3641.604608  	-0.000267 
3643.533424  	-0.000131 
3645.462240  	-0.000992 
3647.391056  	-0.003477 
3649.319872  	-0.006336 
3651.248688  	-0.005462 
3653.177504  	-0.002735 
3655.106320  	-0.003191 
3657.035136  	-0.003537 
3658.963952  	-0.002521 
3660.892768  	-0.002440 
3662.821584  	-0.002608 
3664.750400  	-0.002904 
3666.679216  	-0.003699 
3668.608032  	-0.006208 
3670.536848  	-0.008106 
3672.465664  	-0.006347 
3674.394480  	-0.007859 
3676.323296  	-0.009560 
3678.252112  	-0.008068 
3680.180928  	-0.007732 
3682.109744  	-0.006645 
3684.038560  	-0.006458 
3685.967376  	-0.007492 
3687.896192  	-0.010778 
3689.825008  	-0.012741 
3691.753824  	-0.011290 
3693.682640  	-0.009634 
3695.611456  	-0.009809 
3697.540272  	-0.009986 
3699.469088  	-0.010539 
3701.397904  	-0.012223 
3703.326720  	-0.012587 
3705.255536  	-0.011988 
3707.184352  	-0.012863 
3709.113168  	-0.015543 
3711.041984  	-0.017383 
3712.970800  	-0.014922 
3714.899616  	-0.011977 
3716.828432  	-0.012168 
3718.757248  	-0.013238 
3720.686064  	-0.014212 
3722.614880  	-0.014460 
3724.543696  	-0.013501 
3726.472512  	-0.013670 
3728.401328  	-0.014261 
3730.330144  	-0.016079 
3732.258960  	-0.018050 
3734.187776  	-0.016331 
3736.116592  	-0.015293 
3738.045408  	-0.015081 
3739.974224  	-0.014089 
3741.903040  	-0.014011 
3743.831856  	-0.016559 
3745.760672  	-0.016615 
3747.689488  	-0.016176 
3749.618304  	-0.019497 
3751.547120  	-0.019954 
3753.475936  	-0.016194 
3755.404752  	-0.014149 
3757.333568  	-0.014156 
3759.262384  	-0.014698 
3761.191200  	-0.013997 
3763.120016  	-0.012749 
3765.048832  	-0.013541 
3766.977648  	-0.013586 
3768.906464  	-0.014625 
3770.835280  	-0.014639 
3772.764096  	-0.013040 
3774.692912  	-0.012558 
3776.621728  	-0.012832 
3778.550544  	-0.014415 
3780.479360  	-0.014595 
3782.408176  	-0.013129 
3784.336992  	-0.013261 
3786.265808  	-0.012778 
3788.194624  	-0.012518 
3790.123440  	-0.012699 
3792.052256  	-0.012921 
3793.981072  	-0.013318 
3795.909888  	-0.014611 
3797.838704  	-0.014345 
3799.767520  	-0.015764 
3801.696336  	-0.018812 
3803.625152  	-0.015815 
3805.553968  	-0.015474 
3807.482784  	-0.016139 
3809.411600  	-0.013549 
3811.340416  	-0.012777 
3813.269232  	-0.013252 
3815.198048  	-0.016266 
3817.126864  	-0.016723 
3819.055680  	-0.016047 
3820.984496  	-0.018694 
3822.913312  	-0.015861 
3824.842128  	-0.013991 
3826.770944  	-0.014476 
3828.699760  	-0.013891 
3830.628576  	-0.014482 
3832.557392  	-0.014996 
3834.486208  	-0.015029 
3836.415024  	-0.016547 
3838.343840  	-0.017359 
3840.272656  	-0.015593 
3842.201472  	-0.014197 
3844.130288  	-0.013685 
3846.059104  	-0.012681 
3847.987920  	-0.012466 
3849.916736  	-0.013340 
3851.845552  	-0.016695 
3853.774368  	-0.019757 
3855.703184  	-0.015321 
3857.632000  	-0.013030 
3859.560816  	-0.012611 
3861.489632  	-0.013252 
3863.418448  	-0.014123 
3865.347264  	-0.013820 
3867.276080  	-0.012833 
3869.204896  	-0.014378 
3871.133712  	-0.013591 
3873.062528  	-0.013121 
3874.991344  	-0.013436 
3876.920160  	-0.012310 
3878.848976  	-0.012474 
3880.777792  	-0.012504 
3882.706608  	-0.011708 
3884.635424  	-0.012465 
3886.564240  	-0.012819 
3888.493056  	-0.012385 
3890.421872  	-0.013469 
3892.350688  	-0.013443 
3894.279504  	-0.012207 
3896.208320  	-0.011918 
3898.137136  	-0.012179 
3900.065952  	-0.012188 
3901.994768  	-0.011890 
3903.923584  	-0.012364 
3905.852400  	-0.012359 
3907.781216  	-0.012280 
3909.710032  	-0.012405 
3911.638848  	-0.012453 
3913.567664  	-0.012146 
3915.496480  	-0.011698 
3917.425296  	-0.011568 
3919.354112  	-0.011875 
3921.282928  	-0.011822 
3923.211744  	-0.011483 
3925.140560  	-0.011362 
3927.069376  	-0.011703 
3928.998192  	-0.011945 
3930.927008  	-0.011214 
3932.855824  	-0.010825 
3934.784640  	-0.011514 
3936.713456  	-0.012029 
3938.642272  	-0.011872 
3940.571088  	-0.011649 
3942.499904  	-0.011149 
3944.428720  	-0.011168 
3946.357536  	-0.011183 
3948.286352  	-0.010921 
3950.215168  	-0.011414 
3952.143984  	-0.012099 
3954.072800  	-0.012370 
3956.001616  	-0.012192 
3957.930432  	-0.012125 
3959.859248  	-0.011946 
3961.788064  	-0.011701 
3963.716880  	-0.012089 
3965.645696  	-0.012597 
3967.574512  	-0.012449 
3969.503328  	-0.012002 
3971.432144  	-0.012114 
3973.360960  	-0.012162 
3975.289776  	-0.011846 
3977.218592  	-0.011787 
3979.147408  	-0.012064 
3981.076224  	-0.012167 
3983.005040  	-0.012132 
3984.933856  	-0.012131 
3986.862672  	-0.012202 
3988.791488  	-0.011883 
3990.720304  	-0.011538 
3992.649120  	-0.011900 
3994.577936  	-0.012156 
3996.506752  	-0.012068 
3998.435568  	-0.012171 
4000.364384  	-0.012223 