##TITLE=No Description
##DATA TYPE=INFRARED SPECTRUM
##XUNITS=1/CM
##YUNITS=Abs
399.264912  	0.672312 
401.193728  	0.634715 
403.122544  	0.635021 
405.051360  	0.620249 
406.980176  	0.606342 
408.908992  	0.599224 
410.837808  	0.616103 
412.766624  	0.608717 
414.695440  	0.601772 
416.624256  	0.598581 
418.553072  	0.592361 
420.481888  	0.583614 
422.410704  	0.581479 
424.339520  	0.570399 
426.268336  	0.577098 
428.197152  	0.575495 
430.125968  	0.576054 
432.054784  	0.574806 
433.983600  	0.565416 
435.912416  	0.558025 
437.841232  	0.563320 
439.770048  	0.556235 
441.698864  	0.556189 
443.627680  	0.553893 
445.556496  	0.552656 
447.485312  	0.549081 
449.414128  	0.550525 
451.342944  	0.551455 
453.271760  	0.553716 
455.200576  	0.551377 
457.129392  	0.552982 
459.058208  	0.549635 
460.987024  	0.551887 
462.915840  	0.547679 
464.844656  	0.544577 
466.773472  	0.541682 
468.702288  	0.546154 
470.631104  	0.544502 
472.559920  	0.546620 
474.488736  	0.545110 
476.417552  	0.546128 
478.346368  	0.539897 
480.275184  	0.537152 
482.204000  	0.535555 
484.132816  	0.538156 
486.061632  	0.536026 
487.990448  	0.533272 
489.919264  	0.530732 
491.848080  	0.532982 
493.776896  	0.527200 
495.705712  	0.523474 
497.634528  	0.524332 
499.563344  	0.529169 
501.492160  	0.524695 
503.420976  	0.524751 
505.349792  	0.522351 
507.278608  	0.520398 
509.207424  	0.520561 
511.136240  	0.522233 
513.065056  	0.521945 
514.993872  	0.525088 
516.922688  	0.526752 
518.851504  	0.528112 
520.780320  	0.526941 
522.709136  	0.525516 
524.637952  	0.523677 
526.566768  	0.524654 
528.495584  	0.522167 
530.424400  	0.521094 
532.353216  	0.517816 
534.282032  	0.512884 
536.210848  	0.504558 
538.139664  	0.500755 
540.068480  	0.496048 
541.997296  	0.491196 
543.926112  	0.485653 
545.854928  	0.482675 
547.783744  	0.478668 
549.712560  	0.475669 
551.641376  	0.473352 
553.570192  	0.470401 
555.499008  	0.464809 
557.427824  	0.461166 
559.356640  	0.455990 
561.285456  	0.452877 
563.214272  	0.451514 
565.143088  	0.450054 
567.071904  	0.444723 
569.000720  	0.440704 
570.929536  	0.437874 
572.858352  	0.437140 
574.787168  	0.434801 
576.715984  	0.431558 
578.644800  	0.427468 
580.573616  	0.424201 
582.502432  	0.419552 
584.431248  	0.415927 
586.360064  	0.411831 
588.288880  	0.410210 
590.217696  	0.407657 
592.146512  	0.404007 
594.075328  	0.401199 
596.004144  	0.400513 
597.932960  	0.398286 
599.861776  	0.396591 
601.790592  	0.394032 
603.719408  	0.392021 
605.648224  	0.390731 
607.577040  	0.390400 
609.505856  	0.388277 
611.434672  	0.386555 
613.363488  	0.385116 
615.292304  	0.383847 
617.221120  	0.381791 
619.149936  	0.380540 
621.078752  	0.379195 
623.007568  	0.377330 
624.936384  	0.374825 
626.865200  	0.374161 
628.794016  	0.373120 
630.722832  	0.371644 
632.651648  	0.370898 
634.580464  	0.371024 
636.509280  	0.370964 
638.438096  	0.370540 
640.366912  	0.368921 
642.295728  	0.367527 
644.224544  	0.365020 
646.153360  	0.360826 
648.082176  	0.355743 
650.010992  	0.352499 
651.939808  	0.348346 
653.868624  	0.343695 
655.797440  	0.340220 
657.726256  	0.336950 
659.655072  	0.332967 
661.583888  	0.328603 
663.512704  	0.325042 
665.441520  	0.322632 
667.370336  	0.314123 
669.299152  	0.307002 
671.227968  	0.308053 
673.156784  	0.305249 
675.085600  	0.301962 
677.014416  	0.299361 
678.943232  	0.297213 
680.872048  	0.295601 
682.800864  	0.293623 
684.729680  	0.292323 
686.658496  	0.291084 
688.587312  	0.289837 
690.516128  	0.288550 
692.444944  	0.287550 
694.373760  	0.286176 
696.302576  	0.284433 
698.231392  	0.282454 
700.160208  	0.280056 
702.089024  	0.277992 
704.017840  	0.276105 
705.946656  	0.273432 
707.875472  	0.271011 
709.804288  	0.268480 
711.733104  	0.266168 
713.661920  	0.264205 
715.590736  	0.263258 
717.519552  	0.262657 
719.448368  	0.262155 
721.377184  	0.262317 
723.306000  	0.262936 
725.234816  	0.263428 
727.163632  	0.262575 
729.092448  	0.259947 
731.021264  	0.256911 
732.950080  	0.253603 
734.878896  	0.250419 
736.807712  	0.247427 
738.736528  	0.245261 
740.665344  	0.243234 
742.594160  	0.241145 
744.522976  	0.239665 
746.451792  	0.238231 
748.380608  	0.236282 
750.309424  	0.234406 
752.238240  	0.233144 
754.167056  	0.232480 
756.095872  	0.231328 
758.024688  	0.230151 
759.953504  	0.229617 
761.882320  	0.230239 
763.811136  	0.230463 
765.739952  	0.229616 
767.668768  	0.227357 
769.597584  	0.224938 
771.526400  	0.223517 
773.455216  	0.224249 
775.384032  	0.227119 
777.312848  	0.231684 
779.241664  	0.235699 
781.170480  	0.236258 
783.099296  	0.232508 
785.028112  	0.226679 
786.956928  	0.220906 
788.885744  	0.216134 
790.814560  	0.212439 
792.743376  	0.209814 
794.672192  	0.208419 
796.601008  	0.207546 
798.529824  	0.204931 
800.458640  	0.200444 
802.387456  	0.196469 
804.316272  	0.194160 
806.245088  	0.192665 
808.173904  	0.191778 
810.102720  	0.191297 
812.031536  	0.190788 
813.960352  	0.190598 
815.889168  	0.190664 
817.817984  	0.190955 
819.746800  	0.191181 
821.675616  	0.191036 
823.604432  	0.190508 
825.533248  	0.189974 
827.462064  	0.189345 
829.390880  	0.188071 
831.319696  	0.186726 
833.248512  	0.184987 
835.177328  	0.182453 
837.106144  	0.179707 
839.034960  	0.176746 
840.963776  	0.173148 
842.892592  	0.169501 
844.821408  	0.166093 
846.750224  	0.162906 
848.679040  	0.160437 
850.607856  	0.158754 
852.536672  	0.157570 
854.465488  	0.156455 
856.394304  	0.155593 
858.323120  	0.154998 
860.251936  	0.154023 
862.180752  	0.152553 
864.109568  	0.150886 
866.038384  	0.149500 
867.967200  	0.148070 
869.896016  	0.146451 
871.824832  	0.145269 
873.753648  	0.144451 
875.682464  	0.144570 
877.611280  	0.146687 
879.540096  	0.148941 
881.468912  	0.149428 
883.397728  	0.150246 
885.326544  	0.150897 
887.255360  	0.151168 
889.184176  	0.151027 
891.112992  	0.150683 
893.041808  	0.148486 
894.970624  	0.145310 
896.899440  	0.141843 
898.828256  	0.137581 
900.757072  	0.133205 
902.685888  	0.129406 
904.614704  	0.126857 
906.543520  	0.126130 
908.472336  	0.126643 
910.401152  	0.128040 
912.329968  	0.129776 
914.258784  	0.131985 
916.187600  	0.134139 
918.116416  	0.135886 
920.045232  	0.137048 
921.974048  	0.137586 
923.902864  	0.137714 
925.831680  	0.137521 
927.760496  	0.137260 
929.689312  	0.137417 
931.618128  	0.137952 
933.546944  	0.138272 
935.475760  	0.138411 
937.404576  	0.138191 
939.333392  	0.137633 
941.262208  	0.137551 
943.191024  	0.138778 
945.119840  	0.142138 
947.048656  	0.147771 
948.977472  	0.155162 
950.906288  	0.163980 
952.835104  	0.173952 
954.763920  	0.184641 
956.692736  	0.194897 
958.621552  	0.203860 
960.550368  	0.210311 
962.479184  	0.213654 
964.408000  	0.213146 
966.336816  	0.208705 
968.265632  	0.200870 
970.194448  	0.190199 
972.123264  	0.177644 
974.052080  	0.164348 
975.980896  	0.151367 
977.909712  	0.139123 
979.838528  	0.128300 
981.767344  	0.119456 
983.696160  	0.112725 
985.624976  	0.108600 
987.553792  	0.107270 
989.482608  	0.108445 
991.411424  	0.111920 
993.340240  	0.117100 
995.269056  	0.123792 
997.197872  	0.131005 
999.126688  	0.138468 
1001.055504  	0.146317 
1002.984320  	0.154597 
1004.913136  	0.162705 
1006.841952  	0.170592 
1008.770768  	0.177674 
1010.699584  	0.183907 
1012.628400  	0.188686 
1014.557216  	0.191742 
1016.486032  	0.193726 
1018.414848  	0.194930 
1020.343664  	0.195372 
1022.272480  	0.195592 
1024.201296  	0.196878 
1026.130112  	0.201088 
1028.058928  	0.203676 
1029.987744  	0.201943 
1031.916560  	0.204557 
1033.845376  	0.210997 
1035.774192  	0.219840 
1037.703008  	0.229203 
1039.631824  	0.238102 
1041.560640  	0.249805 
1043.489456  	0.264748 
1045.418272  	0.281895 
1047.347088  	0.300289 
1049.275904  	0.317056 
1051.204720  	0.330665 
1053.133536  	0.338670 
1055.062352  	0.343076 
1056.991168  	0.345552 
1058.919984  	0.343302 
1060.848800  	0.338474 
1062.777616  	0.338292 
1064.706432  	0.341573 
1066.635248  	0.340275 
1068.564064  	0.329101 
1070.492880  	0.320089 
1072.421696  	0.314500 
1074.350512  	0.310684 
1076.279328  	0.307895 
1078.208144  	0.307738 
1080.136960  	0.308644 
1082.065776  	0.309764 
1083.994592  	0.308509 
1085.923408  	0.304490 
1087.852224  	0.297708 
1089.781040  	0.289105 
1091.709856  	0.277161 
1093.638672  	0.265134 
1095.567488  	0.252720 
1097.496304  	0.239954 
1099.425120  	0.226507 
1101.353936  	0.212719 
1103.282752  	0.198702 
1105.211568  	0.184713 
1107.140384  	0.170720 
1109.069200  	0.157533 
1110.998016  	0.145073 
1112.926832  	0.133703 
1114.855648  	0.123354 
1116.784464  	0.113728 
1118.713280  	0.104874 
1120.642096  	0.096846 
1122.570912  	0.089411 
1124.499728  	0.082527 
1126.428544  	0.076675 
1128.357360  	0.071266 
1130.286176  	0.066658 
1132.214992  	0.062774 
1134.143808  	0.059786 
1136.072624  	0.057213 
1138.001440  	0.054877 
1139.930256  	0.052454 
1141.859072  	0.049979 
1143.787888  	0.047316 
1145.716704  	0.045000 
1147.645520  	0.042591 
1149.574336  	0.040649 
1151.503152  	0.039150 
1153.431968  	0.038517 
1155.360784  	0.038342 
1157.289600  	0.038869 
1159.218416  	0.040275 
1161.147232  	0.042356 
1163.076048  	0.044288 
1165.004864  	0.046429 
1166.933680  	0.048525 
1168.862496  	0.050828 
1170.791312  	0.053153 
1172.720128  	0.055965 
1174.648944  	0.058669 
1176.577760  	0.061336 
1178.506576  	0.063961 
1180.435392  	0.066964 
1182.364208  	0.069767 
1184.293024  	0.072930 
1186.221840  	0.076367 
1188.150656  	0.080477 
1190.079472  	0.085175 
1192.008288  	0.090841 
1193.937104  	0.097731 
1195.865920  	0.105577 
1197.794736  	0.114005 
1199.723552  	0.123324 
1201.652368  	0.132810 
1203.581184  	0.142319 
1205.510000  	0.152084 
1207.438816  	0.161634 
1209.367632  	0.170714 
1211.296448  	0.178839 
1213.225264  	0.185996 
1215.154080  	0.191997 
1217.082896  	0.197134 
1219.011712  	0.200911 
1220.940528  	0.204174 
1222.869344  	0.206667 
1224.798160  	0.208183 
1226.726976  	0.208458 
1228.655792  	0.208245 
1230.584608  	0.206815 
1232.513424  	0.204183 
1234.442240  	0.200074 
1236.371056  	0.195141 
1238.299872  	0.189837 
1240.228688  	0.185944 
1242.157504  	0.180173 
1244.086320  	0.171587 
1246.015136  	0.164305 
1247.943952  	0.158076 
1249.872768  	0.151325 
1251.801584  	0.143453 
1253.730400  	0.135541 
1255.659216  	0.127708 
1257.588032  	0.120396 
1259.516848  	0.113179 
1261.445664  	0.106033 
1263.374480  	0.099066 
1265.303296  	0.093132 
1267.232112  	0.088073 
1269.160928  	0.083840 
1271.089744  	0.080471 
1273.018560  	0.078289 
1274.947376  	0.077002 
1276.876192  	0.076551 
1278.805008  	0.075809 
1280.733824  	0.074213 
1282.662640  	0.071733 
1284.591456  	0.069030 
1286.520272  	0.066741 
1288.449088  	0.065144 
1290.377904  	0.064132 
1292.306720  	0.064188 
1294.235536  	0.064155 
1296.164352  	0.063394 
1298.093168  	0.061071 
1300.021984  	0.058137 
1301.950800  	0.055123 
1303.879616  	0.052199 
1305.808432  	0.048869 
1307.737248  	0.045649 
1309.666064  	0.042511 
1311.594880  	0.040399 
1313.523696  	0.038714 
1315.452512  	0.037512 
1317.381328  	0.036791 
1319.310144  	0.036530 
1321.238960  	0.036525 
1323.167776  	0.037156 
1325.096592  	0.037899 
1327.025408  	0.038448 
1328.954224  	0.038376 
1330.883040  	0.037962 
1332.811856  	0.037106 
1334.740672  	0.036830 
1336.669488  	0.037439 
1338.598304  	0.038247 
1340.527120  	0.036625 
1342.455936  	0.034547 
1344.384752  	0.034178 
1346.313568  	0.034640 
1348.242384  	0.035392 
1350.171200  	0.036939 
1352.100016  	0.039007 
1354.028832  	0.041556 
1355.957648  	0.043950 
1357.886464  	0.046785 
1359.815280  	0.050076 
1361.744096  	0.053691 
1363.672912  	0.055932 
1365.601728  	0.057804 
1367.530544  	0.060338 
1369.459360  	0.062301 
1371.388176  	0.063791 
1373.316992  	0.064456 
1375.245808  	0.062975 
1377.174624  	0.062231 
1379.103440  	0.060864 
1381.032256  	0.058620 
1382.961072  	0.056378 
1384.889888  	0.055086 
1386.818704  	0.053161 
1388.747520  	0.049706 
1390.676336  	0.049114 
1392.605152  	0.052411 
1394.533968  	0.052530 
1396.462784  	0.047928 
1398.391600  	0.046644 
1400.320416  	0.047079 
1402.249232  	0.049603 
1404.178048  	0.052166 
1406.106864  	0.053448 
1408.035680  	0.054661 
1409.964496  	0.055820 
1411.893312  	0.056333 
1413.822128  	0.056788 
1415.750944  	0.058417 
1417.679760  	0.058814 
1419.608576  	0.055021 
1421.537392  	0.053962 
1423.466208  	0.053534 
1425.395024  	0.050996 
1427.323840  	0.049126 
1429.252656  	0.045854 
1431.181472  	0.043577 
1433.110288  	0.043828 
1435.039104  	0.044688 
1436.967920  	0.043425 
1438.896736  	0.043878 
1440.825552  	0.045269 
1442.754368  	0.045768 
1444.683184  	0.046011 
1446.612000  	0.046186 
1448.540816  	0.046024 
1450.469632  	0.047251 
1452.398448  	0.048171 
1454.327264  	0.048872 
1456.256080  	0.045970 
1458.184896  	0.040608 
1460.113712  	0.042684 
1462.042528  	0.044646 
1463.971344  	0.043824 
1465.900160  	0.043838 
1467.828976  	0.046897 
1469.757792  	0.050278 
1471.686608  	0.052689 
1473.615424  	0.057755 
1475.544240  	0.064930 
1477.473056  	0.070623 
1479.401872  	0.074656 
1481.330688  	0.077758 
1483.259504  	0.079695 
1485.188320  	0.081198 
1487.117136  	0.080876 
1489.045952  	0.079920 
1490.974768  	0.076463 
1492.903584  	0.074656 
1494.832400  	0.071440 
1496.761216  	0.063682 
1498.690032  	0.057191 
1500.618848  	0.053784 
1502.547664  	0.050381 
1504.476480  	0.045640 
1506.405296  	0.037701 
1508.334112  	0.036307 
1510.262928  	0.037290 
1512.191744  	0.035064 
1514.120560  	0.034060 
1516.049376  	0.032985 
1517.978192  	0.030998 
1519.907008  	0.032163 
1521.835824  	0.031017 
1523.764640  	0.035937 
1525.693456  	0.041063 
1527.622272  	0.043218 
1529.551088  	0.044116 
1531.479904  	0.044152 
1533.408720  	0.039197 
1535.337536  	0.036381 
1537.266352  	0.034876 
1539.195168  	0.024925 
1541.123984  	0.016616 
1543.052800  	0.021593 
1544.981616  	0.023354 
1546.910432  	0.023066 
1548.839248  	0.023812 
1550.768064  	0.023721 
1552.696880  	0.023243 
1554.625696  	0.023062 
1556.554512  	0.022562 
1558.483328  	0.017404 
1560.412144  	0.021712 
1562.340960  	0.031205 
1564.269776  	0.035370 
1566.198592  	0.040533 
1568.127408  	0.044417 
1570.056224  	0.048345 
1571.985040  	0.056414 
1573.913856  	0.061550 
1575.842672  	0.061138 
1577.771488  	0.064550 
1579.700304  	0.068057 
1581.629120  	0.068194 
1583.557936  	0.067652 
1585.486752  	0.068299 
1587.415568  	0.070427 
1589.344384  	0.074650 
1591.273200  	0.080381 
1593.202016  	0.087203 
1595.130832  	0.094515 
1597.059648  	0.102613 
1598.988464  	0.109623 
1600.917280  	0.115615 
1602.846096  	0.119667 
1604.774912  	0.122501 
1606.703728  	0.122961 
1608.632544  	0.121890 
1610.561360  	0.120004 
1612.490176  	0.118902 
1614.418992  	0.116570 
1616.347808  	0.111796 
1618.276624  	0.112933 
1620.205440  	0.118942 
1622.134256  	0.121331 
1624.063072  	0.125905 
1625.991888  	0.133569 
1627.920704  	0.141402 
1629.849520  	0.151674 
1631.778336  	0.162003 
1633.707152  	0.168109 
1635.635968  	0.173399 
1637.564784  	0.185068 
1639.493600  	0.195410 
1641.422416  	0.201817 
1643.351232  	0.206421 
1645.280048  	0.206269 
1647.208864  	0.204161 
1649.137680  	0.207580 
1651.066496  	0.209158 
1652.995312  	0.198701 
1654.924128  	0.199403 
1656.852944  	0.202950 
1658.781760  	0.201817 
1660.710576  	0.198087 
1662.639392  	0.191735 
1664.568208  	0.188085 
1666.497024  	0.186557 
1668.425840  	0.179981 
1670.354656  	0.171574 
1672.283472  	0.169419 
1674.212288  	0.166506 
1676.141104  	0.160974 
1678.069920  	0.161394 
1679.998736  	0.160855 
1681.927552  	0.158843 
1683.856368  	0.151082 
1685.785184  	0.150242 
1687.714000  	0.154510 
1689.642816  	0.154111 
1691.571632  	0.152602 
1693.500448  	0.152021 
1695.429264  	0.146597 
1697.358080  	0.142969 
1699.286896  	0.140784 
1701.215712  	0.134514 
1703.144528  	0.135825 
1705.073344  	0.131578 
1707.002160  	0.125623 
1708.930976  	0.122356 
1710.859792  	0.116863 
1712.788608  	0.110328 
1714.717424  	0.101272 
1716.646240  	0.089002 
1718.575056  	0.074670 
1720.503872  	0.068452 
1722.432688  	0.062482 
1724.361504  	0.053013 
1726.290320  	0.045200 
1728.219136  	0.038875 
1730.147952  	0.033171 
1732.076768  	0.028148 
1734.005584  	0.019725 
1735.934400  	0.014847 
1737.863216  	0.015594 
1739.792032  	0.011301 
1741.720848  	0.010505 
1743.649664  	0.010557 
1745.578480  	0.009760 
1747.507296  	0.007862 
1749.436112  	0.006789 
1751.364928  	0.005622 
1753.293744  	0.005250 
1755.222560  	0.005353 
1757.151376  	0.004601 
1759.080192  	0.004117 
1761.009008  	0.003207 
1762.937824  	0.001366 
1764.866640  	0.002352 
1766.795456  	0.003135 
1768.724272  	0.002281 
1770.653088  	-0.000577 
1772.581904  	-0.004017 
1774.510720  	-0.001951 
1776.439536  	0.000358 
1778.368352  	0.000688 
1780.297168  	0.000107 
1782.225984  	-0.000328 
1784.154800  	0.000449 
1786.083616  	-0.000308 
1788.012432  	-0.000085 
1789.941248  	0.000298 
1791.870064  	-0.001806 
1793.798880  	-0.003396 
1795.727696  	-0.001166 
1797.656512  	-0.001383 
1799.585328  	-0.001795 
1801.514144  	-0.001340 
1803.442960  	-0.001383 
1805.371776  	-0.002088 
1807.300592  	-0.001667 
1809.229408  	-0.002321 
1811.158224  	-0.002922 
1813.087040  	-0.003009 
1815.015856  	-0.002405 
1816.944672  	-0.002311 
1818.873488  	-0.002344 
1820.802304  	-0.002451 
1822.731120  	-0.001685 
1824.659936  	-0.002642 
1826.588752  	-0.003379 
1828.517568  	-0.004037 
1830.446384  	-0.004714 
1832.375200  	-0.003516 
1834.304016  	-0.002530 
1836.232832  	-0.002911 
1838.161648  	-0.002885 
1840.090464  	-0.002855 
1842.019280  	-0.002007 
1843.948096  	-0.003703 
1845.876912  	-0.003928 
1847.805728  	-0.002874 
1849.734544  	-0.002939 
1851.663360  	-0.003312 
1853.592176  	-0.003258 
1855.520992  	-0.003347 
1857.449808  	-0.003036 
1859.378624  	-0.003073 
1861.307440  	-0.003028 
1863.236256  	-0.003331 
1865.165072  	-0.003168 
1867.093888  	-0.003758 
1869.022704  	-0.004481 
1870.951520  	-0.004211 
1872.880336  	-0.003406 
1874.809152  	-0.003859 
1876.737968  	-0.003956 
1878.666784  	-0.004167 
1880.595600  	-0.003400 
1882.524416  	-0.003494 
1884.453232  	-0.003415 
1886.382048  	-0.003697 
1888.310864  	-0.003585 
1890.239680  	-0.004097 
1892.168496  	-0.003315 
1894.097312  	-0.003122 
1896.026128  	-0.003177 
1897.954944  	-0.003292 
1899.883760  	-0.003008 
1901.812576  	-0.003510 
1903.741392  	-0.003675 
1905.670208  	-0.003362 
1907.599024  	-0.002579 
1909.527840  	-0.002870 
1911.456656  	-0.002701 
1913.385472  	-0.002954 
1915.314288  	-0.002212 
1917.243104  	-0.002311 
1919.171920  	-0.002829 
1921.100736  	-0.002732 
1923.029552  	-0.002210 
1924.958368  	-0.002785 
1926.887184  	-0.002772 
1928.816000  	-0.003027 
1930.744816  	-0.002479 
1932.673632  	-0.002741 
1934.602448  	-0.002752 
1936.531264  	-0.003153 
1938.460080  	-0.002500 
1940.388896  	-0.002655 
1942.317712  	-0.002699 
1944.246528  	-0.002971 
1946.175344  	-0.002078 
1948.104160  	-0.002315 
1950.032976  	-0.002409 
1951.961792  	-0.003286 
1953.890608  	-0.002831 
1955.819424  	-0.003386 
1957.748240  	-0.003351 
1959.677056  	-0.004308 
1961.605872  	-0.004099 
1963.534688  	-0.004187 
1965.463504  	-0.002597 
1967.392320  	-0.002928 
1969.321136  	-0.003654 
1971.249952  	-0.003897 
1973.178768  	-0.002113 
1975.107584  	-0.002502 
1977.036400  	-0.001864 
1978.965216  	-0.001537 
1980.894032  	-0.001767 
1982.822848  	-0.002579 
1984.751664  	-0.002207 
1986.680480  	-0.003331 
1988.609296  	-0.002871 
1990.538112  	-0.003495 
1992.466928  	-0.003183 
1994.395744  	-0.003730 
1996.324560  	-0.004061 
1998.253376  	-0.004987 
2000.182192  	-0.004984 
2002.111008  	-0.004241 
2004.039824  	-0.002815 
2005.968640  	-0.003625 
2007.897456  	-0.002970 
2009.826272  	-0.003574 
2011.755088  	-0.003027 
2013.683904  	-0.003306 
2015.612720  	-0.001999 
2017.541536  	-0.002219 
2019.470352  	-0.002086 
2021.399168  	-0.003999 
2023.327984  	-0.003615 
2025.256800  	-0.002635 
2027.185616  	-0.002065 
2029.114432  	-0.002844 
2031.043248  	-0.002225 
2032.972064  	-0.001969 
2034.900880  	-0.000805 
2036.829696  	-0.001697 
2038.758512  	-0.001377 
2040.687328  	-0.002299 
2042.616144  	-0.002172 
2044.544960  	-0.002689 
2046.473776  	-0.002319 
2048.402592  	-0.002825 
2050.331408  	-0.002744 
2052.260224  	-0.003106 
2054.189040  	-0.002955 
2056.117856  	-0.002957 
2058.046672  	-0.002448 
2059.975488  	-0.003263 
2061.904304  	-0.003413 
2063.833120  	-0.003587 
2065.761936  	-0.003742 
2067.690752  	-0.003890 
2069.619568  	-0.002804 
2071.548384  	-0.002622 
2073.477200  	-0.002834 
2075.406016  	-0.002649 
2077.334832  	-0.002245 
2079.263648  	-0.002533 
2081.192464  	-0.002112 
2083.121280  	-0.002390 
2085.050096  	-0.002737 
2086.978912  	-0.002725 
2088.907728  	-0.002276 
2090.836544  	-0.002373 
2092.765360  	-0.002003 
2094.694176  	-0.001932 
2096.622992  	-0.001935 
2098.551808  	-0.002272 
2100.480624  	-0.002040 
2102.409440  	-0.002180 
2104.338256  	-0.002126 
2106.267072  	-0.001899 
2108.195888  	-0.001677 
2110.124704  	-0.002095 
2112.053520  	-0.001873 
2113.982336  	-0.001956 
2115.911152  	-0.002096 
2117.839968  	-0.002323 
2119.768784  	-0.001992 
2121.697600  	-0.002035 
2123.626416  	-0.002074 
2125.555232  	-0.002453 
2127.484048  	-0.002260 
2129.412864  	-0.002814 
2131.341680  	-0.002932 
2133.270496  	-0.003203 
2135.199312  	-0.002528 
2137.128128  	-0.001812 
2139.056944  	-0.000851 
2140.985760  	-0.001351 
2142.914576  	-0.002000 
2144.843392  	-0.001900 
2146.772208  	-0.001637 
2148.701024  	-0.002882 
2150.629840  	-0.001897 
2152.558656  	-0.001862 
2154.487472  	-0.002290 
2156.416288  	-0.002600 
2158.345104  	-0.000982 
2160.273920  	0.000913 
2162.202736  	0.002143 
2164.131552  	0.000786 
2166.060368  	0.000127 
2167.989184  	0.000210 
2169.918000  	0.000996 
2171.846816  	-0.000054 
2173.775632  	-0.000543 
2175.704448  	-0.001203 
2177.633264  	-0.001242 
2179.562080  	-0.001315 
2181.490896  	-0.000523 
2183.419712  	-0.001366 
2185.348528  	-0.001585 
2187.277344  	-0.001397 
2189.206160  	-0.000948 
2191.134976  	-0.001393 
2193.063792  	-0.001494 
2194.992608  	-0.002024 
2196.921424  	-0.002260 
2198.850240  	-0.002155 
2200.779056  	-0.001662 
2202.707872  	-0.002023 
2204.636688  	-0.002104 
2206.565504  	-0.002091 
2208.494320  	-0.002210 
2210.423136  	-0.002601 
2212.351952  	-0.002362 
2214.280768  	-0.002401 
2216.209584  	-0.002404 
2218.138400  	-0.003302 
2220.067216  	-0.003596 
2221.996032  	-0.003637 
2223.924848  	-0.002448 
2225.853664  	-0.001593 
2227.782480  	-0.001873 
2229.711296  	-0.002896 
2231.640112  	-0.003712 
2233.568928  	-0.004171 
2235.497744  	-0.003734 
2237.426560  	-0.003748 
2239.355376  	-0.003481 
2241.284192  	-0.003151 
2243.213008  	-0.002902 
2245.141824  	-0.003138 
2247.070640  	-0.002893 
2248.999456  	-0.003131 
2250.928272  	-0.003178 
2252.857088  	-0.003728 
2254.785904  	-0.003993 
2256.714720  	-0.004310 
2258.643536  	-0.004320 
2260.572352  	-0.004538 
2262.501168  	-0.004610 
2264.429984  	-0.004629 
2266.358800  	-0.004375 
2268.287616  	-0.004262 
2270.216432  	-0.004232 
2272.145248  	-0.004355 
2274.074064  	-0.004300 
2276.002880  	-0.004270 
2277.931696  	-0.003840 
2279.860512  	-0.003653 
2281.789328  	-0.003555 
2283.718144  	-0.003648 
2285.646960  	-0.003463 
2287.575776  	-0.003408 
2289.504592  	-0.003885 
2291.433408  	-0.004389 
2293.362224  	-0.004196 
2295.291040  	-0.003932 
2297.219856  	-0.003643 
2299.148672  	-0.003533 
2301.077488  	-0.003570 
2303.006304  	-0.003983 
2304.935120  	-0.004149 
2306.863936  	-0.004270 
2308.792752  	-0.004511 
2310.721568  	-0.005334 
2312.650384  	-0.006379 
2314.579200  	-0.007656 
2316.508016  	-0.008766 
2318.436832  	-0.010317 
2320.365648  	-0.012559 
2322.294464  	-0.014948 
2324.223280  	-0.017271 
2326.152096  	-0.019952 
2328.080912  	-0.022405 
2330.009728  	-0.025369 
2331.938544  	-0.027869 
2333.867360  	-0.029650 
2335.796176  	-0.031274 
2337.724992  	-0.032815 
2339.653808  	-0.033106 
2341.582624  	-0.033194 
2343.511440  	-0.031623 
2345.440256  	-0.028019 
2347.369072  	-0.020891 
2349.297888  	-0.016664 
2351.226704  	-0.020584 
2353.155520  	-0.028772 
2355.084336  	-0.035239 
2357.013152  	-0.040351 
2358.941968  	-0.043250 
2360.870784  	-0.044907 
2362.799600  	-0.043894 
2364.728416  	-0.041299 
2366.657232  	-0.037501 
2368.586048  	-0.032465 
2370.514864  	-0.026738 
2372.443680  	-0.021298 
2374.372496  	-0.016267 
2376.301312  	-0.011821 
2378.230128  	-0.008057 
2380.158944  	-0.005673 
2382.087760  	-0.004288 
2384.016576  	-0.003840 
2385.945392  	-0.004010 
2387.874208  	-0.004355 
2389.803024  	-0.004497 
2391.731840  	-0.004845 
2393.660656  	-0.004930 
2395.589472  	-0.004679 
2397.518288  	-0.004455 
2399.447104  	-0.004588 
2401.375920  	-0.004657 
2403.304736  	-0.004828 
2405.233552  	-0.004844 
2407.162368  	-0.004855 
2409.091184  	-0.004686 
2411.020000  	-0.004657 
2412.948816  	-0.004647 
2414.877632  	-0.004626 
2416.806448  	-0.004409 
2418.735264  	-0.004345 
2420.664080  	-0.004503 
2422.592896  	-0.004689 
2424.521712  	-0.004604 
2426.450528  	-0.004787 
2428.379344  	-0.004743 
2430.308160  	-0.004390 
2432.236976  	-0.004179 
2434.165792  	-0.004307 
2436.094608  	-0.004228 
2438.023424  	-0.004060 
2439.952240  	-0.004124 
2441.881056  	-0.004372 
2443.809872  	-0.004351 
2445.738688  	-0.004054 
2447.667504  	-0.003804 
2449.596320  	-0.003813 
2451.525136  	-0.003645 
2453.453952  	-0.003746 
2455.382768  	-0.003949 
2457.311584  	-0.004096 
2459.240400  	-0.004164 
2461.169216  	-0.004302 
2463.098032  	-0.004253 
2465.026848  	-0.004251 
2466.955664  	-0.004383 
2468.884480  	-0.004572 
2470.813296  	-0.004494 
2472.742112  	-0.004340 
2474.670928  	-0.004127 
2476.599744  	-0.004109 
2478.528560  	-0.004186 
2480.457376  	-0.004279 
2482.386192  	-0.004153 
2484.315008  	-0.004065 
2486.243824  	-0.004165 
2488.172640  	-0.004060 
2490.101456  	-0.003753 
2492.030272  	-0.003675 
2493.959088  	-0.003686 
2495.887904  	-0.003766 
2497.816720  	-0.003810 
2499.745536  	-0.003755 
2501.674352  	-0.003554 
2503.603168  	-0.003448 
2505.531984  	-0.003431 
2507.460800  	-0.003643 
2509.389616  	-0.003634 
2511.318432  	-0.003528 
2513.247248  	-0.003373 
2515.176064  	-0.003294 
2517.104880  	-0.003325 
2519.033696  	-0.003527 
2520.962512  	-0.003314 
2522.891328  	-0.003361 
2524.820144  	-0.003471 
2526.748960  	-0.003105 
2528.677776  	-0.002797 
2530.606592  	-0.002971 
2532.535408  	-0.002998 
2534.464224  	-0.002993 
2536.393040  	-0.003046 
2538.321856  	-0.002884 
2540.250672  	-0.002658 
2542.179488  	-0.002695 
2544.108304  	-0.002787 
2546.037120  	-0.002853 
2547.965936  	-0.002680 
2549.894752  	-0.002504 
2551.823568  	-0.002474 
2553.752384  	-0.002326 
2555.681200  	-0.002056 
2557.610016  	-0.002201 
2559.538832  	-0.002176 
2561.467648  	-0.001936 
2563.396464  	-0.001726 
2565.325280  	-0.001508 
2567.254096  	-0.001571 
2569.182912  	-0.001718 
2571.111728  	-0.001533 
2573.040544  	-0.001563 
2574.969360  	-0.001542 
2576.898176  	-0.001233 
2578.826992  	-0.001102 
2580.755808  	-0.001132 
2582.684624  	-0.001157 
2584.613440  	-0.001131 
2586.542256  	-0.000958 
2588.471072  	-0.000784 
2590.399888  	-0.000683 
2592.328704  	-0.000684 
2594.257520  	-0.000766 
2596.186336  	-0.000748 
2598.115152  	-0.000606 
2600.043968  	-0.000549 
2601.972784  	-0.000273 
2603.901600  	-0.000095 
2605.830416  	-0.000042 
2607.759232  	0.000037 
2609.688048  	0.000158 
2611.616864  	0.000280 
2613.545680  	0.000474 
2615.474496  	0.000696 
2617.403312  	0.000870 
2619.332128  	0.001010 
2621.260944  	0.001138 
2623.189760  	0.001175 
2625.118576  	0.001186 
2627.047392  	0.001206 
2628.976208  	0.001420 
2630.905024  	0.001571 
2632.833840  	0.001676 
2634.762656  	0.001935 
2636.691472  	0.001961 
2638.620288  	0.001846 
2640.549104  	0.001877 
2642.477920  	0.002041 
2644.406736  	0.002357 
2646.335552  	0.002596 
2648.264368  	0.002709 
2650.193184  	0.002782 
2652.122000  	0.002911 
2654.050816  	0.003063 
2655.979632  	0.003225 
2657.908448  	0.003414 
2659.837264  	0.003556 
2661.766080  	0.003618 
2663.694896  	0.003748 
2665.623712  	0.003916 
2667.552528  	0.004075 
2669.481344  	0.004264 
2671.410160  	0.004380 
2673.338976  	0.004483 
2675.267792  	0.004624 
2677.196608  	0.004840 
2679.125424  	0.005054 
2681.054240  	0.005212 
2682.983056  	0.005327 
2684.911872  	0.005429 
2686.840688  	0.005578 
2688.769504  	0.005650 
2690.698320  	0.005650 
2692.627136  	0.005695 
2694.555952  	0.005811 
2696.484768  	0.005985 
2698.413584  	0.006142 
2700.342400  	0.006211 
2702.271216  	0.006373 
2704.200032  	0.006614 
2706.128848  	0.006730 
2708.057664  	0.006777 
2709.986480  	0.006984 
2711.915296  	0.007206 
2713.844112  	0.007388 
2715.772928  	0.007500 
2717.701744  	0.007832 
2719.630560  	0.008206 
2721.559376  	0.008284 
2723.488192  	0.008376 
2725.417008  	0.008678 
2727.345824  	0.008945 
2729.274640  	0.009150 
2731.203456  	0.009379 
2733.132272  	0.009680 
2735.061088  	0.009888 
2736.989904  	0.010100 
2738.918720  	0.010227 
2740.847536  	0.010387 
2742.776352  	0.010506 
2744.705168  	0.010751 
2746.633984  	0.010870 
2748.562800  	0.010913 
2750.491616  	0.011075 
2752.420432  	0.011299 
2754.349248  	0.011305 
2756.278064  	0.011257 
2758.206880  	0.011185 
2760.135696  	0.011181 
2762.064512  	0.011260 
2763.993328  	0.011325 
2765.922144  	0.011411 
2767.850960  	0.011565 
2769.779776  	0.011602 
2771.708592  	0.011664 
2773.637408  	0.011657 
2775.566224  	0.011682 
2777.495040  	0.011773 
2779.423856  	0.011915 
2781.352672  	0.011962 
2783.281488  	0.012014 
2785.210304  	0.012212 
2787.139120  	0.012318 
2789.067936  	0.012446 
2790.996752  	0.012622 
2792.925568  	0.012661 
2794.854384  	0.012772 
2796.783200  	0.012859 
2798.712016  	0.012881 
2800.640832  	0.013003 
2802.569648  	0.013169 
2804.498464  	0.013325 
2806.427280  	0.013359 
2808.356096  	0.013310 
2810.284912  	0.013412 
2812.213728  	0.013534 
2814.142544  	0.013626 
2816.071360  	0.013861 
2818.000176  	0.014029 
2819.928992  	0.014246 
2821.857808  	0.014407 
2823.786624  	0.014529 
2825.715440  	0.014660 
2827.644256  	0.014626 
2829.573072  	0.014768 
2831.501888  	0.014984 
2833.430704  	0.015204 
2835.359520  	0.015386 
2837.288336  	0.015628 
2839.217152  	0.015951 
2841.145968  	0.016250 
2843.074784  	0.016596 
2845.003600  	0.016871 
2846.932416  	0.017346 
2848.861232  	0.018153 
2850.790048  	0.019000 
2852.718864  	0.019787 
2854.647680  	0.020685 
2856.576496  	0.021631 
2858.505312  	0.022668 
2860.434128  	0.024027 
2862.362944  	0.025313 
2864.291760  	0.026489 
2866.220576  	0.027760 
2868.149392  	0.029067 
2870.078208  	0.029984 
2872.007024  	0.030763 
2873.935840  	0.031718 
2875.864656  	0.032856 
2877.793472  	0.034408 
2879.722288  	0.036237 
2881.651104  	0.038087 
2883.579920  	0.039826 
2885.508736  	0.040816 
2887.437552  	0.040892 
2889.366368  	0.041262 
2891.295184  	0.042213 
2893.224000  	0.043052 
2895.152816  	0.043280 
2897.081632  	0.043694 
2899.010448  	0.046033 
2900.939264  	0.048213 
2902.868080  	0.046831 
2904.796896  	0.045312 
2906.725712  	0.044933 
2908.654528  	0.044973 
2910.583344  	0.045464 
2912.512160  	0.045204 
2914.440976  	0.044474 
2916.369792  	0.044294 
2918.298608  	0.044477 
2920.227424  	0.045053 
2922.156240  	0.045674 
2924.085056  	0.045878 
2926.013872  	0.046207 
2927.942688  	0.046651 
2929.871504  	0.046995 
2931.800320  	0.047441 
2933.729136  	0.048055 
2935.657952  	0.048709 
2937.586768  	0.049327 
2939.515584  	0.050231 
2941.444400  	0.051221 
2943.373216  	0.052001 
2945.302032  	0.052495 
2947.230848  	0.052782 
2949.159664  	0.053521 
2951.088480  	0.054783 
2953.017296  	0.055879 
2954.946112  	0.056700 
2956.874928  	0.057596 
2958.803744  	0.058369 
2960.732560  	0.059071 
2962.661376  	0.059819 
2964.590192  	0.061014 
2966.519008  	0.062491 
2968.447824  	0.063794 
2970.376640  	0.064417 
2972.305456  	0.064487 
2974.234272  	0.064125 
2976.163088  	0.063862 
2978.091904  	0.063289 
2980.020720  	0.062897 
2981.949536  	0.062815 
2983.878352  	0.063268 
2985.807168  	0.064449 
2987.735984  	0.065541 
2989.664800  	0.064733 
2991.593616  	0.060277 
2993.522432  	0.057821 
2995.451248  	0.057385 
2997.380064  	0.056665 
2999.308880  	0.055389 
3001.237696  	0.053825 
3003.166512  	0.052473 
3005.095328  	0.051031 
3007.024144  	0.049505 
3008.952960  	0.048044 
3010.881776  	0.046501 
3012.810592  	0.045191 
3014.739408  	0.044106 
3016.668224  	0.042881 
3018.597040  	0.041803 
3020.525856  	0.040915 
3022.454672  	0.040047 
3024.383488  	0.039338 
3026.312304  	0.038722 
3028.241120  	0.038316 
3030.169936  	0.037926 
3032.098752  	0.037520 
3034.027568  	0.037238 
3035.956384  	0.037121 
3037.885200  	0.037144 
3039.814016  	0.037122 
3041.742832  	0.037210 
3043.671648  	0.037249 
3045.600464  	0.037387 
3047.529280  	0.037578 
3049.458096  	0.037869 
3051.386912  	0.038393 
3053.315728  	0.038875 
3055.244544  	0.039450 
3057.173360  	0.040014 
3059.102176  	0.040430 
3061.030992  	0.041051 
3062.959808  	0.041823 
3064.888624  	0.042532 
3066.817440  	0.043289 
3068.746256  	0.044172 
3070.675072  	0.045023 
3072.603888  	0.045781 
3074.532704  	0.046586 
3076.461520  	0.047433 
3078.390336  	0.048255 
3080.319152  	0.049143 
3082.247968  	0.050024 
3084.176784  	0.050803 
3086.105600  	0.051639 
3088.034416  	0.052507 
3089.963232  	0.053423 
3091.892048  	0.054212 
3093.820864  	0.055071 
3095.749680  	0.055835 
3097.678496  	0.056759 
3099.607312  	0.057726 
3101.536128  	0.058706 
3103.464944  	0.059752 
3105.393760  	0.060582 
3107.322576  	0.061396 
3109.251392  	0.062177 
3111.180208  	0.062918 
3113.109024  	0.063700 
3115.037840  	0.064466 
3116.966656  	0.065206 
3118.895472  	0.065895 
3120.824288  	0.066663 
3122.753104  	0.067376 
3124.681920  	0.067964 
3126.610736  	0.068639 
3128.539552  	0.069477 
3130.468368  	0.070181 
3132.397184  	0.070637 
3134.326000  	0.071307 
3136.254816  	0.072138 
3138.183632  	0.072917 
3140.112448  	0.073657 
3142.041264  	0.074375 
3143.970080  	0.074940 
3145.898896  	0.075545 
3147.827712  	0.076212 
3149.756528  	0.076897 
3151.685344  	0.077647 
3153.614160  	0.078335 
3155.542976  	0.079147 
3157.471792  	0.079971 
3159.400608  	0.080794 
3161.329424  	0.081503 
3163.258240  	0.081985 
3165.187056  	0.082636 
3167.115872  	0.083285 
3169.044688  	0.083659 
3170.973504  	0.084339 
3172.902320  	0.084920 
3174.831136  	0.085343 
3176.759952  	0.085796 
3178.688768  	0.086174 
3180.617584  	0.086585 
3182.546400  	0.087032 
3184.475216  	0.087372 
3186.404032  	0.087542 
3188.332848  	0.087798 
3190.261664  	0.088065 
3192.190480  	0.088220 
3194.119296  	0.088136 
3196.048112  	0.088268 
3197.976928  	0.088355 
3199.905744  	0.088466 
3201.834560  	0.088533 
3203.763376  	0.088537 
3205.692192  	0.088612 
3207.621008  	0.088495 
3209.549824  	0.088271 
3211.478640  	0.088319 
3213.407456  	0.088204 
3215.336272  	0.087994 
3217.265088  	0.087981 
3219.193904  	0.087790 
3221.122720  	0.087569 
3223.051536  	0.087560 
3224.980352  	0.087385 
3226.909168  	0.087170 
3228.837984  	0.086968 
3230.766800  	0.086698 
3232.695616  	0.086635 
3234.624432  	0.086542 
3236.553248  	0.086338 
3238.482064  	0.086436 
3240.410880  	0.086566 
3242.339696  	0.086466 
3244.268512  	0.086212 
3246.197328  	0.086351 
3248.126144  	0.086646 
3250.054960  	0.086781 
3251.983776  	0.086991 
3253.912592  	0.087175 
3255.841408  	0.087367 
3257.770224  	0.087754 
3259.699040  	0.088109 
3261.627856  	0.088208 
3263.556672  	0.088421 
3265.485488  	0.088561 
3267.414304  	0.088730 
3269.343120  	0.089170 
3271.271936  	0.089512 
3273.200752  	0.089567 
3275.129568  	0.089746 
3277.058384  	0.090209 
3278.987200  	0.090384 
3280.916016  	0.090322 
3282.844832  	0.090440 
3284.773648  	0.090669 
3286.702464  	0.090903 
3288.631280  	0.091171 
3290.560096  	0.091538 
3292.488912  	0.092081 
3294.417728  	0.092567 
3296.346544  	0.093035 
3298.275360  	0.093349 
3300.204176  	0.093611 
3302.132992  	0.093972 
3304.061808  	0.094317 
3305.990624  	0.094632 
3307.919440  	0.094911 
3309.848256  	0.095344 
3311.777072  	0.095714 
3313.705888  	0.096026 
3315.634704  	0.096693 
3317.563520  	0.097237 
3319.492336  	0.097284 
3321.421152  	0.097394 
3323.349968  	0.097929 
3325.278784  	0.098311 
3327.207600  	0.098522 
3329.136416  	0.098465 
3331.065232  	0.098495 
3332.994048  	0.098775 
3334.922864  	0.098928 
3336.851680  	0.098890 
3338.780496  	0.098686 
3340.709312  	0.098441 
3342.638128  	0.098396 
3344.566944  	0.097998 
3346.495760  	0.097616 
3348.424576  	0.097457 
3350.353392  	0.097229 
3352.282208  	0.096946 
3354.211024  	0.096625 
3356.139840  	0.096240 
3358.068656  	0.095854 
3359.997472  	0.095628 
3361.926288  	0.095347 
3363.855104  	0.095054 
3365.783920  	0.094577 
3367.712736  	0.094074 
3369.641552  	0.093728 
3371.570368  	0.093233 
3373.499184  	0.092811 
3375.428000  	0.092406 
3377.356816  	0.091999 
3379.285632  	0.091758 
3381.214448  	0.091659 
3383.143264  	0.091352 
3385.072080  	0.090921 
3387.000896  	0.090351 
3388.929712  	0.089848 
3390.858528  	0.089510 
3392.787344  	0.089133 
3394.716160  	0.088595 
3396.644976  	0.088274 
3398.573792  	0.087863 
3400.502608  	0.087519 
3402.431424  	0.086908 
3404.360240  	0.086247 
3406.289056  	0.085645 
3408.217872  	0.085066 
3410.146688  	0.084393 
3412.075504  	0.083928 
3414.004320  	0.083402 
3415.933136  	0.083030 
3417.861952  	0.082537 
3419.790768  	0.081993 
3421.719584  	0.081429 
3423.648400  	0.080973 
3425.577216  	0.080232 
3427.506032  	0.079441 
3429.434848  	0.078932 
3431.363664  	0.078452 
3433.292480  	0.077804 
3435.221296  	0.077075 
3437.150112  	0.076622 
3439.078928  	0.076108 
3441.007744  	0.075512 
3442.936560  	0.074892 
3444.865376  	0.074249 
3446.794192  	0.073425 
3448.723008  	0.072596 
3450.651824  	0.071912 
3452.580640  	0.071330 
3454.509456  	0.070774 
3456.438272  	0.070091 
3458.367088  	0.069471 
3460.295904  	0.068821 
3462.224720  	0.067908 
3464.153536  	0.066955 
3466.082352  	0.066082 
3468.011168  	0.065194 
3469.939984  	0.064403 
3471.868800  	0.063599 
3473.797616  	0.062696 
3475.726432  	0.061843 
3477.655248  	0.061197 
3479.584064  	0.060704 
3481.512880  	0.059637 
3483.441696  	0.058287 
3485.370512  	0.057606 
3487.299328  	0.056704 
3489.228144  	0.055924 
3491.156960  	0.055280 
3493.085776  	0.054367 
3495.014592  	0.053477 
3496.943408  	0.052763 
3498.872224  	0.052192 
3500.801040  	0.052010 
3502.729856  	0.051100 
3504.658672  	0.049585 
3506.587488  	0.049192 
3508.516304  	0.048909 
3510.445120  	0.047768 
3512.373936  	0.046602 
3514.302752  	0.046066 
3516.231568  	0.045634 
3518.160384  	0.044920 
3520.089200  	0.044110 
3522.018016  	0.043787 
3523.946832  	0.043932 
3525.875648  	0.043039 
3527.804464  	0.041267 
3529.733280  	0.040254 
3531.662096  	0.039684 
3533.590912  	0.039155 
3535.519728  	0.038982 
3537.448544  	0.038296 
3539.377360  	0.037127 
3541.306176  	0.036573 
3543.234992  	0.036691 
3545.163808  	0.037050 
3547.092624  	0.035924 
3549.021440  	0.034101 
3550.950256  	0.033400 
3552.879072  	0.032786 
3554.807888  	0.032170 
3556.736704  	0.031456 
3558.665520  	0.031114 
3560.594336  	0.030810 
3562.523152  	0.029882 
3564.451968  	0.029829 
3566.380784  	0.030090 
3568.309600  	0.027989 
3570.238416  	0.026624 
3572.167232  	0.026124 
3574.096048  	0.025188 
3576.024864  	0.024173 
3577.953680  	0.023487 
3579.882496  	0.023031 
3581.811312  	0.022275 
3583.740128  	0.021507 
3585.668944  	0.021516 
3587.597760  	0.020075 
3589.526576  	0.018257 
3591.455392  	0.017800 
3593.384208  	0.017328 
3595.313024  	0.016303 
3597.241840  	0.014929 
3599.170656  	0.013387 
3601.099472  	0.012356 
3603.028288  	0.012367 
3604.957104  	0.012591 
3606.885920  	0.011978 
3608.814736  	0.010442 
3610.743552  	0.010245 
3612.672368  	0.009314 
3614.601184  	0.008207 
3616.530000  	0.008126 
3618.458816  	0.005747 
3620.387632  	0.003919 
3622.316448  	0.004747 
3624.245264  	0.005003 
3626.174080  	0.004870 
3628.102896  	0.001771 
3630.031712  	-0.001446 
3631.960528  	0.001225 
3633.889344  	0.001605 
3635.818160  	0.001429 
3637.746976  	0.001056 
3639.675792  	0.001409 
3641.604608  	0.002115 
3643.533424  	0.002337 
3645.462240  	0.002216 
3647.391056  	-0.000595 
3649.319872  	-0.004899 
3651.248688  	-0.004955 
3653.177504  	-0.000703 
3655.106320  	-0.000203 
3657.035136  	-0.001499 
3658.963952  	0.000067 
3660.892768  	0.000563 
3662.821584  	0.000302 
3664.750400  	0.000036 
3666.679216  	-0.000063 
3668.608032  	-0.002648 
3670.536848  	-0.006636 
3672.465664  	-0.004134 
3674.394480  	-0.004989 
3676.323296  	-0.009242 
3678.252112  	-0.007272 
3680.180928  	-0.006693 
3682.109744  	-0.005206 
3684.038560  	-0.004392 
3685.967376  	-0.004798 
3687.896192  	-0.008901 
3689.825008  	-0.012872 
3691.753824  	-0.011701 
3693.682640  	-0.009518 
3695.611456  	-0.009192 
3697.540272  	-0.009641 
3699.469088  	-0.010469 
3701.397904  	-0.012952 
3703.326720  	-0.013813 
3705.255536  	-0.012753 
3707.184352  	-0.013334 
3709.113168  	-0.016117 
3711.041984  	-0.019284 
3712.970800  	-0.018149 
3714.899616  	-0.014578 
3716.828432  	-0.013766 
3718.757248  	-0.014644 
3720.686064  	-0.015720 
3722.614880  	-0.016508 
3724.543696  	-0.015525 
3726.472512  	-0.015812 
3728.401328  	-0.015974 
3730.330144  	-0.016972 
3732.258960  	-0.019348 
3734.187776  	-0.018482 
3736.116592  	-0.019021 
3738.045408  	-0.018472 
3739.974224  	-0.016477 
3741.903040  	-0.015259 
3743.831856  	-0.018242 
3745.760672  	-0.020479 
3747.689488  	-0.017972 
3749.618304  	-0.021232 
3751.547120  	-0.023476 
3753.475936  	-0.020027 
3755.404752  	-0.016488 
3757.333568  	-0.016050 
3759.262384  	-0.017163 
3761.191200  	-0.016953 
3763.120016  	-0.014861 
3765.048832  	-0.015691 
3766.977648  	-0.015715 
3768.906464  	-0.016532 
3770.835280  	-0.017440 
3772.764096  	-0.015383 
3774.692912  	-0.014437 
3776.621728  	-0.014512 
3778.550544  	-0.016157 
3780.479360  	-0.017121 
3782.408176  	-0.015214 
3784.336992  	-0.015383 
3786.265808  	-0.015120 
3788.194624  	-0.014363 
3790.123440  	-0.014456 
3792.052256  	-0.014730 
3793.981072  	-0.014820 
3795.909888  	-0.016689 
3797.838704  	-0.016829 
3799.767520  	-0.017389 
3801.696336  	-0.022062 
3803.625152  	-0.018920 
3805.553968  	-0.017460 
3807.482784  	-0.019393 
3809.411600  	-0.016286 
3811.340416  	-0.014568 
3813.269232  	-0.014523 
3815.198048  	-0.017851 
3817.126864  	-0.019428 
3819.055680  	-0.017781 
3820.984496  	-0.021789 
3822.913312  	-0.019733 
3824.842128  	-0.016236 
3826.770944  	-0.016730 
3828.699760  	-0.015782 
3830.628576  	-0.016039 
3832.557392  	-0.017137 
3834.486208  	-0.017222 
3836.415024  	-0.018735 
3838.343840  	-0.020441 
3840.272656  	-0.019053 
3842.201472  	-0.017127 
3844.130288  	-0.016726 
3846.059104  	-0.015170 
3847.987920  	-0.014127 
3849.916736  	-0.014639 
3851.845552  	-0.018237 
3853.774368  	-0.024774 
3855.703184  	-0.020063 
3857.632000  	-0.015962 
3859.560816  	-0.014389 
3861.489632  	-0.014772 
3863.418448  	-0.016084 
3865.347264  	-0.016704 
3867.276080  	-0.014963 
3869.204896  	-0.016471 
3871.133712  	-0.017027 
3873.062528  	-0.015925 
3874.991344  	-0.016663 
3876.920160  	-0.014463 
3878.848976  	-0.013855 
3880.777792  	-0.015163 
3882.706608  	-0.014235 
3884.635424  	-0.014620 
3886.564240  	-0.016131 
3888.493056  	-0.014693 
3890.421872  	-0.015400 
3892.350688  	-0.016445 
3894.279504  	-0.014839 
3896.208320  	-0.013705 
3898.137136  	-0.013757 
3900.065952  	-0.014314 
3901.994768  	-0.014328 
3903.923584  	-0.015412 
3905.852400  	-0.015627 
3907.781216  	-0.014833 
3909.710032  	-0.014545 
3911.638848  	-0.014453 
3913.567664  	-0.014060 
3915.496480  	-0.013599 
3917.425296  	-0.013895 
3919.354112  	-0.014315 
3921.282928  	-0.014132 
3923.211744  	-0.013502 
3925.140560  	-0.013654 
3927.069376  	-0.014014 
3928.998192  	-0.014122 
3930.927008  	-0.013638 
3932.855824  	-0.013575 
3934.784640  	-0.014082 
3936.713456  	-0.014398 
3938.642272  	-0.014165 
3940.571088  	-0.013624 
3942.499904  	-0.013528 
3944.428720  	-0.013704 
3946.357536  	-0.013370 
3948.286352  	-0.013258 
3950.215168  	-0.013976 
3952.143984  	-0.014629 
3954.072800  	-0.014663 
3956.001616  	-0.014359 
3957.930432  	-0.014413 
3959.859248  	-0.014299 
3961.788064  	-0.014053 
3963.716880  	-0.014402 
3965.645696  	-0.014825 
3967.574512  	-0.014547 
3969.503328  	-0.014156 
3971.432144  	-0.014338 
3973.360960  	-0.014293 
3975.289776  	-0.013959 
3977.218592  	-0.014031 
3979.147408  	-0.014377 
3981.076224  	-0.014431 
3983.005040  	-0.014248 
3984.933856  	-0.014257 
3986.862672  	-0.014363 
3988.791488  	-0.014101 
3990.720304  	-0.013832 
3992.649120  	-0.014057 
3994.577936  	-0.014318 
3996.506752  	-0.014319 
3998.435568  	-0.014379 
4000.364384  	-0.014281 