##TITLE=No Description
##DATA TYPE=INFRARED SPECTRUM
##XUNITS=1/CM
##YUNITS=Abs
399.264912  	0.627659 
401.193728  	0.614450 
403.122544  	0.621746 
405.051360  	0.622670 
406.980176  	0.629453 
408.908992  	0.626216 
410.837808  	0.615416 
412.766624  	0.603606 
414.695440  	0.608337 
416.624256  	0.595368 
418.553072  	0.592745 
420.481888  	0.589040 
422.410704  	0.601961 
424.339520  	0.591835 
426.268336  	0.578552 
428.197152  	0.582325 
430.125968  	0.589353 
432.054784  	0.575917 
433.983600  	0.572868 
435.912416  	0.574124 
437.841232  	0.573462 
439.770048  	0.565965 
441.698864  	0.569646 
443.627680  	0.566521 
445.556496  	0.564594 
447.485312  	0.560606 
449.414128  	0.562699 
451.342944  	0.562032 
453.271760  	0.557413 
455.200576  	0.552579 
457.129392  	0.557644 
459.058208  	0.557343 
460.987024  	0.562040 
462.915840  	0.559482 
464.844656  	0.558353 
466.773472  	0.554732 
468.702288  	0.554517 
470.631104  	0.554465 
472.559920  	0.557521 
474.488736  	0.552747 
476.417552  	0.555917 
478.346368  	0.552763 
480.275184  	0.552869 
482.204000  	0.547784 
484.132816  	0.546358 
486.061632  	0.545212 
487.990448  	0.545184 
489.919264  	0.542454 
491.848080  	0.542095 
493.776896  	0.538985 
495.705712  	0.537505 
497.634528  	0.536699 
499.563344  	0.539455 
501.492160  	0.539073 
503.420976  	0.538918 
505.349792  	0.534088 
507.278608  	0.536081 
509.207424  	0.534806 
511.136240  	0.532391 
513.065056  	0.531758 
514.993872  	0.537920 
516.922688  	0.539666 
518.851504  	0.541860 
520.780320  	0.539377 
522.709136  	0.537715 
524.637952  	0.536981 
526.566768  	0.539003 
528.495584  	0.536745 
530.424400  	0.534459 
532.353216  	0.526788 
534.282032  	0.520886 
536.210848  	0.515461 
538.139664  	0.510929 
540.068480  	0.504807 
541.997296  	0.500254 
543.926112  	0.495994 
545.854928  	0.492499 
547.783744  	0.487430 
549.712560  	0.485152 
551.641376  	0.482554 
553.570192  	0.478951 
555.499008  	0.473329 
557.427824  	0.470150 
559.356640  	0.466513 
561.285456  	0.462906 
563.214272  	0.458065 
565.143088  	0.454903 
567.071904  	0.452509 
569.000720  	0.449806 
570.929536  	0.445303 
572.858352  	0.443053 
574.787168  	0.441183 
576.715984  	0.438402 
578.644800  	0.434079 
580.573616  	0.430233 
582.502432  	0.424982 
584.431248  	0.421840 
586.360064  	0.417597 
588.288880  	0.414602 
590.217696  	0.411745 
592.146512  	0.409822 
594.075328  	0.407301 
596.004144  	0.405519 
597.932960  	0.403692 
599.861776  	0.402404 
601.790592  	0.399730 
603.719408  	0.398613 
605.648224  	0.397471 
607.577040  	0.395984 
609.505856  	0.393801 
611.434672  	0.392200 
613.363488  	0.390407 
615.292304  	0.388842 
617.221120  	0.387050 
619.149936  	0.386308 
621.078752  	0.385038 
623.007568  	0.384006 
624.936384  	0.382431 
626.865200  	0.381027 
628.794016  	0.379654 
630.722832  	0.379427 
632.651648  	0.379302 
634.580464  	0.379154 
636.509280  	0.379202 
638.438096  	0.379061 
640.366912  	0.377956 
642.295728  	0.376305 
644.224544  	0.373521 
646.153360  	0.369588 
648.082176  	0.364614 
650.010992  	0.360211 
651.939808  	0.356223 
653.868624  	0.351898 
655.797440  	0.347499 
657.726256  	0.343789 
659.655072  	0.339996 
661.583888  	0.336238 
663.512704  	0.332479 
665.441520  	0.328755 
667.370336  	0.318845 
669.299152  	0.311400 
671.227968  	0.312658 
673.156784  	0.310074 
675.085600  	0.306620 
677.014416  	0.303846 
678.943232  	0.301471 
680.872048  	0.300328 
682.800864  	0.299057 
684.729680  	0.297086 
686.658496  	0.295577 
688.587312  	0.294786 
690.516128  	0.294044 
692.444944  	0.293109 
694.373760  	0.291876 
696.302576  	0.290130 
698.231392  	0.287955 
700.160208  	0.285290 
702.089024  	0.283073 
704.017840  	0.280776 
705.946656  	0.277990 
707.875472  	0.275648 
709.804288  	0.273603 
711.733104  	0.271557 
713.661920  	0.269562 
715.590736  	0.268198 
717.519552  	0.267971 
719.448368  	0.268197 
721.377184  	0.268479 
723.306000  	0.269313 
725.234816  	0.269804 
727.163632  	0.269141 
729.092448  	0.266883 
731.021264  	0.263151 
732.950080  	0.259269 
734.878896  	0.255769 
736.807712  	0.252623 
738.736528  	0.250261 
740.665344  	0.248183 
742.594160  	0.246346 
744.522976  	0.244492 
746.451792  	0.242732 
748.380608  	0.241450 
750.309424  	0.240417 
752.238240  	0.239385 
754.167056  	0.238513 
756.095872  	0.237204 
758.024688  	0.236357 
759.953504  	0.236029 
761.882320  	0.236849 
763.811136  	0.237594 
765.739952  	0.236687 
767.668768  	0.233695 
769.597584  	0.230656 
771.526400  	0.229202 
773.455216  	0.230349 
775.384032  	0.234275 
777.312848  	0.240359 
779.241664  	0.245068 
781.170480  	0.244934 
783.099296  	0.240299 
785.028112  	0.233908 
786.956928  	0.227410 
788.885744  	0.222200 
790.814560  	0.218324 
792.743376  	0.215972 
794.672192  	0.214974 
796.601008  	0.213990 
798.529824  	0.210683 
800.458640  	0.205908 
802.387456  	0.202254 
804.316272  	0.200035 
806.245088  	0.198905 
808.173904  	0.198235 
810.102720  	0.197710 
812.031536  	0.197706 
813.960352  	0.198062 
815.889168  	0.198417 
817.817984  	0.198717 
819.746800  	0.198967 
821.675616  	0.199316 
823.604432  	0.199717 
825.533248  	0.199968 
827.462064  	0.199619 
829.390880  	0.198741 
831.319696  	0.197591 
833.248512  	0.195821 
835.177328  	0.193141 
837.106144  	0.189940 
839.034960  	0.186254 
840.963776  	0.182394 
842.892592  	0.178620 
844.821408  	0.174671 
846.750224  	0.171348 
848.679040  	0.168807 
850.607856  	0.166659 
852.536672  	0.165223 
854.465488  	0.164144 
856.394304  	0.163290 
858.323120  	0.162500 
860.251936  	0.161311 
862.180752  	0.159685 
864.109568  	0.157504 
866.038384  	0.155378 
867.967200  	0.153825 
869.896016  	0.152109 
871.824832  	0.150821 
873.753648  	0.150259 
875.682464  	0.150814 
877.611280  	0.152781 
879.540096  	0.155422 
881.468912  	0.156946 
883.397728  	0.158471 
885.326544  	0.159630 
887.255360  	0.160137 
889.184176  	0.159849 
891.112992  	0.159161 
893.041808  	0.157120 
894.970624  	0.153709 
896.899440  	0.149797 
898.828256  	0.144936 
900.757072  	0.139889 
902.685888  	0.135625 
904.614704  	0.132624 
906.543520  	0.131627 
908.472336  	0.132331 
910.401152  	0.134259 
912.329968  	0.136547 
914.258784  	0.139418 
916.187600  	0.141927 
918.116416  	0.143881 
920.045232  	0.145399 
921.974048  	0.146492 
923.902864  	0.146928 
925.831680  	0.146935 
927.760496  	0.147226 
929.689312  	0.147895 
931.618128  	0.148979 
933.546944  	0.149763 
935.475760  	0.150062 
937.404576  	0.149774 
939.333392  	0.149189 
941.262208  	0.149019 
943.191024  	0.150255 
945.119840  	0.154092 
947.048656  	0.160423 
948.977472  	0.169135 
950.906288  	0.179951 
952.835104  	0.192502 
954.763920  	0.205962 
956.692736  	0.218899 
958.621552  	0.230316 
960.550368  	0.238266 
962.479184  	0.242096 
964.408000  	0.241391 
966.336816  	0.235910 
968.265632  	0.226217 
970.194448  	0.213545 
972.123264  	0.198889 
974.052080  	0.183432 
975.980896  	0.168435 
977.909712  	0.154469 
979.838528  	0.142138 
981.767344  	0.131941 
983.696160  	0.124074 
985.624976  	0.118902 
987.553792  	0.116889 
989.482608  	0.118091 
991.411424  	0.121995 
993.340240  	0.127597 
995.269056  	0.134607 
997.197872  	0.142350 
999.126688  	0.150400 
1001.055504  	0.158640 
1002.984320  	0.167222 
1004.913136  	0.175917 
1006.841952  	0.184291 
1008.770768  	0.191730 
1010.699584  	0.197971 
1012.628400  	0.202280 
1014.557216  	0.204888 
1016.486032  	0.206301 
1018.414848  	0.206827 
1020.343664  	0.206855 
1022.272480  	0.206519 
1024.201296  	0.206758 
1026.130112  	0.209039 
1028.058928  	0.210717 
1029.987744  	0.210337 
1031.916560  	0.213326 
1033.845376  	0.219306 
1035.774192  	0.227432 
1037.703008  	0.236612 
1039.631824  	0.246763 
1041.560640  	0.260409 
1043.489456  	0.277862 
1045.418272  	0.297810 
1047.347088  	0.318347 
1049.275904  	0.335938 
1051.204720  	0.348746 
1053.133536  	0.354847 
1055.062352  	0.356929 
1056.991168  	0.356619 
1058.919984  	0.353499 
1060.848800  	0.348645 
1062.777616  	0.347041 
1064.706432  	0.347507 
1066.635248  	0.345545 
1068.564064  	0.336965 
1070.492880  	0.328413 
1072.421696  	0.321592 
1074.350512  	0.317456 
1076.279328  	0.316009 
1078.208144  	0.318209 
1080.136960  	0.321888 
1082.065776  	0.325595 
1083.994592  	0.326152 
1085.923408  	0.322943 
1087.852224  	0.315640 
1089.781040  	0.305676 
1091.709856  	0.293077 
1093.638672  	0.279832 
1095.567488  	0.265375 
1097.496304  	0.250271 
1099.425120  	0.234925 
1101.353936  	0.219708 
1103.282752  	0.204515 
1105.211568  	0.189825 
1107.140384  	0.175677 
1109.069200  	0.162216 
1110.998016  	0.149485 
1112.926832  	0.138030 
1114.855648  	0.127866 
1116.784464  	0.118445 
1118.713280  	0.109678 
1120.642096  	0.101538 
1122.570912  	0.093821 
1124.499728  	0.086533 
1126.428544  	0.080364 
1128.357360  	0.074798 
1130.286176  	0.070122 
1132.214992  	0.066208 
1134.143808  	0.063261 
1136.072624  	0.060712 
1138.001440  	0.058459 
1139.930256  	0.056201 
1141.859072  	0.053764 
1143.787888  	0.050943 
1145.716704  	0.048490 
1147.645520  	0.046111 
1149.574336  	0.044148 
1151.503152  	0.042632 
1153.431968  	0.041959 
1155.360784  	0.041919 
1157.289600  	0.042806 
1159.218416  	0.044355 
1161.147232  	0.046630 
1163.076048  	0.049105 
1165.004864  	0.051776 
1166.933680  	0.054109 
1168.862496  	0.056684 
1170.791312  	0.059302 
1172.720128  	0.062533 
1174.648944  	0.065798 
1176.577760  	0.069143 
1178.506576  	0.072340 
1180.435392  	0.075725 
1182.364208  	0.079084 
1184.293024  	0.082924 
1186.221840  	0.086992 
1188.150656  	0.091470 
1190.079472  	0.096689 
1192.008288  	0.103154 
1193.937104  	0.110729 
1195.865920  	0.119557 
1197.794736  	0.129067 
1199.723552  	0.139395 
1201.652368  	0.150117 
1203.581184  	0.160860 
1205.510000  	0.171405 
1207.438816  	0.181353 
1209.367632  	0.190550 
1211.296448  	0.198848 
1213.225264  	0.206192 
1215.154080  	0.211940 
1217.082896  	0.216409 
1219.011712  	0.219336 
1220.940528  	0.221712 
1222.869344  	0.223233 
1224.798160  	0.223852 
1226.726976  	0.223389 
1228.655792  	0.222385 
1230.584608  	0.220185 
1232.513424  	0.216640 
1234.442240  	0.211882 
1236.371056  	0.206514 
1238.299872  	0.200399 
1240.228688  	0.194859 
1242.157504  	0.188022 
1244.086320  	0.179327 
1246.015136  	0.171126 
1247.943952  	0.163604 
1249.872768  	0.155691 
1251.801584  	0.147308 
1253.730400  	0.139118 
1255.659216  	0.131137 
1257.588032  	0.123632 
1259.516848  	0.116146 
1261.445664  	0.108916 
1263.374480  	0.102110 
1265.303296  	0.096252 
1267.232112  	0.091328 
1269.160928  	0.087541 
1271.089744  	0.084508 
1273.018560  	0.082638 
1274.947376  	0.081658 
1276.876192  	0.081345 
1278.805008  	0.080878 
1280.733824  	0.079526 
1282.662640  	0.077047 
1284.591456  	0.074271 
1286.520272  	0.072027 
1288.449088  	0.070605 
1290.377904  	0.069594 
1292.306720  	0.069681 
1294.235536  	0.069913 
1296.164352  	0.069335 
1298.093168  	0.066874 
1300.021984  	0.063667 
1301.950800  	0.060262 
1303.879616  	0.057061 
1305.808432  	0.053565 
1307.737248  	0.050155 
1309.666064  	0.046707 
1311.594880  	0.044500 
1313.523696  	0.042765 
1315.452512  	0.041329 
1317.381328  	0.040564 
1319.310144  	0.040361 
1321.238960  	0.040270 
1323.167776  	0.040887 
1325.096592  	0.041722 
1327.025408  	0.042319 
1328.954224  	0.042233 
1330.883040  	0.041758 
1332.811856  	0.040733 
1334.740672  	0.040434 
1336.669488  	0.041237 
1338.598304  	0.042323 
1340.527120  	0.040532 
1342.455936  	0.037971 
1344.384752  	0.037434 
1346.313568  	0.037880 
1348.242384  	0.038715 
1350.171200  	0.040181 
1352.100016  	0.042173 
1354.028832  	0.044719 
1355.957648  	0.046993 
1357.886464  	0.049630 
1359.815280  	0.053016 
1361.744096  	0.056902 
1363.672912  	0.058780 
1365.601728  	0.060153 
1367.530544  	0.062656 
1369.459360  	0.064572 
1371.388176  	0.065914 
1373.316992  	0.066491 
1375.245808  	0.064350 
1377.174624  	0.062717 
1379.103440  	0.060659 
1381.032256  	0.057972 
1382.961072  	0.055640 
1384.889888  	0.054618 
1386.818704  	0.053429 
1388.747520  	0.050137 
1390.676336  	0.048775 
1392.605152  	0.050478 
1394.533968  	0.050523 
1396.462784  	0.047981 
1398.391600  	0.047342 
1400.320416  	0.047020 
1402.249232  	0.048716 
1404.178048  	0.050872 
1406.106864  	0.051658 
1408.035680  	0.052732 
1409.964496  	0.054444 
1411.893312  	0.055792 
1413.822128  	0.056988 
1415.750944  	0.059846 
1417.679760  	0.061745 
1419.608576  	0.058537 
1421.537392  	0.057325 
1423.466208  	0.057334 
1425.395024  	0.054622 
1427.323840  	0.052665 
1429.252656  	0.049666 
1431.181472  	0.047310 
1433.110288  	0.047394 
1435.039104  	0.048644 
1436.967920  	0.047745 
1438.896736  	0.047933 
1440.825552  	0.049353 
1442.754368  	0.050082 
1444.683184  	0.050549 
1446.612000  	0.051004 
1448.540816  	0.050726 
1450.469632  	0.051654 
1452.398448  	0.052801 
1454.327264  	0.054195 
1456.256080  	0.052651 
1458.184896  	0.047212 
1460.113712  	0.048212 
1462.042528  	0.049768 
1463.971344  	0.049124 
1465.900160  	0.048831 
1467.828976  	0.051644 
1469.757792  	0.055316 
1471.686608  	0.058590 
1473.615424  	0.063697 
1475.544240  	0.070729 
1477.473056  	0.076346 
1479.401872  	0.080596 
1481.330688  	0.084288 
1483.259504  	0.086553 
1485.188320  	0.088732 
1487.117136  	0.089303 
1489.045952  	0.089118 
1490.974768  	0.084835 
1492.903584  	0.082093 
1494.832400  	0.078938 
1496.761216  	0.070876 
1498.690032  	0.063506 
1500.618848  	0.059434 
1502.547664  	0.055606 
1504.476480  	0.051227 
1506.405296  	0.045011 
1508.334112  	0.043184 
1510.262928  	0.042979 
1512.191744  	0.040259 
1514.120560  	0.039216 
1516.049376  	0.038946 
1517.978192  	0.037142 
1519.907008  	0.038576 
1521.835824  	0.038065 
1523.764640  	0.042730 
1525.693456  	0.048173 
1527.622272  	0.050272 
1529.551088  	0.050800 
1531.479904  	0.050734 
1533.408720  	0.045476 
1535.337536  	0.041604 
1537.266352  	0.040220 
1539.195168  	0.031190 
1541.123984  	0.022919 
1543.052800  	0.027467 
1544.981616  	0.028763 
1546.910432  	0.027766 
1548.839248  	0.028703 
1550.768064  	0.028766 
1552.696880  	0.028284 
1554.625696  	0.028422 
1556.554512  	0.028370 
1558.483328  	0.024621 
1560.412144  	0.027961 
1562.340960  	0.036829 
1564.269776  	0.041258 
1566.198592  	0.046667 
1568.127408  	0.051020 
1570.056224  	0.055385 
1571.985040  	0.063265 
1573.913856  	0.068961 
1575.842672  	0.069089 
1577.771488  	0.071955 
1579.700304  	0.075332 
1581.629120  	0.075562 
1583.557936  	0.074928 
1585.486752  	0.075767 
1587.415568  	0.078290 
1589.344384  	0.082966 
1591.273200  	0.089133 
1593.202016  	0.096702 
1595.130832  	0.104729 
1597.059648  	0.113252 
1598.988464  	0.120862 
1600.917280  	0.127717 
1602.846096  	0.132180 
1604.774912  	0.135146 
1606.703728  	0.135973 
1608.632544  	0.135096 
1610.561360  	0.132949 
1612.490176  	0.131526 
1614.418992  	0.129425 
1616.347808  	0.124678 
1618.276624  	0.124965 
1620.205440  	0.131282 
1622.134256  	0.134434 
1624.063072  	0.138973 
1625.991888  	0.146677 
1627.920704  	0.155099 
1629.849520  	0.165469 
1631.778336  	0.176469 
1633.707152  	0.183984 
1635.635968  	0.189639 
1637.564784  	0.200246 
1639.493600  	0.210918 
1641.422416  	0.217489 
1643.351232  	0.222615 
1645.280048  	0.223468 
1647.208864  	0.220832 
1649.137680  	0.223258 
1651.066496  	0.226455 
1652.995312  	0.216400 
1654.924128  	0.214528 
1656.852944  	0.218214 
1658.781760  	0.217363 
1660.710576  	0.213958 
1662.639392  	0.207410 
1664.568208  	0.202638 
1666.497024  	0.201172 
1668.425840  	0.194739 
1670.354656  	0.185100 
1672.283472  	0.181965 
1674.212288  	0.179134 
1676.141104  	0.172628 
1678.069920  	0.172633 
1679.998736  	0.172530 
1681.927552  	0.170986 
1683.856368  	0.163279 
1685.785184  	0.160449 
1687.714000  	0.165190 
1689.642816  	0.164945 
1691.571632  	0.163123 
1693.500448  	0.163119 
1695.429264  	0.158615 
1697.358080  	0.154987 
1699.286896  	0.153490 
1701.215712  	0.146921 
1703.144528  	0.148557 
1705.073344  	0.144979 
1707.002160  	0.138526 
1708.930976  	0.135145 
1710.859792  	0.129552 
1712.788608  	0.122929 
1714.717424  	0.114064 
1716.646240  	0.101591 
1718.575056  	0.085307 
1720.503872  	0.077229 
1722.432688  	0.070543 
1724.361504  	0.060164 
1726.290320  	0.051457 
1728.219136  	0.044739 
1730.147952  	0.038782 
1732.076768  	0.033507 
1734.005584  	0.024982 
1735.934400  	0.019182 
1737.863216  	0.019712 
1739.792032  	0.015220 
1741.720848  	0.014214 
1743.649664  	0.014419 
1745.578480  	0.013403 
1747.507296  	0.011465 
1749.436112  	0.010530 
1751.364928  	0.008999 
1753.293744  	0.007793 
1755.222560  	0.007698 
1757.151376  	0.006994 
1759.080192  	0.006267 
1761.009008  	0.005576 
1762.937824  	0.003648 
1764.866640  	0.004308 
1766.795456  	0.005263 
1768.724272  	0.004732 
1770.653088  	0.001966 
1772.581904  	-0.001589 
1774.510720  	0.000141 
1776.439536  	0.002391 
1778.368352  	0.002762 
1780.297168  	0.002278 
1782.225984  	0.001627 
1784.154800  	0.002372 
1786.083616  	0.001573 
1788.012432  	0.001687 
1789.941248  	0.002251 
1791.870064  	0.000614 
1793.798880  	-0.001190 
1795.727696  	0.000800 
1797.656512  	0.000541 
1799.585328  	0.000281 
1801.514144  	0.000725 
1803.442960  	0.000364 
1805.371776  	-0.000474 
1807.300592  	0.000078 
1809.229408  	-0.000497 
1811.158224  	-0.000981 
1813.087040  	-0.001201 
1815.015856  	-0.000775 
1816.944672  	-0.000475 
1818.873488  	-0.000674 
1820.802304  	-0.001051 
1822.731120  	-0.000203 
1824.659936  	-0.000628 
1826.588752  	-0.001426 
1828.517568  	-0.002300 
1830.446384  	-0.002879 
1832.375200  	-0.002024 
1834.304016  	-0.001154 
1836.232832  	-0.001386 
1838.161648  	-0.001269 
1840.090464  	-0.001413 
1842.019280  	-0.000451 
1843.948096  	-0.001980 
1845.876912  	-0.002144 
1847.805728  	-0.001113 
1849.734544  	-0.001299 
1851.663360  	-0.001934 
1853.592176  	-0.001960 
1855.520992  	-0.002219 
1857.449808  	-0.001892 
1859.378624  	-0.001885 
1861.307440  	-0.001848 
1863.236256  	-0.002052 
1865.165072  	-0.001600 
1867.093888  	-0.001716 
1869.022704  	-0.002217 
1870.951520  	-0.002658 
1872.880336  	-0.002265 
1874.809152  	-0.002487 
1876.737968  	-0.002490 
1878.666784  	-0.002838 
1880.595600  	-0.002220 
1882.524416  	-0.002322 
1884.453232  	-0.002270 
1886.382048  	-0.002522 
1888.310864  	-0.001965 
1890.239680  	-0.002305 
1892.168496  	-0.002043 
1894.097312  	-0.002032 
1896.026128  	-0.001816 
1897.954944  	-0.002318 
1899.883760  	-0.002057 
1901.812576  	-0.002153 
1903.741392  	-0.002273 
1905.670208  	-0.002306 
1907.599024  	-0.001399 
1909.527840  	-0.001439 
1911.456656  	-0.001322 
1913.385472  	-0.001813 
1915.314288  	-0.001208 
1917.243104  	-0.001417 
1919.171920  	-0.001725 
1921.100736  	-0.001454 
1923.029552  	-0.000868 
1924.958368  	-0.001838 
1926.887184  	-0.002002 
1928.816000  	-0.002442 
1930.744816  	-0.002240 
1932.673632  	-0.002451 
1934.602448  	-0.002022 
1936.531264  	-0.002099 
1938.460080  	-0.001655 
1940.388896  	-0.001817 
1942.317712  	-0.001649 
1944.246528  	-0.002471 
1946.175344  	-0.001731 
1948.104160  	-0.002349 
1950.032976  	-0.002184 
1951.961792  	-0.002386 
1953.890608  	-0.002047 
1955.819424  	-0.002414 
1957.748240  	-0.001282 
1959.677056  	-0.002048 
1961.605872  	-0.001569 
1963.534688  	-0.001758 
1965.463504  	-0.001095 
1967.392320  	-0.001780 
1969.321136  	-0.002049 
1971.249952  	-0.002326 
1973.178768  	-0.000891 
1975.107584  	-0.002322 
1977.036400  	-0.002055 
1978.965216  	-0.000984 
1980.894032  	-0.001003 
1982.822848  	-0.002379 
1984.751664  	-0.001712 
1986.680480  	-0.002190 
1988.609296  	-0.001991 
1990.538112  	-0.002086 
1992.466928  	-0.001431 
1994.395744  	-0.002782 
1996.324560  	-0.003372 
1998.253376  	-0.003960 
2000.182192  	-0.003115 
2002.111008  	-0.002824 
2004.039824  	-0.001774 
2005.968640  	-0.001953 
2007.897456  	-0.001527 
2009.826272  	-0.002932 
2011.755088  	-0.002717 
2013.683904  	-0.003227 
2015.612720  	-0.001871 
2017.541536  	-0.001385 
2019.470352  	-0.002097 
2021.399168  	-0.003962 
2023.327984  	-0.003424 
2025.256800  	-0.002301 
2027.185616  	-0.000920 
2029.114432  	-0.002170 
2031.043248  	-0.001866 
2032.972064  	-0.001064 
2034.900880  	-0.000705 
2036.829696  	-0.001922 
2038.758512  	-0.001782 
2040.687328  	-0.002352 
2042.616144  	-0.001160 
2044.544960  	-0.001445 
2046.473776  	-0.001430 
2048.402592  	-0.002001 
2050.331408  	-0.001522 
2052.260224  	-0.001960 
2054.189040  	-0.002102 
2056.117856  	-0.002552 
2058.046672  	-0.001868 
2059.975488  	-0.001722 
2061.904304  	-0.001672 
2063.833120  	-0.002020 
2065.761936  	-0.002274 
2067.690752  	-0.002932 
2069.619568  	-0.002470 
2071.548384  	-0.002194 
2073.477200  	-0.002072 
2075.406016  	-0.002117 
2077.334832  	-0.001555 
2079.263648  	-0.001762 
2081.192464  	-0.001780 
2083.121280  	-0.001684 
2085.050096  	-0.001312 
2086.978912  	-0.001569 
2088.907728  	-0.001214 
2090.836544  	-0.001623 
2092.765360  	-0.001574 
2094.694176  	-0.001098 
2096.622992  	-0.000901 
2098.551808  	-0.001226 
2100.480624  	-0.000879 
2102.409440  	-0.001174 
2104.338256  	-0.001192 
2106.267072  	-0.000732 
2108.195888  	-0.000289 
2110.124704  	-0.000850 
2112.053520  	-0.000651 
2113.982336  	-0.000790 
2115.911152  	-0.000637 
2117.839968  	-0.001038 
2119.768784  	-0.001497 
2121.697600  	-0.001671 
2123.626416  	-0.001484 
2125.555232  	-0.001804 
2127.484048  	-0.001506 
2129.412864  	-0.001754 
2131.341680  	-0.002114 
2133.270496  	-0.002285 
2135.199312  	-0.001236 
2137.128128  	-0.000732 
2139.056944  	-0.000457 
2140.985760  	-0.000924 
2142.914576  	-0.000134 
2144.843392  	0.000043 
2146.772208  	0.000067 
2148.701024  	-0.000590 
2150.629840  	-0.000160 
2152.558656  	-0.000202 
2154.487472  	-0.000412 
2156.416288  	-0.000757 
2158.345104  	0.000422 
2160.273920  	0.001278 
2162.202736  	0.001956 
2164.131552  	0.001298 
2166.060368  	0.000951 
2167.989184  	0.001133 
2169.918000  	0.001293 
2171.846816  	-0.000935 
2173.775632  	-0.001091 
2175.704448  	-0.000253 
2177.633264  	0.000146 
2179.562080  	-0.000852 
2181.490896  	-0.001093 
2183.419712  	-0.001111 
2185.348528  	-0.000613 
2187.277344  	-0.000469 
2189.206160  	-0.000414 
2191.134976  	-0.000867 
2193.063792  	-0.000517 
2194.992608  	-0.000315 
2196.921424  	-0.000354 
2198.850240  	-0.001117 
2200.779056  	-0.001321 
2202.707872  	-0.001463 
2204.636688  	-0.001237 
2206.565504  	-0.001531 
2208.494320  	-0.001629 
2210.423136  	-0.001807 
2212.351952  	-0.001372 
2214.280768  	-0.001578 
2216.209584  	-0.001558 
2218.138400  	-0.002018 
2220.067216  	-0.001818 
2221.996032  	-0.001601 
2223.924848  	-0.001622 
2225.853664  	-0.001418 
2227.782480  	-0.000799 
2229.711296  	-0.001319 
2231.640112  	-0.002090 
2233.568928  	-0.002411 
2235.497744  	-0.002045 
2237.426560  	-0.002386 
2239.355376  	-0.002360 
2241.284192  	-0.002179 
2243.213008  	-0.002233 
2245.141824  	-0.002480 
2247.070640  	-0.002223 
2248.999456  	-0.002366 
2250.928272  	-0.002732 
2252.857088  	-0.003287 
2254.785904  	-0.003054 
2256.714720  	-0.003481 
2258.643536  	-0.003716 
2260.572352  	-0.003692 
2262.501168  	-0.003584 
2264.429984  	-0.003692 
2266.358800  	-0.003494 
2268.287616  	-0.003528 
2270.216432  	-0.003625 
2272.145248  	-0.003658 
2274.074064  	-0.003246 
2276.002880  	-0.003030 
2277.931696  	-0.002674 
2279.860512  	-0.002567 
2281.789328  	-0.002261 
2283.718144  	-0.002131 
2285.646960  	-0.002020 
2287.575776  	-0.002231 
2289.504592  	-0.002645 
2291.433408  	-0.002919 
2293.362224  	-0.002836 
2295.291040  	-0.002653 
2297.219856  	-0.002278 
2299.148672  	-0.002287 
2301.077488  	-0.002333 
2303.006304  	-0.002612 
2304.935120  	-0.002780 
2306.863936  	-0.003055 
2308.792752  	-0.003608 
2310.721568  	-0.004367 
2312.650384  	-0.005401 
2314.579200  	-0.006648 
2316.508016  	-0.008080 
2318.436832  	-0.009756 
2320.365648  	-0.011817 
2322.294464  	-0.014432 
2324.223280  	-0.017118 
2326.152096  	-0.019869 
2328.080912  	-0.022269 
2330.009728  	-0.024976 
2331.938544  	-0.027556 
2333.867360  	-0.029782 
2335.796176  	-0.031454 
2337.724992  	-0.032778 
2339.653808  	-0.033219 
2341.582624  	-0.033656 
2343.511440  	-0.032087 
2345.440256  	-0.027896 
2347.369072  	-0.020339 
2349.297888  	-0.016096 
2351.226704  	-0.020407 
2353.155520  	-0.028973 
2355.084336  	-0.035885 
2357.013152  	-0.040976 
2358.941968  	-0.043874 
2360.870784  	-0.045811 
2362.799600  	-0.044705 
2364.728416  	-0.041905 
2366.657232  	-0.037577 
2368.586048  	-0.032089 
2370.514864  	-0.026269 
2372.443680  	-0.020871 
2374.372496  	-0.015572 
2376.301312  	-0.010870 
2378.230128  	-0.007094 
2380.158944  	-0.004586 
2382.087760  	-0.003182 
2384.016576  	-0.002746 
2385.945392  	-0.002781 
2387.874208  	-0.003045 
2389.803024  	-0.003402 
2391.731840  	-0.003806 
2393.660656  	-0.003636 
2395.589472  	-0.003421 
2397.518288  	-0.003361 
2399.447104  	-0.003591 
2401.375920  	-0.003853 
2403.304736  	-0.004065 
2405.233552  	-0.003825 
2407.162368  	-0.003775 
2409.091184  	-0.003626 
2411.020000  	-0.003592 
2412.948816  	-0.003586 
2414.877632  	-0.003463 
2416.806448  	-0.003184 
2418.735264  	-0.003490 
2420.664080  	-0.003762 
2422.592896  	-0.003705 
2424.521712  	-0.003509 
2426.450528  	-0.003598 
2428.379344  	-0.003417 
2430.308160  	-0.003255 
2432.236976  	-0.003074 
2434.165792  	-0.003126 
2436.094608  	-0.003338 
2438.023424  	-0.003320 
2439.952240  	-0.002893 
2441.881056  	-0.002980 
2443.809872  	-0.003039 
2445.738688  	-0.002767 
2447.667504  	-0.002599 
2449.596320  	-0.002917 
2451.525136  	-0.002939 
2453.453952  	-0.002756 
2455.382768  	-0.002722 
2457.311584  	-0.002887 
2459.240400  	-0.002984 
2461.169216  	-0.003081 
2463.098032  	-0.003206 
2465.026848  	-0.003314 
2466.955664  	-0.003235 
2468.884480  	-0.003376 
2470.813296  	-0.003432 
2472.742112  	-0.003324 
2474.670928  	-0.003052 
2476.599744  	-0.002951 
2478.528560  	-0.003026 
2480.457376  	-0.002996 
2482.386192  	-0.002969 
2484.315008  	-0.003034 
2486.243824  	-0.002950 
2488.172640  	-0.002755 
2490.101456  	-0.002344 
2492.030272  	-0.002317 
2493.959088  	-0.002458 
2495.887904  	-0.002463 
2497.816720  	-0.002561 
2499.745536  	-0.002565 
2501.674352  	-0.002275 
2503.603168  	-0.002021 
2505.531984  	-0.001927 
2507.460800  	-0.002264 
2509.389616  	-0.002314 
2511.318432  	-0.002225 
2513.247248  	-0.002123 
2515.176064  	-0.002134 
2517.104880  	-0.002092 
2519.033696  	-0.002166 
2520.962512  	-0.002163 
2522.891328  	-0.002060 
2524.820144  	-0.002031 
2526.748960  	-0.002001 
2528.677776  	-0.001795 
2530.606592  	-0.001786 
2532.535408  	-0.001878 
2534.464224  	-0.001821 
2536.393040  	-0.001670 
2538.321856  	-0.001502 
2540.250672  	-0.001403 
2542.179488  	-0.001373 
2544.108304  	-0.001315 
2546.037120  	-0.001288 
2547.965936  	-0.001193 
2549.894752  	-0.001108 
2551.823568  	-0.000952 
2553.752384  	-0.000850 
2555.681200  	-0.000571 
2557.610016  	-0.000636 
2559.538832  	-0.000502 
2561.467648  	-0.000195 
2563.396464  	-0.000073 
2565.325280  	-0.000010 
2567.254096  	0.000123 
2569.182912  	0.000033 
2571.111728  	0.000040 
2573.040544  	0.000088 
2574.969360  	0.000147 
2576.898176  	0.000378 
2578.826992  	0.000534 
2580.755808  	0.000470 
2582.684624  	0.000572 
2584.613440  	0.000670 
2586.542256  	0.000728 
2588.471072  	0.000950 
2590.399888  	0.001125 
2592.328704  	0.001040 
2594.257520  	0.000961 
2596.186336  	0.001162 
2598.115152  	0.001326 
2600.043968  	0.001292 
2601.972784  	0.001491 
2603.901600  	0.001672 
2605.830416  	0.001847 
2607.759232  	0.001991 
2609.688048  	0.002109 
2611.616864  	0.002202 
2613.545680  	0.002262 
2615.474496  	0.002414 
2617.403312  	0.002742 
2619.332128  	0.002858 
2621.260944  	0.002824 
2623.189760  	0.002844 
2625.118576  	0.002947 
2627.047392  	0.003030 
2628.976208  	0.003186 
2630.905024  	0.003292 
2632.833840  	0.003490 
2634.762656  	0.003596 
2636.691472  	0.003623 
2638.620288  	0.003810 
2640.549104  	0.004018 
2642.477920  	0.004073 
2644.406736  	0.004225 
2646.335552  	0.004490 
2648.264368  	0.004641 
2650.193184  	0.004749 
2652.122000  	0.004992 
2654.050816  	0.005232 
2655.979632  	0.005353 
2657.908448  	0.005414 
2659.837264  	0.005572 
2661.766080  	0.005697 
2663.694896  	0.005869 
2665.623712  	0.006046 
2667.552528  	0.006301 
2669.481344  	0.006422 
2671.410160  	0.006601 
2673.338976  	0.006759 
2675.267792  	0.006902 
2677.196608  	0.007093 
2679.125424  	0.007300 
2681.054240  	0.007532 
2682.983056  	0.007648 
2684.911872  	0.007608 
2686.840688  	0.007725 
2688.769504  	0.007940 
2690.698320  	0.007992 
2692.627136  	0.008009 
2694.555952  	0.008088 
2696.484768  	0.008182 
2698.413584  	0.008390 
2700.342400  	0.008510 
2702.271216  	0.008684 
2704.200032  	0.008984 
2706.128848  	0.009138 
2708.057664  	0.009150 
2709.986480  	0.009343 
2711.915296  	0.009521 
2713.844112  	0.009687 
2715.772928  	0.009944 
2717.701744  	0.010140 
2719.630560  	0.010369 
2721.559376  	0.010572 
2723.488192  	0.010756 
2725.417008  	0.011025 
2727.345824  	0.011288 
2729.274640  	0.011507 
2731.203456  	0.011691 
2733.132272  	0.011896 
2735.061088  	0.012159 
2736.989904  	0.012446 
2738.918720  	0.012614 
2740.847536  	0.012785 
2742.776352  	0.012859 
2744.705168  	0.012985 
2746.633984  	0.013129 
2748.562800  	0.013244 
2750.491616  	0.013319 
2752.420432  	0.013537 
2754.349248  	0.013534 
2756.278064  	0.013456 
2758.206880  	0.013367 
2760.135696  	0.013432 
2762.064512  	0.013526 
2763.993328  	0.013617 
2765.922144  	0.013698 
2767.850960  	0.013667 
2769.779776  	0.013656 
2771.708592  	0.013738 
2773.637408  	0.013678 
2775.566224  	0.013625 
2777.495040  	0.013682 
2779.423856  	0.013839 
2781.352672  	0.013923 
2783.281488  	0.013924 
2785.210304  	0.013956 
2787.139120  	0.014054 
2789.067936  	0.014155 
2790.996752  	0.014221 
2792.925568  	0.014257 
2794.854384  	0.014370 
2796.783200  	0.014447 
2798.712016  	0.014472 
2800.640832  	0.014470 
2802.569648  	0.014547 
2804.498464  	0.014607 
2806.427280  	0.014626 
2808.356096  	0.014655 
2810.284912  	0.014744 
2812.213728  	0.014851 
2814.142544  	0.014850 
2816.071360  	0.014882 
2818.000176  	0.014912 
2819.928992  	0.015061 
2821.857808  	0.015213 
2823.786624  	0.015289 
2825.715440  	0.015429 
2827.644256  	0.015460 
2829.573072  	0.015575 
2831.501888  	0.015595 
2833.430704  	0.015662 
2835.359520  	0.015723 
2837.288336  	0.015850 
2839.217152  	0.015964 
2841.145968  	0.016114 
2843.074784  	0.016485 
2845.003600  	0.016814 
2846.932416  	0.017133 
2848.861232  	0.017820 
2850.790048  	0.018451 
2852.718864  	0.018769 
2854.647680  	0.019164 
2856.576496  	0.019491 
2858.505312  	0.019945 
2860.434128  	0.020702 
2862.362944  	0.021498 
2864.291760  	0.022227 
2866.220576  	0.023014 
2868.149392  	0.023795 
2870.078208  	0.024430 
2872.007024  	0.025110 
2873.935840  	0.025848 
2875.864656  	0.026654 
2877.793472  	0.027675 
2879.722288  	0.029067 
2881.651104  	0.030603 
2883.579920  	0.031892 
2885.508736  	0.032665 
2887.437552  	0.032916 
2889.366368  	0.033257 
2891.295184  	0.033833 
2893.224000  	0.034280 
2895.152816  	0.034394 
2897.081632  	0.034704 
2899.010448  	0.036142 
2900.939264  	0.037398 
2902.868080  	0.036789 
2904.796896  	0.036133 
2906.725712  	0.036206 
2908.654528  	0.036599 
2910.583344  	0.037135 
2912.512160  	0.037266 
2914.440976  	0.037259 
2916.369792  	0.037605 
2918.298608  	0.038231 
2920.227424  	0.038745 
2922.156240  	0.039127 
2924.085056  	0.039311 
2926.013872  	0.039731 
2927.942688  	0.040275 
2929.871504  	0.040735 
2931.800320  	0.041222 
2933.729136  	0.041879 
2935.657952  	0.042682 
2937.586768  	0.043365 
2939.515584  	0.044099 
2941.444400  	0.044935 
2943.373216  	0.045639 
2945.302032  	0.046236 
2947.230848  	0.046494 
2949.159664  	0.046919 
2951.088480  	0.047802 
2953.017296  	0.048529 
2954.946112  	0.049009 
2956.874928  	0.049510 
2958.803744  	0.049852 
2960.732560  	0.050166 
2962.661376  	0.050534 
2964.590192  	0.051108 
2966.519008  	0.051831 
2968.447824  	0.052537 
2970.376640  	0.052841 
2972.305456  	0.052716 
2974.234272  	0.052444 
2976.163088  	0.052181 
2978.091904  	0.051794 
2980.020720  	0.051596 
2981.949536  	0.051475 
2983.878352  	0.051702 
2985.807168  	0.052447 
2987.735984  	0.052974 
2989.664800  	0.052414 
2991.593616  	0.050085 
2993.522432  	0.048846 
2995.451248  	0.048492 
2997.380064  	0.048021 
2999.308880  	0.047452 
3001.237696  	0.046750 
3003.166512  	0.046121 
3005.095328  	0.045531 
3007.024144  	0.044914 
3008.952960  	0.044305 
3010.881776  	0.043759 
3012.810592  	0.043208 
3014.739408  	0.042726 
3016.668224  	0.042206 
3018.597040  	0.041862 
3020.525856  	0.041622 
3022.454672  	0.041344 
3024.383488  	0.041162 
3026.312304  	0.041020 
3028.241120  	0.040979 
3030.169936  	0.040923 
3032.098752  	0.040887 
3034.027568  	0.040998 
3035.956384  	0.041204 
3037.885200  	0.041560 
3039.814016  	0.041865 
3041.742832  	0.042137 
3043.671648  	0.042439 
3045.600464  	0.042736 
3047.529280  	0.043072 
3049.458096  	0.043573 
3051.386912  	0.044368 
3053.315728  	0.045015 
3055.244544  	0.045508 
3057.173360  	0.046248 
3059.102176  	0.046910 
3061.030992  	0.047683 
3062.959808  	0.048649 
3064.888624  	0.049526 
3066.817440  	0.050345 
3068.746256  	0.051370 
3070.675072  	0.052301 
3072.603888  	0.053080 
3074.532704  	0.054038 
3076.461520  	0.055032 
3078.390336  	0.055910 
3080.319152  	0.056834 
3082.247968  	0.057985 
3084.176784  	0.059020 
3086.105600  	0.060028 
3088.034416  	0.060882 
3089.963232  	0.061843 
3091.892048  	0.062700 
3093.820864  	0.063549 
3095.749680  	0.064503 
3097.678496  	0.065621 
3099.607312  	0.066710 
3101.536128  	0.067845 
3103.464944  	0.069133 
3105.393760  	0.070127 
3107.322576  	0.070945 
3109.251392  	0.071797 
3111.180208  	0.072701 
3113.109024  	0.073626 
3115.037840  	0.074532 
3116.966656  	0.075360 
3118.895472  	0.076111 
3120.824288  	0.076976 
3122.753104  	0.077856 
3124.681920  	0.078538 
3126.610736  	0.079227 
3128.539552  	0.080161 
3130.468368  	0.081004 
3132.397184  	0.081533 
3134.326000  	0.082340 
3136.254816  	0.083243 
3138.183632  	0.084137 
3140.112448  	0.084888 
3142.041264  	0.085619 
3143.970080  	0.086440 
3145.898896  	0.087361 
3147.827712  	0.088076 
3149.756528  	0.088686 
3151.685344  	0.089450 
3153.614160  	0.090363 
3155.542976  	0.091307 
3157.471792  	0.092149 
3159.400608  	0.092903 
3161.329424  	0.093531 
3163.258240  	0.094086 
3165.187056  	0.094773 
3167.115872  	0.095620 
3169.044688  	0.096368 
3170.973504  	0.096749 
3172.902320  	0.097226 
3174.831136  	0.097993 
3176.759952  	0.098697 
3178.688768  	0.099061 
3180.617584  	0.099604 
3182.546400  	0.100104 
3184.475216  	0.100269 
3186.404032  	0.100402 
3188.332848  	0.100645 
3190.261664  	0.101030 
3192.190480  	0.101334 
3194.119296  	0.101347 
3196.048112  	0.101409 
3197.976928  	0.101420 
3199.905744  	0.101448 
3201.834560  	0.101440 
3203.763376  	0.101443 
3205.692192  	0.101522 
3207.621008  	0.101280 
3209.549824  	0.100941 
3211.478640  	0.100925 
3213.407456  	0.100944 
3215.336272  	0.100750 
3217.265088  	0.100758 
3219.193904  	0.100621 
3221.122720  	0.100279 
3223.051536  	0.100093 
3224.980352  	0.099948 
3226.909168  	0.099708 
3228.837984  	0.099441 
3230.766800  	0.099480 
3232.695616  	0.099431 
3234.624432  	0.099057 
3236.553248  	0.098991 
3238.482064  	0.099223 
3240.410880  	0.099213 
3242.339696  	0.099370 
3244.268512  	0.099263 
3246.197328  	0.099263 
3248.126144  	0.099647 
3250.054960  	0.099879 
3251.983776  	0.100126 
3253.912592  	0.100304 
3255.841408  	0.100490 
3257.770224  	0.100768 
3259.699040  	0.101150 
3261.627856  	0.101545 
3263.556672  	0.101840 
3265.485488  	0.101897 
3267.414304  	0.102090 
3269.343120  	0.102642 
3271.271936  	0.102938 
3273.200752  	0.103003 
3275.129568  	0.103265 
3277.058384  	0.103688 
3278.987200  	0.103795 
3280.916016  	0.103948 
3282.844832  	0.104184 
3284.773648  	0.104569 
3286.702464  	0.104846 
3288.631280  	0.105166 
3290.560096  	0.105532 
3292.488912  	0.105946 
3294.417728  	0.106381 
3296.346544  	0.106644 
3298.275360  	0.106869 
3300.204176  	0.107256 
3302.132992  	0.107588 
3304.061808  	0.107744 
3305.990624  	0.108250 
3307.919440  	0.108849 
3309.848256  	0.109284 
3311.777072  	0.109647 
3313.705888  	0.109923 
3315.634704  	0.110449 
3317.563520  	0.110980 
3319.492336  	0.111321 
3321.421152  	0.111549 
3323.349968  	0.111746 
3325.278784  	0.111966 
3327.207600  	0.112188 
3329.136416  	0.112220 
3331.065232  	0.112366 
3332.994048  	0.112568 
3334.922864  	0.112711 
3336.851680  	0.112660 
3338.780496  	0.112438 
3340.709312  	0.112235 
3342.638128  	0.112039 
3344.566944  	0.111649 
3346.495760  	0.111261 
3348.424576  	0.110947 
3350.353392  	0.110840 
3352.282208  	0.110563 
3354.211024  	0.110170 
3356.139840  	0.109815 
3358.068656  	0.109571 
3359.997472  	0.109256 
3361.926288  	0.108686 
3363.855104  	0.108354 
3365.783920  	0.107953 
3367.712736  	0.107580 
3369.641552  	0.107220 
3371.570368  	0.106640 
3373.499184  	0.106016 
3375.428000  	0.105525 
3377.356816  	0.105271 
3379.285632  	0.105102 
3381.214448  	0.104626 
3383.143264  	0.104154 
3385.072080  	0.103776 
3387.000896  	0.103155 
3388.929712  	0.102743 
3390.858528  	0.102531 
3392.787344  	0.102028 
3394.716160  	0.101420 
3396.644976  	0.100879 
3398.573792  	0.100283 
3400.502608  	0.099857 
3402.431424  	0.099261 
3404.360240  	0.098576 
3406.289056  	0.097823 
3408.217872  	0.097230 
3410.146688  	0.096706 
3412.075504  	0.096083 
3414.004320  	0.095611 
3415.933136  	0.095354 
3417.861952  	0.094530 
3419.790768  	0.093626 
3421.719584  	0.092875 
3423.648400  	0.092313 
3425.577216  	0.091594 
3427.506032  	0.090941 
3429.434848  	0.090348 
3431.363664  	0.089774 
3433.292480  	0.089118 
3435.221296  	0.088253 
3437.150112  	0.087507 
3439.078928  	0.087033 
3441.007744  	0.086391 
3442.936560  	0.085754 
3444.865376  	0.085270 
3446.794192  	0.084304 
3448.723008  	0.082989 
3450.651824  	0.082213 
3452.580640  	0.081531 
3454.509456  	0.080892 
3456.438272  	0.080251 
3458.367088  	0.079625 
3460.295904  	0.078873 
3462.224720  	0.077843 
3464.153536  	0.076716 
3466.082352  	0.075822 
3468.011168  	0.074700 
3469.939984  	0.073650 
3471.868800  	0.072925 
3473.797616  	0.072125 
3475.726432  	0.071136 
3477.655248  	0.070103 
3479.584064  	0.069551 
3481.512880  	0.068658 
3483.441696  	0.067321 
3485.370512  	0.066607 
3487.299328  	0.065551 
3489.228144  	0.064440 
3491.156960  	0.063371 
3493.085776  	0.062424 
3495.014592  	0.061662 
3496.943408  	0.060892 
3498.872224  	0.060198 
3500.801040  	0.060201 
3502.729856  	0.059354 
3504.658672  	0.057547 
3506.587488  	0.056874 
3508.516304  	0.056616 
3510.445120  	0.055284 
3512.373936  	0.054013 
3514.302752  	0.053163 
3516.231568  	0.052599 
3518.160384  	0.051951 
3520.089200  	0.051257 
3522.018016  	0.051207 
3523.946832  	0.051282 
3525.875648  	0.049993 
3527.804464  	0.048141 
3529.733280  	0.046907 
3531.662096  	0.046071 
3533.590912  	0.045349 
3535.519728  	0.045446 
3537.448544  	0.044852 
3539.377360  	0.043497 
3541.306176  	0.042774 
3543.234992  	0.042692 
3545.163808  	0.043239 
3547.092624  	0.042001 
3549.021440  	0.039858 
3550.950256  	0.039074 
3552.879072  	0.038221 
3554.807888  	0.037222 
3556.736704  	0.036383 
3558.665520  	0.036234 
3560.594336  	0.035939 
3562.523152  	0.034989 
3564.451968  	0.035385 
3566.380784  	0.036241 
3568.309600  	0.033633 
3570.238416  	0.031335 
3572.167232  	0.030358 
3574.096048  	0.029050 
3576.024864  	0.027846 
3577.953680  	0.027413 
3579.882496  	0.026924 
3581.811312  	0.026011 
3583.740128  	0.025662 
3585.668944  	0.026213 
3587.597760  	0.024784 
3589.526576  	0.022084 
3591.455392  	0.021262 
3593.384208  	0.021040 
3595.313024  	0.019741 
3597.241840  	0.018087 
3599.170656  	0.016674 
3601.099472  	0.015378 
3603.028288  	0.014891 
3604.957104  	0.014971 
3606.885920  	0.014726 
3608.814736  	0.013403 
3610.743552  	0.013017 
3612.672368  	0.012438 
3614.601184  	0.011066 
3616.530000  	0.010625 
3618.458816  	0.008468 
3620.387632  	0.006154 
3622.316448  	0.006132 
3624.245264  	0.006122 
3626.174080  	0.006124 
3628.102896  	0.003660 
3630.031712  	-0.000072 
3631.960528  	0.001824 
3633.889344  	0.001992 
3635.818160  	0.001463 
3637.746976  	0.001051 
3639.675792  	0.001052 
3641.604608  	0.001578 
3643.533424  	0.001753 
3645.462240  	0.001670 
3647.391056  	-0.000757 
3649.319872  	-0.005300 
3651.248688  	-0.006435 
3653.177504  	-0.003111 
3655.106320  	-0.002644 
3657.035136  	-0.004434 
3658.963952  	-0.003628 
3660.892768  	-0.003139 
3662.821584  	-0.003458 
3664.750400  	-0.003816 
3666.679216  	-0.003902 
3668.608032  	-0.006053 
3670.536848  	-0.009698 
3672.465664  	-0.007855 
3674.394480  	-0.008349 
3676.323296  	-0.012669 
3678.252112  	-0.010752 
3680.180928  	-0.009857 
3682.109744  	-0.008800 
3684.038560  	-0.008302 
3685.967376  	-0.008746 
3687.896192  	-0.012278 
3689.825008  	-0.015987 
3691.753824  	-0.014884 
3693.682640  	-0.012610 
3695.611456  	-0.012108 
3697.540272  	-0.012380 
3699.469088  	-0.012691 
3701.397904  	-0.014606 
3703.326720  	-0.015613 
3705.255536  	-0.014771 
3707.184352  	-0.014910 
3709.113168  	-0.016908 
3711.041984  	-0.019263 
3712.970800  	-0.018416 
3714.899616  	-0.015140 
3716.828432  	-0.014375 
3718.757248  	-0.015209 
3720.686064  	-0.015878 
3722.614880  	-0.016285 
3724.543696  	-0.015705 
3726.472512  	-0.016084 
3728.401328  	-0.016679 
3730.330144  	-0.017743 
3732.258960  	-0.019589 
3734.187776  	-0.017780 
3736.116592  	-0.018002 
3738.045408  	-0.018443 
3739.974224  	-0.016573 
3741.903040  	-0.015176 
3743.831856  	-0.017383 
3745.760672  	-0.019710 
3747.689488  	-0.017844 
3749.618304  	-0.020784 
3751.547120  	-0.022920 
3753.475936  	-0.020085 
3755.404752  	-0.017068 
3757.333568  	-0.016507 
3759.262384  	-0.017421 
3761.191200  	-0.017407 
3763.120016  	-0.015471 
3765.048832  	-0.015783 
3766.977648  	-0.015968 
3768.906464  	-0.016997 
3770.835280  	-0.017966 
3772.764096  	-0.016262 
3774.692912  	-0.015423 
3776.621728  	-0.015182 
3778.550544  	-0.016513 
3780.479360  	-0.017656 
3782.408176  	-0.016031 
3784.336992  	-0.016087 
3786.265808  	-0.015982 
3788.194624  	-0.015550 
3790.123440  	-0.015612 
3792.052256  	-0.015582 
3793.981072  	-0.015572 
3795.909888  	-0.016995 
3797.838704  	-0.016865 
3799.767520  	-0.017361 
3801.696336  	-0.021725 
3803.625152  	-0.019406 
3805.553968  	-0.017975 
3807.482784  	-0.019788 
3809.411600  	-0.017065 
3811.340416  	-0.015317 
3813.269232  	-0.015160 
3815.198048  	-0.018216 
3817.126864  	-0.020141 
3819.055680  	-0.018320 
3820.984496  	-0.021540 
3822.913312  	-0.020124 
3824.842128  	-0.016964 
3826.770944  	-0.017275 
3828.699760  	-0.016569 
3830.628576  	-0.016741 
3832.557392  	-0.017659 
3834.486208  	-0.017600 
3836.415024  	-0.018949 
3838.343840  	-0.020484 
3840.272656  	-0.019214 
3842.201472  	-0.017453 
3844.130288  	-0.017050 
3846.059104  	-0.015952 
3847.987920  	-0.015016 
3849.916736  	-0.015020 
3851.845552  	-0.017528 
3853.774368  	-0.023281 
3855.703184  	-0.020053 
3857.632000  	-0.016437 
3859.560816  	-0.015104 
3861.489632  	-0.015243 
3863.418448  	-0.016150 
3865.347264  	-0.016804 
3867.276080  	-0.015422 
3869.204896  	-0.016378 
3871.133712  	-0.016983 
3873.062528  	-0.015961 
3874.991344  	-0.016679 
3876.920160  	-0.015174 
3878.848976  	-0.014301 
3880.777792  	-0.014976 
3882.706608  	-0.014424 
3884.635424  	-0.014667 
3886.564240  	-0.016289 
3888.493056  	-0.015349 
3890.421872  	-0.015526 
3892.350688  	-0.016476 
3894.279504  	-0.015320 
3896.208320  	-0.014373 
3898.137136  	-0.014054 
3900.065952  	-0.014083 
3901.994768  	-0.013857 
3903.923584  	-0.014942 
3905.852400  	-0.015838 
3907.781216  	-0.015691 
3909.710032  	-0.015530 
3911.638848  	-0.015435 
3913.567664  	-0.014804 
3915.496480  	-0.013838 
3917.425296  	-0.014154 
3919.354112  	-0.014931 
3921.282928  	-0.014762 
3923.211744  	-0.014045 
3925.140560  	-0.014124 
3927.069376  	-0.014669 
3928.998192  	-0.014576 
3930.927008  	-0.013794 
3932.855824  	-0.013683 
3934.784640  	-0.014644 
3936.713456  	-0.014910 
3938.642272  	-0.014683 
3940.571088  	-0.014268 
3942.499904  	-0.013881 
3944.428720  	-0.014334 
3946.357536  	-0.013984 
3948.286352  	-0.013395 
3950.215168  	-0.014222 
3952.143984  	-0.015266 
3954.072800  	-0.015469 
3956.001616  	-0.015085 
3957.930432  	-0.015044 
3959.859248  	-0.014962 
3961.788064  	-0.014821 
3963.716880  	-0.015132 
3965.645696  	-0.015427 
3967.574512  	-0.015262 
3969.503328  	-0.015058 
3971.432144  	-0.015236 
3973.360960  	-0.015154 
3975.289776  	-0.014792 
3977.218592  	-0.014835 
3979.147408  	-0.015094 
3981.076224  	-0.015112 
3983.005040  	-0.015029 
3984.933856  	-0.015113 
3986.862672  	-0.015248 
3988.791488  	-0.014960 
3990.720304  	-0.014668 
3992.649120  	-0.014881 
3994.577936  	-0.015243 
3996.506752  	-0.015360 
3998.435568  	-0.015326 
4000.364384  	-0.015293 