##TITLE=No Description
##DATA TYPE=INFRARED SPECTRUM
##XUNITS=1/CM
##YUNITS=Abs
399.264912  	0.639562 
401.193728  	0.599252 
403.122544  	0.603936 
405.051360  	0.609665 
406.980176  	0.611990 
408.908992  	0.586713 
410.837808  	0.591691 
412.766624  	0.593537 
414.695440  	0.587806 
416.624256  	0.586109 
418.553072  	0.591374 
420.481888  	0.574157 
422.410704  	0.587118 
424.339520  	0.578951 
426.268336  	0.566893 
428.197152  	0.560176 
430.125968  	0.567143 
432.054784  	0.565343 
433.983600  	0.562533 
435.912416  	0.553355 
437.841232  	0.550289 
439.770048  	0.546614 
441.698864  	0.551345 
443.627680  	0.551689 
445.556496  	0.547636 
447.485312  	0.542163 
449.414128  	0.545257 
451.342944  	0.544142 
453.271760  	0.543429 
455.200576  	0.542785 
457.129392  	0.549672 
459.058208  	0.548894 
460.987024  	0.549901 
462.915840  	0.541042 
464.844656  	0.538629 
466.773472  	0.536188 
468.702288  	0.540117 
470.631104  	0.541632 
472.559920  	0.540219 
474.488736  	0.533091 
476.417552  	0.533013 
478.346368  	0.531521 
480.275184  	0.534835 
482.204000  	0.529810 
484.132816  	0.528097 
486.061632  	0.525466 
487.990448  	0.528091 
489.919264  	0.527600 
491.848080  	0.526550 
493.776896  	0.523751 
495.705712  	0.521960 
497.634528  	0.520102 
499.563344  	0.523990 
501.492160  	0.523636 
503.420976  	0.520796 
505.349792  	0.518406 
507.278608  	0.519735 
509.207424  	0.521278 
511.136240  	0.523258 
513.065056  	0.520694 
514.993872  	0.525638 
516.922688  	0.529093 
518.851504  	0.530277 
520.780320  	0.527323 
522.709136  	0.525035 
524.637952  	0.523141 
526.566768  	0.523313 
528.495584  	0.519421 
530.424400  	0.516373 
532.353216  	0.511613 
534.282032  	0.508890 
536.210848  	0.502710 
538.139664  	0.497194 
540.068480  	0.491390 
541.997296  	0.486369 
543.926112  	0.481489 
545.854928  	0.478320 
547.783744  	0.474624 
549.712560  	0.471408 
551.641376  	0.467534 
553.570192  	0.464155 
555.499008  	0.459453 
557.427824  	0.457172 
559.356640  	0.453845 
561.285456  	0.451393 
563.214272  	0.447404 
565.143088  	0.443330 
567.071904  	0.439581 
569.000720  	0.437143 
570.929536  	0.433392 
572.858352  	0.430782 
574.787168  	0.427862 
576.715984  	0.425704 
578.644800  	0.422025 
580.573616  	0.418735 
582.502432  	0.412600 
584.431248  	0.408634 
586.360064  	0.404971 
588.288880  	0.402139 
590.217696  	0.400403 
592.146512  	0.399017 
594.075328  	0.395827 
596.004144  	0.393197 
597.932960  	0.390984 
599.861776  	0.390154 
601.790592  	0.388522 
603.719408  	0.387051 
605.648224  	0.385677 
607.577040  	0.384629 
609.505856  	0.382876 
611.434672  	0.381033 
613.363488  	0.378888 
615.292304  	0.377593 
617.221120  	0.375814 
619.149936  	0.374386 
621.078752  	0.372815 
623.007568  	0.372274 
624.936384  	0.371777 
626.865200  	0.370054 
628.794016  	0.368156 
630.722832  	0.368132 
632.651648  	0.368300 
634.580464  	0.368129 
636.509280  	0.367911 
638.438096  	0.368465 
640.366912  	0.368013 
642.295728  	0.366049 
644.224544  	0.362316 
646.153360  	0.358159 
648.082176  	0.353704 
650.010992  	0.349603 
651.939808  	0.345606 
653.868624  	0.341923 
655.797440  	0.338033 
657.726256  	0.334277 
659.655072  	0.330418 
661.583888  	0.326507 
663.512704  	0.322980 
665.441520  	0.319825 
667.370336  	0.309940 
669.299152  	0.302828 
671.227968  	0.303906 
673.156784  	0.301084 
675.085600  	0.297991 
677.014416  	0.295334 
678.943232  	0.292821 
680.872048  	0.291051 
682.800864  	0.289338 
684.729680  	0.288301 
686.658496  	0.287272 
688.587312  	0.286169 
690.516128  	0.285096 
692.444944  	0.284148 
694.373760  	0.283294 
696.302576  	0.281713 
698.231392  	0.279864 
700.160208  	0.277448 
702.089024  	0.274911 
704.017840  	0.272584 
705.946656  	0.270249 
707.875472  	0.268133 
709.804288  	0.266207 
711.733104  	0.264054 
713.661920  	0.261788 
715.590736  	0.260642 
717.519552  	0.260344 
719.448368  	0.260288 
721.377184  	0.260309 
723.306000  	0.261170 
725.234816  	0.261938 
727.163632  	0.261602 
729.092448  	0.259086 
731.021264  	0.255619 
732.950080  	0.252084 
734.878896  	0.248559 
736.807712  	0.245486 
738.736528  	0.243098 
740.665344  	0.241058 
742.594160  	0.239383 
744.522976  	0.237837 
746.451792  	0.236199 
748.380608  	0.234563 
750.309424  	0.233188 
752.238240  	0.231855 
754.167056  	0.231230 
756.095872  	0.230309 
758.024688  	0.229468 
759.953504  	0.228965 
761.882320  	0.229891 
763.811136  	0.230678 
765.739952  	0.229474 
767.668768  	0.226470 
769.597584  	0.223725 
771.526400  	0.222712 
773.455216  	0.224465 
775.384032  	0.228277 
777.312848  	0.233642 
779.241664  	0.238169 
781.170480  	0.238127 
783.099296  	0.233575 
785.028112  	0.227290 
786.956928  	0.221186 
788.885744  	0.216147 
790.814560  	0.212702 
792.743376  	0.210249 
794.672192  	0.208767 
796.601008  	0.207843 
798.529824  	0.204965 
800.458640  	0.200641 
802.387456  	0.197035 
804.316272  	0.194706 
806.245088  	0.193323 
808.173904  	0.192473 
810.102720  	0.192051 
812.031536  	0.191884 
813.960352  	0.192300 
815.889168  	0.192703 
817.817984  	0.193028 
819.746800  	0.193509 
821.675616  	0.194175 
823.604432  	0.194359 
825.533248  	0.194161 
827.462064  	0.193855 
829.390880  	0.193205 
831.319696  	0.192176 
833.248512  	0.190494 
835.177328  	0.188189 
837.106144  	0.185344 
839.034960  	0.181866 
840.963776  	0.177898 
842.892592  	0.173778 
844.821408  	0.169935 
846.750224  	0.166870 
848.679040  	0.164249 
850.607856  	0.162437 
852.536672  	0.161194 
854.465488  	0.159881 
856.394304  	0.159027 
858.323120  	0.158514 
860.251936  	0.157340 
862.180752  	0.155604 
864.109568  	0.153508 
866.038384  	0.151364 
867.967200  	0.149649 
869.896016  	0.147931 
871.824832  	0.146820 
873.753648  	0.146302 
875.682464  	0.146888 
877.611280  	0.148900 
879.540096  	0.151180 
881.468912  	0.152821 
883.397728  	0.154356 
885.326544  	0.155563 
887.255360  	0.156088 
889.184176  	0.155893 
891.112992  	0.155226 
893.041808  	0.153316 
894.970624  	0.150164 
896.899440  	0.146380 
898.828256  	0.141579 
900.757072  	0.136490 
902.685888  	0.132283 
904.614704  	0.129671 
906.543520  	0.129177 
908.472336  	0.129975 
910.401152  	0.131897 
912.329968  	0.134278 
914.258784  	0.136978 
916.187600  	0.139455 
918.116416  	0.141576 
920.045232  	0.143191 
921.974048  	0.144191 
923.902864  	0.144538 
925.831680  	0.144617 
927.760496  	0.144996 
929.689312  	0.145642 
931.618128  	0.146667 
933.546944  	0.147508 
935.475760  	0.147798 
937.404576  	0.147425 
939.333392  	0.146902 
941.262208  	0.146996 
943.191024  	0.148299 
945.119840  	0.151867 
947.048656  	0.158122 
948.977472  	0.166784 
950.906288  	0.177488 
952.835104  	0.189719 
954.763920  	0.202685 
956.692736  	0.214981 
958.621552  	0.225596 
960.550368  	0.232981 
962.479184  	0.236486 
964.408000  	0.235513 
966.336816  	0.230244 
968.265632  	0.220847 
970.194448  	0.208467 
972.123264  	0.194234 
974.052080  	0.179346 
975.980896  	0.164988 
977.909712  	0.151646 
979.838528  	0.139725 
981.767344  	0.129675 
983.696160  	0.121997 
985.624976  	0.117234 
987.553792  	0.115470 
989.482608  	0.116618 
991.411424  	0.120462 
993.340240  	0.125968 
995.269056  	0.132923 
997.197872  	0.140536 
999.126688  	0.148322 
1001.055504  	0.156298 
1002.984320  	0.164543 
1004.913136  	0.172756 
1006.841952  	0.180797 
1008.770768  	0.187917 
1010.699584  	0.193708 
1012.628400  	0.197811 
1014.557216  	0.200228 
1016.486032  	0.201427 
1018.414848  	0.201825 
1020.343664  	0.201626 
1022.272480  	0.201309 
1024.201296  	0.201615 
1026.130112  	0.203224 
1028.058928  	0.204768 
1029.987744  	0.204805 
1031.916560  	0.207511 
1033.845376  	0.212657 
1035.774192  	0.219919 
1037.703008  	0.228587 
1039.631824  	0.238482 
1041.560640  	0.251013 
1043.489456  	0.267240 
1045.418272  	0.285520 
1047.347088  	0.304212 
1049.275904  	0.319971 
1051.204720  	0.331164 
1053.133536  	0.336354 
1055.062352  	0.337397 
1056.991168  	0.336418 
1058.919984  	0.333199 
1060.848800  	0.329026 
1062.777616  	0.327713 
1064.706432  	0.327628 
1066.635248  	0.325553 
1068.564064  	0.317809 
1070.492880  	0.309948 
1072.421696  	0.303735 
1074.350512  	0.299922 
1076.279328  	0.298350 
1078.208144  	0.300137 
1080.136960  	0.303900 
1082.065776  	0.307922 
1083.994592  	0.308740 
1085.923408  	0.305661 
1087.852224  	0.298763 
1089.781040  	0.289593 
1091.709856  	0.277551 
1093.638672  	0.264820 
1095.567488  	0.251262 
1097.496304  	0.237058 
1099.425120  	0.222676 
1101.353936  	0.208389 
1103.282752  	0.194060 
1105.211568  	0.180164 
1107.140384  	0.166585 
1109.069200  	0.153795 
1110.998016  	0.141974 
1112.926832  	0.131385 
1114.855648  	0.121814 
1116.784464  	0.112889 
1118.713280  	0.104494 
1120.642096  	0.096811 
1122.570912  	0.089755 
1124.499728  	0.082979 
1126.428544  	0.076883 
1128.357360  	0.071485 
1130.286176  	0.067159 
1132.214992  	0.063566 
1134.143808  	0.060690 
1136.072624  	0.058245 
1138.001440  	0.056211 
1139.930256  	0.054034 
1141.859072  	0.051618 
1143.787888  	0.049005 
1145.716704  	0.046756 
1147.645520  	0.044403 
1149.574336  	0.042412 
1151.503152  	0.040896 
1153.431968  	0.040313 
1155.360784  	0.040408 
1157.289600  	0.041220 
1159.218416  	0.042797 
1161.147232  	0.045114 
1163.076048  	0.047429 
1165.004864  	0.050054 
1166.933680  	0.052495 
1168.862496  	0.055078 
1170.791312  	0.057786 
1172.720128  	0.061194 
1174.648944  	0.064571 
1176.577760  	0.067868 
1178.506576  	0.071029 
1180.435392  	0.074423 
1182.364208  	0.077832 
1184.293024  	0.081690 
1186.221840  	0.085609 
1188.150656  	0.090060 
1190.079472  	0.095239 
1192.008288  	0.101440 
1193.937104  	0.108784 
1195.865920  	0.117201 
1197.794736  	0.126401 
1199.723552  	0.136280 
1201.652368  	0.146484 
1203.581184  	0.156697 
1205.510000  	0.166722 
1207.438816  	0.176205 
1209.367632  	0.184862 
1211.296448  	0.192312 
1213.225264  	0.198895 
1215.154080  	0.203975 
1217.082896  	0.207950 
1219.011712  	0.210484 
1220.940528  	0.212474 
1222.869344  	0.213655 
1224.798160  	0.213831 
1226.726976  	0.213075 
1228.655792  	0.211798 
1230.584608  	0.209360 
1232.513424  	0.206020 
1234.442240  	0.201613 
1236.371056  	0.196505 
1238.299872  	0.190784 
1240.228688  	0.185428 
1242.157504  	0.178820 
1244.086320  	0.170690 
1246.015136  	0.163007 
1247.943952  	0.155816 
1249.872768  	0.148348 
1251.801584  	0.140580 
1253.730400  	0.132894 
1255.659216  	0.125271 
1257.588032  	0.117997 
1259.516848  	0.110982 
1261.445664  	0.104141 
1263.374480  	0.097595 
1265.303296  	0.092195 
1267.232112  	0.087708 
1269.160928  	0.084131 
1271.089744  	0.081301 
1273.018560  	0.079453 
1274.947376  	0.078496 
1276.876192  	0.078396 
1278.805008  	0.077932 
1280.733824  	0.076643 
1282.662640  	0.074406 
1284.591456  	0.071754 
1286.520272  	0.069516 
1288.449088  	0.068142 
1290.377904  	0.067288 
1292.306720  	0.067466 
1294.235536  	0.067701 
1296.164352  	0.067136 
1298.093168  	0.064801 
1300.021984  	0.061684 
1301.950800  	0.058474 
1303.879616  	0.055533 
1305.808432  	0.052156 
1307.737248  	0.048774 
1309.666064  	0.045398 
1311.594880  	0.043235 
1313.523696  	0.041571 
1315.452512  	0.040238 
1317.381328  	0.039630 
1319.310144  	0.039437 
1321.238960  	0.039225 
1323.167776  	0.039724 
1325.096592  	0.040579 
1327.025408  	0.041189 
1328.954224  	0.041068 
1330.883040  	0.040580 
1332.811856  	0.039634 
1334.740672  	0.039322 
1336.669488  	0.040185 
1338.598304  	0.041673 
1340.527120  	0.040154 
1342.455936  	0.037196 
1344.384752  	0.036442 
1346.313568  	0.036940 
1348.242384  	0.037759 
1350.171200  	0.039154 
1352.100016  	0.041052 
1354.028832  	0.043505 
1355.957648  	0.045906 
1357.886464  	0.048504 
1359.815280  	0.051719 
1361.744096  	0.055810 
1363.672912  	0.057929 
1365.601728  	0.058666 
1367.530544  	0.060975 
1369.459360  	0.063022 
1371.388176  	0.064145 
1373.316992  	0.064786 
1375.245808  	0.062839 
1377.174624  	0.060827 
1379.103440  	0.058673 
1381.032256  	0.055927 
1382.961072  	0.053672 
1384.889888  	0.052688 
1386.818704  	0.051839 
1388.747520  	0.048789 
1390.676336  	0.047062 
1392.605152  	0.048391 
1394.533968  	0.048826 
1396.462784  	0.046718 
1398.391600  	0.046104 
1400.320416  	0.045839 
1402.249232  	0.046902 
1404.178048  	0.048954 
1406.106864  	0.049937 
1408.035680  	0.050951 
1409.964496  	0.052703 
1411.893312  	0.054196 
1413.822128  	0.055323 
1415.750944  	0.058049 
1417.679760  	0.060398 
1419.608576  	0.058168 
1421.537392  	0.056416 
1423.466208  	0.056095 
1425.395024  	0.053634 
1427.323840  	0.051449 
1429.252656  	0.048710 
1431.181472  	0.046495 
1433.110288  	0.046337 
1435.039104  	0.047569 
1436.967920  	0.047750 
1438.896736  	0.047443 
1440.825552  	0.048284 
1442.754368  	0.049060 
1444.683184  	0.049533 
1446.612000  	0.050109 
1448.540816  	0.050167 
1450.469632  	0.050937 
1452.398448  	0.051929 
1454.327264  	0.053007 
1456.256080  	0.052232 
1458.184896  	0.048123 
1460.113712  	0.048328 
1462.042528  	0.049084 
1463.971344  	0.048391 
1465.900160  	0.048542 
1467.828976  	0.051002 
1469.757792  	0.054199 
1471.686608  	0.057841 
1473.615424  	0.063871 
1475.544240  	0.070449 
1477.473056  	0.075728 
1479.401872  	0.079247 
1481.330688  	0.082798 
1483.259504  	0.084778 
1485.188320  	0.086590 
1487.117136  	0.087398 
1489.045952  	0.087870 
1490.974768  	0.084204 
1492.903584  	0.080462 
1494.832400  	0.076802 
1496.761216  	0.069932 
1498.690032  	0.063053 
1500.618848  	0.058626 
1502.547664  	0.054599 
1504.476480  	0.050139 
1506.405296  	0.045417 
1508.334112  	0.044749 
1510.262928  	0.043560 
1512.191744  	0.040435 
1514.120560  	0.039215 
1516.049376  	0.039157 
1517.978192  	0.037619 
1519.907008  	0.038884 
1521.835824  	0.039621 
1523.764640  	0.043659 
1525.693456  	0.048398 
1527.622272  	0.050425 
1529.551088  	0.050589 
1531.479904  	0.050162 
1533.408720  	0.045880 
1535.337536  	0.042170 
1537.266352  	0.039853 
1539.195168  	0.032066 
1541.123984  	0.025099 
1543.052800  	0.028636 
1544.981616  	0.029804 
1546.910432  	0.028296 
1548.839248  	0.028959 
1550.768064  	0.029211 
1552.696880  	0.028448 
1554.625696  	0.028978 
1556.554512  	0.028727 
1558.483328  	0.026801 
1560.412144  	0.031056 
1562.340960  	0.037753 
1564.269776  	0.041727 
1566.198592  	0.047031 
1568.127408  	0.050961 
1570.056224  	0.056471 
1571.985040  	0.063934 
1573.913856  	0.068170 
1575.842672  	0.068910 
1577.771488  	0.072943 
1579.700304  	0.075264 
1581.629120  	0.075261 
1583.557936  	0.074591 
1585.486752  	0.075360 
1587.415568  	0.077921 
1589.344384  	0.082673 
1591.273200  	0.088615 
1593.202016  	0.095676 
1595.130832  	0.103306 
1597.059648  	0.111663 
1598.988464  	0.118735 
1600.917280  	0.125024 
1602.846096  	0.129123 
1604.774912  	0.131885 
1606.703728  	0.132682 
1608.632544  	0.132086 
1610.561360  	0.129778 
1612.490176  	0.128049 
1614.418992  	0.125232 
1616.347808  	0.122121 
1618.276624  	0.123849 
1620.205440  	0.128174 
1622.134256  	0.130561 
1624.063072  	0.136316 
1625.991888  	0.143258 
1627.920704  	0.150949 
1629.849520  	0.160598 
1631.778336  	0.169786 
1633.707152  	0.175569 
1635.635968  	0.182918 
1637.564784  	0.194053 
1639.493600  	0.201863 
1641.422416  	0.207074 
1643.351232  	0.210424 
1645.280048  	0.210407 
1647.208864  	0.210885 
1649.137680  	0.212560 
1651.066496  	0.211561 
1652.995312  	0.205594 
1654.924128  	0.207603 
1656.852944  	0.207595 
1658.781760  	0.205419 
1660.710576  	0.201770 
1662.639392  	0.196262 
1664.568208  	0.192363 
1666.497024  	0.189929 
1668.425840  	0.184118 
1670.354656  	0.176424 
1672.283472  	0.173099 
1674.212288  	0.169710 
1676.141104  	0.164726 
1678.069920  	0.163878 
1679.998736  	0.163270 
1681.927552  	0.161022 
1683.856368  	0.155583 
1685.785184  	0.154741 
1687.714000  	0.157215 
1689.642816  	0.156812 
1691.571632  	0.154877 
1693.500448  	0.153780 
1695.429264  	0.150117 
1697.358080  	0.147848 
1699.286896  	0.145855 
1701.215712  	0.141964 
1703.144528  	0.141550 
1705.073344  	0.137576 
1707.002160  	0.132184 
1708.930976  	0.128666 
1710.859792  	0.123043 
1712.788608  	0.116712 
1714.717424  	0.108450 
1716.646240  	0.096853 
1718.575056  	0.081779 
1720.503872  	0.073787 
1722.432688  	0.067093 
1724.361504  	0.057174 
1726.290320  	0.048812 
1728.219136  	0.042448 
1730.147952  	0.037003 
1732.076768  	0.032193 
1734.005584  	0.024635 
1735.934400  	0.018670 
1737.863216  	0.018609 
1739.792032  	0.014408 
1741.720848  	0.013379 
1743.649664  	0.013706 
1745.578480  	0.012734 
1747.507296  	0.011094 
1749.436112  	0.010536 
1751.364928  	0.009091 
1753.293744  	0.007392 
1755.222560  	0.007204 
1757.151376  	0.006824 
1759.080192  	0.005770 
1761.009008  	0.005133 
1762.937824  	0.003615 
1764.866640  	0.004005 
1766.795456  	0.004820 
1768.724272  	0.004288 
1770.653088  	0.001783 
1772.581904  	-0.000849 
1774.510720  	0.000455 
1776.439536  	0.002107 
1778.368352  	0.002432 
1780.297168  	0.002420 
1782.225984  	0.001708 
1784.154800  	0.002189 
1786.083616  	0.001412 
1788.012432  	0.001381 
1789.941248  	0.002145 
1791.870064  	0.000943 
1793.798880  	-0.000856 
1795.727696  	0.000840 
1797.656512  	0.000485 
1799.585328  	0.000356 
1801.514144  	0.001094 
1803.442960  	0.000516 
1805.371776  	-0.000520 
1807.300592  	-0.000065 
1809.229408  	-0.000509 
1811.158224  	-0.000865 
1813.087040  	-0.001337 
1815.015856  	-0.001059 
1816.944672  	-0.000553 
1818.873488  	-0.000745 
1820.802304  	-0.001108 
1822.731120  	-0.000060 
1824.659936  	-0.000255 
1826.588752  	-0.001172 
1828.517568  	-0.001765 
1830.446384  	-0.001937 
1832.375200  	-0.001436 
1834.304016  	-0.000796 
1836.232832  	-0.000981 
1838.161648  	-0.000742 
1840.090464  	-0.000931 
1842.019280  	0.000109 
1843.948096  	-0.000839 
1845.876912  	-0.001075 
1847.805728  	-0.000400 
1849.734544  	-0.000763 
1851.663360  	-0.001480 
1853.592176  	-0.001471 
1855.520992  	-0.001559 
1857.449808  	-0.001081 
1859.378624  	-0.001136 
1861.307440  	-0.001229 
1863.236256  	-0.001601 
1865.165072  	-0.001271 
1867.093888  	-0.001003 
1869.022704  	-0.000854 
1870.951520  	-0.001507 
1872.880336  	-0.001609 
1874.809152  	-0.001992 
1876.737968  	-0.002107 
1878.666784  	-0.002322 
1880.595600  	-0.001658 
1882.524416  	-0.001822 
1884.453232  	-0.001534 
1886.382048  	-0.001747 
1888.310864  	-0.001369 
1890.239680  	-0.001899 
1892.168496  	-0.001587 
1894.097312  	-0.001176 
1896.026128  	-0.000949 
1897.954944  	-0.001485 
1899.883760  	-0.001418 
1901.812576  	-0.001683 
1903.741392  	-0.001966 
1905.670208  	-0.001686 
1907.599024  	-0.000680 
1909.527840  	-0.000781 
1911.456656  	-0.000771 
1913.385472  	-0.001223 
1915.314288  	-0.000624 
1917.243104  	-0.000680 
1919.171920  	-0.001075 
1921.100736  	-0.000763 
1923.029552  	-0.000049 
1924.958368  	-0.001099 
1926.887184  	-0.000771 
1928.816000  	-0.001300 
1930.744816  	-0.001476 
1932.673632  	-0.001576 
1934.602448  	-0.001312 
1936.531264  	-0.001437 
1938.460080  	-0.000816 
1940.388896  	-0.000609 
1942.317712  	0.000207 
1944.246528  	-0.000785 
1946.175344  	-0.000880 
1948.104160  	-0.001355 
1950.032976  	-0.001057 
1951.961792  	-0.001008 
1953.890608  	-0.000275 
1955.819424  	-0.000404 
1957.748240  	0.000258 
1959.677056  	-0.000543 
1961.605872  	-0.000407 
1963.534688  	-0.000508 
1965.463504  	0.000537 
1967.392320  	-0.000639 
1969.321136  	-0.000823 
1971.249952  	-0.001025 
1973.178768  	-0.000037 
1975.107584  	-0.000306 
1977.036400  	0.000262 
1978.965216  	0.000560 
1980.894032  	0.000032 
1982.822848  	-0.001063 
1984.751664  	-0.000527 
1986.680480  	-0.001774 
1988.609296  	-0.001294 
1990.538112  	-0.000993 
1992.466928  	-0.000237 
1994.395744  	-0.001510 
1996.324560  	-0.001732 
1998.253376  	-0.001943 
2000.182192  	-0.002242 
2002.111008  	-0.002414 
2004.039824  	-0.001180 
2005.968640  	-0.001659 
2007.897456  	-0.000407 
2009.826272  	-0.000501 
2011.755088  	-0.000333 
2013.683904  	-0.001323 
2015.612720  	-0.000468 
2017.541536  	-0.000787 
2019.470352  	-0.000894 
2021.399168  	-0.001405 
2023.327984  	-0.000402 
2025.256800  	-0.000084 
2027.185616  	0.000538 
2029.114432  	0.001007 
2031.043248  	0.001902 
2032.972064  	0.000975 
2034.900880  	0.001162 
2036.829696  	0.000169 
2038.758512  	0.000647 
2040.687328  	-0.000215 
2042.616144  	0.000019 
2044.544960  	-0.000403 
2046.473776  	0.000190 
2048.402592  	-0.000195 
2050.331408  	-0.000312 
2052.260224  	-0.001624 
2054.189040  	-0.001628 
2056.117856  	-0.001889 
2058.046672  	-0.001767 
2059.975488  	-0.002005 
2061.904304  	-0.002265 
2063.833120  	-0.002287 
2065.761936  	-0.002068 
2067.690752  	-0.002355 
2069.619568  	-0.001507 
2071.548384  	-0.001594 
2073.477200  	-0.001713 
2075.406016  	-0.001597 
2077.334832  	-0.001655 
2079.263648  	-0.001700 
2081.192464  	-0.001320 
2083.121280  	-0.001686 
2085.050096  	-0.002186 
2086.978912  	-0.002095 
2088.907728  	-0.001383 
2090.836544  	-0.001500 
2092.765360  	-0.001450 
2094.694176  	-0.001400 
2096.622992  	-0.001162 
2098.551808  	-0.001293 
2100.480624  	-0.000987 
2102.409440  	-0.001053 
2104.338256  	-0.001117 
2106.267072  	-0.001175 
2108.195888  	-0.001012 
2110.124704  	-0.001211 
2112.053520  	-0.000888 
2113.982336  	-0.000950 
2115.911152  	-0.000887 
2117.839968  	-0.001087 
2119.768784  	-0.001225 
2121.697600  	-0.001315 
2123.626416  	-0.000950 
2125.555232  	-0.001150 
2127.484048  	-0.000978 
2129.412864  	-0.001828 
2131.341680  	-0.002138 
2133.270496  	-0.001647 
2135.199312  	-0.000481 
2137.128128  	-0.000077 
2139.056944  	0.000307 
2140.985760  	0.000221 
2142.914576  	0.000222 
2144.843392  	0.000306 
2146.772208  	0.001154 
2148.701024  	0.001143 
2150.629840  	0.002240 
2152.558656  	0.002606 
2154.487472  	0.002558 
2156.416288  	0.002275 
2158.345104  	0.003784 
2160.273920  	0.005445 
2162.202736  	0.006287 
2164.131552  	0.005036 
2166.060368  	0.004087 
2167.989184  	0.003548 
2169.918000  	0.004488 
2171.846816  	0.003634 
2173.775632  	0.002644 
2175.704448  	0.002236 
2177.633264  	0.002389 
2179.562080  	0.002027 
2181.490896  	0.002595 
2183.419712  	0.001139 
2185.348528  	0.000620 
2187.277344  	0.001140 
2189.206160  	0.001403 
2191.134976  	0.000364 
2193.063792  	0.000375 
2194.992608  	0.000298 
2196.921424  	0.000317 
2198.850240  	0.000563 
2200.779056  	0.000607 
2202.707872  	-0.000353 
2204.636688  	-0.000288 
2206.565504  	0.000189 
2208.494320  	0.000549 
2210.423136  	-0.000086 
2212.351952  	-0.000560 
2214.280768  	-0.001166 
2216.209584  	-0.000847 
2218.138400  	-0.001121 
2220.067216  	-0.000798 
2221.996032  	-0.000740 
2223.924848  	-0.000196 
2225.853664  	0.000057 
2227.782480  	-0.000245 
2229.711296  	-0.001368 
2231.640112  	-0.001876 
2233.568928  	-0.001876 
2235.497744  	-0.001268 
2237.426560  	-0.002028 
2239.355376  	-0.002164 
2241.284192  	-0.002049 
2243.213008  	-0.001697 
2245.141824  	-0.001726 
2247.070640  	-0.001737 
2248.999456  	-0.001941 
2250.928272  	-0.002122 
2252.857088  	-0.002371 
2254.785904  	-0.002398 
2256.714720  	-0.002983 
2258.643536  	-0.002984 
2260.572352  	-0.003074 
2262.501168  	-0.002898 
2264.429984  	-0.003043 
2266.358800  	-0.003179 
2268.287616  	-0.003374 
2270.216432  	-0.003146 
2272.145248  	-0.002956 
2274.074064  	-0.003047 
2276.002880  	-0.003024 
2277.931696  	-0.002560 
2279.860512  	-0.002581 
2281.789328  	-0.002274 
2283.718144  	-0.002255 
2285.646960  	-0.002297 
2287.575776  	-0.002350 
2289.504592  	-0.002625 
2291.433408  	-0.002971 
2293.362224  	-0.002798 
2295.291040  	-0.002452 
2297.219856  	-0.002239 
2299.148672  	-0.002468 
2301.077488  	-0.002479 
2303.006304  	-0.002432 
2304.935120  	-0.002386 
2306.863936  	-0.002541 
2308.792752  	-0.002955 
2310.721568  	-0.003755 
2312.650384  	-0.004950 
2314.579200  	-0.006267 
2316.508016  	-0.007530 
2318.436832  	-0.009107 
2320.365648  	-0.011275 
2322.294464  	-0.013712 
2324.223280  	-0.016295 
2326.152096  	-0.019290 
2328.080912  	-0.021748 
2330.009728  	-0.024443 
2331.938544  	-0.026951 
2333.867360  	-0.028988 
2335.796176  	-0.030681 
2337.724992  	-0.032148 
2339.653808  	-0.032576 
2341.582624  	-0.032914 
2343.511440  	-0.030948 
2345.440256  	-0.026719 
2347.369072  	-0.019508 
2349.297888  	-0.015696 
2351.226704  	-0.019901 
2353.155520  	-0.027923 
2355.084336  	-0.034438 
2357.013152  	-0.039679 
2358.941968  	-0.042323 
2360.870784  	-0.043596 
2362.799600  	-0.042296 
2364.728416  	-0.039692 
2366.657232  	-0.035760 
2368.586048  	-0.030494 
2370.514864  	-0.024825 
2372.443680  	-0.019732 
2374.372496  	-0.014647 
2376.301312  	-0.010086 
2378.230128  	-0.006464 
2380.158944  	-0.004196 
2382.087760  	-0.002991 
2384.016576  	-0.002566 
2385.945392  	-0.002765 
2387.874208  	-0.003188 
2389.803024  	-0.003442 
2391.731840  	-0.003742 
2393.660656  	-0.003747 
2395.589472  	-0.003626 
2397.518288  	-0.003469 
2399.447104  	-0.003619 
2401.375920  	-0.003646 
2403.304736  	-0.003675 
2405.233552  	-0.003647 
2407.162368  	-0.003561 
2409.091184  	-0.003234 
2411.020000  	-0.003176 
2412.948816  	-0.003199 
2414.877632  	-0.003130 
2416.806448  	-0.002946 
2418.735264  	-0.002979 
2420.664080  	-0.003211 
2422.592896  	-0.003281 
2424.521712  	-0.003074 
2426.450528  	-0.003058 
2428.379344  	-0.002872 
2430.308160  	-0.002659 
2432.236976  	-0.002511 
2434.165792  	-0.002647 
2436.094608  	-0.002815 
2438.023424  	-0.002497 
2439.952240  	-0.002104 
2441.881056  	-0.002201 
2443.809872  	-0.002385 
2445.738688  	-0.002305 
2447.667504  	-0.001963 
2449.596320  	-0.001844 
2451.525136  	-0.001873 
2453.453952  	-0.002057 
2455.382768  	-0.002202 
2457.311584  	-0.002365 
2459.240400  	-0.002556 
2461.169216  	-0.002596 
2463.098032  	-0.002610 
2465.026848  	-0.002598 
2466.955664  	-0.002648 
2468.884480  	-0.002870 
2470.813296  	-0.002824 
2472.742112  	-0.002797 
2474.670928  	-0.002711 
2476.599744  	-0.002630 
2478.528560  	-0.002541 
2480.457376  	-0.002562 
2482.386192  	-0.002507 
2484.315008  	-0.002271 
2486.243824  	-0.002239 
2488.172640  	-0.002147 
2490.101456  	-0.001811 
2492.030272  	-0.001736 
2493.959088  	-0.001800 
2495.887904  	-0.001722 
2497.816720  	-0.001614 
2499.745536  	-0.001572 
2501.674352  	-0.001549 
2503.603168  	-0.001359 
2505.531984  	-0.001125 
2507.460800  	-0.001248 
2509.389616  	-0.001259 
2511.318432  	-0.001257 
2513.247248  	-0.001392 
2515.176064  	-0.001416 
2517.104880  	-0.001258 
2519.033696  	-0.001390 
2520.962512  	-0.001384 
2522.891328  	-0.001268 
2524.820144  	-0.001270 
2526.748960  	-0.001258 
2528.677776  	-0.001105 
2530.606592  	-0.001217 
2532.535408  	-0.001208 
2534.464224  	-0.001129 
2536.393040  	-0.001151 
2538.321856  	-0.001018 
2540.250672  	-0.000793 
2542.179488  	-0.000706 
2544.108304  	-0.000635 
2546.037120  	-0.000727 
2547.965936  	-0.000834 
2549.894752  	-0.000758 
2551.823568  	-0.000595 
2553.752384  	-0.000365 
2555.681200  	-0.000039 
2557.610016  	-0.000055 
2559.538832  	-0.000073 
2561.467648  	0.000065 
2563.396464  	0.000299 
2565.325280  	0.000449 
2567.254096  	0.000422 
2569.182912  	0.000584 
2571.111728  	0.000664 
2573.040544  	0.000584 
2574.969360  	0.000621 
2576.898176  	0.000760 
2578.826992  	0.000757 
2580.755808  	0.000788 
2582.684624  	0.001153 
2584.613440  	0.001272 
2586.542256  	0.001142 
2588.471072  	0.001173 
2590.399888  	0.001365 
2592.328704  	0.001434 
2594.257520  	0.001290 
2596.186336  	0.001325 
2598.115152  	0.001523 
2600.043968  	0.001602 
2601.972784  	0.001816 
2603.901600  	0.001885 
2605.830416  	0.002089 
2607.759232  	0.002282 
2609.688048  	0.002373 
2611.616864  	0.002437 
2613.545680  	0.002626 
2615.474496  	0.002783 
2617.403312  	0.002927 
2619.332128  	0.002989 
2621.260944  	0.003042 
2623.189760  	0.003121 
2625.118576  	0.003348 
2627.047392  	0.003389 
2628.976208  	0.003447 
2630.905024  	0.003566 
2632.833840  	0.003604 
2634.762656  	0.003820 
2636.691472  	0.003922 
2638.620288  	0.003908 
2640.549104  	0.004006 
2642.477920  	0.004144 
2644.406736  	0.004352 
2646.335552  	0.004440 
2648.264368  	0.004566 
2650.193184  	0.004783 
2652.122000  	0.004933 
2654.050816  	0.005123 
2655.979632  	0.005302 
2657.908448  	0.005420 
2659.837264  	0.005576 
2661.766080  	0.005690 
2663.694896  	0.005884 
2665.623712  	0.006071 
2667.552528  	0.006285 
2669.481344  	0.006432 
2671.410160  	0.006512 
2673.338976  	0.006716 
2675.267792  	0.006964 
2677.196608  	0.007193 
2679.125424  	0.007325 
2681.054240  	0.007506 
2682.983056  	0.007705 
2684.911872  	0.007765 
2686.840688  	0.007789 
2688.769504  	0.007951 
2690.698320  	0.008111 
2692.627136  	0.008157 
2694.555952  	0.008200 
2696.484768  	0.008366 
2698.413584  	0.008551 
2700.342400  	0.008653 
2702.271216  	0.008860 
2704.200032  	0.009108 
2706.128848  	0.009265 
2708.057664  	0.009375 
2709.986480  	0.009525 
2711.915296  	0.009660 
2713.844112  	0.009849 
2715.772928  	0.010078 
2717.701744  	0.010337 
2719.630560  	0.010598 
2721.559376  	0.010715 
2723.488192  	0.010916 
2725.417008  	0.011250 
2727.345824  	0.011513 
2729.274640  	0.011655 
2731.203456  	0.011789 
2733.132272  	0.012104 
2735.061088  	0.012393 
2736.989904  	0.012549 
2738.918720  	0.012674 
2740.847536  	0.012867 
2742.776352  	0.012993 
2744.705168  	0.013176 
2746.633984  	0.013341 
2748.562800  	0.013486 
2750.491616  	0.013534 
2752.420432  	0.013545 
2754.349248  	0.013567 
2756.278064  	0.013602 
2758.206880  	0.013619 
2760.135696  	0.013647 
2762.064512  	0.013633 
2763.993328  	0.013670 
2765.922144  	0.013762 
2767.850960  	0.013794 
2769.779776  	0.013794 
2771.708592  	0.013855 
2773.637408  	0.013840 
2775.566224  	0.013791 
2777.495040  	0.013746 
2779.423856  	0.013879 
2781.352672  	0.014071 
2783.281488  	0.014119 
2785.210304  	0.014064 
2787.139120  	0.014119 
2789.067936  	0.014310 
2790.996752  	0.014393 
2792.925568  	0.014328 
2794.854384  	0.014379 
2796.783200  	0.014406 
2798.712016  	0.014327 
2800.640832  	0.014376 
2802.569648  	0.014565 
2804.498464  	0.014656 
2806.427280  	0.014675 
2808.356096  	0.014698 
2810.284912  	0.014791 
2812.213728  	0.014882 
2814.142544  	0.014938 
2816.071360  	0.014964 
2818.000176  	0.014989 
2819.928992  	0.015047 
2821.857808  	0.015090 
2823.786624  	0.015108 
2825.715440  	0.015194 
2827.644256  	0.015256 
2829.573072  	0.015337 
2831.501888  	0.015308 
2833.430704  	0.015305 
2835.359520  	0.015353 
2837.288336  	0.015442 
2839.217152  	0.015597 
2841.145968  	0.015761 
2843.074784  	0.015904 
2845.003600  	0.016128 
2846.932416  	0.016437 
2848.861232  	0.016916 
2850.790048  	0.017322 
2852.718864  	0.017672 
2854.647680  	0.018073 
2856.576496  	0.018492 
2858.505312  	0.018982 
2860.434128  	0.019676 
2862.362944  	0.020353 
2864.291760  	0.020904 
2866.220576  	0.021597 
2868.149392  	0.022386 
2870.078208  	0.022948 
2872.007024  	0.023560 
2873.935840  	0.024297 
2875.864656  	0.025146 
2877.793472  	0.026158 
2879.722288  	0.027378 
2881.651104  	0.028659 
2883.579920  	0.029775 
2885.508736  	0.030439 
2887.437552  	0.030680 
2889.366368  	0.031040 
2891.295184  	0.031568 
2893.224000  	0.031955 
2895.152816  	0.032134 
2897.081632  	0.032458 
2899.010448  	0.033489 
2900.939264  	0.034607 
2902.868080  	0.034229 
2904.796896  	0.033696 
2906.725712  	0.033661 
2908.654528  	0.034002 
2910.583344  	0.034490 
2912.512160  	0.034575 
2914.440976  	0.034602 
2916.369792  	0.034828 
2918.298608  	0.035187 
2920.227424  	0.035691 
2922.156240  	0.036256 
2924.085056  	0.036727 
2926.013872  	0.037215 
2927.942688  	0.037831 
2929.871504  	0.038451 
2931.800320  	0.039031 
2933.729136  	0.039705 
2935.657952  	0.040463 
2937.586768  	0.041176 
2939.515584  	0.042020 
2941.444400  	0.042852 
2943.373216  	0.043337 
2945.302032  	0.043864 
2947.230848  	0.044348 
2949.159664  	0.044776 
2951.088480  	0.045433 
2953.017296  	0.045971 
2954.946112  	0.046291 
2956.874928  	0.046620 
2958.803744  	0.046814 
2960.732560  	0.047127 
2962.661376  	0.047467 
2964.590192  	0.047947 
2966.519008  	0.048626 
2968.447824  	0.049283 
2970.376640  	0.049622 
2972.305456  	0.049496 
2974.234272  	0.049090 
2976.163088  	0.048867 
2978.091904  	0.048597 
2980.020720  	0.048461 
2981.949536  	0.048320 
2983.878352  	0.048585 
2985.807168  	0.049169 
2987.735984  	0.049796 
2989.664800  	0.049486 
2991.593616  	0.047339 
2993.522432  	0.046112 
2995.451248  	0.045903 
2997.380064  	0.045654 
2999.308880  	0.045196 
3001.237696  	0.044606 
3003.166512  	0.044235 
3005.095328  	0.043763 
3007.024144  	0.043090 
3008.952960  	0.042549 
3010.881776  	0.042215 
3012.810592  	0.041961 
3014.739408  	0.041636 
3016.668224  	0.041194 
3018.597040  	0.040939 
3020.525856  	0.040783 
3022.454672  	0.040601 
3024.383488  	0.040494 
3026.312304  	0.040414 
3028.241120  	0.040471 
3030.169936  	0.040636 
3032.098752  	0.040688 
3034.027568  	0.040694 
3035.956384  	0.041005 
3037.885200  	0.041448 
3039.814016  	0.041659 
3041.742832  	0.041980 
3043.671648  	0.042397 
3045.600464  	0.042903 
3047.529280  	0.043287 
3049.458096  	0.043707 
3051.386912  	0.044287 
3053.315728  	0.044905 
3055.244544  	0.045581 
3057.173360  	0.046280 
3059.102176  	0.046915 
3061.030992  	0.047657 
3062.959808  	0.048440 
3064.888624  	0.049279 
3066.817440  	0.050139 
3068.746256  	0.051098 
3070.675072  	0.051928 
3072.603888  	0.052781 
3074.532704  	0.053824 
3076.461520  	0.054798 
3078.390336  	0.055682 
3080.319152  	0.056626 
3082.247968  	0.057608 
3084.176784  	0.058444 
3086.105600  	0.059365 
3088.034416  	0.060293 
3089.963232  	0.061288 
3091.892048  	0.062105 
3093.820864  	0.062939 
3095.749680  	0.063999 
3097.678496  	0.064941 
3099.607312  	0.065875 
3101.536128  	0.067074 
3103.464944  	0.068238 
3105.393760  	0.069116 
3107.322576  	0.069950 
3109.251392  	0.070673 
3111.180208  	0.071400 
3113.109024  	0.072270 
3115.037840  	0.073127 
3116.966656  	0.073933 
3118.895472  	0.074655 
3120.824288  	0.075406 
3122.753104  	0.076176 
3124.681920  	0.076729 
3126.610736  	0.077377 
3128.539552  	0.078162 
3130.468368  	0.078817 
3132.397184  	0.079570 
3134.326000  	0.080395 
3136.254816  	0.081081 
3138.183632  	0.081817 
3140.112448  	0.082559 
3142.041264  	0.083160 
3143.970080  	0.083898 
3145.898896  	0.084715 
3147.827712  	0.085494 
3149.756528  	0.086178 
3151.685344  	0.086852 
3153.614160  	0.087718 
3155.542976  	0.088522 
3157.471792  	0.089177 
3159.400608  	0.090003 
3161.329424  	0.090698 
3163.258240  	0.091083 
3165.187056  	0.091545 
3167.115872  	0.092221 
3169.044688  	0.092760 
3170.973504  	0.093274 
3172.902320  	0.093757 
3174.831136  	0.094256 
3176.759952  	0.094657 
3178.688768  	0.095139 
3180.617584  	0.095711 
3182.546400  	0.096030 
3184.475216  	0.096211 
3186.404032  	0.096340 
3188.332848  	0.096629 
3190.261664  	0.096832 
3192.190480  	0.097035 
3194.119296  	0.097089 
3196.048112  	0.097058 
3197.976928  	0.097013 
3199.905744  	0.097178 
3201.834560  	0.097167 
3203.763376  	0.096940 
3205.692192  	0.096801 
3207.621008  	0.096655 
3209.549824  	0.096422 
3211.478640  	0.096232 
3213.407456  	0.096183 
3215.336272  	0.096189 
3217.265088  	0.096247 
3219.193904  	0.096121 
3221.122720  	0.095845 
3223.051536  	0.095646 
3224.980352  	0.095405 
3226.909168  	0.095284 
3228.837984  	0.095074 
3230.766800  	0.094920 
3232.695616  	0.095036 
3234.624432  	0.094872 
3236.553248  	0.094607 
3238.482064  	0.094578 
3240.410880  	0.094624 
3242.339696  	0.094807 
3244.268512  	0.094703 
3246.197328  	0.094782 
3248.126144  	0.095005 
3250.054960  	0.095240 
3251.983776  	0.095578 
3253.912592  	0.095807 
3255.841408  	0.095918 
3257.770224  	0.096104 
3259.699040  	0.096353 
3261.627856  	0.096655 
3263.556672  	0.097011 
3265.485488  	0.097280 
3267.414304  	0.097485 
3269.343120  	0.097764 
3271.271936  	0.097975 
3273.200752  	0.097998 
3275.129568  	0.098150 
3277.058384  	0.098514 
3278.987200  	0.098846 
3280.916016  	0.099084 
3282.844832  	0.099277 
3284.773648  	0.099436 
3286.702464  	0.099605 
3288.631280  	0.099836 
3290.560096  	0.100198 
3292.488912  	0.100687 
3294.417728  	0.100850 
3296.346544  	0.101034 
3298.275360  	0.101298 
3300.204176  	0.101691 
3302.132992  	0.102192 
3304.061808  	0.102529 
3305.990624  	0.102838 
3307.919440  	0.103261 
3309.848256  	0.103685 
3311.777072  	0.103830 
3313.705888  	0.104067 
3315.634704  	0.104685 
3317.563520  	0.105334 
3319.492336  	0.105488 
3321.421152  	0.105533 
3323.349968  	0.105856 
3325.278784  	0.106160 
3327.207600  	0.106277 
3329.136416  	0.106066 
3331.065232  	0.106116 
3332.994048  	0.106439 
3334.922864  	0.106692 
3336.851680  	0.106709 
3338.780496  	0.106473 
3340.709312  	0.106195 
3342.638128  	0.105957 
3344.566944  	0.105620 
3346.495760  	0.105409 
3348.424576  	0.104995 
3350.353392  	0.104538 
3352.282208  	0.104178 
3354.211024  	0.103915 
3356.139840  	0.103695 
3358.068656  	0.103407 
3359.997472  	0.102958 
3361.926288  	0.102472 
3363.855104  	0.102059 
3365.783920  	0.101655 
3367.712736  	0.101321 
3369.641552  	0.100941 
3371.570368  	0.100410 
3373.499184  	0.100030 
3375.428000  	0.099643 
3377.356816  	0.099344 
3379.285632  	0.099205 
3381.214448  	0.098902 
3383.143264  	0.098300 
3385.072080  	0.097750 
3387.000896  	0.097129 
3388.929712  	0.096649 
3390.858528  	0.096406 
3392.787344  	0.096210 
3394.716160  	0.095699 
3396.644976  	0.095336 
3398.573792  	0.094821 
3400.502608  	0.094233 
3402.431424  	0.093625 
3404.360240  	0.092975 
3406.289056  	0.092308 
3408.217872  	0.091729 
3410.146688  	0.091112 
3412.075504  	0.090728 
3414.004320  	0.090192 
3415.933136  	0.089589 
3417.861952  	0.088970 
3419.790768  	0.088715 
3421.719584  	0.088160 
3423.648400  	0.087276 
3425.577216  	0.086382 
3427.506032  	0.085696 
3429.434848  	0.085145 
3431.363664  	0.084590 
3433.292480  	0.083997 
3435.221296  	0.083418 
3437.150112  	0.082973 
3439.078928  	0.082314 
3441.007744  	0.081570 
3442.936560  	0.081063 
3444.865376  	0.080464 
3446.794192  	0.079812 
3448.723008  	0.078756 
3450.651824  	0.077773 
3452.580640  	0.077061 
3454.509456  	0.076487 
3456.438272  	0.075851 
3458.367088  	0.075166 
3460.295904  	0.074427 
3462.224720  	0.073499 
3464.153536  	0.072599 
3466.082352  	0.071783 
3468.011168  	0.070675 
3469.939984  	0.069515 
3471.868800  	0.068771 
3473.797616  	0.068037 
3475.726432  	0.066942 
3477.655248  	0.065951 
3479.584064  	0.065617 
3481.512880  	0.065049 
3483.441696  	0.063872 
3485.370512  	0.062928 
3487.299328  	0.061921 
3489.228144  	0.060792 
3491.156960  	0.059682 
3493.085776  	0.058899 
3495.014592  	0.058217 
3496.943408  	0.057513 
3498.872224  	0.056799 
3500.801040  	0.056983 
3502.729856  	0.056709 
3504.658672  	0.055127 
3506.587488  	0.053822 
3508.516304  	0.053265 
3510.445120  	0.052332 
3512.373936  	0.051189 
3514.302752  	0.050437 
3516.231568  	0.049873 
3518.160384  	0.049221 
3520.089200  	0.048443 
3522.018016  	0.048442 
3523.946832  	0.048991 
3525.875648  	0.047915 
3527.804464  	0.045966 
3529.733280  	0.044688 
3531.662096  	0.043829 
3533.590912  	0.042868 
3535.519728  	0.042644 
3537.448544  	0.042139 
3539.377360  	0.040954 
3541.306176  	0.040351 
3543.234992  	0.040541 
3545.163808  	0.041632 
3547.092624  	0.040805 
3549.021440  	0.038260 
3550.950256  	0.036999 
3552.879072  	0.036523 
3554.807888  	0.035491 
3556.736704  	0.034542 
3558.665520  	0.034492 
3560.594336  	0.034323 
3562.523152  	0.033194 
3564.451968  	0.033717 
3566.380784  	0.035672 
3568.309600  	0.033619 
3570.238416  	0.030382 
3572.167232  	0.028818 
3574.096048  	0.027607 
3576.024864  	0.026752 
3577.953680  	0.026257 
3579.882496  	0.025636 
3581.811312  	0.024724 
3583.740128  	0.024155 
3585.668944  	0.024982 
3587.597760  	0.024919 
3589.526576  	0.022082 
3591.455392  	0.020457 
3593.384208  	0.020284 
3595.313024  	0.019545 
3597.241840  	0.017741 
3599.170656  	0.015887 
3601.099472  	0.014754 
3603.028288  	0.014422 
3604.957104  	0.014364 
3606.885920  	0.014267 
3608.814736  	0.013343 
3610.743552  	0.012891 
3612.672368  	0.012356 
3614.601184  	0.011084 
3616.530000  	0.010259 
3618.458816  	0.008768 
3620.387632  	0.006836 
3622.316448  	0.005644 
3624.245264  	0.005110 
3626.174080  	0.005462 
3628.102896  	0.004197 
3630.031712  	0.001738 
3631.960528  	0.002133 
3633.889344  	0.002001 
3635.818160  	0.001230 
3637.746976  	0.000581 
3639.675792  	0.000805 
3641.604608  	0.001213 
3643.533424  	0.001005 
3645.462240  	0.000889 
3647.391056  	-0.000444 
3649.319872  	-0.003885 
3651.248688  	-0.004945 
3653.177504  	-0.003151 
3655.106320  	-0.003300 
3657.035136  	-0.004609 
3658.963952  	-0.004180 
3660.892768  	-0.004060 
3662.821584  	-0.004363 
3664.750400  	-0.004578 
3666.679216  	-0.004618 
3668.608032  	-0.006252 
3670.536848  	-0.008989 
3672.465664  	-0.007681 
3674.394480  	-0.007719 
3676.323296  	-0.010768 
3678.252112  	-0.009949 
3680.180928  	-0.009720 
3682.109744  	-0.009205 
3684.038560  	-0.008994 
3685.967376  	-0.009239 
3687.896192  	-0.011738 
3689.825008  	-0.014940 
3691.753824  	-0.014464 
3693.682640  	-0.012800 
3695.611456  	-0.012334 
3697.540272  	-0.012479 
3699.469088  	-0.012634 
3701.397904  	-0.014204 
3703.326720  	-0.015490 
3705.255536  	-0.014774 
3707.184352  	-0.014523 
3709.113168  	-0.016299 
3711.041984  	-0.018436 
3712.970800  	-0.017042 
3714.899616  	-0.014496 
3716.828432  	-0.014415 
3718.757248  	-0.015148 
3720.686064  	-0.015627 
3722.614880  	-0.015595 
3724.543696  	-0.014849 
3726.472512  	-0.015167 
3728.401328  	-0.015999 
3730.330144  	-0.017182 
3732.258960  	-0.018333 
3734.187776  	-0.015878 
3736.116592  	-0.015485 
3738.045408  	-0.016983 
3739.974224  	-0.015856 
3741.903040  	-0.014323 
3743.831856  	-0.015547 
3745.760672  	-0.017931 
3747.689488  	-0.016992 
3749.618304  	-0.019021 
3751.547120  	-0.020369 
3753.475936  	-0.018355 
3755.404752  	-0.016372 
3757.333568  	-0.016020 
3759.262384  	-0.016811 
3761.191200  	-0.016732 
3763.120016  	-0.015147 
3765.048832  	-0.015364 
3766.977648  	-0.015686 
3768.906464  	-0.016864 
3770.835280  	-0.017578 
3772.764096  	-0.016186 
3774.692912  	-0.015599 
3776.621728  	-0.015611 
3778.550544  	-0.016657 
3780.479360  	-0.017184 
3782.408176  	-0.015796 
3784.336992  	-0.015815 
3786.265808  	-0.015740 
3788.194624  	-0.015532 
3790.123440  	-0.015562 
3792.052256  	-0.015648 
3793.981072  	-0.015682 
3795.909888  	-0.016613 
3797.838704  	-0.016484 
3799.767520  	-0.017175 
3801.696336  	-0.020631 
3803.625152  	-0.018764 
3805.553968  	-0.017421 
3807.482784  	-0.018506 
3809.411600  	-0.016597 
3811.340416  	-0.015311 
3813.269232  	-0.015400 
3815.198048  	-0.017728 
3817.126864  	-0.018510 
3819.055680  	-0.017255 
3820.984496  	-0.020021 
3822.913312  	-0.018823 
3824.842128  	-0.016307 
3826.770944  	-0.016517 
3828.699760  	-0.016129 
3830.628576  	-0.016491 
3832.557392  	-0.017079 
3834.486208  	-0.016933 
3836.415024  	-0.017989 
3838.343840  	-0.018929 
3840.272656  	-0.017951 
3842.201472  	-0.016844 
3844.130288  	-0.016486 
3846.059104  	-0.015687 
3847.987920  	-0.015180 
3849.916736  	-0.015370 
3851.845552  	-0.016993 
3853.774368  	-0.020508 
3855.703184  	-0.018487 
3857.632000  	-0.016144 
3859.560816  	-0.015219 
3861.489632  	-0.015101 
3863.418448  	-0.015509 
3865.347264  	-0.015673 
3867.276080  	-0.014794 
3869.204896  	-0.015345 
3871.133712  	-0.015811 
3873.062528  	-0.015413 
3874.991344  	-0.016092 
3876.920160  	-0.015217 
3878.848976  	-0.014250 
3880.777792  	-0.014085 
3882.706608  	-0.013665 
3884.635424  	-0.013822 
3886.564240  	-0.015251 
3888.493056  	-0.015264 
3890.421872  	-0.015510 
3892.350688  	-0.016031 
3894.279504  	-0.015095 
3896.208320  	-0.014436 
3898.137136  	-0.013968 
3900.065952  	-0.013574 
3901.994768  	-0.013071 
3903.923584  	-0.013859 
3905.852400  	-0.014949 
3907.781216  	-0.015321 
3909.710032  	-0.015482 
3911.638848  	-0.015379 
3913.567664  	-0.014937 
3915.496480  	-0.014004 
3917.425296  	-0.013571 
3919.354112  	-0.014107 
3921.282928  	-0.014454 
3923.211744  	-0.013764 
3925.140560  	-0.013645 
3927.069376  	-0.014495 
3928.998192  	-0.014404 
3930.927008  	-0.013548 
3932.855824  	-0.013321 
3934.784640  	-0.014458 
3936.713456  	-0.015055 
3938.642272  	-0.014784 
3940.571088  	-0.014109 
3942.499904  	-0.013295 
3944.428720  	-0.013709 
3946.357536  	-0.013712 
3948.286352  	-0.013045 
3950.215168  	-0.013918 
3952.143984  	-0.015128 
3954.072800  	-0.015282 
3956.001616  	-0.014846 
3957.930432  	-0.014892 
3959.859248  	-0.014844 
3961.788064  	-0.014580 
3963.716880  	-0.014857 
3965.645696  	-0.015349 
3967.574512  	-0.015224 
3969.503328  	-0.014913 
3971.432144  	-0.014918 
3973.360960  	-0.014803 
3975.289776  	-0.014441 
3977.218592  	-0.014530 
3979.147408  	-0.014965 
3981.076224  	-0.015102 
3983.005040  	-0.015118 
3984.933856  	-0.015157 
3986.862672  	-0.015093 
3988.791488  	-0.014732 
3990.720304  	-0.014333 
3992.649120  	-0.014642 
3994.577936  	-0.014997 
3996.506752  	-0.015090 
3998.435568  	-0.015145 
4000.364384  	-0.015059 