##TITLE=No Description
##DATA TYPE=INFRARED SPECTRUM
##XUNITS=1/CM
##YUNITS=Abs
399.264912  	0.632849 
401.193728  	0.626797 
403.122544  	0.625333 
405.051360  	0.602718 
406.980176  	0.606789 
408.908992  	0.600316 
410.837808  	0.601061 
412.766624  	0.611526 
414.695440  	0.620463 
416.624256  	0.623101 
418.553072  	0.631132 
420.481888  	0.602685 
422.410704  	0.595338 
424.339520  	0.584513 
426.268336  	0.577380 
428.197152  	0.564851 
430.125968  	0.567537 
432.054784  	0.569139 
433.983600  	0.568084 
435.912416  	0.563478 
437.841232  	0.564519 
439.770048  	0.557026 
441.698864  	0.554768 
443.627680  	0.552091 
445.556496  	0.551740 
447.485312  	0.548396 
449.414128  	0.551369 
451.342944  	0.550179 
453.271760  	0.549142 
455.200576  	0.549841 
457.129392  	0.555849 
459.058208  	0.549533 
460.987024  	0.548967 
462.915840  	0.545899 
464.844656  	0.545774 
466.773472  	0.544185 
468.702288  	0.544384 
470.631104  	0.541206 
472.559920  	0.545947 
474.488736  	0.546172 
476.417552  	0.545804 
478.346368  	0.539961 
480.275184  	0.541011 
482.204000  	0.535600 
484.132816  	0.529732 
486.061632  	0.526716 
487.990448  	0.531772 
489.919264  	0.530767 
491.848080  	0.528969 
493.776896  	0.524721 
495.705712  	0.528090 
497.634528  	0.525289 
499.563344  	0.521779 
501.492160  	0.517904 
503.420976  	0.519109 
505.349792  	0.517799 
507.278608  	0.520041 
509.207424  	0.519989 
511.136240  	0.522225 
513.065056  	0.522753 
514.993872  	0.524769 
516.922688  	0.525461 
518.851504  	0.527521 
520.780320  	0.524892 
522.709136  	0.523808 
524.637952  	0.523555 
526.566768  	0.522758 
528.495584  	0.518297 
530.424400  	0.515817 
532.353216  	0.510984 
534.282032  	0.508750 
536.210848  	0.502768 
538.139664  	0.497334 
540.068480  	0.492478 
541.997296  	0.490169 
543.926112  	0.486314 
545.854928  	0.481127 
547.783744  	0.476921 
549.712560  	0.475130 
551.641376  	0.472033 
553.570192  	0.468130 
555.499008  	0.463599 
557.427824  	0.461702 
559.356640  	0.457848 
561.285456  	0.454276 
563.214272  	0.450461 
565.143088  	0.448011 
567.071904  	0.445326 
569.000720  	0.441441 
570.929536  	0.437352 
572.858352  	0.435474 
574.787168  	0.432323 
576.715984  	0.429796 
578.644800  	0.426426 
580.573616  	0.423023 
582.502432  	0.417201 
584.431248  	0.413753 
586.360064  	0.410597 
588.288880  	0.407976 
590.217696  	0.405828 
592.146512  	0.404670 
594.075328  	0.401214 
596.004144  	0.399151 
597.932960  	0.397647 
599.861776  	0.396359 
601.790592  	0.393750 
603.719408  	0.391722 
605.648224  	0.389896 
607.577040  	0.388648 
609.505856  	0.387046 
611.434672  	0.385553 
613.363488  	0.383625 
615.292304  	0.383097 
617.221120  	0.380741 
619.149936  	0.378848 
621.078752  	0.377584 
623.007568  	0.376952 
624.936384  	0.375855 
626.865200  	0.374381 
628.794016  	0.372001 
630.722832  	0.371558 
632.651648  	0.371593 
634.580464  	0.371715 
636.509280  	0.371687 
638.438096  	0.370980 
640.366912  	0.368519 
642.295728  	0.366660 
644.224544  	0.364584 
646.153360  	0.361108 
648.082176  	0.355836 
650.010992  	0.351404 
651.939808  	0.347440 
653.868624  	0.343851 
655.797440  	0.340132 
657.726256  	0.336408 
659.655072  	0.332394 
661.583888  	0.328826 
663.512704  	0.325439 
665.441520  	0.322346 
667.370336  	0.312727 
669.299152  	0.306201 
671.227968  	0.307501 
673.156784  	0.305046 
675.085600  	0.301699 
677.014416  	0.298867 
678.943232  	0.296640 
680.872048  	0.294957 
682.800864  	0.293566 
684.729680  	0.291902 
686.658496  	0.290384 
688.587312  	0.289572 
690.516128  	0.288376 
692.444944  	0.287580 
694.373760  	0.286531 
696.302576  	0.284523 
698.231392  	0.281979 
700.160208  	0.279616 
702.089024  	0.277753 
704.017840  	0.275768 
705.946656  	0.273059 
707.875472  	0.270501 
709.804288  	0.268212 
711.733104  	0.266827 
713.661920  	0.265046 
715.590736  	0.263119 
717.519552  	0.261942 
719.448368  	0.261708 
721.377184  	0.262302 
723.306000  	0.263070 
725.234816  	0.262900 
727.163632  	0.262009 
729.092448  	0.259902 
731.021264  	0.256811 
732.950080  	0.253454 
734.878896  	0.250331 
736.807712  	0.247175 
738.736528  	0.244631 
740.665344  	0.242691 
742.594160  	0.241052 
744.522976  	0.239442 
746.451792  	0.237811 
748.380608  	0.235889 
750.309424  	0.234622 
752.238240  	0.233652 
754.167056  	0.232726 
756.095872  	0.231357 
758.024688  	0.230413 
759.953504  	0.229734 
761.882320  	0.229998 
763.811136  	0.230542 
765.739952  	0.229265 
767.668768  	0.226044 
769.597584  	0.223202 
771.526400  	0.222038 
773.455216  	0.222974 
775.384032  	0.226140 
777.312848  	0.231106 
779.241664  	0.235008 
781.170480  	0.234591 
783.099296  	0.230188 
785.028112  	0.224304 
786.956928  	0.218258 
788.885744  	0.213349 
790.814560  	0.209982 
792.743376  	0.207806 
794.672192  	0.206688 
796.601008  	0.205616 
798.529824  	0.202566 
800.458640  	0.198171 
802.387456  	0.194618 
804.316272  	0.192586 
806.245088  	0.191109 
808.173904  	0.189872 
810.102720  	0.189276 
812.031536  	0.189305 
813.960352  	0.189212 
815.889168  	0.189094 
817.817984  	0.189202 
819.746800  	0.189507 
821.675616  	0.189601 
823.604432  	0.189285 
825.533248  	0.188999 
827.462064  	0.188870 
829.390880  	0.188082 
831.319696  	0.186548 
833.248512  	0.184786 
835.177328  	0.182682 
837.106144  	0.180050 
839.034960  	0.176861 
840.963776  	0.173264 
842.892592  	0.169380 
844.821408  	0.165762 
846.750224  	0.162760 
848.679040  	0.160576 
850.607856  	0.158872 
852.536672  	0.157338 
854.465488  	0.156108 
856.394304  	0.155284 
858.323120  	0.154444 
860.251936  	0.153300 
862.180752  	0.152000 
864.109568  	0.150102 
866.038384  	0.147968 
867.967200  	0.146236 
869.896016  	0.144644 
871.824832  	0.143568 
873.753648  	0.142898 
875.682464  	0.143315 
877.611280  	0.145045 
879.540096  	0.147219 
881.468912  	0.148654 
883.397728  	0.149930 
885.326544  	0.150741 
887.255360  	0.151185 
889.184176  	0.151193 
891.112992  	0.150604 
893.041808  	0.148644 
894.970624  	0.145592 
896.899440  	0.141813 
898.828256  	0.137347 
900.757072  	0.132800 
902.685888  	0.128702 
904.614704  	0.126055 
906.543520  	0.125288 
908.472336  	0.125731 
910.401152  	0.127221 
912.329968  	0.129158 
914.258784  	0.131568 
916.187600  	0.133550 
918.116416  	0.135226 
920.045232  	0.136391 
921.974048  	0.137136 
923.902864  	0.137491 
925.831680  	0.137417 
927.760496  	0.137580 
929.689312  	0.138115 
931.618128  	0.138909 
933.546944  	0.139346 
935.475760  	0.139357 
937.404576  	0.139059 
939.333392  	0.138364 
941.262208  	0.137856 
943.191024  	0.138718 
945.119840  	0.141737 
947.048656  	0.146842 
948.977472  	0.154053 
950.906288  	0.163135 
952.835104  	0.173695 
954.763920  	0.184999 
956.692736  	0.195656 
958.621552  	0.204941 
960.550368  	0.211577 
962.479184  	0.214907 
964.408000  	0.214149 
966.336816  	0.209478 
968.265632  	0.201281 
970.194448  	0.190486 
972.123264  	0.177879 
974.052080  	0.164455 
975.980896  	0.151335 
977.909712  	0.139171 
979.838528  	0.128331 
981.767344  	0.119320 
983.696160  	0.112279 
985.624976  	0.107631 
987.553792  	0.105734 
989.482608  	0.106627 
991.411424  	0.109847 
993.340240  	0.114730 
995.269056  	0.120860 
997.197872  	0.127221 
999.126688  	0.133939 
1001.055504  	0.141011 
1002.984320  	0.148270 
1004.913136  	0.155465 
1006.841952  	0.162513 
1008.770768  	0.168758 
1010.699584  	0.173938 
1012.628400  	0.177814 
1014.557216  	0.180200 
1016.486032  	0.181371 
1018.414848  	0.181774 
1020.343664  	0.181733 
1022.272480  	0.181214 
1024.201296  	0.181307 
1026.130112  	0.183112 
1028.058928  	0.184602 
1029.987744  	0.184505 
1031.916560  	0.187103 
1033.845376  	0.192081 
1035.774192  	0.198888 
1037.703008  	0.206490 
1039.631824  	0.214998 
1041.560640  	0.226447 
1043.489456  	0.240761 
1045.418272  	0.257315 
1047.347088  	0.274288 
1049.275904  	0.288639 
1051.204720  	0.299467 
1053.133536  	0.304815 
1055.062352  	0.306431 
1056.991168  	0.306137 
1058.919984  	0.303842 
1060.848800  	0.299975 
1062.777616  	0.298877 
1064.706432  	0.299551 
1066.635248  	0.297996 
1068.564064  	0.290540 
1070.492880  	0.283636 
1072.421696  	0.278348 
1074.350512  	0.274653 
1076.279328  	0.273413 
1078.208144  	0.275608 
1080.136960  	0.279042 
1082.065776  	0.282494 
1083.994592  	0.283447 
1085.923408  	0.281255 
1087.852224  	0.275383 
1089.781040  	0.267571 
1091.709856  	0.257538 
1093.638672  	0.246595 
1095.567488  	0.234535 
1097.496304  	0.221694 
1099.425120  	0.208443 
1101.353936  	0.195344 
1103.282752  	0.182098 
1105.211568  	0.169123 
1107.140384  	0.156490 
1109.069200  	0.144580 
1110.998016  	0.133559 
1112.926832  	0.123621 
1114.855648  	0.114627 
1116.784464  	0.106204 
1118.713280  	0.098377 
1120.642096  	0.091120 
1122.570912  	0.084464 
1124.499728  	0.078023 
1126.428544  	0.072214 
1128.357360  	0.067118 
1130.286176  	0.063044 
1132.214992  	0.059729 
1134.143808  	0.057020 
1136.072624  	0.054755 
1138.001440  	0.052755 
1139.930256  	0.050452 
1141.859072  	0.048243 
1143.787888  	0.045984 
1145.716704  	0.043888 
1147.645520  	0.041736 
1149.574336  	0.039971 
1151.503152  	0.038534 
1153.431968  	0.038012 
1155.360784  	0.037923 
1157.289600  	0.038594 
1159.218416  	0.039995 
1161.147232  	0.041963 
1163.076048  	0.044039 
1165.004864  	0.046281 
1166.933680  	0.048317 
1168.862496  	0.050691 
1170.791312  	0.053116 
1172.720128  	0.055970 
1174.648944  	0.058865 
1176.577760  	0.061887 
1178.506576  	0.064672 
1180.435392  	0.067576 
1182.364208  	0.070489 
1184.293024  	0.073980 
1186.221840  	0.077667 
1188.150656  	0.081703 
1190.079472  	0.086143 
1192.008288  	0.091650 
1193.937104  	0.098222 
1195.865920  	0.105753 
1197.794736  	0.114015 
1199.723552  	0.122922 
1201.652368  	0.132084 
1203.581184  	0.141254 
1205.510000  	0.150292 
1207.438816  	0.158927 
1209.367632  	0.167141 
1211.296448  	0.174302 
1213.225264  	0.180509 
1215.154080  	0.185454 
1217.082896  	0.189323 
1219.011712  	0.192142 
1220.940528  	0.194414 
1222.869344  	0.195890 
1224.798160  	0.196590 
1226.726976  	0.196057 
1228.655792  	0.195035 
1230.584608  	0.193206 
1232.513424  	0.190357 
1234.442240  	0.186386 
1236.371056  	0.181853 
1238.299872  	0.176861 
1240.228688  	0.172091 
1242.157504  	0.166077 
1244.086320  	0.158627 
1246.015136  	0.151466 
1247.943952  	0.144959 
1249.872768  	0.138228 
1251.801584  	0.130906 
1253.730400  	0.123609 
1255.659216  	0.116494 
1257.588032  	0.109759 
1259.516848  	0.103251 
1261.445664  	0.096939 
1263.374480  	0.090962 
1265.303296  	0.085830 
1267.232112  	0.081474 
1269.160928  	0.078052 
1271.089744  	0.075282 
1273.018560  	0.073430 
1274.947376  	0.072524 
1276.876192  	0.072362 
1278.805008  	0.071998 
1280.733824  	0.070823 
1282.662640  	0.068574 
1284.591456  	0.066029 
1286.520272  	0.063979 
1288.449088  	0.062692 
1290.377904  	0.061760 
1292.306720  	0.061842 
1294.235536  	0.062003 
1296.164352  	0.061475 
1298.093168  	0.059333 
1300.021984  	0.056470 
1301.950800  	0.053389 
1303.879616  	0.050571 
1305.808432  	0.047528 
1307.737248  	0.044502 
1309.666064  	0.041407 
1311.594880  	0.039447 
1313.523696  	0.037981 
1315.452512  	0.036703 
1317.381328  	0.036086 
1319.310144  	0.035920 
1321.238960  	0.035621 
1323.167776  	0.036007 
1325.096592  	0.036772 
1327.025408  	0.037266 
1328.954224  	0.037198 
1330.883040  	0.036804 
1332.811856  	0.035879 
1334.740672  	0.035591 
1336.669488  	0.036411 
1338.598304  	0.037910 
1340.527120  	0.036529 
1342.455936  	0.033666 
1344.384752  	0.032914 
1346.313568  	0.033374 
1348.242384  	0.034123 
1350.171200  	0.035323 
1352.100016  	0.036964 
1354.028832  	0.039195 
1355.957648  	0.041290 
1357.886464  	0.043569 
1359.815280  	0.046539 
1361.744096  	0.050266 
1363.672912  	0.052047 
1365.601728  	0.052899 
1367.530544  	0.055143 
1369.459360  	0.056953 
1371.388176  	0.058036 
1373.316992  	0.058730 
1375.245808  	0.057001 
1377.174624  	0.055322 
1379.103440  	0.053526 
1381.032256  	0.051000 
1382.961072  	0.048812 
1384.889888  	0.047937 
1386.818704  	0.047287 
1388.747520  	0.044472 
1390.676336  	0.042950 
1392.605152  	0.044238 
1394.533968  	0.044693 
1396.462784  	0.042674 
1398.391600  	0.041952 
1400.320416  	0.041545 
1402.249232  	0.042667 
1404.178048  	0.044819 
1406.106864  	0.045664 
1408.035680  	0.046425 
1409.964496  	0.047904 
1411.893312  	0.049095 
1413.822128  	0.050069 
1415.750944  	0.052710 
1417.679760  	0.054754 
1419.608576  	0.052434 
1421.537392  	0.050881 
1423.466208  	0.050779 
1425.395024  	0.048544 
1427.323840  	0.046447 
1429.252656  	0.043869 
1431.181472  	0.041943 
1433.110288  	0.041940 
1435.039104  	0.042870 
1436.967920  	0.042747 
1438.896736  	0.042683 
1440.825552  	0.043567 
1442.754368  	0.044286 
1444.683184  	0.044734 
1446.612000  	0.045176 
1448.540816  	0.045217 
1450.469632  	0.045920 
1452.398448  	0.046804 
1454.327264  	0.047768 
1456.256080  	0.046670 
1458.184896  	0.042789 
1460.113712  	0.043205 
1462.042528  	0.043930 
1463.971344  	0.043175 
1465.900160  	0.043268 
1467.828976  	0.045480 
1469.757792  	0.048172 
1471.686608  	0.051125 
1473.615424  	0.056490 
1475.544240  	0.062705 
1477.473056  	0.067538 
1479.401872  	0.070871 
1481.330688  	0.074264 
1483.259504  	0.076222 
1485.188320  	0.077852 
1487.117136  	0.078458 
1489.045952  	0.078977 
1490.974768  	0.075929 
1492.903584  	0.072814 
1494.832400  	0.069389 
1496.761216  	0.062731 
1498.690032  	0.056629 
1500.618848  	0.053033 
1502.547664  	0.049215 
1504.476480  	0.044513 
1506.405296  	0.039943 
1508.334112  	0.040295 
1510.262928  	0.039301 
1512.191744  	0.036273 
1514.120560  	0.035053 
1516.049376  	0.034889 
1517.978192  	0.033362 
1519.907008  	0.034175 
1521.835824  	0.034306 
1523.764640  	0.038335 
1525.693456  	0.043141 
1527.622272  	0.045194 
1529.551088  	0.045313 
1531.479904  	0.044908 
1533.408720  	0.040820 
1535.337536  	0.037415 
1537.266352  	0.035007 
1539.195168  	0.026727 
1541.123984  	0.020712 
1543.052800  	0.025297 
1544.981616  	0.026663 
1546.910432  	0.025174 
1548.839248  	0.025780 
1550.768064  	0.026052 
1552.696880  	0.025021 
1554.625696  	0.025111 
1556.554512  	0.024279 
1558.483328  	0.021005 
1560.412144  	0.025875 
1562.340960  	0.032857 
1564.269776  	0.036373 
1566.198592  	0.041165 
1568.127408  	0.044747 
1570.056224  	0.049172 
1571.985040  	0.056058 
1573.913856  	0.060171 
1575.842672  	0.060504 
1577.771488  	0.064188 
1579.700304  	0.066748 
1581.629120  	0.066787 
1583.557936  	0.066313 
1585.486752  	0.067067 
1587.415568  	0.069122 
1589.344384  	0.073123 
1591.273200  	0.078452 
1593.202016  	0.085011 
1595.130832  	0.092023 
1597.059648  	0.099479 
1598.988464  	0.105984 
1600.917280  	0.111935 
1602.846096  	0.115934 
1604.774912  	0.118548 
1606.703728  	0.119106 
1608.632544  	0.118464 
1610.561360  	0.116691 
1612.490176  	0.115187 
1614.418992  	0.112685 
1616.347808  	0.109020 
1618.276624  	0.110352 
1620.205440  	0.115119 
1622.134256  	0.117282 
1624.063072  	0.121821 
1625.991888  	0.128353 
1627.920704  	0.135352 
1629.849520  	0.144463 
1631.778336  	0.153304 
1633.707152  	0.158623 
1635.635968  	0.164255 
1637.564784  	0.174797 
1639.493600  	0.183313 
1641.422416  	0.188660 
1643.351232  	0.192335 
1645.280048  	0.192422 
1647.208864  	0.191957 
1649.137680  	0.194418 
1651.066496  	0.194940 
1652.995312  	0.187799 
1654.924128  	0.189697 
1656.852944  	0.191691 
1658.781760  	0.190188 
1660.710576  	0.186817 
1662.639392  	0.181693 
1664.568208  	0.178456 
1666.497024  	0.176739 
1668.425840  	0.171134 
1670.354656  	0.163628 
1672.283472  	0.160811 
1674.212288  	0.157574 
1676.141104  	0.152710 
1678.069920  	0.152477 
1679.998736  	0.152125 
1681.927552  	0.149981 
1683.856368  	0.143975 
1685.785184  	0.143523 
1687.714000  	0.146885 
1689.642816  	0.146590 
1691.571632  	0.144550 
1693.500448  	0.143448 
1695.429264  	0.139735 
1697.358080  	0.137655 
1699.286896  	0.135809 
1701.215712  	0.132260 
1703.144528  	0.132790 
1705.073344  	0.129320 
1707.002160  	0.124499 
1708.930976  	0.121456 
1710.859792  	0.116365 
1712.788608  	0.110446 
1714.717424  	0.102666 
1716.646240  	0.091864 
1718.575056  	0.078154 
1720.503872  	0.070408 
1722.432688  	0.063756 
1724.361504  	0.054436 
1726.290320  	0.046342 
1728.219136  	0.040155 
1730.147952  	0.035025 
1732.076768  	0.030023 
1734.005584  	0.022794 
1735.934400  	0.017590 
1737.863216  	0.017138 
1739.792032  	0.013226 
1741.720848  	0.012486 
1743.649664  	0.012849 
1745.578480  	0.011679 
1747.507296  	0.009876 
1749.436112  	0.009315 
1751.364928  	0.008252 
1753.293744  	0.006871 
1755.222560  	0.006441 
1757.151376  	0.006089 
1759.080192  	0.005207 
1761.009008  	0.004513 
1762.937824  	0.003122 
1764.866640  	0.003349 
1766.795456  	0.004133 
1768.724272  	0.003891 
1770.653088  	0.001051 
1772.581904  	-0.001589 
1774.510720  	-0.000004 
1776.439536  	0.001689 
1778.368352  	0.001866 
1780.297168  	0.001687 
1782.225984  	0.001086 
1784.154800  	0.001529 
1786.083616  	0.000798 
1788.012432  	0.000706 
1789.941248  	0.001279 
1791.870064  	0.000244 
1793.798880  	-0.001060 
1795.727696  	0.000430 
1797.656512  	-0.000185 
1799.585328  	-0.000363 
1801.514144  	0.000540 
1803.442960  	0.000152 
1805.371776  	-0.000809 
1807.300592  	-0.000476 
1809.229408  	-0.001087 
1811.158224  	-0.001452 
1813.087040  	-0.001655 
1815.015856  	-0.001481 
1816.944672  	-0.001240 
1818.873488  	-0.001355 
1820.802304  	-0.001740 
1822.731120  	-0.001001 
1824.659936  	-0.001141 
1826.588752  	-0.001698 
1828.517568  	-0.002470 
1830.446384  	-0.002746 
1832.375200  	-0.002230 
1834.304016  	-0.001793 
1836.232832  	-0.002017 
1838.161648  	-0.001646 
1840.090464  	-0.001669 
1842.019280  	-0.000847 
1843.948096  	-0.001557 
1845.876912  	-0.001565 
1847.805728  	-0.001257 
1849.734544  	-0.001776 
1851.663360  	-0.002425 
1853.592176  	-0.002356 
1855.520992  	-0.002356 
1857.449808  	-0.001908 
1859.378624  	-0.002018 
1861.307440  	-0.002139 
1863.236256  	-0.002436 
1865.165072  	-0.002084 
1867.093888  	-0.002069 
1869.022704  	-0.002065 
1870.951520  	-0.002514 
1872.880336  	-0.002557 
1874.809152  	-0.002809 
1876.737968  	-0.002733 
1878.666784  	-0.002930 
1880.595600  	-0.002388 
1882.524416  	-0.002654 
1884.453232  	-0.002663 
1886.382048  	-0.002817 
1888.310864  	-0.002257 
1890.239680  	-0.002559 
1892.168496  	-0.002548 
1894.097312  	-0.002357 
1896.026128  	-0.002215 
1897.954944  	-0.002894 
1899.883760  	-0.002538 
1901.812576  	-0.002503 
1903.741392  	-0.002569 
1905.670208  	-0.002365 
1907.599024  	-0.001675 
1909.527840  	-0.002132 
1911.456656  	-0.002179 
1913.385472  	-0.002251 
1915.314288  	-0.001458 
1917.243104  	-0.001352 
1919.171920  	-0.001628 
1921.100736  	-0.001959 
1923.029552  	-0.001303 
1924.958368  	-0.001921 
1926.887184  	-0.001896 
1928.816000  	-0.002484 
1930.744816  	-0.002529 
1932.673632  	-0.002402 
1934.602448  	-0.002287 
1936.531264  	-0.002607 
1938.460080  	-0.001956 
1940.388896  	-0.001817 
1942.317712  	-0.001031 
1944.246528  	-0.001978 
1946.175344  	-0.002254 
1948.104160  	-0.002927 
1950.032976  	-0.002581 
1951.961792  	-0.002747 
1953.890608  	-0.002415 
1955.819424  	-0.002849 
1957.748240  	-0.002257 
1959.677056  	-0.003098 
1961.605872  	-0.002968 
1963.534688  	-0.003399 
1965.463504  	-0.002234 
1967.392320  	-0.002084 
1969.321136  	-0.002047 
1971.249952  	-0.002881 
1973.178768  	-0.002068 
1975.107584  	-0.002536 
1977.036400  	-0.001740 
1978.965216  	-0.000239 
1980.894032  	-0.000436 
1982.822848  	-0.001995 
1984.751664  	-0.001754 
1986.680480  	-0.002433 
1988.609296  	-0.001814 
1990.538112  	-0.002155 
1992.466928  	-0.001919 
1994.395744  	-0.003341 
1996.324560  	-0.003428 
1998.253376  	-0.004035 
2000.182192  	-0.004057 
2002.111008  	-0.004099 
2004.039824  	-0.003012 
2005.968640  	-0.002836 
2007.897456  	-0.001566 
2009.826272  	-0.002003 
2011.755088  	-0.001920 
2013.683904  	-0.003190 
2015.612720  	-0.003641 
2017.541536  	-0.003381 
2019.470352  	-0.002107 
2021.399168  	-0.003834 
2023.327984  	-0.003828 
2025.256800  	-0.002356 
2027.185616  	-0.000994 
2029.114432  	-0.001199 
2031.043248  	-0.001749 
2032.972064  	-0.002548 
2034.900880  	-0.002092 
2036.829696  	-0.001922 
2038.758512  	-0.000308 
2040.687328  	-0.000985 
2042.616144  	-0.001146 
2044.544960  	-0.002068 
2046.473776  	-0.001891 
2048.402592  	-0.001861 
2050.331408  	-0.001534 
2052.260224  	-0.002742 
2054.189040  	-0.003195 
2056.117856  	-0.003057 
2058.046672  	-0.002258 
2059.975488  	-0.002473 
2061.904304  	-0.002930 
2063.833120  	-0.003048 
2065.761936  	-0.002647 
2067.690752  	-0.002753 
2069.619568  	-0.002289 
2071.548384  	-0.002489 
2073.477200  	-0.002773 
2075.406016  	-0.002771 
2077.334832  	-0.002200 
2079.263648  	-0.002131 
2081.192464  	-0.001987 
2083.121280  	-0.002077 
2085.050096  	-0.002075 
2086.978912  	-0.002028 
2088.907728  	-0.001845 
2090.836544  	-0.002142 
2092.765360  	-0.002159 
2094.694176  	-0.002053 
2096.622992  	-0.001751 
2098.551808  	-0.001912 
2100.480624  	-0.001261 
2102.409440  	-0.001369 
2104.338256  	-0.001862 
2106.267072  	-0.001739 
2108.195888  	-0.001428 
2110.124704  	-0.001816 
2112.053520  	-0.001510 
2113.982336  	-0.001614 
2115.911152  	-0.001795 
2117.839968  	-0.001968 
2119.768784  	-0.002056 
2121.697600  	-0.002174 
2123.626416  	-0.001784 
2125.555232  	-0.002176 
2127.484048  	-0.002162 
2129.412864  	-0.002806 
2131.341680  	-0.003272 
2133.270496  	-0.003303 
2135.199312  	-0.002468 
2137.128128  	-0.002001 
2139.056944  	-0.001839 
2140.985760  	-0.002280 
2142.914576  	-0.001729 
2144.843392  	-0.001295 
2146.772208  	-0.001063 
2148.701024  	-0.002257 
2150.629840  	-0.002106 
2152.558656  	-0.002434 
2154.487472  	-0.002716 
2156.416288  	-0.004051 
2158.345104  	-0.002082 
2160.273920  	0.001634 
2162.202736  	0.002103 
2164.131552  	-0.000099 
2166.060368  	0.000092 
2167.989184  	0.001125 
2169.918000  	0.001089 
2171.846816  	-0.000667 
2173.775632  	0.000187 
2175.704448  	0.000750 
2177.633264  	0.000291 
2179.562080  	-0.000649 
2181.490896  	-0.000702 
2183.419712  	-0.001874 
2185.348528  	-0.001945 
2187.277344  	-0.001662 
2189.206160  	-0.001656 
2191.134976  	-0.001443 
2193.063792  	-0.001488 
2194.992608  	-0.001937 
2196.921424  	-0.001401 
2198.850240  	-0.001510 
2200.779056  	-0.002200 
2202.707872  	-0.002144 
2204.636688  	-0.001725 
2206.565504  	-0.001712 
2208.494320  	-0.001835 
2210.423136  	-0.002470 
2212.351952  	-0.002654 
2214.280768  	-0.002994 
2216.209584  	-0.002533 
2218.138400  	-0.002636 
2220.067216  	-0.002521 
2221.996032  	-0.001790 
2223.924848  	-0.000755 
2225.853664  	-0.000984 
2227.782480  	-0.001564 
2229.711296  	-0.002428 
2231.640112  	-0.002786 
2233.568928  	-0.002762 
2235.497744  	-0.002300 
2237.426560  	-0.002285 
2239.355376  	-0.002247 
2241.284192  	-0.002682 
2243.213008  	-0.003083 
2245.141824  	-0.003227 
2247.070640  	-0.002647 
2248.999456  	-0.002649 
2250.928272  	-0.003039 
2252.857088  	-0.003262 
2254.785904  	-0.002886 
2256.714720  	-0.003243 
2258.643536  	-0.003402 
2260.572352  	-0.003750 
2262.501168  	-0.003960 
2264.429984  	-0.003915 
2266.358800  	-0.003780 
2268.287616  	-0.003848 
2270.216432  	-0.003836 
2272.145248  	-0.003949 
2274.074064  	-0.003711 
2276.002880  	-0.003410 
2277.931696  	-0.003137 
2279.860512  	-0.003104 
2281.789328  	-0.002778 
2283.718144  	-0.002706 
2285.646960  	-0.002446 
2287.575776  	-0.002453 
2289.504592  	-0.002787 
2291.433408  	-0.003178 
2293.362224  	-0.003145 
2295.291040  	-0.002737 
2297.219856  	-0.002457 
2299.148672  	-0.002692 
2301.077488  	-0.002689 
2303.006304  	-0.002763 
2304.935120  	-0.002775 
2306.863936  	-0.003099 
2308.792752  	-0.003607 
2310.721568  	-0.004466 
2312.650384  	-0.005660 
2314.579200  	-0.007042 
2316.508016  	-0.008687 
2318.436832  	-0.010640 
2320.365648  	-0.012889 
2322.294464  	-0.015131 
2324.223280  	-0.017788 
2326.152096  	-0.021042 
2328.080912  	-0.023538 
2330.009728  	-0.026237 
2331.938544  	-0.028862 
2333.867360  	-0.030933 
2335.796176  	-0.032603 
2337.724992  	-0.034188 
2339.653808  	-0.034807 
2341.582624  	-0.035136 
2343.511440  	-0.033169 
2345.440256  	-0.028504 
2347.369072  	-0.020830 
2349.297888  	-0.017213 
2351.226704  	-0.021978 
2353.155520  	-0.030395 
2355.084336  	-0.037154 
2357.013152  	-0.042920 
2358.941968  	-0.046098 
2360.870784  	-0.047233 
2362.799600  	-0.045762 
2364.728416  	-0.042977 
2366.657232  	-0.038614 
2368.586048  	-0.033167 
2370.514864  	-0.027219 
2372.443680  	-0.021437 
2374.372496  	-0.015817 
2376.301312  	-0.010930 
2378.230128  	-0.007060 
2380.158944  	-0.004684 
2382.087760  	-0.003412 
2384.016576  	-0.002855 
2385.945392  	-0.002835 
2387.874208  	-0.003199 
2389.803024  	-0.003528 
2391.731840  	-0.003676 
2393.660656  	-0.003761 
2395.589472  	-0.003734 
2397.518288  	-0.003582 
2399.447104  	-0.003702 
2401.375920  	-0.003851 
2403.304736  	-0.004127 
2405.233552  	-0.003949 
2407.162368  	-0.003903 
2409.091184  	-0.003734 
2411.020000  	-0.003783 
2412.948816  	-0.003834 
2414.877632  	-0.003796 
2416.806448  	-0.003701 
2418.735264  	-0.003713 
2420.664080  	-0.003843 
2422.592896  	-0.003884 
2424.521712  	-0.003695 
2426.450528  	-0.003874 
2428.379344  	-0.003752 
2430.308160  	-0.003592 
2432.236976  	-0.003573 
2434.165792  	-0.003648 
2436.094608  	-0.003593 
2438.023424  	-0.003374 
2439.952240  	-0.003054 
2441.881056  	-0.003205 
2443.809872  	-0.003396 
2445.738688  	-0.003290 
2447.667504  	-0.003026 
2449.596320  	-0.003051 
2451.525136  	-0.002901 
2453.453952  	-0.002772 
2455.382768  	-0.002892 
2457.311584  	-0.003206 
2459.240400  	-0.003228 
2461.169216  	-0.003294 
2463.098032  	-0.003449 
2465.026848  	-0.003384 
2466.955664  	-0.003219 
2468.884480  	-0.003349 
2470.813296  	-0.003420 
2472.742112  	-0.003355 
2474.670928  	-0.003343 
2476.599744  	-0.003313 
2478.528560  	-0.003244 
2480.457376  	-0.003461 
2482.386192  	-0.003505 
2484.315008  	-0.003185 
2486.243824  	-0.003032 
2488.172640  	-0.003133 
2490.101456  	-0.002937 
2492.030272  	-0.002703 
2493.959088  	-0.002667 
2495.887904  	-0.002721 
2497.816720  	-0.002764 
2499.745536  	-0.002637 
2501.674352  	-0.002347 
2503.603168  	-0.002195 
2505.531984  	-0.002295 
2507.460800  	-0.002495 
2509.389616  	-0.002371 
2511.318432  	-0.002275 
2513.247248  	-0.002252 
2515.176064  	-0.002251 
2517.104880  	-0.002305 
2519.033696  	-0.002487 
2520.962512  	-0.002317 
2522.891328  	-0.002102 
2524.820144  	-0.002193 
2526.748960  	-0.002152 
2528.677776  	-0.002083 
2530.606592  	-0.002140 
2532.535408  	-0.002081 
2534.464224  	-0.001968 
2536.393040  	-0.001999 
2538.321856  	-0.002117 
2540.250672  	-0.001833 
2542.179488  	-0.001803 
2544.108304  	-0.001857 
2546.037120  	-0.001713 
2547.965936  	-0.001611 
2549.894752  	-0.001605 
2551.823568  	-0.001543 
2553.752384  	-0.001337 
2555.681200  	-0.000962 
2557.610016  	-0.000886 
2559.538832  	-0.000865 
2561.467648  	-0.000696 
2563.396464  	-0.000439 
2565.325280  	-0.000410 
2567.254096  	-0.000528 
2569.182912  	-0.000549 
2571.111728  	-0.000378 
2573.040544  	-0.000441 
2574.969360  	-0.000472 
2576.898176  	-0.000195 
2578.826992  	-0.000078 
2580.755808  	-0.000099 
2582.684624  	-0.000010 
2584.613440  	0.000118 
2586.542256  	0.000139 
2588.471072  	0.000288 
2590.399888  	0.000490 
2592.328704  	0.000504 
2594.257520  	0.000582 
2596.186336  	0.000627 
2598.115152  	0.000651 
2600.043968  	0.000622 
2601.972784  	0.000926 
2603.901600  	0.001081 
2605.830416  	0.001171 
2607.759232  	0.001267 
2609.688048  	0.001357 
2611.616864  	0.001545 
2613.545680  	0.001732 
2615.474496  	0.001873 
2617.403312  	0.002014 
2619.332128  	0.002180 
2621.260944  	0.002407 
2623.189760  	0.002312 
2625.118576  	0.002321 
2627.047392  	0.002474 
2628.976208  	0.002526 
2630.905024  	0.002624 
2632.833840  	0.002948 
2634.762656  	0.003123 
2636.691472  	0.003130 
2638.620288  	0.003196 
2640.549104  	0.003290 
2642.477920  	0.003433 
2644.406736  	0.003645 
2646.335552  	0.003750 
2648.264368  	0.003823 
2650.193184  	0.003941 
2652.122000  	0.004068 
2654.050816  	0.004237 
2655.979632  	0.004415 
2657.908448  	0.004523 
2659.837264  	0.004726 
2661.766080  	0.004838 
2663.694896  	0.004861 
2665.623712  	0.004969 
2667.552528  	0.005217 
2669.481344  	0.005388 
2671.410160  	0.005485 
2673.338976  	0.005550 
2675.267792  	0.005772 
2677.196608  	0.005985 
2679.125424  	0.006033 
2681.054240  	0.006227 
2682.983056  	0.006471 
2684.911872  	0.006495 
2686.840688  	0.006549 
2688.769504  	0.006633 
2690.698320  	0.006746 
2692.627136  	0.006860 
2694.555952  	0.006981 
2696.484768  	0.007067 
2698.413584  	0.007221 
2700.342400  	0.007288 
2702.271216  	0.007360 
2704.200032  	0.007663 
2706.128848  	0.007780 
2708.057664  	0.007796 
2709.986480  	0.007926 
2711.915296  	0.008015 
2713.844112  	0.008215 
2715.772928  	0.008414 
2717.701744  	0.008554 
2719.630560  	0.008803 
2721.559376  	0.008971 
2723.488192  	0.009184 
2725.417008  	0.009474 
2727.345824  	0.009665 
2729.274640  	0.009825 
2731.203456  	0.010054 
2733.132272  	0.010246 
2735.061088  	0.010380 
2736.989904  	0.010658 
2738.918720  	0.010896 
2740.847536  	0.010998 
2742.776352  	0.011088 
2744.705168  	0.011236 
2746.633984  	0.011294 
2748.562800  	0.011314 
2750.491616  	0.011476 
2752.420432  	0.011732 
2754.349248  	0.011691 
2756.278064  	0.011634 
2758.206880  	0.011627 
2760.135696  	0.011667 
2762.064512  	0.011722 
2763.993328  	0.011777 
2765.922144  	0.011705 
2767.850960  	0.011713 
2769.779776  	0.011790 
2771.708592  	0.011849 
2773.637408  	0.011775 
2775.566224  	0.011709 
2777.495040  	0.011768 
2779.423856  	0.012013 
2781.352672  	0.012094 
2783.281488  	0.012045 
2785.210304  	0.012015 
2787.139120  	0.012083 
2789.067936  	0.012228 
2790.996752  	0.012336 
2792.925568  	0.012313 
2794.854384  	0.012341 
2796.783200  	0.012351 
2798.712016  	0.012396 
2800.640832  	0.012595 
2802.569648  	0.012661 
2804.498464  	0.012664 
2806.427280  	0.012624 
2808.356096  	0.012568 
2810.284912  	0.012620 
2812.213728  	0.012740 
2814.142544  	0.012786 
2816.071360  	0.012796 
2818.000176  	0.012770 
2819.928992  	0.012849 
2821.857808  	0.013036 
2823.786624  	0.013107 
2825.715440  	0.013213 
2827.644256  	0.013197 
2829.573072  	0.013237 
2831.501888  	0.013273 
2833.430704  	0.013164 
2835.359520  	0.013215 
2837.288336  	0.013444 
2839.217152  	0.013616 
2841.145968  	0.013659 
2843.074784  	0.013785 
2845.003600  	0.013945 
2846.932416  	0.014202 
2848.861232  	0.014664 
2850.790048  	0.015063 
2852.718864  	0.015508 
2854.647680  	0.015980 
2856.576496  	0.016342 
2858.505312  	0.016813 
2860.434128  	0.017569 
2862.362944  	0.018180 
2864.291760  	0.018728 
2866.220576  	0.019460 
2868.149392  	0.020282 
2870.078208  	0.020861 
2872.007024  	0.021437 
2873.935840  	0.022075 
2875.864656  	0.022792 
2877.793472  	0.023785 
2879.722288  	0.025038 
2881.651104  	0.026261 
2883.579920  	0.027293 
2885.508736  	0.028030 
2887.437552  	0.028247 
2889.366368  	0.028457 
2891.295184  	0.029023 
2893.224000  	0.029561 
2895.152816  	0.029607 
2897.081632  	0.029840 
2899.010448  	0.031005 
2900.939264  	0.032049 
2902.868080  	0.031577 
2904.796896  	0.031051 
2906.725712  	0.031111 
2908.654528  	0.031263 
2910.583344  	0.031609 
2912.512160  	0.031571 
2914.440976  	0.031525 
2916.369792  	0.031639 
2918.298608  	0.031925 
2920.227424  	0.032424 
2922.156240  	0.033029 
2924.085056  	0.033458 
2926.013872  	0.033967 
2927.942688  	0.034544 
2929.871504  	0.035125 
2931.800320  	0.035720 
2933.729136  	0.036376 
2935.657952  	0.037118 
2937.586768  	0.037760 
2939.515584  	0.038484 
2941.444400  	0.039200 
2943.373216  	0.039801 
2945.302032  	0.040299 
2947.230848  	0.040638 
2949.159664  	0.041085 
2951.088480  	0.041706 
2953.017296  	0.042217 
2954.946112  	0.042681 
2956.874928  	0.043180 
2958.803744  	0.043382 
2960.732560  	0.043561 
2962.661376  	0.043875 
2964.590192  	0.044448 
2966.519008  	0.045229 
2968.447824  	0.045731 
2970.376640  	0.045879 
2972.305456  	0.045899 
2974.234272  	0.045628 
2976.163088  	0.045322 
2978.091904  	0.044945 
2980.020720  	0.044854 
2981.949536  	0.044937 
2983.878352  	0.045183 
2985.807168  	0.045669 
2987.735984  	0.046114 
2989.664800  	0.045716 
2991.593616  	0.043649 
2993.522432  	0.042627 
2995.451248  	0.042526 
2997.380064  	0.042195 
2999.308880  	0.041674 
3001.237696  	0.041131 
3003.166512  	0.040703 
3005.095328  	0.040178 
3007.024144  	0.039598 
3008.952960  	0.039082 
3010.881776  	0.038501 
3012.810592  	0.038006 
3014.739408  	0.037662 
3016.668224  	0.037231 
3018.597040  	0.036931 
3020.525856  	0.036791 
3022.454672  	0.036635 
3024.383488  	0.036509 
3026.312304  	0.036354 
3028.241120  	0.036386 
3030.169936  	0.036543 
3032.098752  	0.036528 
3034.027568  	0.036554 
3035.956384  	0.036791 
3037.885200  	0.037082 
3039.814016  	0.037217 
3041.742832  	0.037503 
3043.671648  	0.037921 
3045.600464  	0.038358 
3047.529280  	0.038655 
3049.458096  	0.039001 
3051.386912  	0.039582 
3053.315728  	0.040114 
3055.244544  	0.040732 
3057.173360  	0.041381 
3059.102176  	0.041874 
3061.030992  	0.042526 
3062.959808  	0.043357 
3064.888624  	0.044210 
3066.817440  	0.045021 
3068.746256  	0.045892 
3070.675072  	0.046758 
3072.603888  	0.047504 
3074.532704  	0.048277 
3076.461520  	0.049156 
3078.390336  	0.050126 
3080.319152  	0.050957 
3082.247968  	0.051872 
3084.176784  	0.052898 
3086.105600  	0.053792 
3088.034416  	0.054589 
3089.963232  	0.055376 
3091.892048  	0.056139 
3093.820864  	0.056955 
3095.749680  	0.057752 
3097.678496  	0.058748 
3099.607312  	0.059778 
3101.536128  	0.060659 
3103.464944  	0.061655 
3105.393760  	0.062453 
3107.322576  	0.063182 
3109.251392  	0.064167 
3111.180208  	0.064962 
3113.109024  	0.065683 
3115.037840  	0.066352 
3116.966656  	0.067172 
3118.895472  	0.067936 
3120.824288  	0.068610 
3122.753104  	0.069362 
3124.681920  	0.069983 
3126.610736  	0.070592 
3128.539552  	0.071463 
3130.468368  	0.072236 
3132.397184  	0.072757 
3134.326000  	0.073351 
3136.254816  	0.074156 
3138.183632  	0.074875 
3140.112448  	0.075532 
3142.041264  	0.076127 
3143.970080  	0.076703 
3145.898896  	0.077534 
3147.827712  	0.078463 
3149.756528  	0.079004 
3151.685344  	0.079469 
3153.614160  	0.080266 
3155.542976  	0.081037 
3157.471792  	0.081729 
3159.400608  	0.082644 
3161.329424  	0.083306 
3163.258240  	0.083663 
3165.187056  	0.084213 
3167.115872  	0.084875 
3169.044688  	0.085403 
3170.973504  	0.085989 
3172.902320  	0.086498 
3174.831136  	0.086937 
3176.759952  	0.087309 
3178.688768  	0.087614 
3180.617584  	0.088107 
3182.546400  	0.088510 
3184.475216  	0.088820 
3186.404032  	0.089013 
3188.332848  	0.089216 
3190.261664  	0.089381 
3192.190480  	0.089548 
3194.119296  	0.089612 
3196.048112  	0.089751 
3197.976928  	0.089956 
3199.905744  	0.089982 
3201.834560  	0.089796 
3203.763376  	0.089799 
3205.692192  	0.089785 
3207.621008  	0.089552 
3209.549824  	0.089458 
3211.478640  	0.089442 
3213.407456  	0.089300 
3215.336272  	0.089273 
3217.265088  	0.089196 
3219.193904  	0.088922 
3221.122720  	0.088833 
3223.051536  	0.088776 
3224.980352  	0.088645 
3226.909168  	0.088543 
3228.837984  	0.088267 
3230.766800  	0.088045 
3232.695616  	0.088108 
3234.624432  	0.087988 
3236.553248  	0.087817 
3238.482064  	0.087958 
3240.410880  	0.088064 
3242.339696  	0.088097 
3244.268512  	0.087909 
3246.197328  	0.088096 
3248.126144  	0.088364 
3250.054960  	0.088393 
3251.983776  	0.088569 
3253.912592  	0.088791 
3255.841408  	0.089227 
3257.770224  	0.089715 
3259.699040  	0.090007 
3261.627856  	0.090349 
3263.556672  	0.090556 
3265.485488  	0.090590 
3267.414304  	0.090604 
3269.343120  	0.090851 
3271.271936  	0.091345 
3273.200752  	0.091474 
3275.129568  	0.091420 
3277.058384  	0.091760 
3278.987200  	0.092152 
3280.916016  	0.092406 
3282.844832  	0.092775 
3284.773648  	0.092989 
3286.702464  	0.092880 
3288.631280  	0.092973 
3290.560096  	0.093443 
3292.488912  	0.093934 
3294.417728  	0.094142 
3296.346544  	0.094464 
3298.275360  	0.094836 
3300.204176  	0.095250 
3302.132992  	0.095499 
3304.061808  	0.095620 
3305.990624  	0.095998 
3307.919440  	0.096549 
3309.848256  	0.096877 
3311.777072  	0.096827 
3313.705888  	0.097245 
3315.634704  	0.097842 
3317.563520  	0.098248 
3319.492336  	0.098417 
3321.421152  	0.098607 
3323.349968  	0.098998 
3325.278784  	0.099090 
3327.207600  	0.099186 
3329.136416  	0.099152 
3331.065232  	0.099240 
3332.994048  	0.099608 
3334.922864  	0.099841 
3336.851680  	0.099872 
3338.780496  	0.099667 
3340.709312  	0.099445 
3342.638128  	0.099358 
3344.566944  	0.098957 
3346.495760  	0.098678 
3348.424576  	0.098519 
3350.353392  	0.098200 
3352.282208  	0.097880 
3354.211024  	0.097787 
3356.139840  	0.097610 
3358.068656  	0.097285 
3359.997472  	0.096947 
3361.926288  	0.096518 
3363.855104  	0.096131 
3365.783920  	0.095801 
3367.712736  	0.095321 
3369.641552  	0.094894 
3371.570368  	0.094406 
3373.499184  	0.094013 
3375.428000  	0.093826 
3377.356816  	0.093561 
3379.285632  	0.093315 
3381.214448  	0.092982 
3383.143264  	0.092505 
3385.072080  	0.092095 
3387.000896  	0.091597 
3388.929712  	0.091163 
3390.858528  	0.090901 
3392.787344  	0.090740 
3394.716160  	0.090296 
3396.644976  	0.089911 
3398.573792  	0.089416 
3400.502608  	0.088886 
3402.431424  	0.088287 
3404.360240  	0.087660 
3406.289056  	0.087040 
3408.217872  	0.086641 
3410.146688  	0.086058 
3412.075504  	0.085477 
3414.004320  	0.085050 
3415.933136  	0.084705 
3417.861952  	0.084121 
3419.790768  	0.083697 
3421.719584  	0.083173 
3423.648400  	0.082561 
3425.577216  	0.081608 
3427.506032  	0.080817 
3429.434848  	0.080289 
3431.363664  	0.079798 
3433.292480  	0.079154 
3435.221296  	0.078624 
3437.150112  	0.078285 
3439.078928  	0.077798 
3441.007744  	0.076995 
3442.936560  	0.076535 
3444.865376  	0.075941 
3446.794192  	0.075205 
3448.723008  	0.074436 
3450.651824  	0.073534 
3452.580640  	0.072630 
3454.509456  	0.072115 
3456.438272  	0.071615 
3458.367088  	0.070907 
3460.295904  	0.070293 
3462.224720  	0.069420 
3464.153536  	0.068405 
3466.082352  	0.067561 
3468.011168  	0.066615 
3469.939984  	0.065716 
3471.868800  	0.064939 
3473.797616  	0.064133 
3475.726432  	0.063376 
3477.655248  	0.062577 
3479.584064  	0.062149 
3481.512880  	0.061690 
3483.441696  	0.060604 
3485.370512  	0.059543 
3487.299328  	0.058331 
3489.228144  	0.057365 
3491.156960  	0.056529 
3493.085776  	0.055764 
3495.014592  	0.054990 
3496.943408  	0.054161 
3498.872224  	0.053617 
3500.801040  	0.053757 
3502.729856  	0.053191 
3504.658672  	0.051741 
3506.587488  	0.050683 
3508.516304  	0.050244 
3510.445120  	0.049452 
3512.373936  	0.048146 
3514.302752  	0.047249 
3516.231568  	0.046827 
3518.160384  	0.046380 
3520.089200  	0.045548 
3522.018016  	0.045441 
3523.946832  	0.046041 
3525.875648  	0.045057 
3527.804464  	0.043342 
3529.733280  	0.042127 
3531.662096  	0.041246 
3533.590912  	0.040423 
3535.519728  	0.040364 
3537.448544  	0.039854 
3539.377360  	0.038361 
3541.306176  	0.037562 
3543.234992  	0.037892 
3545.163808  	0.039004 
3547.092624  	0.038254 
3549.021440  	0.035733 
3550.950256  	0.034522 
3552.879072  	0.034305 
3554.807888  	0.033400 
3556.736704  	0.032215 
3558.665520  	0.031914 
3560.594336  	0.031938 
3562.523152  	0.030868 
3564.451968  	0.030978 
3566.380784  	0.032901 
3568.309600  	0.031357 
3570.238416  	0.028181 
3572.167232  	0.026776 
3574.096048  	0.025798 
3576.024864  	0.024832 
3577.953680  	0.024246 
3579.882496  	0.023710 
3581.811312  	0.022967 
3583.740128  	0.022223 
3585.668944  	0.022503 
3587.597760  	0.022643 
3589.526576  	0.020427 
3591.455392  	0.018491 
3593.384208  	0.018195 
3595.313024  	0.017522 
3597.241840  	0.015825 
3599.170656  	0.014273 
3601.099472  	0.013459 
3603.028288  	0.013236 
3604.957104  	0.012818 
3606.885920  	0.012506 
3608.814736  	0.012006 
3610.743552  	0.011371 
3612.672368  	0.010481 
3614.601184  	0.009276 
3616.530000  	0.008217 
3618.458816  	0.006857 
3620.387632  	0.005795 
3622.316448  	0.005191 
3624.245264  	0.004216 
3626.174080  	0.003324 
3628.102896  	0.001900 
3630.031712  	0.000849 
3631.960528  	0.001308 
3633.889344  	0.001253 
3635.818160  	0.000659 
3637.746976  	-0.000076 
3639.675792  	-0.000125 
3641.604608  	0.000280 
3643.533424  	0.000041 
3645.462240  	-0.000904 
3647.391056  	-0.002731 
3649.319872  	-0.005109 
3651.248688  	-0.004760 
3653.177504  	-0.003240 
3655.106320  	-0.004010 
3657.035136  	-0.004671 
3658.963952  	-0.004063 
3660.892768  	-0.004067 
3662.821584  	-0.004415 
3664.750400  	-0.004932 
3666.679216  	-0.005613 
3668.608032  	-0.007646 
3670.536848  	-0.009672 
3672.465664  	-0.008653 
3674.394480  	-0.009529 
3676.323296  	-0.010903 
3678.252112  	-0.009770 
3680.180928  	-0.009533 
3682.109744  	-0.009002 
3684.038560  	-0.009047 
3685.967376  	-0.010052 
3687.896192  	-0.012935 
3689.825008  	-0.015033 
3691.753824  	-0.013900 
3693.682640  	-0.012384 
3695.611456  	-0.012254 
3697.540272  	-0.012456 
3699.469088  	-0.013105 
3701.397904  	-0.014421 
3703.326720  	-0.014980 
3705.255536  	-0.014534 
3707.184352  	-0.015187 
3709.113168  	-0.017181 
3711.041984  	-0.018526 
3712.970800  	-0.016365 
3714.899616  	-0.014087 
3716.828432  	-0.014302 
3718.757248  	-0.015043 
3720.686064  	-0.015845 
3722.614880  	-0.016025 
3724.543696  	-0.015377 
3726.472512  	-0.015445 
3728.401328  	-0.016090 
3730.330144  	-0.017813 
3732.258960  	-0.019303 
3734.187776  	-0.017135 
3736.116592  	-0.016040 
3738.045408  	-0.016599 
3739.974224  	-0.015648 
3741.903040  	-0.015582 
3743.831856  	-0.017527 
3745.760672  	-0.018014 
3747.689488  	-0.017916 
3749.618304  	-0.020512 
3751.547120  	-0.020812 
3753.475936  	-0.017894 
3755.404752  	-0.016405 
3757.333568  	-0.016097 
3759.262384  	-0.016540 
3761.191200  	-0.016171 
3763.120016  	-0.015180 
3765.048832  	-0.015487 
3766.977648  	-0.015640 
3768.906464  	-0.016553 
3770.835280  	-0.016485 
3772.764096  	-0.015224 
3774.692912  	-0.014916 
3776.621728  	-0.015207 
3778.550544  	-0.016497 
3780.479360  	-0.016685 
3782.408176  	-0.015394 
3784.336992  	-0.015337 
3786.265808  	-0.015109 
3788.194624  	-0.015021 
3790.123440  	-0.015188 
3792.052256  	-0.015182 
3793.981072  	-0.015553 
3795.909888  	-0.016737 
3797.838704  	-0.016482 
3799.767520  	-0.017668 
3801.696336  	-0.020143 
3803.625152  	-0.017914 
3805.553968  	-0.017588 
3807.482784  	-0.018059 
3809.411600  	-0.016002 
3811.340416  	-0.015212 
3813.269232  	-0.015781 
3815.198048  	-0.018251 
3817.126864  	-0.018669 
3819.055680  	-0.018343 
3820.984496  	-0.020395 
3822.913312  	-0.017914 
3824.842128  	-0.016250 
3826.770944  	-0.016514 
3828.699760  	-0.016040 
3830.628576  	-0.016524 
3832.557392  	-0.017128 
3834.486208  	-0.017257 
3836.415024  	-0.018458 
3838.343840  	-0.019028 
3840.272656  	-0.017498 
3842.201472  	-0.016147 
3844.130288  	-0.015715 
3846.059104  	-0.015064 
3847.987920  	-0.014974 
3849.916736  	-0.015775 
3851.845552  	-0.018436 
3853.774368  	-0.020875 
3855.703184  	-0.017478 
3857.632000  	-0.015429 
3859.560816  	-0.015012 
3861.489632  	-0.015293 
3863.418448  	-0.015684 
3865.347264  	-0.015315 
3867.276080  	-0.014987 
3869.204896  	-0.015965 
3871.133712  	-0.015371 
3873.062528  	-0.015262 
3874.991344  	-0.015355 
3876.920160  	-0.014556 
3878.848976  	-0.014272 
3880.777792  	-0.014007 
3882.706608  	-0.013748 
3884.635424  	-0.014222 
3886.564240  	-0.014703 
3888.493056  	-0.014979 
3890.421872  	-0.015477 
3892.350688  	-0.015283 
3894.279504  	-0.014393 
3896.208320  	-0.014248 
3898.137136  	-0.014116 
3900.065952  	-0.013622 
3901.994768  	-0.013202 
3903.923584  	-0.013616 
3905.852400  	-0.014089 
3907.781216  	-0.014657 
3909.710032  	-0.015063 
3911.638848  	-0.015079 
3913.567664  	-0.014779 
3915.496480  	-0.013842 
3917.425296  	-0.013329 
3919.354112  	-0.013786 
3921.282928  	-0.013964 
3923.211744  	-0.013564 
3925.140560  	-0.013254 
3927.069376  	-0.014165 
3928.998192  	-0.014351 
3930.927008  	-0.013286 
3932.855824  	-0.012778 
3934.784640  	-0.013812 
3936.713456  	-0.014617 
3938.642272  	-0.014487 
3940.571088  	-0.013970 
3942.499904  	-0.013012 
3944.428720  	-0.013313 
3946.357536  	-0.013677 
3948.286352  	-0.013117 
3950.215168  	-0.013590 
3952.143984  	-0.014624 
3954.072800  	-0.014893 
3956.001616  	-0.014533 
3957.930432  	-0.014486 
3959.859248  	-0.014367 
3961.788064  	-0.014085 
3963.716880  	-0.014546 
3965.645696  	-0.015185 
3967.574512  	-0.014952 
3969.503328  	-0.014513 
3971.432144  	-0.014510 
3973.360960  	-0.014578 
3975.289776  	-0.014470 
3977.218592  	-0.014575 
3979.147408  	-0.014800 
3981.076224  	-0.014778 
3983.005040  	-0.014721 
3984.933856  	-0.014738 
3986.862672  	-0.014719 
3988.791488  	-0.014513 
3990.720304  	-0.014237 
3992.649120  	-0.014510 
3994.577936  	-0.014750 
3996.506752  	-0.014789 
3998.435568  	-0.014869 
4000.364384  	-0.014893 