##TITLE=No Description
##DATA TYPE=INFRARED SPECTRUM
##XUNITS=1/CM
##YUNITS=Abs
399.264912  	0.686745 
401.193728  	0.638058 
403.122544  	0.632751 
405.051360  	0.618326 
406.980176  	0.623306 
408.908992  	0.613886 
410.837808  	0.619176 
412.766624  	0.618928 
414.695440  	0.615837 
416.624256  	0.600965 
418.553072  	0.607606 
420.481888  	0.602226 
422.410704  	0.596697 
424.339520  	0.583951 
426.268336  	0.579798 
428.197152  	0.580289 
430.125968  	0.584102 
432.054784  	0.573893 
433.983600  	0.575186 
435.912416  	0.575208 
437.841232  	0.577080 
439.770048  	0.566910 
441.698864  	0.568322 
443.627680  	0.569130 
445.556496  	0.566391 
447.485312  	0.560971 
449.414128  	0.558057 
451.342944  	0.552257 
453.271760  	0.552634 
455.200576  	0.551499 
457.129392  	0.557030 
459.058208  	0.557156 
460.987024  	0.553774 
462.915840  	0.548438 
464.844656  	0.554058 
466.773472  	0.554567 
468.702288  	0.554285 
470.631104  	0.548510 
472.559920  	0.550825 
474.488736  	0.545472 
476.417552  	0.542093 
478.346368  	0.537478 
480.275184  	0.540619 
482.204000  	0.536404 
484.132816  	0.533974 
486.061632  	0.533901 
487.990448  	0.536184 
489.919264  	0.534563 
491.848080  	0.536679 
493.776896  	0.531804 
495.705712  	0.527422 
497.634528  	0.523654 
499.563344  	0.525495 
501.492160  	0.522107 
503.420976  	0.521089 
505.349792  	0.522220 
507.278608  	0.525115 
509.207424  	0.523396 
511.136240  	0.524418 
513.065056  	0.524833 
514.993872  	0.526868 
516.922688  	0.527173 
518.851504  	0.529949 
520.780320  	0.528052 
522.709136  	0.525478 
524.637952  	0.523325 
526.566768  	0.523889 
528.495584  	0.521219 
530.424400  	0.519090 
532.353216  	0.515121 
534.282032  	0.513245 
536.210848  	0.507128 
538.139664  	0.501652 
540.068480  	0.495549 
541.997296  	0.492175 
543.926112  	0.487892 
545.854928  	0.485090 
547.783744  	0.482341 
549.712560  	0.479931 
551.641376  	0.476139 
553.570192  	0.473500 
555.499008  	0.468484 
557.427824  	0.465553 
559.356640  	0.462676 
561.285456  	0.459886 
563.214272  	0.456102 
565.143088  	0.453363 
567.071904  	0.449782 
569.000720  	0.446674 
570.929536  	0.443169 
572.858352  	0.440203 
574.787168  	0.437574 
576.715984  	0.436364 
578.644800  	0.432662 
580.573616  	0.429493 
582.502432  	0.424588 
584.431248  	0.420731 
586.360064  	0.417007 
588.288880  	0.415165 
590.217696  	0.412414 
592.146512  	0.409762 
594.075328  	0.406682 
596.004144  	0.404885 
597.932960  	0.403594 
599.861776  	0.402957 
601.790592  	0.400258 
603.719408  	0.398210 
605.648224  	0.396622 
607.577040  	0.395497 
609.505856  	0.393434 
611.434672  	0.391710 
613.363488  	0.389850 
615.292304  	0.388675 
617.221120  	0.386391 
619.149936  	0.385458 
621.078752  	0.383725 
623.007568  	0.382476 
624.936384  	0.381157 
626.865200  	0.379989 
628.794016  	0.378123 
630.722832  	0.376981 
632.651648  	0.376277 
634.580464  	0.376559 
636.509280  	0.376367 
638.438096  	0.375788 
640.366912  	0.374021 
642.295728  	0.372294 
644.224544  	0.368986 
646.153360  	0.364912 
648.082176  	0.360728 
650.010992  	0.357286 
651.939808  	0.353380 
653.868624  	0.349615 
655.797440  	0.345894 
657.726256  	0.342019 
659.655072  	0.337736 
661.583888  	0.333945 
663.512704  	0.330640 
665.441520  	0.327401 
667.370336  	0.318313 
669.299152  	0.312881 
671.227968  	0.313754 
673.156784  	0.310938 
675.085600  	0.307702 
677.014416  	0.304869 
678.943232  	0.302438 
680.872048  	0.300996 
682.800864  	0.299333 
684.729680  	0.297652 
686.658496  	0.295998 
688.587312  	0.295341 
690.516128  	0.294140 
692.444944  	0.292692 
694.373760  	0.291630 
696.302576  	0.290031 
698.231392  	0.287638 
700.160208  	0.285423 
702.089024  	0.283146 
704.017840  	0.281050 
705.946656  	0.278529 
707.875472  	0.275854 
709.804288  	0.273594 
711.733104  	0.271609 
713.661920  	0.269288 
715.590736  	0.267715 
717.519552  	0.266757 
719.448368  	0.266285 
721.377184  	0.266229 
723.306000  	0.266230 
725.234816  	0.266037 
727.163632  	0.265502 
729.092448  	0.263387 
731.021264  	0.259986 
732.950080  	0.256558 
734.878896  	0.253652 
736.807712  	0.250879 
738.736528  	0.248641 
740.665344  	0.246646 
742.594160  	0.244916 
744.522976  	0.243037 
746.451792  	0.241106 
748.380608  	0.239170 
750.309424  	0.237538 
752.238240  	0.236337 
754.167056  	0.235409 
756.095872  	0.233972 
758.024688  	0.232669 
759.953504  	0.232199 
761.882320  	0.232651 
763.811136  	0.232787 
765.739952  	0.230928 
767.668768  	0.227601 
769.597584  	0.224809 
771.526400  	0.223818 
773.455216  	0.224627 
775.384032  	0.227113 
777.312848  	0.230947 
779.241664  	0.234098 
781.170480  	0.233894 
783.099296  	0.229941 
785.028112  	0.224290 
786.956928  	0.218757 
788.885744  	0.214075 
790.814560  	0.210383 
792.743376  	0.208067 
794.672192  	0.206844 
796.601008  	0.205721 
798.529824  	0.202758 
800.458640  	0.198608 
802.387456  	0.195069 
804.316272  	0.192834 
806.245088  	0.191113 
808.173904  	0.189987 
810.102720  	0.189225 
812.031536  	0.188455 
813.960352  	0.188098 
815.889168  	0.187942 
817.817984  	0.187651 
819.746800  	0.187282 
821.675616  	0.187300 
823.604432  	0.187181 
825.533248  	0.186876 
827.462064  	0.186148 
829.390880  	0.184932 
831.319696  	0.183687 
833.248512  	0.181789 
835.177328  	0.179500 
837.106144  	0.177207 
839.034960  	0.174579 
840.963776  	0.171046 
842.892592  	0.167561 
844.821408  	0.164285 
846.750224  	0.161197 
848.679040  	0.158718 
850.607856  	0.156969 
852.536672  	0.155528 
854.465488  	0.154013 
856.394304  	0.153183 
858.323120  	0.152544 
860.251936  	0.151326 
862.180752  	0.149632 
864.109568  	0.147456 
866.038384  	0.145645 
867.967200  	0.144036 
869.896016  	0.142601 
871.824832  	0.141342 
873.753648  	0.140639 
875.682464  	0.140863 
877.611280  	0.142195 
879.540096  	0.144111 
881.468912  	0.145228 
883.397728  	0.146125 
885.326544  	0.146900 
887.255360  	0.147402 
889.184176  	0.147333 
891.112992  	0.146546 
893.041808  	0.144730 
894.970624  	0.142014 
896.899440  	0.138700 
898.828256  	0.134555 
900.757072  	0.130266 
902.685888  	0.126480 
904.614704  	0.123928 
906.543520  	0.123047 
908.472336  	0.123370 
910.401152  	0.124601 
912.329968  	0.126306 
914.258784  	0.128299 
916.187600  	0.129824 
918.116416  	0.131240 
920.045232  	0.132230 
921.974048  	0.132818 
923.902864  	0.133031 
925.831680  	0.132838 
927.760496  	0.132909 
929.689312  	0.133243 
931.618128  	0.133761 
933.546944  	0.133937 
935.475760  	0.133843 
937.404576  	0.133438 
939.333392  	0.132574 
941.262208  	0.132002 
943.191024  	0.132573 
945.119840  	0.135160 
947.048656  	0.139645 
948.977472  	0.146128 
950.906288  	0.154306 
952.835104  	0.163805 
954.763920  	0.174031 
956.692736  	0.183972 
958.621552  	0.192455 
960.550368  	0.198525 
962.479184  	0.201567 
964.408000  	0.201085 
966.336816  	0.196961 
968.265632  	0.189426 
970.194448  	0.179291 
972.123264  	0.167519 
974.052080  	0.155152 
975.980896  	0.143027 
977.909712  	0.131667 
979.838528  	0.121376 
981.767344  	0.112552 
983.696160  	0.105814 
985.624976  	0.101557 
987.553792  	0.099826 
989.482608  	0.100296 
991.411424  	0.102844 
993.340240  	0.106877 
995.269056  	0.112173 
997.197872  	0.118002 
999.126688  	0.124122 
1001.055504  	0.130383 
1002.984320  	0.136901 
1004.913136  	0.143322 
1006.841952  	0.149790 
1008.770768  	0.155769 
1010.699584  	0.160727 
1012.628400  	0.164273 
1014.557216  	0.166330 
1016.486032  	0.167485 
1018.414848  	0.167930 
1020.343664  	0.168133 
1022.272480  	0.167789 
1024.201296  	0.167942 
1026.130112  	0.169759 
1028.058928  	0.171312 
1029.987744  	0.170961 
1031.916560  	0.173074 
1033.845376  	0.177472 
1035.774192  	0.183823 
1037.703008  	0.191047 
1039.631824  	0.198710 
1041.560640  	0.209441 
1043.489456  	0.222920 
1045.418272  	0.237929 
1047.347088  	0.253440 
1049.275904  	0.267145 
1051.204720  	0.277592 
1053.133536  	0.283112 
1055.062352  	0.285414 
1056.991168  	0.285471 
1058.919984  	0.283506 
1060.848800  	0.280406 
1062.777616  	0.280004 
1064.706432  	0.281067 
1066.635248  	0.280164 
1068.564064  	0.273340 
1070.492880  	0.267093 
1072.421696  	0.262247 
1074.350512  	0.258872 
1076.279328  	0.257795 
1078.208144  	0.259226 
1080.136960  	0.262346 
1082.065776  	0.266010 
1083.994592  	0.267411 
1085.923408  	0.265662 
1087.852224  	0.260690 
1089.781040  	0.253359 
1091.709856  	0.243839 
1093.638672  	0.233806 
1095.567488  	0.222701 
1097.496304  	0.211016 
1099.425120  	0.198845 
1101.353936  	0.186460 
1103.282752  	0.173745 
1105.211568  	0.161367 
1107.140384  	0.149382 
1109.069200  	0.138230 
1110.998016  	0.127769 
1112.926832  	0.118417 
1114.855648  	0.110066 
1116.784464  	0.102082 
1118.713280  	0.094502 
1120.642096  	0.087506 
1122.570912  	0.081213 
1124.499728  	0.075187 
1126.428544  	0.069841 
1128.357360  	0.065167 
1130.286176  	0.061193 
1132.214992  	0.057818 
1134.143808  	0.055298 
1136.072624  	0.053065 
1138.001440  	0.051119 
1139.930256  	0.049230 
1141.859072  	0.047238 
1143.787888  	0.044959 
1145.716704  	0.042934 
1147.645520  	0.041007 
1149.574336  	0.039297 
1151.503152  	0.037878 
1153.431968  	0.037334 
1155.360784  	0.037128 
1157.289600  	0.037742 
1159.218416  	0.038899 
1161.147232  	0.040638 
1163.076048  	0.042558 
1165.004864  	0.044610 
1166.933680  	0.046308 
1168.862496  	0.048297 
1170.791312  	0.050481 
1172.720128  	0.053144 
1174.648944  	0.055658 
1176.577760  	0.058188 
1178.506576  	0.060486 
1180.435392  	0.063131 
1182.364208  	0.065842 
1184.293024  	0.068955 
1186.221840  	0.072216 
1188.150656  	0.075741 
1190.079472  	0.079811 
1192.008288  	0.084744 
1193.937104  	0.090694 
1195.865920  	0.097589 
1197.794736  	0.104882 
1199.723552  	0.112833 
1201.652368  	0.121285 
1203.581184  	0.129900 
1205.510000  	0.138150 
1207.438816  	0.145978 
1209.367632  	0.153507 
1211.296448  	0.160364 
1213.225264  	0.166221 
1215.154080  	0.170938 
1217.082896  	0.174886 
1219.011712  	0.177858 
1220.940528  	0.180048 
1222.869344  	0.181585 
1224.798160  	0.182446 
1226.726976  	0.182288 
1228.655792  	0.181831 
1230.584608  	0.180442 
1232.513424  	0.177999 
1234.442240  	0.174289 
1236.371056  	0.170196 
1238.299872  	0.165693 
1240.228688  	0.161480 
1242.157504  	0.156049 
1244.086320  	0.149246 
1246.015136  	0.142723 
1247.943952  	0.136595 
1249.872768  	0.130344 
1251.801584  	0.123501 
1253.730400  	0.116753 
1255.659216  	0.110075 
1257.588032  	0.103672 
1259.516848  	0.097472 
1261.445664  	0.091518 
1263.374480  	0.085847 
1265.303296  	0.080949 
1267.232112  	0.076765 
1269.160928  	0.073408 
1271.089744  	0.070785 
1273.018560  	0.069001 
1274.947376  	0.068017 
1276.876192  	0.067857 
1278.805008  	0.067466 
1280.733824  	0.066323 
1282.662640  	0.064330 
1284.591456  	0.062049 
1286.520272  	0.060049 
1288.449088  	0.058794 
1290.377904  	0.057887 
1292.306720  	0.057973 
1294.235536  	0.058188 
1296.164352  	0.057771 
1298.093168  	0.055758 
1300.021984  	0.053050 
1301.950800  	0.050250 
1303.879616  	0.047680 
1305.808432  	0.044718 
1307.737248  	0.041788 
1309.666064  	0.038853 
1311.594880  	0.036996 
1313.523696  	0.035610 
1315.452512  	0.034402 
1317.381328  	0.033844 
1319.310144  	0.033636 
1321.238960  	0.033307 
1323.167776  	0.033653 
1325.096592  	0.034352 
1327.025408  	0.034807 
1328.954224  	0.034713 
1330.883040  	0.034341 
1332.811856  	0.033466 
1334.740672  	0.033291 
1336.669488  	0.034168 
1338.598304  	0.035511 
1340.527120  	0.034050 
1342.455936  	0.031271 
1344.384752  	0.030524 
1346.313568  	0.030939 
1348.242384  	0.031658 
1350.171200  	0.032801 
1352.100016  	0.034287 
1354.028832  	0.036370 
1355.957648  	0.038361 
1357.886464  	0.040485 
1359.815280  	0.043368 
1361.744096  	0.047009 
1363.672912  	0.048642 
1365.601728  	0.049304 
1367.530544  	0.051479 
1369.459360  	0.053212 
1371.388176  	0.054245 
1373.316992  	0.055060 
1375.245808  	0.053444 
1377.174624  	0.051954 
1379.103440  	0.050348 
1381.032256  	0.047916 
1382.961072  	0.045853 
1384.889888  	0.045062 
1386.818704  	0.044599 
1388.747520  	0.041875 
1390.676336  	0.040338 
1392.605152  	0.041699 
1394.533968  	0.042267 
1396.462784  	0.040238 
1398.391600  	0.039517 
1400.320416  	0.038999 
1402.249232  	0.039958 
1404.178048  	0.041990 
1406.106864  	0.042814 
1408.035680  	0.043527 
1409.964496  	0.044913 
1411.893312  	0.045917 
1413.822128  	0.046744 
1415.750944  	0.049271 
1417.679760  	0.051290 
1419.608576  	0.048813 
1421.537392  	0.047186 
1423.466208  	0.047241 
1425.395024  	0.045123 
1427.323840  	0.043169 
1429.252656  	0.040731 
1431.181472  	0.038891 
1433.110288  	0.038884 
1435.039104  	0.039851 
1436.967920  	0.039656 
1438.896736  	0.039508 
1440.825552  	0.040472 
1442.754368  	0.041108 
1444.683184  	0.041489 
1446.612000  	0.041903 
1448.540816  	0.041878 
1450.469632  	0.042561 
1452.398448  	0.043483 
1454.327264  	0.044449 
1456.256080  	0.043511 
1458.184896  	0.039452 
1460.113712  	0.039677 
1462.042528  	0.040446 
1463.971344  	0.039812 
1465.900160  	0.039799 
1467.828976  	0.041821 
1469.757792  	0.044362 
1471.686608  	0.047164 
1473.615424  	0.051810 
1475.544240  	0.057517 
1477.473056  	0.062077 
1479.401872  	0.065334 
1481.330688  	0.068459 
1483.259504  	0.070368 
1485.188320  	0.072250 
1487.117136  	0.073006 
1489.045952  	0.073616 
1490.974768  	0.070526 
1492.903584  	0.067722 
1494.832400  	0.064851 
1496.761216  	0.058558 
1498.690032  	0.052746 
1500.618848  	0.049437 
1502.547664  	0.045833 
1504.476480  	0.041307 
1506.405296  	0.036945 
1508.334112  	0.037561 
1510.262928  	0.036680 
1512.191744  	0.033730 
1514.120560  	0.032482 
1516.049376  	0.032333 
1517.978192  	0.030643 
1519.907008  	0.031284 
1521.835824  	0.031181 
1523.764640  	0.034988 
1525.693456  	0.039799 
1527.622272  	0.041728 
1529.551088  	0.041783 
1531.479904  	0.041500 
1533.408720  	0.037688 
1535.337536  	0.034415 
1537.266352  	0.032217 
1539.195168  	0.024296 
1541.123984  	0.018536 
1543.052800  	0.023077 
1544.981616  	0.024496 
1546.910432  	0.023030 
1548.839248  	0.023701 
1550.768064  	0.023999 
1552.696880  	0.022888 
1554.625696  	0.022889 
1556.554512  	0.021843 
1558.483328  	0.018435 
1560.412144  	0.022906 
1562.340960  	0.029511 
1564.269776  	0.032741 
1566.198592  	0.037032 
1568.127408  	0.040265 
1570.056224  	0.043948 
1571.985040  	0.050425 
1573.913856  	0.054616 
1575.842672  	0.054696 
1577.771488  	0.057729 
1579.700304  	0.060587 
1581.629120  	0.060889 
1583.557936  	0.060381 
1585.486752  	0.060917 
1587.415568  	0.062795 
1589.344384  	0.066453 
1591.273200  	0.071240 
1593.202016  	0.077226 
1595.130832  	0.083716 
1597.059648  	0.090660 
1598.988464  	0.096780 
1600.917280  	0.102419 
1602.846096  	0.106433 
1604.774912  	0.109068 
1606.703728  	0.109876 
1608.632544  	0.109385 
1610.561360  	0.107747 
1612.490176  	0.106507 
1614.418992  	0.104470 
1616.347808  	0.100331 
1618.276624  	0.100665 
1620.205440  	0.105672 
1622.134256  	0.108013 
1624.063072  	0.111451 
1625.991888  	0.117531 
1627.920704  	0.124131 
1629.849520  	0.132630 
1631.778336  	0.141547 
1633.707152  	0.147386 
1635.635968  	0.151739 
1637.564784  	0.160713 
1639.493600  	0.169964 
1641.422416  	0.175697 
1643.351232  	0.180298 
1645.280048  	0.181484 
1647.208864  	0.179726 
1649.137680  	0.182229 
1651.066496  	0.185485 
1652.995312  	0.178024 
1654.924128  	0.177042 
1656.852944  	0.180771 
1658.781760  	0.180470 
1660.710576  	0.177817 
1662.639392  	0.172604 
1664.568208  	0.169214 
1666.497024  	0.168495 
1668.425840  	0.163288 
1670.354656  	0.155329 
1672.283472  	0.152830 
1674.212288  	0.150559 
1676.141104  	0.145044 
1678.069920  	0.145047 
1679.998736  	0.145309 
1681.927552  	0.144038 
1683.856368  	0.137641 
1685.785184  	0.135301 
1687.714000  	0.139590 
1689.642816  	0.139624 
1691.571632  	0.137971 
1693.500448  	0.137805 
1695.429264  	0.134127 
1697.358080  	0.131420 
1699.286896  	0.130784 
1701.215712  	0.126358 
1703.144528  	0.127654 
1705.073344  	0.124971 
1707.002160  	0.119982 
1708.930976  	0.117253 
1710.859792  	0.112562 
1712.788608  	0.107144 
1714.717424  	0.099699 
1716.646240  	0.089042 
1718.575056  	0.075557 
1720.503872  	0.068343 
1722.432688  	0.062149 
1724.361504  	0.052985 
1726.290320  	0.045107 
1728.219136  	0.039121 
1730.147952  	0.034101 
1732.076768  	0.029141 
1734.005584  	0.022323 
1735.934400  	0.017107 
1737.863216  	0.016579 
1739.792032  	0.012726 
1741.720848  	0.011972 
1743.649664  	0.012376 
1745.578480  	0.011347 
1747.507296  	0.009641 
1749.436112  	0.009252 
1751.364928  	0.008548 
1753.293744  	0.007012 
1755.222560  	0.006360 
1757.151376  	0.006147 
1759.080192  	0.005294 
1761.009008  	0.004570 
1762.937824  	0.003274 
1764.866640  	0.003475 
1766.795456  	0.004166 
1768.724272  	0.003920 
1770.653088  	0.000975 
1772.581904  	-0.001583 
1774.510720  	0.000047 
1776.439536  	0.001740 
1778.368352  	0.002018 
1780.297168  	0.001964 
1782.225984  	0.001316 
1784.154800  	0.001723 
1786.083616  	0.001146 
1788.012432  	0.000979 
1789.941248  	0.001403 
1791.870064  	0.000397 
1793.798880  	-0.000850 
1795.727696  	0.000608 
1797.656512  	0.000017 
1799.585328  	-0.000206 
1801.514144  	0.000762 
1803.442960  	0.000223 
1805.371776  	-0.000834 
1807.300592  	-0.000391 
1809.229408  	-0.000806 
1811.158224  	-0.001054 
1813.087040  	-0.001433 
1815.015856  	-0.001441 
1816.944672  	-0.001061 
1818.873488  	-0.001032 
1820.802304  	-0.001335 
1822.731120  	-0.000660 
1824.659936  	-0.000670 
1826.588752  	-0.001383 
1828.517568  	-0.002418 
1830.446384  	-0.002565 
1832.375200  	-0.001912 
1834.304016  	-0.001307 
1836.232832  	-0.001441 
1838.161648  	-0.001463 
1840.090464  	-0.001734 
1842.019280  	-0.000984 
1843.948096  	-0.001694 
1845.876912  	-0.001600 
1847.805728  	-0.001040 
1849.734544  	-0.001419 
1851.663360  	-0.002116 
1853.592176  	-0.002221 
1855.520992  	-0.002291 
1857.449808  	-0.001641 
1859.378624  	-0.001623 
1861.307440  	-0.001688 
1863.236256  	-0.002199 
1865.165072  	-0.002215 
1867.093888  	-0.002299 
1869.022704  	-0.002106 
1870.951520  	-0.002272 
1872.880336  	-0.002070 
1874.809152  	-0.002470 
1876.737968  	-0.002518 
1878.666784  	-0.002585 
1880.595600  	-0.002137 
1882.524416  	-0.002436 
1884.453232  	-0.002222 
1886.382048  	-0.002414 
1888.310864  	-0.002366 
1890.239680  	-0.002634 
1892.168496  	-0.002238 
1894.097312  	-0.002099 
1896.026128  	-0.001879 
1897.954944  	-0.002269 
1899.883760  	-0.002099 
1901.812576  	-0.002495 
1903.741392  	-0.002735 
1905.670208  	-0.002463 
1907.599024  	-0.001615 
1909.527840  	-0.001621 
1911.456656  	-0.001327 
1913.385472  	-0.001723 
1915.314288  	-0.001400 
1917.243104  	-0.001628 
1919.171920  	-0.001947 
1921.100736  	-0.001766 
1923.029552  	-0.000646 
1924.958368  	-0.001348 
1926.887184  	-0.001586 
1928.816000  	-0.002367 
1930.744816  	-0.002487 
1932.673632  	-0.002399 
1934.602448  	-0.001931 
1936.531264  	-0.002328 
1938.460080  	-0.001986 
1940.388896  	-0.001760 
1942.317712  	-0.001152 
1944.246528  	-0.002133 
1946.175344  	-0.002083 
1948.104160  	-0.002473 
1950.032976  	-0.002229 
1951.961792  	-0.002510 
1953.890608  	-0.002393 
1955.819424  	-0.003228 
1957.748240  	-0.002609 
1959.677056  	-0.002515 
1961.605872  	-0.002340 
1963.534688  	-0.002643 
1965.463504  	-0.001824 
1967.392320  	-0.002464 
1969.321136  	-0.002665 
1971.249952  	-0.003206 
1973.178768  	-0.001605 
1975.107584  	-0.001669 
1977.036400  	-0.001337 
1978.965216  	-0.000765 
1980.894032  	-0.000465 
1982.822848  	-0.001181 
1984.751664  	-0.001531 
1986.680480  	-0.002523 
1988.609296  	-0.001459 
1990.538112  	-0.001622 
1992.466928  	-0.001449 
1994.395744  	-0.002312 
1996.324560  	-0.002791 
1998.253376  	-0.003524 
2000.182192  	-0.004186 
2002.111008  	-0.003832 
2004.039824  	-0.002046 
2005.968640  	-0.002468 
2007.897456  	-0.001765 
2009.826272  	-0.001939 
2011.755088  	-0.001621 
2013.683904  	-0.003161 
2015.612720  	-0.002456 
2017.541536  	-0.001542 
2019.470352  	-0.001417 
2021.399168  	-0.003661 
2023.327984  	-0.003808 
2025.256800  	-0.002424 
2027.185616  	-0.001345 
2029.114432  	-0.001757 
2031.043248  	-0.001224 
2032.972064  	-0.001377 
2034.900880  	-0.001488 
2036.829696  	-0.003046 
2038.758512  	-0.001701 
2040.687328  	-0.001016 
2042.616144  	-0.000842 
2044.544960  	-0.001418 
2046.473776  	-0.001332 
2048.402592  	-0.001992 
2050.331408  	-0.002147 
2052.260224  	-0.002509 
2054.189040  	-0.002608 
2056.117856  	-0.003257 
2058.046672  	-0.002817 
2059.975488  	-0.003053 
2061.904304  	-0.002988 
2063.833120  	-0.002459 
2065.761936  	-0.002162 
2067.690752  	-0.002855 
2069.619568  	-0.002085 
2071.548384  	-0.001501 
2073.477200  	-0.001792 
2075.406016  	-0.001691 
2077.334832  	-0.001030 
2079.263648  	-0.001570 
2081.192464  	-0.001693 
2083.121280  	-0.001709 
2085.050096  	-0.001851 
2086.978912  	-0.002201 
2088.907728  	-0.001575 
2090.836544  	-0.001746 
2092.765360  	-0.001806 
2094.694176  	-0.001528 
2096.622992  	-0.001228 
2098.551808  	-0.001015 
2100.480624  	-0.000896 
2102.409440  	-0.001510 
2104.338256  	-0.001769 
2106.267072  	-0.001704 
2108.195888  	-0.001223 
2110.124704  	-0.001122 
2112.053520  	-0.000886 
2113.982336  	-0.000936 
2115.911152  	-0.000808 
2117.839968  	-0.001046 
2119.768784  	-0.001175 
2121.697600  	-0.001500 
2123.626416  	-0.001329 
2125.555232  	-0.001583 
2127.484048  	-0.001669 
2129.412864  	-0.002355 
2131.341680  	-0.002557 
2133.270496  	-0.002187 
2135.199312  	-0.001447 
2137.128128  	-0.001300 
2139.056944  	-0.001026 
2140.985760  	-0.001328 
2142.914576  	-0.001271 
2144.843392  	-0.001324 
2146.772208  	-0.001121 
2148.701024  	-0.001742 
2150.629840  	-0.000868 
2152.558656  	-0.000652 
2154.487472  	-0.001389 
2156.416288  	-0.002653 
2158.345104  	-0.000475 
2160.273920  	0.001888 
2162.202736  	0.002349 
2164.131552  	0.001542 
2166.060368  	0.000847 
2167.989184  	0.000314 
2169.918000  	0.001229 
2171.846816  	0.000586 
2173.775632  	0.000338 
2175.704448  	0.000786 
2177.633264  	0.001088 
2179.562080  	0.000711 
2181.490896  	0.000888 
2183.419712  	-0.000333 
2185.348528  	-0.000396 
2187.277344  	0.000116 
2189.206160  	0.000223 
2191.134976  	0.000150 
2193.063792  	0.000520 
2194.992608  	-0.000167 
2196.921424  	-0.000592 
2198.850240  	-0.000633 
2200.779056  	-0.000413 
2202.707872  	-0.000620 
2204.636688  	-0.000488 
2206.565504  	-0.000465 
2208.494320  	-0.000335 
2210.423136  	-0.001102 
2212.351952  	-0.001090 
2214.280768  	-0.001164 
2216.209584  	-0.001218 
2218.138400  	-0.001759 
2220.067216  	-0.001686 
2221.996032  	-0.001668 
2223.924848  	-0.001130 
2225.853664  	-0.000824 
2227.782480  	-0.000466 
2229.711296  	-0.001167 
2231.640112  	-0.002258 
2233.568928  	-0.002914 
2235.497744  	-0.002127 
2237.426560  	-0.001713 
2239.355376  	-0.001640 
2241.284192  	-0.001914 
2243.213008  	-0.001654 
2245.141824  	-0.001966 
2247.070640  	-0.002124 
2248.999456  	-0.002246 
2250.928272  	-0.002253 
2252.857088  	-0.002516 
2254.785904  	-0.002568 
2256.714720  	-0.003293 
2258.643536  	-0.003451 
2260.572352  	-0.003474 
2262.501168  	-0.003430 
2264.429984  	-0.003347 
2266.358800  	-0.003171 
2268.287616  	-0.003105 
2270.216432  	-0.002809 
2272.145248  	-0.002635 
2274.074064  	-0.002715 
2276.002880  	-0.002743 
2277.931696  	-0.002156 
2279.860512  	-0.002042 
2281.789328  	-0.001814 
2283.718144  	-0.001675 
2285.646960  	-0.001473 
2287.575776  	-0.001628 
2289.504592  	-0.002262 
2291.433408  	-0.002739 
2293.362224  	-0.002405 
2295.291040  	-0.002044 
2297.219856  	-0.001728 
2299.148672  	-0.001949 
2301.077488  	-0.001993 
2303.006304  	-0.002003 
2304.935120  	-0.002050 
2306.863936  	-0.002292 
2308.792752  	-0.002845 
2310.721568  	-0.003789 
2312.650384  	-0.004893 
2314.579200  	-0.006174 
2316.508016  	-0.007695 
2318.436832  	-0.009484 
2320.365648  	-0.011775 
2322.294464  	-0.014190 
2324.223280  	-0.016491 
2326.152096  	-0.019579 
2328.080912  	-0.022329 
2330.009728  	-0.025068 
2331.938544  	-0.027510 
2333.867360  	-0.029513 
2335.796176  	-0.031240 
2337.724992  	-0.032728 
2339.653808  	-0.033142 
2341.582624  	-0.033396 
2343.511440  	-0.031628 
2345.440256  	-0.026761 
2347.369072  	-0.019215 
2349.297888  	-0.015964 
2351.226704  	-0.020799 
2353.155520  	-0.029204 
2355.084336  	-0.036253 
2357.013152  	-0.041392 
2358.941968  	-0.043894 
2360.870784  	-0.044748 
2362.799600  	-0.043297 
2364.728416  	-0.040550 
2366.657232  	-0.036266 
2368.586048  	-0.030805 
2370.514864  	-0.024679 
2372.443680  	-0.019005 
2374.372496  	-0.013987 
2376.301312  	-0.009539 
2378.230128  	-0.005861 
2380.158944  	-0.003570 
2382.087760  	-0.002367 
2384.016576  	-0.001991 
2385.945392  	-0.002229 
2387.874208  	-0.002506 
2389.803024  	-0.002732 
2391.731840  	-0.003002 
2393.660656  	-0.003068 
2395.589472  	-0.003056 
2397.518288  	-0.002808 
2399.447104  	-0.002893 
2401.375920  	-0.003042 
2403.304736  	-0.003169 
2405.233552  	-0.003013 
2407.162368  	-0.003063 
2409.091184  	-0.003026 
2411.020000  	-0.002978 
2412.948816  	-0.002902 
2414.877632  	-0.002570 
2416.806448  	-0.002559 
2418.735264  	-0.003045 
2420.664080  	-0.003112 
2422.592896  	-0.003025 
2424.521712  	-0.003123 
2426.450528  	-0.003335 
2428.379344  	-0.002944 
2430.308160  	-0.002794 
2432.236976  	-0.002744 
2434.165792  	-0.002542 
2436.094608  	-0.002518 
2438.023424  	-0.002554 
2439.952240  	-0.002450 
2441.881056  	-0.002546 
2443.809872  	-0.002526 
2445.738688  	-0.002318 
2447.667504  	-0.002076 
2449.596320  	-0.002120 
2451.525136  	-0.002013 
2453.453952  	-0.002018 
2455.382768  	-0.002169 
2457.311584  	-0.002397 
2459.240400  	-0.002537 
2461.169216  	-0.002442 
2463.098032  	-0.002339 
2465.026848  	-0.002367 
2466.955664  	-0.002326 
2468.884480  	-0.002517 
2470.813296  	-0.002556 
2472.742112  	-0.002490 
2474.670928  	-0.002605 
2476.599744  	-0.002759 
2478.528560  	-0.002603 
2480.457376  	-0.002421 
2482.386192  	-0.002329 
2484.315008  	-0.002049 
2486.243824  	-0.002090 
2488.172640  	-0.002132 
2490.101456  	-0.001896 
2492.030272  	-0.001791 
2493.959088  	-0.001775 
2495.887904  	-0.001692 
2497.816720  	-0.001662 
2499.745536  	-0.001783 
2501.674352  	-0.001618 
2503.603168  	-0.001402 
2505.531984  	-0.001446 
2507.460800  	-0.001768 
2509.389616  	-0.001692 
2511.318432  	-0.001637 
2513.247248  	-0.001668 
2515.176064  	-0.001696 
2517.104880  	-0.001510 
2519.033696  	-0.001518 
2520.962512  	-0.001394 
2522.891328  	-0.001275 
2524.820144  	-0.001327 
2526.748960  	-0.001272 
2528.677776  	-0.001076 
2530.606592  	-0.001100 
2532.535408  	-0.001036 
2534.464224  	-0.000987 
2536.393040  	-0.001025 
2538.321856  	-0.001145 
2540.250672  	-0.001025 
2542.179488  	-0.000884 
2544.108304  	-0.000664 
2546.037120  	-0.000520 
2547.965936  	-0.000544 
2549.894752  	-0.000664 
2551.823568  	-0.000722 
2553.752384  	-0.000571 
2555.681200  	-0.000174 
2557.610016  	-0.000149 
2559.538832  	-0.000103 
2561.467648  	0.000052 
2563.396464  	0.000221 
2565.325280  	0.000309 
2567.254096  	0.000190 
2569.182912  	0.000161 
2571.111728  	0.000277 
2573.040544  	0.000315 
2574.969360  	0.000391 
2576.898176  	0.000793 
2578.826992  	0.000799 
2580.755808  	0.000537 
2582.684624  	0.000527 
2584.613440  	0.000569 
2586.542256  	0.000582 
2588.471072  	0.000570 
2590.399888  	0.000867 
2592.328704  	0.001062 
2594.257520  	0.000999 
2596.186336  	0.001034 
2598.115152  	0.001183 
2600.043968  	0.001209 
2601.972784  	0.001422 
2603.901600  	0.001507 
2605.830416  	0.001622 
2607.759232  	0.001793 
2609.688048  	0.001994 
2611.616864  	0.002173 
2613.545680  	0.002126 
2615.474496  	0.002138 
2617.403312  	0.002305 
2619.332128  	0.002362 
2621.260944  	0.002490 
2623.189760  	0.002572 
2625.118576  	0.002669 
2627.047392  	0.002805 
2628.976208  	0.002949 
2630.905024  	0.003072 
2632.833840  	0.003244 
2634.762656  	0.003302 
2636.691472  	0.003339 
2638.620288  	0.003421 
2640.549104  	0.003472 
2642.477920  	0.003557 
2644.406736  	0.003752 
2646.335552  	0.003894 
2648.264368  	0.003986 
2650.193184  	0.004059 
2652.122000  	0.004268 
2654.050816  	0.004546 
2655.979632  	0.004672 
2657.908448  	0.004707 
2659.837264  	0.004767 
2661.766080  	0.004841 
2663.694896  	0.004968 
2665.623712  	0.005028 
2667.552528  	0.005215 
2669.481344  	0.005410 
2671.410160  	0.005549 
2673.338976  	0.005675 
2675.267792  	0.005860 
2677.196608  	0.006052 
2679.125424  	0.006161 
2681.054240  	0.006305 
2682.983056  	0.006430 
2684.911872  	0.006430 
2686.840688  	0.006562 
2688.769504  	0.006752 
2690.698320  	0.006792 
2692.627136  	0.006837 
2694.555952  	0.006943 
2696.484768  	0.007056 
2698.413584  	0.007096 
2700.342400  	0.007132 
2702.271216  	0.007337 
2704.200032  	0.007533 
2706.128848  	0.007659 
2708.057664  	0.007726 
2709.986480  	0.007827 
2711.915296  	0.007980 
2713.844112  	0.008187 
2715.772928  	0.008329 
2717.701744  	0.008526 
2719.630560  	0.008821 
2721.559376  	0.008917 
2723.488192  	0.009014 
2725.417008  	0.009224 
2727.345824  	0.009499 
2729.274640  	0.009680 
2731.203456  	0.009798 
2733.132272  	0.010163 
2735.061088  	0.010460 
2736.989904  	0.010539 
2738.918720  	0.010609 
2740.847536  	0.010787 
2742.776352  	0.010903 
2744.705168  	0.011045 
2746.633984  	0.011242 
2748.562800  	0.011359 
2750.491616  	0.011373 
2752.420432  	0.011473 
2754.349248  	0.011444 
2756.278064  	0.011370 
2758.206880  	0.011388 
2760.135696  	0.011460 
2762.064512  	0.011499 
2763.993328  	0.011453 
2765.922144  	0.011369 
2767.850960  	0.011369 
2769.779776  	0.011444 
2771.708592  	0.011589 
2773.637408  	0.011563 
2775.566224  	0.011498 
2777.495040  	0.011480 
2779.423856  	0.011640 
2781.352672  	0.011739 
2783.281488  	0.011702 
2785.210304  	0.011738 
2787.139120  	0.011788 
2789.067936  	0.011887 
2790.996752  	0.011960 
2792.925568  	0.011923 
2794.854384  	0.011975 
2796.783200  	0.012148 
2798.712016  	0.012259 
2800.640832  	0.012221 
2802.569648  	0.012251 
2804.498464  	0.012354 
2806.427280  	0.012302 
2808.356096  	0.012254 
2810.284912  	0.012373 
2812.213728  	0.012438 
2814.142544  	0.012482 
2816.071360  	0.012613 
2818.000176  	0.012585 
2819.928992  	0.012643 
2821.857808  	0.012710 
2823.786624  	0.012747 
2825.715440  	0.012884 
2827.644256  	0.012907 
2829.573072  	0.013029 
2831.501888  	0.013096 
2833.430704  	0.013001 
2835.359520  	0.013050 
2837.288336  	0.013213 
2839.217152  	0.013366 
2841.145968  	0.013512 
2843.074784  	0.013622 
2845.003600  	0.013776 
2846.932416  	0.014037 
2848.861232  	0.014457 
2850.790048  	0.014890 
2852.718864  	0.015229 
2854.647680  	0.015764 
2856.576496  	0.016261 
2858.505312  	0.016789 
2860.434128  	0.017426 
2862.362944  	0.017903 
2864.291760  	0.018539 
2866.220576  	0.019350 
2868.149392  	0.020086 
2870.078208  	0.020491 
2872.007024  	0.020836 
2873.935840  	0.021528 
2875.864656  	0.022332 
2877.793472  	0.023317 
2879.722288  	0.024496 
2881.651104  	0.025613 
2883.579920  	0.026598 
2885.508736  	0.027344 
2887.437552  	0.027587 
2889.366368  	0.027863 
2891.295184  	0.028389 
2893.224000  	0.028747 
2895.152816  	0.028883 
2897.081632  	0.029128 
2899.010448  	0.030219 
2900.939264  	0.031334 
2902.868080  	0.030857 
2904.796896  	0.030185 
2906.725712  	0.030102 
2908.654528  	0.030373 
2910.583344  	0.030876 
2912.512160  	0.030914 
2914.440976  	0.030751 
2916.369792  	0.030818 
2918.298608  	0.031144 
2920.227424  	0.031610 
2922.156240  	0.032161 
2924.085056  	0.032646 
2926.013872  	0.033036 
2927.942688  	0.033532 
2929.871504  	0.033960 
2931.800320  	0.034433 
2933.729136  	0.034983 
2935.657952  	0.035566 
2937.586768  	0.036196 
2939.515584  	0.037031 
2941.444400  	0.037784 
2943.373216  	0.038380 
2945.302032  	0.038834 
2947.230848  	0.038984 
2949.159664  	0.039486 
2951.088480  	0.040203 
2953.017296  	0.040777 
2954.946112  	0.041094 
2956.874928  	0.041493 
2958.803744  	0.041855 
2960.732560  	0.042197 
2962.661376  	0.042670 
2964.590192  	0.043220 
2966.519008  	0.043776 
2968.447824  	0.044287 
2970.376640  	0.044604 
2972.305456  	0.044553 
2974.234272  	0.044182 
2976.163088  	0.043883 
2978.091904  	0.043644 
2980.020720  	0.043592 
2981.949536  	0.043555 
2983.878352  	0.043795 
2985.807168  	0.044321 
2987.735984  	0.044762 
2989.664800  	0.044451 
2991.593616  	0.042407 
2993.522432  	0.041341 
2995.451248  	0.041080 
2997.380064  	0.040523 
2999.308880  	0.040026 
3001.237696  	0.039512 
3003.166512  	0.039035 
3005.095328  	0.038484 
3007.024144  	0.037806 
3008.952960  	0.037279 
3010.881776  	0.036832 
3012.810592  	0.036293 
3014.739408  	0.035739 
3016.668224  	0.035274 
3018.597040  	0.034921 
3020.525856  	0.034674 
3022.454672  	0.034531 
3024.383488  	0.034436 
3026.312304  	0.034323 
3028.241120  	0.034206 
3030.169936  	0.034263 
3032.098752  	0.034267 
3034.027568  	0.034374 
3035.956384  	0.034592 
3037.885200  	0.034761 
3039.814016  	0.034957 
3041.742832  	0.035273 
3043.671648  	0.035547 
3045.600464  	0.035883 
3047.529280  	0.036181 
3049.458096  	0.036568 
3051.386912  	0.037008 
3053.315728  	0.037387 
3055.244544  	0.037804 
3057.173360  	0.038429 
3059.102176  	0.038978 
3061.030992  	0.039677 
3062.959808  	0.040587 
3064.888624  	0.041359 
3066.817440  	0.041975 
3068.746256  	0.042818 
3070.675072  	0.043621 
3072.603888  	0.044341 
3074.532704  	0.045158 
3076.461520  	0.045992 
3078.390336  	0.046970 
3080.319152  	0.047875 
3082.247968  	0.048644 
3084.176784  	0.049349 
3086.105600  	0.050044 
3088.034416  	0.050837 
3089.963232  	0.051805 
3091.892048  	0.052594 
3093.820864  	0.053347 
3095.749680  	0.054181 
3097.678496  	0.055139 
3099.607312  	0.056105 
3101.536128  	0.057067 
3103.464944  	0.057948 
3105.393760  	0.058663 
3107.322576  	0.059357 
3109.251392  	0.060233 
3111.180208  	0.061065 
3113.109024  	0.061740 
3115.037840  	0.062485 
3116.966656  	0.063449 
3118.895472  	0.064256 
3120.824288  	0.064904 
3122.753104  	0.065442 
3124.681920  	0.065860 
3126.610736  	0.066504 
3128.539552  	0.067375 
3130.468368  	0.068062 
3132.397184  	0.068562 
3134.326000  	0.069292 
3136.254816  	0.069960 
3138.183632  	0.070586 
3140.112448  	0.071269 
3142.041264  	0.072009 
3143.970080  	0.072680 
3145.898896  	0.073401 
3147.827712  	0.074040 
3149.756528  	0.074546 
3151.685344  	0.075251 
3153.614160  	0.076068 
3155.542976  	0.076763 
3157.471792  	0.077426 
3159.400608  	0.078241 
3161.329424  	0.079049 
3163.258240  	0.079582 
3165.187056  	0.079983 
3167.115872  	0.080463 
3169.044688  	0.081001 
3170.973504  	0.081446 
3172.902320  	0.082020 
3174.831136  	0.082581 
3176.759952  	0.083062 
3178.688768  	0.083445 
3180.617584  	0.083748 
3182.546400  	0.084159 
3184.475216  	0.084460 
3186.404032  	0.084483 
3188.332848  	0.084644 
3190.261664  	0.085256 
3192.190480  	0.085715 
3194.119296  	0.085726 
3196.048112  	0.085743 
3197.976928  	0.085777 
3199.905744  	0.085897 
3201.834560  	0.085900 
3203.763376  	0.085884 
3205.692192  	0.085865 
3207.621008  	0.085656 
3209.549824  	0.085511 
3211.478640  	0.085462 
3213.407456  	0.085394 
3215.336272  	0.085258 
3217.265088  	0.085281 
3219.193904  	0.085241 
3221.122720  	0.085057 
3223.051536  	0.084902 
3224.980352  	0.084769 
3226.909168  	0.084703 
3228.837984  	0.084512 
3230.766800  	0.084297 
3232.695616  	0.084303 
3234.624432  	0.084254 
3236.553248  	0.084241 
3238.482064  	0.084400 
3240.410880  	0.084521 
3242.339696  	0.084472 
3244.268512  	0.084152 
3246.197328  	0.084369 
3248.126144  	0.084685 
3250.054960  	0.084759 
3251.983776  	0.084895 
3253.912592  	0.085142 
3255.841408  	0.085626 
3257.770224  	0.085971 
3259.699040  	0.086115 
3261.627856  	0.086367 
3263.556672  	0.086721 
3265.485488  	0.086971 
3267.414304  	0.087150 
3269.343120  	0.087517 
3271.271936  	0.087747 
3273.200752  	0.087639 
3275.129568  	0.087781 
3277.058384  	0.088169 
3278.987200  	0.088491 
3280.916016  	0.088768 
3282.844832  	0.088953 
3284.773648  	0.089139 
3286.702464  	0.089427 
3288.631280  	0.089670 
3290.560096  	0.089938 
3292.488912  	0.090337 
3294.417728  	0.090624 
3296.346544  	0.090871 
3298.275360  	0.091242 
3300.204176  	0.091712 
3302.132992  	0.092031 
3304.061808  	0.092220 
3305.990624  	0.092558 
3307.919440  	0.092936 
3309.848256  	0.093229 
3311.777072  	0.093635 
3313.705888  	0.094079 
3315.634704  	0.094596 
3317.563520  	0.094949 
3319.492336  	0.095209 
3321.421152  	0.095455 
3323.349968  	0.095793 
3325.278784  	0.096191 
3327.207600  	0.096365 
3329.136416  	0.096210 
3331.065232  	0.096280 
3332.994048  	0.096581 
3334.922864  	0.096850 
3336.851680  	0.096877 
3338.780496  	0.096852 
3340.709312  	0.096770 
3342.638128  	0.096444 
3344.566944  	0.096028 
3346.495760  	0.095956 
3348.424576  	0.095608 
3350.353392  	0.095207 
3352.282208  	0.094974 
3354.211024  	0.094776 
3356.139840  	0.094815 
3358.068656  	0.094659 
3359.997472  	0.094409 
3361.926288  	0.093953 
3363.855104  	0.093528 
3365.783920  	0.093010 
3367.712736  	0.092581 
3369.641552  	0.092419 
3371.570368  	0.092090 
3373.499184  	0.091710 
3375.428000  	0.091363 
3377.356816  	0.091087 
3379.285632  	0.091009 
3381.214448  	0.090726 
3383.143264  	0.090325 
3385.072080  	0.089861 
3387.000896  	0.089391 
3388.929712  	0.089001 
3390.858528  	0.088789 
3392.787344  	0.088559 
3394.716160  	0.088044 
3396.644976  	0.087781 
3398.573792  	0.087252 
3400.502608  	0.086811 
3402.431424  	0.086294 
3404.360240  	0.085610 
3406.289056  	0.084876 
3408.217872  	0.084447 
3410.146688  	0.084069 
3412.075504  	0.083733 
3414.004320  	0.083306 
3415.933136  	0.082893 
3417.861952  	0.082305 
3419.790768  	0.082027 
3421.719584  	0.081529 
3423.648400  	0.080759 
3425.577216  	0.079987 
3427.506032  	0.079307 
3429.434848  	0.078754 
3431.363664  	0.078311 
3433.292480  	0.077820 
3435.221296  	0.077262 
3437.150112  	0.076622 
3439.078928  	0.076001 
3441.007744  	0.075439 
3442.936560  	0.075035 
3444.865376  	0.074527 
3446.794192  	0.073907 
3448.723008  	0.073000 
3450.651824  	0.072241 
3452.580640  	0.071585 
3454.509456  	0.071084 
3456.438272  	0.070633 
3458.367088  	0.070095 
3460.295904  	0.069460 
3462.224720  	0.068484 
3464.153536  	0.067338 
3466.082352  	0.066476 
3468.011168  	0.065570 
3469.939984  	0.064753 
3471.868800  	0.064029 
3473.797616  	0.063315 
3475.726432  	0.062475 
3477.655248  	0.061619 
3479.584064  	0.061352 
3481.512880  	0.060854 
3483.441696  	0.059449 
3485.370512  	0.058342 
3487.299328  	0.057483 
3489.228144  	0.056724 
3491.156960  	0.055698 
3493.085776  	0.054945 
3495.014592  	0.054375 
3496.943408  	0.053713 
3498.872224  	0.053119 
3500.801040  	0.053001 
3502.729856  	0.052569 
3504.658672  	0.051123 
3506.587488  	0.050045 
3508.516304  	0.049835 
3510.445120  	0.049168 
3512.373936  	0.047785 
3514.302752  	0.046865 
3516.231568  	0.046528 
3518.160384  	0.046050 
3520.089200  	0.045321 
3522.018016  	0.045372 
3523.946832  	0.045919 
3525.875648  	0.044867 
3527.804464  	0.043070 
3529.733280  	0.041832 
3531.662096  	0.040898 
3533.590912  	0.040146 
3535.519728  	0.040295 
3537.448544  	0.039683 
3539.377360  	0.038245 
3541.306176  	0.037530 
3543.234992  	0.037740 
3545.163808  	0.038973 
3547.092624  	0.038302 
3549.021440  	0.035625 
3550.950256  	0.034439 
3552.879072  	0.034160 
3554.807888  	0.033236 
3556.736704  	0.032280 
3558.665520  	0.032058 
3560.594336  	0.031786 
3562.523152  	0.030493 
3564.451968  	0.030772 
3566.380784  	0.033062 
3568.309600  	0.031895 
3570.238416  	0.028721 
3572.167232  	0.027141 
3574.096048  	0.026013 
3576.024864  	0.024915 
3577.953680  	0.024472 
3579.882496  	0.024177 
3581.811312  	0.023278 
3583.740128  	0.022441 
3585.668944  	0.023012 
3587.597760  	0.023496 
3589.526576  	0.021247 
3591.455392  	0.019173 
3593.384208  	0.018724 
3595.313024  	0.018271 
3597.241840  	0.016668 
3599.170656  	0.015072 
3601.099472  	0.014186 
3603.028288  	0.013753 
3604.957104  	0.013336 
3606.885920  	0.013153 
3608.814736  	0.012824 
3610.743552  	0.012039 
3612.672368  	0.011342 
3614.601184  	0.010406 
3616.530000  	0.009351 
3618.458816  	0.008077 
3620.387632  	0.007099 
3622.316448  	0.006165 
3624.245264  	0.005218 
3626.174080  	0.004601 
3628.102896  	0.003673 
3630.031712  	0.002918 
3631.960528  	0.002707 
3633.889344  	0.002668 
3635.818160  	0.002055 
3637.746976  	0.001178 
3639.675792  	0.001118 
3641.604608  	0.001559 
3643.533424  	0.001261 
3645.462240  	0.000170 
3647.391056  	-0.001185 
3649.319872  	-0.003088 
3651.248688  	-0.002651 
3653.177504  	-0.001696 
3655.106320  	-0.002250 
3657.035136  	-0.002254 
3658.963952  	-0.001930 
3660.892768  	-0.002201 
3662.821584  	-0.002751 
3664.750400  	-0.003452 
3666.679216  	-0.004359 
3668.608032  	-0.006204 
3670.536848  	-0.007517 
3672.465664  	-0.006997 
3674.394480  	-0.007844 
3676.323296  	-0.008098 
3678.252112  	-0.007755 
3680.180928  	-0.007620 
3682.109744  	-0.007247 
3684.038560  	-0.007410 
3685.967376  	-0.008731 
3687.896192  	-0.011405 
3689.825008  	-0.012745 
3691.753824  	-0.011447 
3693.682640  	-0.010391 
3695.611456  	-0.010505 
3697.540272  	-0.010681 
3699.469088  	-0.011424 
3701.397904  	-0.012618 
3703.326720  	-0.013111 
3705.255536  	-0.012968 
3707.184352  	-0.013769 
3709.113168  	-0.015818 
3711.041984  	-0.016675 
3712.970800  	-0.014109 
3714.899616  	-0.012319 
3716.828432  	-0.012864 
3718.757248  	-0.013437 
3720.686064  	-0.014240 
3722.614880  	-0.014369 
3724.543696  	-0.013456 
3726.472512  	-0.013071 
3728.401328  	-0.014225 
3730.330144  	-0.016750 
3732.258960  	-0.017972 
3734.187776  	-0.015310 
3736.116592  	-0.013459 
3738.045408  	-0.014500 
3739.974224  	-0.014208 
3741.903040  	-0.014466 
3743.831856  	-0.015546 
3745.760672  	-0.015247 
3747.689488  	-0.016062 
3749.618304  	-0.018304 
3751.547120  	-0.018090 
3753.475936  	-0.015292 
3755.404752  	-0.014355 
3757.333568  	-0.014124 
3759.262384  	-0.014329 
3761.191200  	-0.014066 
3763.120016  	-0.013662 
3765.048832  	-0.013725 
3766.977648  	-0.013744 
3768.906464  	-0.014729 
3770.835280  	-0.014393 
3772.764096  	-0.013368 
3774.692912  	-0.013165 
3776.621728  	-0.013630 
3778.550544  	-0.014755 
3780.479360  	-0.014771 
3782.408176  	-0.013964 
3784.336992  	-0.013700 
3786.265808  	-0.013157 
3788.194624  	-0.013102 
3790.123440  	-0.013319 
3792.052256  	-0.013534 
3793.981072  	-0.014190 
3795.909888  	-0.015176 
3797.838704  	-0.014890 
3799.767520  	-0.016424 
3801.696336  	-0.018021 
3803.625152  	-0.015832 
3805.553968  	-0.016055 
3807.482784  	-0.015898 
3809.411600  	-0.013898 
3811.340416  	-0.013382 
3813.269232  	-0.014263 
3815.198048  	-0.016358 
3817.126864  	-0.016490 
3819.055680  	-0.016766 
3820.984496  	-0.018094 
3822.913312  	-0.015661 
3824.842128  	-0.014530 
3826.770944  	-0.014554 
3828.699760  	-0.014395 
3830.628576  	-0.015039 
3832.557392  	-0.015396 
3834.486208  	-0.015884 
3836.415024  	-0.017084 
3838.343840  	-0.016973 
3840.272656  	-0.015250 
3842.201472  	-0.014311 
3844.130288  	-0.013940 
3846.059104  	-0.013363 
3847.987920  	-0.013484 
3849.916736  	-0.014535 
3851.845552  	-0.017021 
3853.774368  	-0.017944 
3855.703184  	-0.014943 
3857.632000  	-0.013374 
3859.560816  	-0.013331 
3861.489632  	-0.013654 
3863.418448  	-0.014159 
3865.347264  	-0.013735 
3867.276080  	-0.013735 
3869.204896  	-0.014363 
3871.133712  	-0.013116 
3873.062528  	-0.013141 
3874.991344  	-0.013202 
3876.920160  	-0.013103 
3878.848976  	-0.012986 
3880.777792  	-0.012133 
3882.706608  	-0.012079 
3884.635424  	-0.012697 
3886.564240  	-0.012534 
3888.493056  	-0.013317 
3890.421872  	-0.013793 
3892.350688  	-0.013195 
3894.279504  	-0.012496 
3896.208320  	-0.012632 
3898.137136  	-0.012515 
3900.065952  	-0.011853 
3901.994768  	-0.011543 
3903.923584  	-0.011771 
3905.852400  	-0.012086 
3907.781216  	-0.012765 
3909.710032  	-0.013200 
3911.638848  	-0.013180 
3913.567664  	-0.013042 
3915.496480  	-0.012355 
3917.425296  	-0.011560 
3919.354112  	-0.011981 
3921.282928  	-0.012345 
3923.211744  	-0.012114 
3925.140560  	-0.011474 
3927.069376  	-0.012340 
3928.998192  	-0.012720 
3930.927008  	-0.011643 
3932.855824  	-0.010819 
3934.784640  	-0.011928 
3936.713456  	-0.012846 
3938.642272  	-0.012604 
3940.571088  	-0.012194 
3942.499904  	-0.011335 
3944.428720  	-0.011564 
3946.357536  	-0.011793 
3948.286352  	-0.010983 
3950.215168  	-0.011616 
3952.143984  	-0.012863 
3954.072800  	-0.013091 
3956.001616  	-0.012640 
3957.930432  	-0.012630 
3959.859248  	-0.012613 
3961.788064  	-0.012281 
3963.716880  	-0.012636 
3965.645696  	-0.013326 
3967.574512  	-0.013221 
3969.503328  	-0.012927 
3971.432144  	-0.012897 
3973.360960  	-0.012791 
3975.289776  	-0.012477 
3977.218592  	-0.012423 
3979.147408  	-0.012694 
3981.076224  	-0.012866 
3983.005040  	-0.013018 
3984.933856  	-0.013074 
3986.862672  	-0.013209 
3988.791488  	-0.012909 
3990.720304  	-0.012318 
3992.649120  	-0.012559 
3994.577936  	-0.012819 
3996.506752  	-0.012873 
3998.435568  	-0.012991 
4000.364384  	-0.013022 