##TITLE=No Description
##DATA TYPE=INFRARED SPECTRUM
##XUNITS=1/CM
##YUNITS=Abs
399.264912  	0.636067 
401.193728  	0.583684 
403.122544  	0.583092 
405.051360  	0.574225 
406.980176  	0.564344 
408.908992  	0.555337 
410.837808  	0.565662 
412.766624  	0.575056 
414.695440  	0.581183 
416.624256  	0.570377 
418.553072  	0.557937 
420.481888  	0.558665 
422.410704  	0.581433 
424.339520  	0.581252 
426.268336  	0.573206 
428.197152  	0.562506 
430.125968  	0.561345 
432.054784  	0.557063 
433.983600  	0.557381 
435.912416  	0.555708 
437.841232  	0.548651 
439.770048  	0.539140 
441.698864  	0.542030 
443.627680  	0.544432 
445.556496  	0.546725 
447.485312  	0.543156 
449.414128  	0.542929 
451.342944  	0.542783 
453.271760  	0.546835 
455.200576  	0.542552 
457.129392  	0.535946 
459.058208  	0.535576 
460.987024  	0.546906 
462.915840  	0.541657 
464.844656  	0.538400 
466.773472  	0.542008 
468.702288  	0.549274 
470.631104  	0.547543 
472.559920  	0.550064 
474.488736  	0.546590 
476.417552  	0.547239 
478.346368  	0.542098 
480.275184  	0.542778 
482.204000  	0.543716 
484.132816  	0.543593 
486.061632  	0.536572 
487.990448  	0.535367 
489.919264  	0.535498 
491.848080  	0.538194 
493.776896  	0.537297 
495.705712  	0.535472 
497.634528  	0.530105 
499.563344  	0.528928 
501.492160  	0.525561 
503.420976  	0.524115 
505.349792  	0.522328 
507.278608  	0.528071 
509.207424  	0.531491 
511.136240  	0.532252 
513.065056  	0.531948 
514.993872  	0.535692 
516.922688  	0.536677 
518.851504  	0.541059 
520.780320  	0.539896 
522.709136  	0.538063 
524.637952  	0.535650 
526.566768  	0.536333 
528.495584  	0.533771 
530.424400  	0.531252 
532.353216  	0.524026 
534.282032  	0.517290 
536.210848  	0.511300 
538.139664  	0.505929 
540.068480  	0.498617 
541.997296  	0.494085 
543.926112  	0.490250 
545.854928  	0.485485 
547.783744  	0.480965 
549.712560  	0.478056 
551.641376  	0.473675 
553.570192  	0.469788 
555.499008  	0.465099 
557.427824  	0.460933 
559.356640  	0.456988 
561.285456  	0.453696 
563.214272  	0.449050 
565.143088  	0.445524 
567.071904  	0.441545 
569.000720  	0.437148 
570.929536  	0.434018 
572.858352  	0.431693 
574.787168  	0.427843 
576.715984  	0.425888 
578.644800  	0.421730 
580.573616  	0.416943 
582.502432  	0.411298 
584.431248  	0.407499 
586.360064  	0.403383 
588.288880  	0.399889 
590.217696  	0.397983 
592.146512  	0.396602 
594.075328  	0.393919 
596.004144  	0.392109 
597.932960  	0.389416 
599.861776  	0.387630 
601.790592  	0.386117 
603.719408  	0.384540 
605.648224  	0.383395 
607.577040  	0.382517 
609.505856  	0.380674 
611.434672  	0.379603 
613.363488  	0.378005 
615.292304  	0.376474 
617.221120  	0.375160 
619.149936  	0.374564 
621.078752  	0.373137 
623.007568  	0.372561 
624.936384  	0.371388 
626.865200  	0.370113 
628.794016  	0.369040 
630.722832  	0.369066 
632.651648  	0.368775 
634.580464  	0.369392 
636.509280  	0.370087 
638.438096  	0.370356 
640.366912  	0.370176 
642.295728  	0.368815 
644.224544  	0.365393 
646.153360  	0.361644 
648.082176  	0.357016 
650.010992  	0.352237 
651.939808  	0.347884 
653.868624  	0.343243 
655.797440  	0.338387 
657.726256  	0.334538 
659.655072  	0.330524 
661.583888  	0.326057 
663.512704  	0.322181 
665.441520  	0.318836 
667.370336  	0.309619 
669.299152  	0.302128 
671.227968  	0.302988 
673.156784  	0.299872 
675.085600  	0.296073 
677.014416  	0.293086 
678.943232  	0.290984 
680.872048  	0.289931 
682.800864  	0.288563 
684.729680  	0.286685 
686.658496  	0.285770 
688.587312  	0.285122 
690.516128  	0.284218 
692.444944  	0.283711 
694.373760  	0.283241 
696.302576  	0.282120 
698.231392  	0.279899 
700.160208  	0.277207 
702.089024  	0.274894 
704.017840  	0.272535 
705.946656  	0.269800 
707.875472  	0.267826 
709.804288  	0.265994 
711.733104  	0.263786 
713.661920  	0.261869 
715.590736  	0.260944 
717.519552  	0.260778 
719.448368  	0.261614 
721.377184  	0.262935 
723.306000  	0.264367 
725.234816  	0.265111 
727.163632  	0.264903 
729.092448  	0.262562 
731.021264  	0.258679 
732.950080  	0.254955 
734.878896  	0.251372 
736.807712  	0.247552 
738.736528  	0.244392 
740.665344  	0.242455 
742.594160  	0.241127 
744.522976  	0.239895 
746.451792  	0.238198 
748.380608  	0.236715 
750.309424  	0.235784 
752.238240  	0.234962 
754.167056  	0.234368 
756.095872  	0.233442 
758.024688  	0.232697 
759.953504  	0.232611 
761.882320  	0.234054 
763.811136  	0.235557 
765.739952  	0.234580 
767.668768  	0.231068 
769.597584  	0.227983 
771.526400  	0.227133 
773.455216  	0.229385 
775.384032  	0.235096 
777.312848  	0.242691 
779.241664  	0.248611 
781.170480  	0.248703 
783.099296  	0.243147 
785.028112  	0.235820 
786.956928  	0.228967 
788.885744  	0.223378 
790.814560  	0.219265 
792.743376  	0.216794 
794.672192  	0.216134 
796.601008  	0.215160 
798.529824  	0.211839 
800.458640  	0.207159 
802.387456  	0.203337 
804.316272  	0.201301 
806.245088  	0.200284 
808.173904  	0.199799 
810.102720  	0.199867 
812.031536  	0.200380 
813.960352  	0.201039 
815.889168  	0.202103 
817.817984  	0.203261 
819.746800  	0.204296 
821.675616  	0.205506 
823.604432  	0.206329 
825.533248  	0.206782 
827.462064  	0.206896 
829.390880  	0.206412 
831.319696  	0.205385 
833.248512  	0.203531 
835.177328  	0.200880 
837.106144  	0.198002 
839.034960  	0.194410 
840.963776  	0.189908 
842.892592  	0.185165 
844.821408  	0.180972 
846.750224  	0.177339 
848.679040  	0.174570 
850.607856  	0.172853 
852.536672  	0.171471 
854.465488  	0.170578 
856.394304  	0.170337 
858.323120  	0.170064 
860.251936  	0.169125 
862.180752  	0.167713 
864.109568  	0.165727 
866.038384  	0.163748 
867.967200  	0.162075 
869.896016  	0.160476 
871.824832  	0.159644 
873.753648  	0.159311 
875.682464  	0.160149 
877.611280  	0.163339 
879.540096  	0.167153 
881.468912  	0.169069 
883.397728  	0.170876 
885.326544  	0.172555 
887.255360  	0.173737 
889.184176  	0.173945 
891.112992  	0.173558 
893.041808  	0.171203 
894.970624  	0.167231 
896.899440  	0.162623 
898.828256  	0.157011 
900.757072  	0.151158 
902.685888  	0.146166 
904.614704  	0.143072 
906.543520  	0.142518 
908.472336  	0.144000 
910.401152  	0.146909 
912.329968  	0.150006 
914.258784  	0.153234 
916.187600  	0.156272 
918.116416  	0.158678 
920.045232  	0.160365 
921.974048  	0.161649 
923.902864  	0.162569 
925.831680  	0.163099 
927.760496  	0.163933 
929.689312  	0.165135 
931.618128  	0.166514 
933.546944  	0.167668 
935.475760  	0.168403 
937.404576  	0.168220 
939.333392  	0.167448 
941.262208  	0.167470 
943.191024  	0.169615 
945.119840  	0.174789 
947.048656  	0.183139 
948.977472  	0.194612 
950.906288  	0.208917 
952.835104  	0.225224 
954.763920  	0.242371 
956.692736  	0.258603 
958.621552  	0.272087 
960.550368  	0.281124 
962.479184  	0.284946 
964.408000  	0.282772 
966.336816  	0.275197 
968.265632  	0.262725 
970.194448  	0.246602 
972.123264  	0.228651 
974.052080  	0.210405 
975.980896  	0.192655 
977.909712  	0.176476 
979.838528  	0.162414 
981.767344  	0.150770 
983.696160  	0.141848 
985.624976  	0.136471 
987.553792  	0.134858 
989.482608  	0.136792 
991.411424  	0.141977 
993.340240  	0.149458 
995.269056  	0.158622 
997.197872  	0.168385 
999.126688  	0.178352 
1001.055504  	0.188729 
1002.984320  	0.199554 
1004.913136  	0.210275 
1006.841952  	0.220748 
1008.770768  	0.230079 
1010.699584  	0.237836 
1012.628400  	0.243472 
1014.557216  	0.246875 
1016.486032  	0.248365 
1018.414848  	0.248684 
1020.343664  	0.248621 
1022.272480  	0.248311 
1024.201296  	0.248985 
1026.130112  	0.252537 
1028.058928  	0.255474 
1029.987744  	0.255143 
1031.916560  	0.259358 
1033.845376  	0.267606 
1035.774192  	0.278995 
1037.703008  	0.291504 
1039.631824  	0.304959 
1041.560640  	0.322712 
1043.489456  	0.344927 
1045.418272  	0.369369 
1047.347088  	0.392991 
1049.275904  	0.411420 
1051.204720  	0.422775 
1053.133536  	0.425653 
1055.062352  	0.424005 
1056.991168  	0.420364 
1058.919984  	0.413865 
1060.848800  	0.406266 
1062.777616  	0.404229 
1064.706432  	0.405261 
1066.635248  	0.402386 
1068.564064  	0.389634 
1070.492880  	0.378883 
1072.421696  	0.371816 
1074.350512  	0.367243 
1076.279328  	0.365614 
1078.208144  	0.368391 
1080.136960  	0.372240 
1082.065776  	0.375107 
1083.994592  	0.373052 
1085.923408  	0.365592 
1087.852224  	0.354169 
1089.781040  	0.340252 
1091.709856  	0.322790 
1093.638672  	0.306061 
1095.567488  	0.289486 
1097.496304  	0.272310 
1099.425120  	0.254513 
1101.353936  	0.237420 
1103.282752  	0.220942 
1105.211568  	0.205003 
1107.140384  	0.189419 
1109.069200  	0.174896 
1110.998016  	0.161291 
1112.926832  	0.149018 
1114.855648  	0.138135 
1116.784464  	0.127859 
1118.713280  	0.118284 
1120.642096  	0.109509 
1122.570912  	0.101342 
1124.499728  	0.093812 
1126.428544  	0.087232 
1128.357360  	0.081196 
1130.286176  	0.076442 
1132.214992  	0.072581 
1134.143808  	0.069536 
1136.072624  	0.066846 
1138.001440  	0.064656 
1139.930256  	0.062173 
1141.859072  	0.059634 
1143.787888  	0.056891 
1145.716704  	0.054162 
1147.645520  	0.051374 
1149.574336  	0.049334 
1151.503152  	0.047870 
1153.431968  	0.047256 
1155.360784  	0.047467 
1157.289600  	0.048730 
1159.218416  	0.050799 
1161.147232  	0.053486 
1163.076048  	0.056302 
1165.004864  	0.059615 
1166.933680  	0.062636 
1168.862496  	0.065708 
1170.791312  	0.068910 
1172.720128  	0.072988 
1174.648944  	0.077079 
1176.577760  	0.081220 
1178.506576  	0.085212 
1180.435392  	0.089410 
1182.364208  	0.093439 
1184.293024  	0.098017 
1186.221840  	0.103036 
1188.150656  	0.108702 
1190.079472  	0.115200 
1192.008288  	0.122969 
1193.937104  	0.132236 
1195.865920  	0.142673 
1197.794736  	0.154098 
1199.723552  	0.166547 
1201.652368  	0.179200 
1203.581184  	0.191757 
1205.510000  	0.203984 
1207.438816  	0.215028 
1209.367632  	0.225372 
1211.296448  	0.234097 
1213.225264  	0.241377 
1215.154080  	0.246903 
1217.082896  	0.251219 
1219.011712  	0.253935 
1220.940528  	0.255596 
1222.869344  	0.256100 
1224.798160  	0.255861 
1226.726976  	0.254620 
1228.655792  	0.252674 
1230.584608  	0.249001 
1232.513424  	0.244093 
1234.442240  	0.237879 
1236.371056  	0.231060 
1238.299872  	0.223798 
1240.228688  	0.217815 
1242.157504  	0.210006 
1244.086320  	0.199744 
1246.015136  	0.190745 
1247.943952  	0.182949 
1249.872768  	0.174578 
1251.801584  	0.165350 
1253.730400  	0.156222 
1255.659216  	0.147380 
1257.588032  	0.139151 
1259.516848  	0.130967 
1261.445664  	0.123140 
1263.374480  	0.115686 
1265.303296  	0.109306 
1267.232112  	0.103843 
1269.160928  	0.099485 
1271.089744  	0.096043 
1273.018560  	0.093980 
1274.947376  	0.092946 
1276.876192  	0.092746 
1278.805008  	0.092420 
1280.733824  	0.091058 
1282.662640  	0.088475 
1284.591456  	0.085467 
1286.520272  	0.083009 
1288.449088  	0.081460 
1290.377904  	0.080673 
1292.306720  	0.081154 
1294.235536  	0.081642 
1296.164352  	0.081046 
1298.093168  	0.078402 
1300.021984  	0.074855 
1301.950800  	0.071087 
1303.879616  	0.067559 
1305.808432  	0.063620 
1307.737248  	0.059653 
1309.666064  	0.055539 
1311.594880  	0.052672 
1313.523696  	0.050480 
1315.452512  	0.048979 
1317.381328  	0.048220 
1319.310144  	0.048026 
1321.238960  	0.047983 
1323.167776  	0.048779 
1325.096592  	0.049859 
1327.025408  	0.050578 
1328.954224  	0.050457 
1330.883040  	0.049956 
1332.811856  	0.048957 
1334.740672  	0.048551 
1336.669488  	0.049092 
1338.598304  	0.050055 
1340.527120  	0.048435 
1342.455936  	0.046229 
1344.384752  	0.045886 
1346.313568  	0.046529 
1348.242384  	0.047592 
1350.171200  	0.049313 
1352.100016  	0.051496 
1354.028832  	0.054324 
1355.957648  	0.057082 
1357.886464  	0.060223 
1359.815280  	0.063962 
1361.744096  	0.068263 
1363.672912  	0.070714 
1365.601728  	0.072797 
1367.530544  	0.075961 
1369.459360  	0.078430 
1371.388176  	0.080137 
1373.316992  	0.080980 
1375.245808  	0.078796 
1377.174624  	0.077109 
1379.103440  	0.075142 
1381.032256  	0.072333 
1382.961072  	0.069765 
1384.889888  	0.068485 
1386.818704  	0.066471 
1388.747520  	0.062611 
1390.676336  	0.061638 
1392.605152  	0.064549 
1394.533968  	0.064667 
1396.462784  	0.060623 
1398.391600  	0.059585 
1400.320416  	0.059590 
1402.249232  	0.061937 
1404.178048  	0.064502 
1406.106864  	0.065598 
1408.035680  	0.066908 
1409.964496  	0.068524 
1411.893312  	0.069598 
1413.822128  	0.070586 
1415.750944  	0.073068 
1417.679760  	0.074592 
1419.608576  	0.070996 
1421.537392  	0.069696 
1423.466208  	0.069272 
1425.395024  	0.066139 
1427.323840  	0.063830 
1429.252656  	0.060190 
1431.181472  	0.057418 
1433.110288  	0.057527 
1435.039104  	0.058875 
1436.967920  	0.058118 
1438.896736  	0.058732 
1440.825552  	0.060536 
1442.754368  	0.061578 
1444.683184  	0.062188 
1446.612000  	0.062571 
1448.540816  	0.062510 
1450.469632  	0.063804 
1452.398448  	0.065021 
1454.327264  	0.066319 
1456.256080  	0.064173 
1458.184896  	0.057815 
1460.113712  	0.059075 
1462.042528  	0.061043 
1463.971344  	0.060274 
1465.900160  	0.059819 
1467.828976  	0.062814 
1469.757792  	0.066724 
1471.686608  	0.070134 
1473.615424  	0.075930 
1475.544240  	0.083908 
1477.473056  	0.090593 
1479.401872  	0.095541 
1481.330688  	0.099737 
1483.259504  	0.102350 
1485.188320  	0.104577 
1487.117136  	0.104892 
1489.045952  	0.104357 
1490.974768  	0.099903 
1492.903584  	0.096974 
1494.832400  	0.093064 
1496.761216  	0.083891 
1498.690032  	0.075479 
1500.618848  	0.070470 
1502.547664  	0.066133 
1504.476480  	0.061325 
1506.405296  	0.053273 
1508.334112  	0.050218 
1510.262928  	0.050564 
1512.191744  	0.048090 
1514.120560  	0.047121 
1516.049376  	0.046629 
1517.978192  	0.045111 
1519.907008  	0.047099 
1521.835824  	0.046981 
1523.764640  	0.052327 
1525.693456  	0.057993 
1527.622272  	0.060266 
1529.551088  	0.060922 
1531.479904  	0.060447 
1533.408720  	0.054345 
1535.337536  	0.050157 
1537.266352  	0.048614 
1539.195168  	0.038880 
1541.123984  	0.029600 
1543.052800  	0.033737 
1544.981616  	0.034829 
1546.910432  	0.034282 
1548.839248  	0.035419 
1550.768064  	0.035554 
1552.696880  	0.035319 
1554.625696  	0.035721 
1556.554512  	0.036245 
1558.483328  	0.033082 
1560.412144  	0.036598 
1562.340960  	0.046269 
1564.269776  	0.051393 
1566.198592  	0.057806 
1568.127408  	0.063000 
1570.056224  	0.068425 
1571.985040  	0.077352 
1573.913856  	0.083608 
1575.842672  	0.084146 
1577.771488  	0.087582 
1579.700304  	0.091024 
1581.629120  	0.091226 
1583.557936  	0.090624 
1585.486752  	0.091750 
1587.415568  	0.094831 
1589.344384  	0.100265 
1591.273200  	0.107546 
1593.202016  	0.116331 
1595.130832  	0.125556 
1597.059648  	0.135453 
1598.988464  	0.143968 
1600.917280  	0.151466 
1602.846096  	0.156279 
1604.774912  	0.159437 
1606.703728  	0.159939 
1608.632544  	0.158651 
1610.561360  	0.156031 
1612.490176  	0.154251 
1614.418992  	0.151710 
1616.347808  	0.147271 
1618.276624  	0.148010 
1620.205440  	0.154246 
1622.134256  	0.157571 
1624.063072  	0.163291 
1625.991888  	0.171776 
1627.920704  	0.181055 
1629.849520  	0.192540 
1631.778336  	0.203943 
1633.707152  	0.211384 
1635.635968  	0.217721 
1637.564784  	0.228420 
1639.493600  	0.237996 
1641.422416  	0.243451 
1643.351232  	0.247391 
1645.280048  	0.247132 
1647.208864  	0.243932 
1649.137680  	0.245477 
1651.066496  	0.247161 
1652.995312  	0.237224 
1654.924128  	0.234900 
1656.852944  	0.236960 
1658.781760  	0.235026 
1660.710576  	0.230639 
1662.639392  	0.223276 
1664.568208  	0.217989 
1666.497024  	0.215634 
1668.425840  	0.208252 
1670.354656  	0.197978 
1672.283472  	0.194467 
1674.212288  	0.190976 
1676.141104  	0.184012 
1678.069920  	0.183439 
1679.998736  	0.182905 
1681.927552  	0.180949 
1683.856368  	0.173129 
1685.785184  	0.170702 
1687.714000  	0.174914 
1689.642816  	0.174551 
1691.571632  	0.172730 
1693.500448  	0.172475 
1695.429264  	0.167848 
1697.358080  	0.164558 
1699.286896  	0.163162 
1701.215712  	0.156987 
1703.144528  	0.157834 
1705.073344  	0.153725 
1707.002160  	0.147212 
1708.930976  	0.143539 
1710.859792  	0.137338 
1712.788608  	0.130186 
1714.717424  	0.120549 
1716.646240  	0.107120 
1718.575056  	0.089995 
1720.503872  	0.081523 
1722.432688  	0.074316 
1724.361504  	0.063479 
1726.290320  	0.054724 
1728.219136  	0.047717 
1730.147952  	0.041296 
1732.076768  	0.036089 
1734.005584  	0.027220 
1735.934400  	0.020915 
1737.863216  	0.021705 
1739.792032  	0.017199 
1741.720848  	0.016217 
1743.649664  	0.016245 
1745.578480  	0.015258 
1747.507296  	0.013239 
1749.436112  	0.012339 
1751.364928  	0.010934 
1753.293744  	0.009949 
1755.222560  	0.010069 
1757.151376  	0.009219 
1759.080192  	0.008596 
1761.009008  	0.007859 
1762.937824  	0.005739 
1764.866640  	0.006579 
1766.795456  	0.007590 
1768.724272  	0.007006 
1770.653088  	0.004315 
1772.581904  	0.000412 
1774.510720  	0.002087 
1776.439536  	0.004580 
1778.368352  	0.005016 
1780.297168  	0.004568 
1782.225984  	0.003796 
1784.154800  	0.004488 
1786.083616  	0.003632 
1788.012432  	0.003928 
1789.941248  	0.004655 
1791.870064  	0.002848 
1793.798880  	0.000844 
1795.727696  	0.002897 
1797.656512  	0.002703 
1799.585328  	0.002500 
1801.514144  	0.002742 
1803.442960  	0.002510 
1805.371776  	0.001806 
1807.300592  	0.002310 
1809.229408  	0.001749 
1811.158224  	0.001254 
1813.087040  	0.001036 
1815.015856  	0.001397 
1816.944672  	0.001620 
1818.873488  	0.001681 
1820.802304  	0.001415 
1822.731120  	0.002469 
1824.659936  	0.001850 
1826.588752  	0.000986 
1828.517568  	0.000384 
1830.446384  	-0.000456 
1832.375200  	0.000529 
1834.304016  	0.001718 
1836.232832  	0.001425 
1838.161648  	0.001395 
1840.090464  	0.001501 
1842.019280  	0.002857 
1843.948096  	0.001185 
1845.876912  	0.000566 
1847.805728  	0.001471 
1849.734544  	0.001364 
1851.663360  	0.000907 
1853.592176  	0.000991 
1855.520992  	0.000883 
1857.449808  	0.001194 
1859.378624  	0.000973 
1861.307440  	0.001019 
1863.236256  	0.000946 
1865.165072  	0.001364 
1867.093888  	0.001119 
1869.022704  	0.000274 
1870.951520  	0.000067 
1872.880336  	0.000962 
1874.809152  	0.000679 
1876.737968  	0.000955 
1878.666784  	0.000903 
1880.595600  	0.001550 
1882.524416  	0.001244 
1884.453232  	0.001225 
1886.382048  	0.001096 
1888.310864  	0.001472 
1890.239680  	0.000738 
1892.168496  	0.001382 
1894.097312  	0.001537 
1896.026128  	0.001447 
1897.954944  	0.001021 
1899.883760  	0.001367 
1901.812576  	0.001284 
1903.741392  	0.001066 
1905.670208  	0.001174 
1907.599024  	0.002194 
1909.527840  	0.001959 
1911.456656  	0.002035 
1913.385472  	0.001620 
1915.314288  	0.002181 
1917.243104  	0.002066 
1919.171920  	0.001741 
1921.100736  	0.002214 
1923.029552  	0.002583 
1924.958368  	0.001413 
1926.887184  	0.001655 
1928.816000  	0.001417 
1930.744816  	0.001670 
1932.673632  	0.001489 
1934.602448  	0.002124 
1936.531264  	0.001565 
1938.460080  	0.001800 
1940.388896  	0.002165 
1942.317712  	0.002895 
1944.246528  	0.001776 
1946.175344  	0.002259 
1948.104160  	0.001766 
1950.032976  	0.002396 
1951.961792  	0.002028 
1953.890608  	0.001717 
1955.819424  	0.001147 
1957.748240  	0.002305 
1959.677056  	0.001923 
1961.605872  	0.002923 
1963.534688  	0.002703 
1965.463504  	0.003269 
1967.392320  	0.002645 
1969.321136  	0.002826 
1971.249952  	0.002138 
1973.178768  	0.003152 
1975.107584  	0.002641 
1977.036400  	0.003710 
1978.965216  	0.003541 
1980.894032  	0.003055 
1982.822848  	0.001576 
1984.751664  	0.001993 
1986.680480  	0.001346 
1988.609296  	0.001860 
1990.538112  	0.001183 
1992.466928  	0.001184 
1994.395744  	-0.000463 
1996.324560  	0.000132 
1998.253376  	0.000416 
2000.182192  	0.000618 
2002.111008  	0.000504 
2004.039824  	0.002421 
2005.968640  	0.002170 
2007.897456  	0.002730 
2009.826272  	0.001907 
2011.755088  	0.002516 
2013.683904  	0.001952 
2015.612720  	0.003430 
2017.541536  	0.003461 
2019.470352  	0.002602 
2021.399168  	0.000984 
2023.327984  	0.002245 
2025.256800  	0.002750 
2027.185616  	0.003098 
2029.114432  	0.002845 
2031.043248  	0.004668 
2032.972064  	0.005104 
2034.900880  	0.004848 
2036.829696  	0.002950 
2038.758512  	0.002796 
2040.687328  	0.002076 
2042.616144  	0.002096 
2044.544960  	0.001552 
2046.473776  	0.001967 
2048.402592  	0.002014 
2050.331408  	0.001906 
2052.260224  	0.000975 
2054.189040  	0.000885 
2056.117856  	0.000531 
2058.046672  	0.001190 
2059.975488  	0.001020 
2061.904304  	0.000874 
2063.833120  	0.000939 
2065.761936  	0.001333 
2067.690752  	0.000741 
2069.619568  	0.000858 
2071.548384  	0.001143 
2073.477200  	0.001343 
2075.406016  	0.001594 
2077.334832  	0.001921 
2079.263648  	0.001550 
2081.192464  	0.001847 
2083.121280  	0.001612 
2085.050096  	0.001558 
2086.978912  	0.001275 
2088.907728  	0.001879 
2090.836544  	0.001825 
2092.765360  	0.002207 
2094.694176  	0.002541 
2096.622992  	0.002786 
2098.551808  	0.002296 
2100.480624  	0.002381 
2102.409440  	0.001942 
2104.338256  	0.001646 
2106.267072  	0.001826 
2108.195888  	0.002365 
2110.124704  	0.002077 
2112.053520  	0.001898 
2113.982336  	0.001545 
2115.911152  	0.001655 
2117.839968  	0.001784 
2119.768784  	0.001866 
2121.697600  	0.001350 
2123.626416  	0.001439 
2125.555232  	0.001254 
2127.484048  	0.001455 
2129.412864  	0.001574 
2131.341680  	0.001668 
2133.270496  	0.001263 
2135.199312  	0.001897 
2137.128128  	0.002540 
2139.056944  	0.002899 
2140.985760  	0.002708 
2142.914576  	0.003252 
2144.843392  	0.003415 
2146.772208  	0.004369 
2148.701024  	0.004122 
2150.629840  	0.005446 
2152.558656  	0.005740 
2154.487472  	0.006020 
2156.416288  	0.005641 
2158.345104  	0.006928 
2160.273920  	0.007244 
2162.202736  	0.007636 
2164.131552  	0.008083 
2166.060368  	0.007605 
2167.989184  	0.006497 
2169.918000  	0.006652 
2171.846816  	0.005259 
2173.775632  	0.005469 
2175.704448  	0.005133 
2177.633264  	0.004500 
2179.562080  	0.004134 
2181.490896  	0.004768 
2183.419712  	0.003809 
2185.348528  	0.003791 
2187.277344  	0.003034 
2189.206160  	0.002890 
2191.134976  	0.003274 
2193.063792  	0.003357 
2194.992608  	0.002605 
2196.921424  	0.002484 
2198.850240  	0.002780 
2200.779056  	0.003027 
2202.707872  	0.002280 
2204.636688  	0.002340 
2206.565504  	0.002493 
2208.494320  	0.002685 
2210.423136  	0.001961 
2212.351952  	0.001845 
2214.280768  	0.001271 
2216.209584  	0.001692 
2218.138400  	0.001641 
2220.067216  	0.001842 
2221.996032  	0.001562 
2223.924848  	0.001794 
2225.853664  	0.001573 
2227.782480  	0.001541 
2229.711296  	0.001010 
2231.640112  	0.000565 
2233.568928  	0.000188 
2235.497744  	0.000888 
2237.426560  	0.000531 
2239.355376  	0.000260 
2241.284192  	0.000271 
2243.213008  	0.000710 
2245.141824  	0.000575 
2247.070640  	0.000698 
2248.999456  	0.000393 
2250.928272  	0.000258 
2252.857088  	0.000369 
2254.785904  	0.000739 
2256.714720  	-0.000023 
2258.643536  	-0.000694 
2260.572352  	-0.000809 
2262.501168  	-0.000707 
2264.429984  	-0.000717 
2266.358800  	-0.000480 
2268.287616  	-0.000495 
2270.216432  	-0.000385 
2272.145248  	-0.000490 
2274.074064  	-0.000608 
2276.002880  	-0.000698 
2277.931696  	-0.000469 
2279.860512  	-0.000432 
2281.789328  	-0.000300 
2283.718144  	-0.000263 
2285.646960  	0.000006 
2287.575776  	-0.000124 
2289.504592  	-0.000559 
2291.433408  	-0.000885 
2293.362224  	-0.000545 
2295.291040  	-0.000239 
2297.219856  	-0.000058 
2299.148672  	-0.000228 
2301.077488  	-0.000285 
2303.006304  	-0.000374 
2304.935120  	-0.000294 
2306.863936  	-0.000558 
2308.792752  	-0.001149 
2310.721568  	-0.002063 
2312.650384  	-0.002992 
2314.579200  	-0.004207 
2316.508016  	-0.005555 
2318.436832  	-0.007236 
2320.365648  	-0.009377 
2322.294464  	-0.011684 
2324.223280  	-0.014331 
2326.152096  	-0.017447 
2328.080912  	-0.019717 
2330.009728  	-0.021917 
2331.938544  	-0.024554 
2333.867360  	-0.026729 
2335.796176  	-0.028315 
2337.724992  	-0.029720 
2339.653808  	-0.030274 
2341.582624  	-0.030563 
2343.511440  	-0.028940 
2345.440256  	-0.025203 
2347.369072  	-0.017678 
2349.297888  	-0.013201 
2351.226704  	-0.017089 
2353.155520  	-0.024896 
2355.084336  	-0.031084 
2357.013152  	-0.036206 
2358.941968  	-0.039018 
2360.870784  	-0.040663 
2362.799600  	-0.039575 
2364.728416  	-0.037286 
2366.657232  	-0.033226 
2368.586048  	-0.028125 
2370.514864  	-0.022986 
2372.443680  	-0.017813 
2374.372496  	-0.012632 
2376.301312  	-0.008210 
2378.230128  	-0.004569 
2380.158944  	-0.002255 
2382.087760  	-0.001150 
2384.016576  	-0.000731 
2385.945392  	-0.000694 
2387.874208  	-0.000989 
2389.803024  	-0.001088 
2391.731840  	-0.001413 
2393.660656  	-0.001491 
2395.589472  	-0.001483 
2397.518288  	-0.001308 
2399.447104  	-0.001365 
2401.375920  	-0.001411 
2403.304736  	-0.001578 
2405.233552  	-0.001396 
2407.162368  	-0.001211 
2409.091184  	-0.001023 
2411.020000  	-0.000992 
2412.948816  	-0.000789 
2414.877632  	-0.000547 
2416.806448  	-0.000285 
2418.735264  	-0.000396 
2420.664080  	-0.000568 
2422.592896  	-0.000759 
2424.521712  	-0.000769 
2426.450528  	-0.000984 
2428.379344  	-0.000718 
2430.308160  	-0.000355 
2432.236976  	-0.000121 
2434.165792  	-0.000374 
2436.094608  	-0.000399 
2438.023424  	-0.000246 
2439.952240  	-0.000023 
2441.881056  	-0.000057 
2443.809872  	-0.000156 
2445.738688  	-0.000048 
2447.667504  	0.000119 
2449.596320  	0.000149 
2451.525136  	0.000350 
2453.453952  	0.000238 
2455.382768  	0.000179 
2457.311584  	0.000144 
2459.240400  	0.000054 
2461.169216  	-0.000124 
2463.098032  	-0.000197 
2465.026848  	-0.000229 
2466.955664  	-0.000088 
2468.884480  	-0.000100 
2470.813296  	-0.000129 
2472.742112  	-0.000204 
2474.670928  	-0.000104 
2476.599744  	0.000021 
2478.528560  	0.000093 
2480.457376  	0.000059 
2482.386192  	0.000117 
2484.315008  	0.000140 
2486.243824  	0.000095 
2488.172640  	0.000182 
2490.101456  	0.000562 
2492.030272  	0.000766 
2493.959088  	0.000775 
2495.887904  	0.000679 
2497.816720  	0.000806 
2499.745536  	0.000993 
2501.674352  	0.001205 
2503.603168  	0.001320 
2505.531984  	0.001182 
2507.460800  	0.000896 
2509.389616  	0.000865 
2511.318432  	0.000990 
2513.247248  	0.001168 
2515.176064  	0.001133 
2517.104880  	0.001205 
2519.033696  	0.001127 
2520.962512  	0.001334 
2522.891328  	0.001627 
2524.820144  	0.001609 
2526.748960  	0.001563 
2528.677776  	0.001612 
2530.606592  	0.001537 
2532.535408  	0.001611 
2534.464224  	0.001616 
2536.393040  	0.001667 
2538.321856  	0.001760 
2540.250672  	0.002015 
2542.179488  	0.002198 
2544.108304  	0.002331 
2546.037120  	0.002412 
2547.965936  	0.002462 
2549.894752  	0.002448 
2551.823568  	0.002382 
2553.752384  	0.002537 
2555.681200  	0.003025 
2557.610016  	0.003088 
2559.538832  	0.003155 
2561.467648  	0.003194 
2563.396464  	0.003436 
2565.325280  	0.003483 
2567.254096  	0.003436 
2569.182912  	0.003497 
2571.111728  	0.003689 
2573.040544  	0.003603 
2574.969360  	0.003678 
2576.898176  	0.004087 
2578.826992  	0.004236 
2580.755808  	0.004167 
2582.684624  	0.004287 
2584.613440  	0.004267 
2586.542256  	0.004358 
2588.471072  	0.004625 
2590.399888  	0.004915 
2592.328704  	0.005022 
2594.257520  	0.004899 
2596.186336  	0.004964 
2598.115152  	0.005175 
2600.043968  	0.005095 
2601.972784  	0.005250 
2603.901600  	0.005492 
2605.830416  	0.005779 
2607.759232  	0.005936 
2609.688048  	0.006002 
2611.616864  	0.006179 
2613.545680  	0.006473 
2615.474496  	0.006617 
2617.403312  	0.006717 
2619.332128  	0.006879 
2621.260944  	0.007000 
2623.189760  	0.007002 
2625.118576  	0.007168 
2627.047392  	0.007349 
2628.976208  	0.007536 
2630.905024  	0.007661 
2632.833840  	0.007795 
2634.762656  	0.007944 
2636.691472  	0.008011 
2638.620288  	0.008045 
2640.549104  	0.008158 
2642.477920  	0.008287 
2644.406736  	0.008569 
2646.335552  	0.008724 
2648.264368  	0.008934 
2650.193184  	0.009132 
2652.122000  	0.009276 
2654.050816  	0.009539 
2655.979632  	0.009816 
2657.908448  	0.009944 
2659.837264  	0.010070 
2661.766080  	0.010243 
2663.694896  	0.010469 
2665.623712  	0.010557 
2667.552528  	0.010829 
2669.481344  	0.011124 
2671.410160  	0.011296 
2673.338976  	0.011422 
2675.267792  	0.011690 
2677.196608  	0.011988 
2679.125424  	0.012115 
2681.054240  	0.012321 
2682.983056  	0.012577 
2684.911872  	0.012599 
2686.840688  	0.012707 
2688.769504  	0.012921 
2690.698320  	0.013049 
2692.627136  	0.013110 
2694.555952  	0.013235 
2696.484768  	0.013328 
2698.413584  	0.013480 
2700.342400  	0.013684 
2702.271216  	0.013928 
2704.200032  	0.014172 
2706.128848  	0.014331 
2708.057664  	0.014441 
2709.986480  	0.014698 
2711.915296  	0.014950 
2713.844112  	0.015217 
2715.772928  	0.015398 
2717.701744  	0.015575 
2719.630560  	0.015887 
2721.559376  	0.016248 
2723.488192  	0.016554 
2725.417008  	0.016707 
2727.345824  	0.016939 
2729.274640  	0.017298 
2731.203456  	0.017600 
2733.132272  	0.017950 
2735.061088  	0.018223 
2736.989904  	0.018530 
2738.918720  	0.018707 
2740.847536  	0.018897 
2742.776352  	0.018920 
2744.705168  	0.019054 
2746.633984  	0.019349 
2748.562800  	0.019423 
2750.491616  	0.019421 
2752.420432  	0.019576 
2754.349248  	0.019625 
2756.278064  	0.019630 
2758.206880  	0.019615 
2760.135696  	0.019617 
2762.064512  	0.019694 
2763.993328  	0.019700 
2765.922144  	0.019705 
2767.850960  	0.019816 
2769.779776  	0.019836 
2771.708592  	0.020019 
2773.637408  	0.020021 
2775.566224  	0.020069 
2777.495040  	0.020088 
2779.423856  	0.020088 
2781.352672  	0.020119 
2783.281488  	0.020105 
2785.210304  	0.020182 
2787.139120  	0.020255 
2789.067936  	0.020331 
2790.996752  	0.020572 
2792.925568  	0.020663 
2794.854384  	0.020695 
2796.783200  	0.020798 
2798.712016  	0.020868 
2800.640832  	0.020853 
2802.569648  	0.020962 
2804.498464  	0.021054 
2806.427280  	0.020950 
2808.356096  	0.020907 
2810.284912  	0.021105 
2812.213728  	0.021157 
2814.142544  	0.021122 
2816.071360  	0.021238 
2818.000176  	0.021369 
2819.928992  	0.021563 
2821.857808  	0.021795 
2823.786624  	0.021903 
2825.715440  	0.022025 
2827.644256  	0.022056 
2829.573072  	0.022233 
2831.501888  	0.022344 
2833.430704  	0.022420 
2835.359520  	0.022629 
2837.288336  	0.022905 
2839.217152  	0.023156 
2841.145968  	0.023452 
2843.074784  	0.023880 
2845.003600  	0.024332 
2846.932416  	0.024899 
2848.861232  	0.025625 
2850.790048  	0.026350 
2852.718864  	0.026968 
2854.647680  	0.027624 
2856.576496  	0.028384 
2858.505312  	0.029293 
2860.434128  	0.030487 
2862.362944  	0.031693 
2864.291760  	0.032919 
2866.220576  	0.034100 
2868.149392  	0.035151 
2870.078208  	0.036028 
2872.007024  	0.036981 
2873.935840  	0.037985 
2875.864656  	0.039180 
2877.793472  	0.040616 
2879.722288  	0.042288 
2881.651104  	0.044260 
2883.579920  	0.046089 
2885.508736  	0.047110 
2887.437552  	0.047380 
2889.366368  	0.047793 
2891.295184  	0.048644 
2893.224000  	0.049274 
2895.152816  	0.049491 
2897.081632  	0.050010 
2899.010448  	0.052135 
2900.939264  	0.054163 
2902.868080  	0.053099 
2904.796896  	0.051907 
2906.725712  	0.051713 
2908.654528  	0.051920 
2910.583344  	0.052539 
2912.512160  	0.052452 
2914.440976  	0.052008 
2916.369792  	0.052148 
2918.298608  	0.052647 
2920.227424  	0.053290 
2922.156240  	0.053823 
2924.085056  	0.054111 
2926.013872  	0.054540 
2927.942688  	0.055062 
2929.871504  	0.055590 
2931.800320  	0.056186 
2933.729136  	0.056970 
2935.657952  	0.057862 
2937.586768  	0.058681 
2939.515584  	0.059644 
2941.444400  	0.060698 
2943.373216  	0.061603 
2945.302032  	0.062240 
2947.230848  	0.062665 
2949.159664  	0.063337 
2951.088480  	0.064443 
2953.017296  	0.065540 
2954.946112  	0.066307 
2956.874928  	0.067044 
2958.803744  	0.067681 
2960.732560  	0.068357 
2962.661376  	0.068904 
2964.590192  	0.069750 
2966.519008  	0.071044 
2968.447824  	0.072170 
2970.376640  	0.072782 
2972.305456  	0.072792 
2974.234272  	0.072296 
2976.163088  	0.072030 
2978.091904  	0.071621 
2980.020720  	0.071295 
2981.949536  	0.071105 
2983.878352  	0.071567 
2985.807168  	0.072676 
2987.735984  	0.073643 
2989.664800  	0.072936 
2991.593616  	0.069120 
2993.522432  	0.067068 
2995.451248  	0.066618 
2997.380064  	0.065963 
2999.308880  	0.065001 
3001.237696  	0.063797 
3003.166512  	0.062751 
3005.095328  	0.061643 
3007.024144  	0.060446 
3008.952960  	0.059145 
3010.881776  	0.058110 
3012.810592  	0.057176 
3014.739408  	0.056250 
3016.668224  	0.055444 
3018.597040  	0.054753 
3020.525856  	0.054178 
3022.454672  	0.053662 
3024.383488  	0.053199 
3026.312304  	0.052687 
3028.241120  	0.052497 
3030.169936  	0.052400 
3032.098752  	0.052169 
3034.027568  	0.052121 
3035.956384  	0.052393 
3037.885200  	0.052660 
3039.814016  	0.052781 
3041.742832  	0.053045 
3043.671648  	0.053397 
3045.600464  	0.053728 
3047.529280  	0.054086 
3049.458096  	0.054647 
3051.386912  	0.055370 
3053.315728  	0.056120 
3055.244544  	0.056895 
3057.173360  	0.057641 
3059.102176  	0.058430 
3061.030992  	0.059418 
3062.959808  	0.060493 
3064.888624  	0.061398 
3066.817440  	0.062238 
3068.746256  	0.063378 
3070.675072  	0.064564 
3072.603888  	0.065597 
3074.532704  	0.066646 
3076.461520  	0.067921 
3078.390336  	0.069080 
3080.319152  	0.070001 
3082.247968  	0.071099 
3084.176784  	0.072167 
3086.105600  	0.073295 
3088.034416  	0.074384 
3089.963232  	0.075481 
3091.892048  	0.076493 
3093.820864  	0.077588 
3095.749680  	0.078770 
3097.678496  	0.079992 
3099.607312  	0.081042 
3101.536128  	0.082116 
3103.464944  	0.083298 
3105.393760  	0.084443 
3107.322576  	0.085486 
3109.251392  	0.086526 
3111.180208  	0.087417 
3113.109024  	0.088265 
3115.037840  	0.089188 
3116.966656  	0.090223 
3118.895472  	0.091181 
3120.824288  	0.091832 
3122.753104  	0.092509 
3124.681920  	0.093270 
3126.610736  	0.094012 
3128.539552  	0.094902 
3130.468368  	0.095778 
3132.397184  	0.096486 
3134.326000  	0.097507 
3136.254816  	0.098504 
3138.183632  	0.099314 
3140.112448  	0.100004 
3142.041264  	0.100623 
3143.970080  	0.101420 
3145.898896  	0.102213 
3147.827712  	0.103042 
3149.756528  	0.103811 
3151.685344  	0.104511 
3153.614160  	0.105356 
3155.542976  	0.106219 
3157.471792  	0.107128 
3159.400608  	0.107920 
3161.329424  	0.108575 
3163.258240  	0.109041 
3165.187056  	0.109520 
3167.115872  	0.110276 
3169.044688  	0.111120 
3170.973504  	0.111749 
3172.902320  	0.112047 
3174.831136  	0.112559 
3176.759952  	0.113214 
3178.688768  	0.113404 
3180.617584  	0.113631 
3182.546400  	0.114030 
3184.475216  	0.114258 
3186.404032  	0.114390 
3188.332848  	0.114589 
3190.261664  	0.114870 
3192.190480  	0.114932 
3194.119296  	0.114813 
3196.048112  	0.114932 
3197.976928  	0.114839 
3199.905744  	0.114890 
3201.834560  	0.114735 
3203.763376  	0.114676 
3205.692192  	0.114415 
3207.621008  	0.113996 
3209.549824  	0.113798 
3211.478640  	0.113887 
3213.407456  	0.113805 
3215.336272  	0.113468 
3217.265088  	0.113398 
3219.193904  	0.113236 
3221.122720  	0.112859 
3223.051536  	0.112610 
3224.980352  	0.112463 
3226.909168  	0.112196 
3228.837984  	0.111931 
3230.766800  	0.111865 
3232.695616  	0.111977 
3234.624432  	0.111783 
3236.553248  	0.111462 
3238.482064  	0.111363 
3240.410880  	0.111214 
3242.339696  	0.111156 
3244.268512  	0.111092 
3246.197328  	0.111438 
3248.126144  	0.111966 
3250.054960  	0.112373 
3251.983776  	0.112600 
3253.912592  	0.112613 
3255.841408  	0.112843 
3257.770224  	0.113139 
3259.699040  	0.113219 
3261.627856  	0.113660 
3263.556672  	0.114037 
3265.485488  	0.114303 
3267.414304  	0.114441 
3269.343120  	0.114706 
3271.271936  	0.114985 
3273.200752  	0.115018 
3275.129568  	0.115088 
3277.058384  	0.115138 
3278.987200  	0.115272 
3280.916016  	0.115663 
3282.844832  	0.116125 
3284.773648  	0.116341 
3286.702464  	0.116487 
3288.631280  	0.116786 
3290.560096  	0.117047 
3292.488912  	0.117371 
3294.417728  	0.117614 
3296.346544  	0.117899 
3298.275360  	0.118192 
3300.204176  	0.118594 
3302.132992  	0.118906 
3304.061808  	0.119153 
3305.990624  	0.119562 
3307.919440  	0.119981 
3309.848256  	0.120318 
3311.777072  	0.120571 
3313.705888  	0.120879 
3315.634704  	0.121428 
3317.563520  	0.121810 
3319.492336  	0.122130 
3321.421152  	0.122213 
3323.349968  	0.122324 
3325.278784  	0.122590 
3327.207600  	0.122718 
3329.136416  	0.122578 
3331.065232  	0.122476 
3332.994048  	0.122750 
3334.922864  	0.123144 
3336.851680  	0.123066 
3338.780496  	0.122609 
3340.709312  	0.122156 
3342.638128  	0.121858 
3344.566944  	0.121396 
3346.495760  	0.121155 
3348.424576  	0.120859 
3350.353392  	0.120239 
3352.282208  	0.119664 
3354.211024  	0.119443 
3356.139840  	0.119320 
3358.068656  	0.118913 
3359.997472  	0.118474 
3361.926288  	0.117875 
3363.855104  	0.117422 
3365.783920  	0.116961 
3367.712736  	0.116484 
3369.641552  	0.116050 
3371.570368  	0.115427 
3373.499184  	0.114996 
3375.428000  	0.114565 
3377.356816  	0.114239 
3379.285632  	0.113918 
3381.214448  	0.113450 
3383.143264  	0.113015 
3385.072080  	0.112327 
3387.000896  	0.111631 
3388.929712  	0.111210 
3390.858528  	0.110876 
3392.787344  	0.110490 
3394.716160  	0.109975 
3396.644976  	0.109460 
3398.573792  	0.108738 
3400.502608  	0.108141 
3402.431424  	0.107558 
3404.360240  	0.107003 
3406.289056  	0.106230 
3408.217872  	0.105575 
3410.146688  	0.105144 
3412.075504  	0.104543 
3414.004320  	0.103715 
3415.933136  	0.102998 
3417.861952  	0.102339 
3419.790768  	0.101832 
3421.719584  	0.100980 
3423.648400  	0.100294 
3425.577216  	0.099554 
3427.506032  	0.098638 
3429.434848  	0.097876 
3431.363664  	0.097236 
3433.292480  	0.096466 
3435.221296  	0.095758 
3437.150112  	0.095157 
3439.078928  	0.094576 
3441.007744  	0.093745 
3442.936560  	0.093008 
3444.865376  	0.092570 
3446.794192  	0.091605 
3448.723008  	0.090315 
3450.651824  	0.089606 
3452.580640  	0.088900 
3454.509456  	0.088211 
3456.438272  	0.087455 
3458.367088  	0.086703 
3460.295904  	0.085750 
3462.224720  	0.084620 
3464.153536  	0.083694 
3466.082352  	0.082906 
3468.011168  	0.081720 
3469.939984  	0.080690 
3471.868800  	0.079928 
3473.797616  	0.078916 
3475.726432  	0.077723 
3477.655248  	0.076819 
3479.584064  	0.076351 
3481.512880  	0.075418 
3483.441696  	0.073850 
3485.370512  	0.072863 
3487.299328  	0.071668 
3489.228144  	0.070690 
3491.156960  	0.069878 
3493.085776  	0.068936 
3495.014592  	0.067891 
3496.943408  	0.066867 
3498.872224  	0.066277 
3500.801040  	0.066150 
3502.729856  	0.065146 
3504.658672  	0.063458 
3506.587488  	0.062823 
3508.516304  	0.062375 
3510.445120  	0.061140 
3512.373936  	0.059629 
3514.302752  	0.058771 
3516.231568  	0.058458 
3518.160384  	0.057824 
3520.089200  	0.056998 
3522.018016  	0.056635 
3523.946832  	0.056563 
3525.875648  	0.055369 
3527.804464  	0.053431 
3529.733280  	0.052281 
3531.662096  	0.051634 
3533.590912  	0.050945 
3535.519728  	0.050519 
3537.448544  	0.049757 
3539.377360  	0.048426 
3541.306176  	0.047707 
3543.234992  	0.048072 
3545.163808  	0.048760 
3547.092624  	0.047380 
3549.021440  	0.045032 
3550.950256  	0.044061 
3552.879072  	0.042959 
3554.807888  	0.041962 
3556.736704  	0.041115 
3558.665520  	0.040848 
3560.594336  	0.040705 
3562.523152  	0.039710 
3564.451968  	0.040030 
3566.380784  	0.040771 
3568.309600  	0.037956 
3570.238416  	0.035687 
3572.167232  	0.034886 
3574.096048  	0.033723 
3576.024864  	0.032487 
3577.953680  	0.031999 
3579.882496  	0.031158 
3581.811312  	0.030071 
3583.740128  	0.029647 
3585.668944  	0.030260 
3587.597760  	0.028843 
3589.526576  	0.026277 
3591.455392  	0.025519 
3593.384208  	0.025037 
3595.313024  	0.023567 
3597.241840  	0.021887 
3599.170656  	0.020354 
3601.099472  	0.019023 
3603.028288  	0.018829 
3604.957104  	0.019266 
3606.885920  	0.018941 
3608.814736  	0.017276 
3610.743552  	0.016898 
3612.672368  	0.016100 
3614.601184  	0.014386 
3616.530000  	0.014050 
3618.458816  	0.011634 
3620.387632  	0.009100 
3622.316448  	0.009533 
3624.245264  	0.010064 
3626.174080  	0.010477 
3628.102896  	0.007996 
3630.031712  	0.003495 
3631.960528  	0.005366 
3633.889344  	0.005696 
3635.818160  	0.005235 
3637.746976  	0.004661 
3639.675792  	0.004822 
3641.604608  	0.005429 
3643.533424  	0.005549 
3645.462240  	0.006033 
3647.391056  	0.003975 
3649.319872  	-0.000889 
3651.248688  	-0.002542 
3653.177504  	0.001351 
3655.106320  	0.002076 
3657.035136  	0.000038 
3658.963952  	0.001091 
3660.892768  	0.001768 
3662.821584  	0.001673 
3664.750400  	0.001507 
3666.679216  	0.001742 
3668.608032  	-0.000449 
3670.536848  	-0.004830 
3672.465664  	-0.002381 
3674.394480  	-0.002131 
3676.323296  	-0.007750 
3678.252112  	-0.006272 
3680.180928  	-0.005761 
3682.109744  	-0.004386 
3684.038560  	-0.003647 
3685.967376  	-0.003741 
3687.896192  	-0.007001 
3689.825008  	-0.011448 
3691.753824  	-0.010998 
3693.682640  	-0.008736 
3695.611456  	-0.008316 
3697.540272  	-0.008887 
3699.469088  	-0.009255 
3701.397904  	-0.011719 
3703.326720  	-0.013237 
3705.255536  	-0.012073 
3707.184352  	-0.011972 
3709.113168  	-0.014195 
3711.041984  	-0.017748 
3712.970800  	-0.017347 
3714.899616  	-0.013626 
3716.828432  	-0.012566 
3718.757248  	-0.013315 
3720.686064  	-0.013984 
3722.614880  	-0.014531 
3724.543696  	-0.013980 
3726.472512  	-0.014522 
3728.401328  	-0.014661 
3730.330144  	-0.014972 
3732.258960  	-0.016884 
3734.187776  	-0.015580 
3736.116592  	-0.016362 
3738.045408  	-0.016814 
3739.974224  	-0.014495 
3741.903040  	-0.012425 
3743.831856  	-0.014618 
3745.760672  	-0.018397 
3747.689488  	-0.015757 
3749.618304  	-0.018082 
3751.547120  	-0.020911 
3753.475936  	-0.018705 
3755.404752  	-0.015300 
3757.333568  	-0.014573 
3759.262384  	-0.015709 
3761.191200  	-0.015938 
3763.120016  	-0.013593 
3765.048832  	-0.014166 
3766.977648  	-0.014473 
3768.906464  	-0.015422 
3770.835280  	-0.016749 
3772.764096  	-0.014665 
3774.692912  	-0.013440 
3776.621728  	-0.013172 
3778.550544  	-0.014817 
3780.479360  	-0.016259 
3782.408176  	-0.014286 
3784.336992  	-0.014392 
3786.265808  	-0.014230 
3788.194624  	-0.013725 
3790.123440  	-0.013777 
3792.052256  	-0.013750 
3793.981072  	-0.013408 
3795.909888  	-0.014785 
3797.838704  	-0.014968 
3799.767520  	-0.014891 
3801.696336  	-0.019907 
3803.625152  	-0.017805 
3805.553968  	-0.015707 
3807.482784  	-0.018198 
3809.411600  	-0.015703 
3811.340416  	-0.013695 
3813.269232  	-0.012944 
3815.198048  	-0.015724 
3817.126864  	-0.018034 
3819.055680  	-0.015875 
3820.984496  	-0.020007 
3822.913312  	-0.018979 
3824.842128  	-0.015132 
3826.770944  	-0.015739 
3828.699760  	-0.014897 
3830.628576  	-0.014791 
3832.557392  	-0.015687 
3834.486208  	-0.015258 
3836.415024  	-0.016544 
3838.343840  	-0.018594 
3840.272656  	-0.017588 
3842.201472  	-0.015791 
3844.130288  	-0.015444 
3846.059104  	-0.014206 
3847.987920  	-0.012974 
3849.916736  	-0.012466 
3851.845552  	-0.014430 
3853.774368  	-0.021353 
3855.703184  	-0.018772 
3857.632000  	-0.014977 
3859.560816  	-0.013274 
3861.489632  	-0.013115 
3863.418448  	-0.014061 
3865.347264  	-0.015055 
3867.276080  	-0.013115 
3869.204896  	-0.014083 
3871.133712  	-0.015574 
3873.062528  	-0.014437 
3874.991344  	-0.015530 
3876.920160  	-0.013363 
3878.848976  	-0.011887 
3880.777792  	-0.013187 
3882.706608  	-0.012662 
3884.635424  	-0.012689 
3886.564240  	-0.014901 
3888.493056  	-0.013511 
3890.421872  	-0.013767 
3892.350688  	-0.015151 
3894.279504  	-0.013741 
3896.208320  	-0.012408 
3898.137136  	-0.012079 
3900.065952  	-0.012432 
3901.994768  	-0.012274 
3903.923584  	-0.013692 
3905.852400  	-0.014822 
3907.781216  	-0.014106 
3909.710032  	-0.013604 
3911.638848  	-0.013299 
3913.567664  	-0.012745 
3915.496480  	-0.011963 
3917.425296  	-0.012254 
3919.354112  	-0.012840 
3921.282928  	-0.012846 
3923.211744  	-0.012192 
3925.140560  	-0.012435 
3927.069376  	-0.012807 
3928.998192  	-0.012529 
3930.927008  	-0.011869 
3932.855824  	-0.012049 
3934.784640  	-0.012991 
3936.713456  	-0.013193 
3938.642272  	-0.012951 
3940.571088  	-0.012341 
3942.499904  	-0.012040 
3944.428720  	-0.012412 
3946.357536  	-0.011905 
3948.286352  	-0.011464 
3950.215168  	-0.012524 
3952.143984  	-0.013521 
3954.072800  	-0.013413 
3956.001616  	-0.012980 
3957.930432  	-0.013075 
3959.859248  	-0.012819 
3961.788064  	-0.012699 
3963.716880  	-0.013214 
3965.645696  	-0.013547 
3967.574512  	-0.013203 
3969.503328  	-0.012713 
3971.432144  	-0.012853 
3973.360960  	-0.013050 
3975.289776  	-0.012920 
3977.218592  	-0.012918 
3979.147408  	-0.013037 
3981.076224  	-0.013078 
3983.005040  	-0.013107 
3984.933856  	-0.013143 
3986.862672  	-0.013174 
3988.791488  	-0.012759 
3990.720304  	-0.012385 
3992.649120  	-0.012572 
3994.577936  	-0.012771 
3996.506752  	-0.012894 
3998.435568  	-0.013026 
4000.364384  	-0.013091 