##TITLE=No Description
##DATA TYPE=INFRARED SPECTRUM
##XUNITS=1/CM
##YUNITS=Abs
399.264912  	0.616920 
401.193728  	0.601122 
403.122544  	0.616951 
405.051360  	0.623561 
406.980176  	0.617947 
408.908992  	0.599973 
410.837808  	0.598837 
412.766624  	0.595037 
414.695440  	0.595967 
416.624256  	0.588900 
418.553072  	0.601325 
420.481888  	0.605976 
422.410704  	0.608907 
424.339520  	0.601674 
426.268336  	0.581466 
428.197152  	0.568403 
430.125968  	0.577686 
432.054784  	0.566283 
433.983600  	0.565109 
435.912416  	0.562725 
437.841232  	0.562494 
439.770048  	0.557017 
441.698864  	0.559187 
443.627680  	0.562057 
445.556496  	0.560483 
447.485312  	0.553190 
449.414128  	0.553236 
451.342944  	0.552145 
453.271760  	0.548119 
455.200576  	0.545302 
457.129392  	0.551895 
459.058208  	0.545241 
460.987024  	0.552555 
462.915840  	0.557203 
464.844656  	0.552655 
466.773472  	0.547469 
468.702288  	0.547818 
470.631104  	0.544268 
472.559920  	0.545559 
474.488736  	0.550031 
476.417552  	0.549524 
478.346368  	0.541387 
480.275184  	0.543905 
482.204000  	0.542568 
484.132816  	0.539871 
486.061632  	0.537490 
487.990448  	0.539992 
489.919264  	0.537033 
491.848080  	0.536184 
493.776896  	0.530331 
495.705712  	0.529158 
497.634528  	0.528038 
499.563344  	0.527595 
501.492160  	0.525457 
503.420976  	0.524443 
505.349792  	0.523345 
507.278608  	0.526305 
509.207424  	0.524564 
511.136240  	0.526793 
513.065056  	0.526757 
514.993872  	0.530337 
516.922688  	0.532916 
518.851504  	0.534292 
520.780320  	0.531679 
522.709136  	0.534478 
524.637952  	0.533881 
526.566768  	0.531267 
528.495584  	0.527240 
530.424400  	0.525336 
532.353216  	0.520340 
534.282032  	0.515420 
536.210848  	0.507242 
538.139664  	0.501948 
540.068480  	0.497445 
541.997296  	0.491515 
543.926112  	0.485832 
545.854928  	0.483607 
547.783744  	0.479524 
549.712560  	0.475733 
551.641376  	0.472854 
553.570192  	0.470893 
555.499008  	0.466551 
557.427824  	0.463179 
559.356640  	0.458778 
561.285456  	0.454814 
563.214272  	0.451316 
565.143088  	0.449295 
567.071904  	0.445378 
569.000720  	0.441810 
570.929536  	0.437427 
572.858352  	0.434181 
574.787168  	0.432439 
576.715984  	0.431052 
578.644800  	0.426899 
580.573616  	0.423169 
582.502432  	0.418260 
584.431248  	0.414570 
586.360064  	0.410097 
588.288880  	0.407319 
590.217696  	0.405068 
592.146512  	0.402745 
594.075328  	0.399583 
596.004144  	0.398106 
597.932960  	0.396893 
599.861776  	0.394990 
601.790592  	0.391344 
603.719408  	0.389953 
605.648224  	0.389700 
607.577040  	0.388686 
609.505856  	0.386643 
611.434672  	0.385433 
613.363488  	0.383193 
615.292304  	0.381833 
617.221120  	0.380265 
619.149936  	0.378938 
621.078752  	0.377601 
623.007568  	0.377441 
624.936384  	0.376266 
626.865200  	0.374579 
628.794016  	0.372672 
630.722832  	0.372369 
632.651648  	0.372759 
634.580464  	0.372911 
636.509280  	0.372302 
638.438096  	0.371865 
640.366912  	0.370987 
642.295728  	0.369472 
644.224544  	0.366012 
646.153360  	0.362279 
648.082176  	0.357740 
650.010992  	0.353745 
651.939808  	0.349726 
653.868624  	0.345341 
655.797440  	0.341581 
657.726256  	0.338026 
659.655072  	0.333640 
661.583888  	0.329714 
663.512704  	0.326426 
665.441520  	0.323181 
667.370336  	0.314724 
669.299152  	0.306726 
671.227968  	0.306724 
673.156784  	0.304349 
675.085600  	0.301737 
677.014416  	0.298886 
678.943232  	0.296006 
680.872048  	0.294239 
682.800864  	0.292850 
684.729680  	0.291451 
686.658496  	0.290111 
688.587312  	0.289292 
690.516128  	0.287993 
692.444944  	0.287181 
694.373760  	0.286259 
696.302576  	0.284483 
698.231392  	0.282451 
700.160208  	0.280232 
702.089024  	0.277959 
704.017840  	0.275668 
705.946656  	0.273348 
707.875472  	0.270912 
709.804288  	0.268389 
711.733104  	0.266490 
713.661920  	0.264647 
715.590736  	0.263189 
717.519552  	0.262404 
719.448368  	0.262554 
721.377184  	0.263023 
723.306000  	0.263442 
725.234816  	0.263860 
727.163632  	0.263710 
729.092448  	0.261479 
731.021264  	0.257774 
732.950080  	0.253945 
734.878896  	0.250612 
736.807712  	0.247654 
738.736528  	0.245164 
740.665344  	0.242848 
742.594160  	0.240943 
744.522976  	0.239891 
746.451792  	0.238483 
748.380608  	0.236529 
750.309424  	0.234797 
752.238240  	0.233659 
754.167056  	0.232812 
756.095872  	0.231445 
758.024688  	0.230471 
759.953504  	0.230319 
761.882320  	0.230980 
763.811136  	0.231754 
765.739952  	0.230754 
767.668768  	0.227478 
769.597584  	0.224626 
771.526400  	0.223444 
773.455216  	0.224939 
775.384032  	0.229002 
777.312848  	0.234445 
779.241664  	0.238854 
781.170480  	0.238993 
783.099296  	0.234409 
785.028112  	0.227710 
786.956928  	0.221666 
788.885744  	0.216838 
790.814560  	0.212879 
792.743376  	0.210178 
794.672192  	0.209039 
796.601008  	0.208182 
798.529824  	0.205194 
800.458640  	0.200672 
802.387456  	0.196840 
804.316272  	0.194791 
806.245088  	0.193681 
808.173904  	0.192749 
810.102720  	0.192262 
812.031536  	0.192199 
813.960352  	0.192369 
815.889168  	0.192613 
817.817984  	0.192717 
819.746800  	0.193246 
821.675616  	0.193882 
823.604432  	0.194160 
825.533248  	0.194018 
827.462064  	0.193628 
829.390880  	0.193150 
831.319696  	0.192033 
833.248512  	0.190396 
835.177328  	0.188102 
837.106144  	0.185080 
839.034960  	0.181364 
840.963776  	0.177502 
842.892592  	0.173564 
844.821408  	0.169791 
846.750224  	0.166599 
848.679040  	0.163813 
850.607856  	0.161941 
852.536672  	0.160716 
854.465488  	0.159498 
856.394304  	0.158687 
858.323120  	0.158137 
860.251936  	0.157113 
862.180752  	0.155559 
864.109568  	0.153473 
866.038384  	0.151566 
867.967200  	0.149891 
869.896016  	0.148060 
871.824832  	0.146772 
873.753648  	0.146035 
875.682464  	0.146397 
877.611280  	0.148569 
879.540096  	0.151180 
881.468912  	0.152693 
883.397728  	0.154253 
885.326544  	0.155211 
887.255360  	0.155674 
889.184176  	0.155709 
891.112992  	0.155304 
893.041808  	0.153272 
894.970624  	0.149970 
896.899440  	0.146194 
898.828256  	0.141320 
900.757072  	0.136317 
902.685888  	0.132026 
904.614704  	0.129003 
906.543520  	0.128172 
908.472336  	0.128920 
910.401152  	0.130852 
912.329968  	0.133002 
914.258784  	0.135312 
916.187600  	0.137731 
918.116416  	0.139834 
920.045232  	0.141210 
921.974048  	0.142165 
923.902864  	0.142665 
925.831680  	0.142718 
927.760496  	0.142971 
929.689312  	0.143810 
931.618128  	0.144905 
933.546944  	0.145605 
935.475760  	0.145993 
937.404576  	0.145830 
939.333392  	0.145179 
941.262208  	0.144898 
943.191024  	0.146030 
945.119840  	0.149723 
947.048656  	0.156008 
948.977472  	0.164613 
950.906288  	0.175411 
952.835104  	0.187995 
954.763920  	0.201504 
956.692736  	0.214512 
958.621552  	0.225887 
960.550368  	0.233844 
962.479184  	0.237871 
964.408000  	0.236963 
966.336816  	0.231559 
968.265632  	0.222224 
970.194448  	0.209507 
972.123264  	0.194886 
974.052080  	0.179732 
975.980896  	0.164944 
977.909712  	0.151064 
979.838528  	0.138798 
981.767344  	0.128504 
983.696160  	0.120652 
985.624976  	0.115646 
987.553792  	0.113694 
989.482608  	0.114714 
991.411424  	0.118419 
993.340240  	0.124004 
995.269056  	0.130960 
997.197872  	0.138446 
999.126688  	0.146286 
1001.055504  	0.154314 
1002.984320  	0.162734 
1004.913136  	0.171298 
1006.841952  	0.179580 
1008.770768  	0.186992 
1010.699584  	0.193244 
1012.628400  	0.197762 
1014.557216  	0.200551 
1016.486032  	0.201851 
1018.414848  	0.202268 
1020.343664  	0.202255 
1022.272480  	0.202188 
1024.201296  	0.202705 
1026.130112  	0.205178 
1028.058928  	0.206969 
1029.987744  	0.206591 
1031.916560  	0.209738 
1033.845376  	0.215729 
1035.774192  	0.224231 
1037.703008  	0.234017 
1039.631824  	0.244394 
1041.560640  	0.257844 
1043.489456  	0.275244 
1045.418272  	0.295222 
1047.347088  	0.315345 
1049.275904  	0.332271 
1051.204720  	0.344572 
1053.133536  	0.350106 
1055.062352  	0.351567 
1056.991168  	0.350955 
1058.919984  	0.347404 
1060.848800  	0.342673 
1062.777616  	0.341677 
1064.706432  	0.343005 
1066.635248  	0.340918 
1068.564064  	0.331656 
1070.492880  	0.323360 
1072.421696  	0.317445 
1074.350512  	0.313740 
1076.279328  	0.312184 
1078.208144  	0.314245 
1080.136960  	0.317965 
1082.065776  	0.321651 
1083.994592  	0.322056 
1085.923408  	0.318244 
1087.852224  	0.310633 
1089.781040  	0.300570 
1091.709856  	0.287111 
1093.638672  	0.273437 
1095.567488  	0.259160 
1097.496304  	0.244465 
1099.425120  	0.229322 
1101.353936  	0.214204 
1103.282752  	0.199285 
1105.211568  	0.184548 
1107.140384  	0.170295 
1109.069200  	0.157136 
1110.998016  	0.144818 
1112.926832  	0.133697 
1114.855648  	0.123845 
1116.784464  	0.114674 
1118.713280  	0.105970 
1120.642096  	0.097915 
1122.570912  	0.090387 
1124.499728  	0.083351 
1126.428544  	0.077302 
1128.357360  	0.071865 
1130.286176  	0.067291 
1132.214992  	0.063488 
1134.143808  	0.060679 
1136.072624  	0.058284 
1138.001440  	0.056187 
1139.930256  	0.053871 
1141.859072  	0.051476 
1143.787888  	0.048765 
1145.716704  	0.046310 
1147.645520  	0.043903 
1149.574336  	0.041989 
1151.503152  	0.040594 
1153.431968  	0.039987 
1155.360784  	0.039992 
1157.289600  	0.040758 
1159.218416  	0.042214 
1161.147232  	0.044604 
1163.076048  	0.046989 
1165.004864  	0.049505 
1166.933680  	0.051834 
1168.862496  	0.054317 
1170.791312  	0.056899 
1172.720128  	0.060236 
1174.648944  	0.063651 
1176.577760  	0.067030 
1178.506576  	0.070002 
1180.435392  	0.073288 
1182.364208  	0.076634 
1184.293024  	0.080375 
1186.221840  	0.084408 
1188.150656  	0.088936 
1190.079472  	0.093957 
1192.008288  	0.100106 
1193.937104  	0.107441 
1195.865920  	0.116064 
1197.794736  	0.125483 
1199.723552  	0.135574 
1201.652368  	0.145884 
1203.581184  	0.156175 
1205.510000  	0.166367 
1207.438816  	0.176093 
1209.367632  	0.185266 
1211.296448  	0.193502 
1213.225264  	0.200566 
1215.154080  	0.205908 
1217.082896  	0.210125 
1219.011712  	0.213047 
1220.940528  	0.215244 
1222.869344  	0.216641 
1224.798160  	0.217339 
1226.726976  	0.216867 
1228.655792  	0.215694 
1230.584608  	0.213351 
1232.513424  	0.209891 
1234.442240  	0.205165 
1236.371056  	0.199821 
1238.299872  	0.194066 
1240.228688  	0.189000 
1242.157504  	0.182277 
1244.086320  	0.173483 
1246.015136  	0.165602 
1247.943952  	0.158673 
1249.872768  	0.151284 
1251.801584  	0.143049 
1253.730400  	0.134973 
1255.659216  	0.127240 
1257.588032  	0.119968 
1259.516848  	0.112728 
1261.445664  	0.105540 
1263.374480  	0.098860 
1265.303296  	0.093316 
1267.232112  	0.088405 
1269.160928  	0.084498 
1271.089744  	0.081451 
1273.018560  	0.079513 
1274.947376  	0.078547 
1276.876192  	0.078482 
1278.805008  	0.078102 
1280.733824  	0.076664 
1282.662640  	0.074239 
1284.591456  	0.071608 
1286.520272  	0.069417 
1288.449088  	0.067912 
1290.377904  	0.066940 
1292.306720  	0.067111 
1294.235536  	0.067534 
1296.164352  	0.067064 
1298.093168  	0.064640 
1300.021984  	0.061535 
1301.950800  	0.058286 
1303.879616  	0.055288 
1305.808432  	0.051863 
1307.737248  	0.048421 
1309.666064  	0.044926 
1311.594880  	0.042667 
1313.523696  	0.040861 
1315.452512  	0.039523 
1317.381328  	0.038888 
1319.310144  	0.038652 
1321.238960  	0.038472 
1323.167776  	0.039042 
1325.096592  	0.039868 
1327.025408  	0.040462 
1328.954224  	0.040368 
1330.883040  	0.039899 
1332.811856  	0.038910 
1334.740672  	0.038639 
1336.669488  	0.039379 
1338.598304  	0.040537 
1340.527120  	0.038861 
1342.455936  	0.036326 
1344.384752  	0.035756 
1346.313568  	0.036189 
1348.242384  	0.036974 
1350.171200  	0.038453 
1352.100016  	0.040370 
1354.028832  	0.042871 
1355.957648  	0.045115 
1357.886464  	0.047745 
1359.815280  	0.051170 
1361.744096  	0.055157 
1363.672912  	0.056837 
1365.601728  	0.058138 
1367.530544  	0.060803 
1369.459360  	0.062859 
1371.388176  	0.064414 
1373.316992  	0.065249 
1375.245808  	0.063074 
1377.174624  	0.061546 
1379.103440  	0.059673 
1381.032256  	0.057033 
1382.961072  	0.054807 
1384.889888  	0.053975 
1386.818704  	0.052639 
1388.747520  	0.049157 
1390.676336  	0.048146 
1392.605152  	0.050487 
1394.533968  	0.050547 
1396.462784  	0.047383 
1398.391600  	0.046648 
1400.320416  	0.046241 
1402.249232  	0.048030 
1404.178048  	0.050277 
1406.106864  	0.051090 
1408.035680  	0.052254 
1409.964496  	0.053838 
1411.893312  	0.054843 
1413.822128  	0.055809 
1415.750944  	0.058560 
1417.679760  	0.060386 
1419.608576  	0.056665 
1421.537392  	0.055360 
1423.466208  	0.055423 
1425.395024  	0.052762 
1427.323840  	0.050998 
1429.252656  	0.047884 
1431.181472  	0.045420 
1433.110288  	0.045634 
1435.039104  	0.046950 
1436.967920  	0.045839 
1438.896736  	0.046034 
1440.825552  	0.047605 
1442.754368  	0.048374 
1444.683184  	0.048911 
1446.612000  	0.049410 
1448.540816  	0.049001 
1450.469632  	0.050037 
1452.398448  	0.051212 
1454.327264  	0.052631 
1456.256080  	0.050871 
1458.184896  	0.044796 
1460.113712  	0.046056 
1462.042528  	0.047876 
1463.971344  	0.047211 
1465.900160  	0.046577 
1467.828976  	0.049289 
1469.757792  	0.052905 
1471.686608  	0.056002 
1473.615424  	0.060635 
1475.544240  	0.067411 
1477.473056  	0.072883 
1479.401872  	0.077184 
1481.330688  	0.080834 
1483.259504  	0.083040 
1485.188320  	0.085358 
1487.117136  	0.085989 
1489.045952  	0.085787 
1490.974768  	0.081546 
1492.903584  	0.079039 
1494.832400  	0.076186 
1496.761216  	0.068172 
1498.690032  	0.060814 
1500.618848  	0.056834 
1502.547664  	0.053382 
1504.476480  	0.049293 
1506.405296  	0.042486 
1508.334112  	0.040289 
1510.262928  	0.040697 
1512.191744  	0.038228 
1514.120560  	0.037408 
1516.049376  	0.037108 
1517.978192  	0.035067 
1519.907008  	0.036687 
1521.835824  	0.035840 
1523.764640  	0.040432 
1525.693456  	0.045881 
1527.622272  	0.047780 
1529.551088  	0.048373 
1531.479904  	0.048482 
1533.408720  	0.043184 
1535.337536  	0.039322 
1537.266352  	0.038372 
1539.195168  	0.029452 
1541.123984  	0.020998 
1543.052800  	0.025522 
1544.981616  	0.026765 
1546.910432  	0.025876 
1548.839248  	0.027082 
1550.768064  	0.027069 
1552.696880  	0.026570 
1554.625696  	0.026578 
1556.554512  	0.026617 
1558.483328  	0.022509 
1560.412144  	0.025020 
1562.340960  	0.034364 
1564.269776  	0.038841 
1566.198592  	0.044041 
1568.127408  	0.048449 
1570.056224  	0.052311 
1571.985040  	0.059939 
1573.913856  	0.065700 
1575.842672  	0.065670 
1577.771488  	0.068188 
1579.700304  	0.071745 
1581.629120  	0.072136 
1583.557936  	0.071620 
1585.486752  	0.072337 
1587.415568  	0.074633 
1589.344384  	0.079098 
1591.273200  	0.085163 
1593.202016  	0.092440 
1595.130832  	0.100166 
1597.059648  	0.108521 
1598.988464  	0.115954 
1600.917280  	0.122547 
1602.846096  	0.126947 
1604.774912  	0.129856 
1606.703728  	0.130614 
1608.632544  	0.129845 
1610.561360  	0.127696 
1612.490176  	0.126256 
1614.418992  	0.124246 
1616.347808  	0.119422 
1618.276624  	0.119583 
1620.205440  	0.125973 
1622.134256  	0.128904 
1624.063072  	0.132922 
1625.991888  	0.140482 
1627.920704  	0.148422 
1629.849520  	0.158408 
1631.778336  	0.169181 
1633.707152  	0.176436 
1635.635968  	0.181453 
1637.564784  	0.191287 
1639.493600  	0.201714 
1641.422416  	0.208177 
1643.351232  	0.213404 
1645.280048  	0.214267 
1647.208864  	0.211140 
1649.137680  	0.213542 
1651.066496  	0.217085 
1652.995312  	0.206880 
1654.924128  	0.205171 
1656.852944  	0.209477 
1658.781760  	0.208884 
1660.710576  	0.205435 
1662.639392  	0.198821 
1664.568208  	0.194512 
1666.497024  	0.193648 
1668.425840  	0.187331 
1670.354656  	0.177467 
1672.283472  	0.174667 
1674.212288  	0.171939 
1676.141104  	0.165100 
1678.069920  	0.165250 
1679.998736  	0.165347 
1681.927552  	0.164039 
1683.856368  	0.156141 
1685.785184  	0.152987 
1687.714000  	0.158037 
1689.642816  	0.157923 
1691.571632  	0.156139 
1693.500448  	0.156338 
1695.429264  	0.151774 
1697.358080  	0.148356 
1699.286896  	0.147362 
1701.215712  	0.140820 
1703.144528  	0.142773 
1705.073344  	0.139575 
1707.002160  	0.133481 
1708.930976  	0.130282 
1710.859792  	0.124913 
1712.788608  	0.118791 
1714.717424  	0.110227 
1716.646240  	0.097756 
1718.575056  	0.081704 
1720.503872  	0.074161 
1722.432688  	0.067712 
1724.361504  	0.057505 
1726.290320  	0.049067 
1728.219136  	0.042625 
1730.147952  	0.036929 
1732.076768  	0.031948 
1734.005584  	0.023301 
1735.934400  	0.017317 
1737.863216  	0.018132 
1739.792032  	0.013684 
1741.720848  	0.012717 
1743.649664  	0.013006 
1745.578480  	0.012032 
1747.507296  	0.010147 
1749.436112  	0.009199 
1751.364928  	0.007620 
1753.293744  	0.006491 
1755.222560  	0.006513 
1757.151376  	0.005787 
1759.080192  	0.005144 
1761.009008  	0.004402 
1762.937824  	0.002358 
1764.866640  	0.003153 
1766.795456  	0.004303 
1768.724272  	0.003707 
1770.653088  	0.000891 
1772.581904  	-0.002719 
1774.510720  	-0.001040 
1776.439536  	0.001182 
1778.368352  	0.001635 
1780.297168  	0.001343 
1782.225984  	0.000605 
1784.154800  	0.001249 
1786.083616  	0.000368 
1788.012432  	0.000521 
1789.941248  	0.001414 
1791.870064  	-0.000296 
1793.798880  	-0.002361 
1795.727696  	-0.000227 
1797.656512  	-0.000502 
1799.585328  	-0.000588 
1801.514144  	-0.000063 
1803.442960  	-0.000526 
1805.371776  	-0.001532 
1807.300592  	-0.000967 
1809.229408  	-0.001496 
1811.158224  	-0.002154 
1813.087040  	-0.002427 
1815.015856  	-0.001954 
1816.944672  	-0.001780 
1818.873488  	-0.001767 
1820.802304  	-0.002031 
1822.731120  	-0.001201 
1824.659936  	-0.001613 
1826.588752  	-0.002368 
1828.517568  	-0.003037 
1830.446384  	-0.004023 
1832.375200  	-0.003306 
1834.304016  	-0.002251 
1836.232832  	-0.002289 
1838.161648  	-0.002153 
1840.090464  	-0.002400 
1842.019280  	-0.001247 
1843.948096  	-0.002785 
1845.876912  	-0.003128 
1847.805728  	-0.002094 
1849.734544  	-0.002412 
1851.663360  	-0.002721 
1853.592176  	-0.002571 
1855.520992  	-0.002989 
1857.449808  	-0.002663 
1859.378624  	-0.002695 
1861.307440  	-0.002823 
1863.236256  	-0.003201 
1865.165072  	-0.002714 
1867.093888  	-0.002477 
1869.022704  	-0.002871 
1870.951520  	-0.003488 
1872.880336  	-0.003194 
1874.809152  	-0.003562 
1876.737968  	-0.003497 
1878.666784  	-0.003598 
1880.595600  	-0.002897 
1882.524416  	-0.003111 
1884.453232  	-0.002952 
1886.382048  	-0.003153 
1888.310864  	-0.002854 
1890.239680  	-0.003691 
1892.168496  	-0.003143 
1894.097312  	-0.002848 
1896.026128  	-0.002861 
1897.954944  	-0.003266 
1899.883760  	-0.003124 
1901.812576  	-0.003283 
1903.741392  	-0.003186 
1905.670208  	-0.003035 
1907.599024  	-0.002110 
1909.527840  	-0.002369 
1911.456656  	-0.002321 
1913.385472  	-0.002435 
1915.314288  	-0.001695 
1917.243104  	-0.002247 
1919.171920  	-0.002767 
1921.100736  	-0.002121 
1923.029552  	-0.001501 
1924.958368  	-0.002601 
1926.887184  	-0.002681 
1928.816000  	-0.003002 
1930.744816  	-0.002787 
1932.673632  	-0.002993 
1934.602448  	-0.002183 
1936.531264  	-0.002052 
1938.460080  	-0.001982 
1940.388896  	-0.002388 
1942.317712  	-0.002668 
1944.246528  	-0.003578 
1946.175344  	-0.002408 
1948.104160  	-0.002595 
1950.032976  	-0.002146 
1951.961792  	-0.002198 
1953.890608  	-0.002317 
1955.819424  	-0.003568 
1957.748240  	-0.002877 
1959.677056  	-0.003391 
1961.605872  	-0.002711 
1963.534688  	-0.003414 
1965.463504  	-0.002673 
1967.392320  	-0.003462 
1969.321136  	-0.003549 
1971.249952  	-0.003207 
1973.178768  	-0.002437 
1975.107584  	-0.003478 
1977.036400  	-0.002808 
1978.965216  	-0.002054 
1980.894032  	-0.002075 
1982.822848  	-0.002785 
1984.751664  	-0.001844 
1986.680480  	-0.002900 
1988.609296  	-0.002958 
1990.538112  	-0.003280 
1992.466928  	-0.002369 
1994.395744  	-0.003429 
1996.324560  	-0.003480 
1998.253376  	-0.003947 
2000.182192  	-0.003516 
2002.111008  	-0.003366 
2004.039824  	-0.002704 
2005.968640  	-0.003232 
2007.897456  	-0.002325 
2009.826272  	-0.003122 
2011.755088  	-0.002164 
2013.683904  	-0.002714 
2015.612720  	-0.002598 
2017.541536  	-0.002784 
2019.470352  	-0.002071 
2021.399168  	-0.003760 
2023.327984  	-0.003704 
2025.256800  	-0.002964 
2027.185616  	-0.001842 
2029.114432  	-0.001134 
2031.043248  	-0.000124 
2032.972064  	-0.001346 
2034.900880  	-0.001195 
2036.829696  	-0.001812 
2038.758512  	-0.001321 
2040.687328  	-0.001633 
2042.616144  	-0.001399 
2044.544960  	-0.002675 
2046.473776  	-0.002114 
2048.402592  	-0.002218 
2050.331408  	-0.002520 
2052.260224  	-0.003402 
2054.189040  	-0.003474 
2056.117856  	-0.003780 
2058.046672  	-0.003258 
2059.975488  	-0.003441 
2061.904304  	-0.003290 
2063.833120  	-0.002768 
2065.761936  	-0.002012 
2067.690752  	-0.002569 
2069.619568  	-0.002653 
2071.548384  	-0.002789 
2073.477200  	-0.002864 
2075.406016  	-0.003065 
2077.334832  	-0.002635 
2079.263648  	-0.002470 
2081.192464  	-0.002308 
2083.121280  	-0.002545 
2085.050096  	-0.002615 
2086.978912  	-0.002802 
2088.907728  	-0.002732 
2090.836544  	-0.002869 
2092.765360  	-0.002140 
2094.694176  	-0.001700 
2096.622992  	-0.001879 
2098.551808  	-0.002318 
2100.480624  	-0.001710 
2102.409440  	-0.001883 
2104.338256  	-0.002013 
2106.267072  	-0.001962 
2108.195888  	-0.001807 
2110.124704  	-0.002352 
2112.053520  	-0.002127 
2113.982336  	-0.002040 
2115.911152  	-0.001936 
2117.839968  	-0.001984 
2119.768784  	-0.001813 
2121.697600  	-0.002209 
2123.626416  	-0.002326 
2125.555232  	-0.002742 
2127.484048  	-0.002659 
2129.412864  	-0.002712 
2131.341680  	-0.002231 
2133.270496  	-0.002295 
2135.199312  	-0.001921 
2137.128128  	-0.001904 
2139.056944  	-0.002218 
2140.985760  	-0.002219 
2142.914576  	-0.001514 
2144.843392  	-0.001246 
2146.772208  	-0.000658 
2148.701024  	-0.001532 
2150.629840  	-0.001315 
2152.558656  	-0.001458 
2154.487472  	-0.001157 
2156.416288  	-0.001175 
2158.345104  	-0.000599 
2160.273920  	0.000306 
2162.202736  	0.001177 
2164.131552  	0.000021 
2166.060368  	0.000077 
2167.989184  	0.000394 
2169.918000  	0.001194 
2171.846816  	-0.000296 
2173.775632  	-0.000441 
2175.704448  	-0.000248 
2177.633264  	0.000170 
2179.562080  	-0.000935 
2181.490896  	-0.001480 
2183.419712  	-0.002045 
2185.348528  	-0.002151 
2187.277344  	-0.002675 
2189.206160  	-0.002171 
2191.134976  	-0.002079 
2193.063792  	-0.001548 
2194.992608  	-0.001562 
2196.921424  	-0.001728 
2198.850240  	-0.002476 
2200.779056  	-0.002602 
2202.707872  	-0.002651 
2204.636688  	-0.002287 
2206.565504  	-0.002378 
2208.494320  	-0.002240 
2210.423136  	-0.002512 
2212.351952  	-0.002461 
2214.280768  	-0.002710 
2216.209584  	-0.002617 
2218.138400  	-0.002803 
2220.067216  	-0.002317 
2221.996032  	-0.002576 
2223.924848  	-0.002483 
2225.853664  	-0.002420 
2227.782480  	-0.002340 
2229.711296  	-0.003144 
2231.640112  	-0.003697 
2233.568928  	-0.003813 
2235.497744  	-0.003246 
2237.426560  	-0.003691 
2239.355376  	-0.003383 
2241.284192  	-0.003266 
2243.213008  	-0.003459 
2245.141824  	-0.003706 
2247.070640  	-0.003145 
2248.999456  	-0.003493 
2250.928272  	-0.004054 
2252.857088  	-0.004254 
2254.785904  	-0.004114 
2256.714720  	-0.004355 
2258.643536  	-0.004429 
2260.572352  	-0.004594 
2262.501168  	-0.004553 
2264.429984  	-0.004624 
2266.358800  	-0.004315 
2268.287616  	-0.004556 
2270.216432  	-0.004286 
2272.145248  	-0.004370 
2274.074064  	-0.004408 
2276.002880  	-0.004390 
2277.931696  	-0.003879 
2279.860512  	-0.003569 
2281.789328  	-0.003388 
2283.718144  	-0.003553 
2285.646960  	-0.003632 
2287.575776  	-0.003791 
2289.504592  	-0.003981 
2291.433408  	-0.004239 
2293.362224  	-0.004086 
2295.291040  	-0.003969 
2297.219856  	-0.003645 
2299.148672  	-0.003570 
2301.077488  	-0.003640 
2303.006304  	-0.003852 
2304.935120  	-0.003787 
2306.863936  	-0.003926 
2308.792752  	-0.004403 
2310.721568  	-0.005122 
2312.650384  	-0.005958 
2314.579200  	-0.007320 
2316.508016  	-0.008814 
2318.436832  	-0.010445 
2320.365648  	-0.012719 
2322.294464  	-0.015479 
2324.223280  	-0.018130 
2326.152096  	-0.020919 
2328.080912  	-0.023285 
2330.009728  	-0.026146 
2331.938544  	-0.028622 
2333.867360  	-0.030337 
2335.796176  	-0.032014 
2337.724992  	-0.033700 
2339.653808  	-0.033959 
2341.582624  	-0.034338 
2343.511440  	-0.032883 
2345.440256  	-0.028740 
2347.369072  	-0.021244 
2349.297888  	-0.016735 
2351.226704  	-0.020630 
2353.155520  	-0.028943 
2355.084336  	-0.035948 
2357.013152  	-0.041506 
2358.941968  	-0.044585 
2360.870784  	-0.046557 
2362.799600  	-0.045841 
2364.728416  	-0.043227 
2366.657232  	-0.038622 
2368.586048  	-0.033105 
2370.514864  	-0.027430 
2372.443680  	-0.021844 
2374.372496  	-0.016642 
2376.301312  	-0.012144 
2378.230128  	-0.008308 
2380.158944  	-0.005857 
2382.087760  	-0.004304 
2384.016576  	-0.003847 
2385.945392  	-0.004038 
2387.874208  	-0.004351 
2389.803024  	-0.004562 
2391.731840  	-0.004794 
2393.660656  	-0.004759 
2395.589472  	-0.004861 
2397.518288  	-0.004706 
2399.447104  	-0.004688 
2401.375920  	-0.004696 
2403.304736  	-0.004865 
2405.233552  	-0.004769 
2407.162368  	-0.004929 
2409.091184  	-0.004938 
2411.020000  	-0.004818 
2412.948816  	-0.004819 
2414.877632  	-0.004743 
2416.806448  	-0.004549 
2418.735264  	-0.004698 
2420.664080  	-0.004731 
2422.592896  	-0.004814 
2424.521712  	-0.004714 
2426.450528  	-0.004918 
2428.379344  	-0.004887 
2430.308160  	-0.004610 
2432.236976  	-0.004343 
2434.165792  	-0.004469 
2436.094608  	-0.004395 
2438.023424  	-0.004252 
2439.952240  	-0.004121 
2441.881056  	-0.004344 
2443.809872  	-0.004334 
2445.738688  	-0.004095 
2447.667504  	-0.003984 
2449.596320  	-0.004167 
2451.525136  	-0.004003 
2453.453952  	-0.003928 
2455.382768  	-0.004098 
2457.311584  	-0.004250 
2459.240400  	-0.004229 
2461.169216  	-0.004362 
2463.098032  	-0.004499 
2465.026848  	-0.004373 
2466.955664  	-0.004209 
2468.884480  	-0.004416 
2470.813296  	-0.004678 
2472.742112  	-0.004726 
2474.670928  	-0.004500 
2476.599744  	-0.004472 
2478.528560  	-0.004386 
2480.457376  	-0.004342 
2482.386192  	-0.004220 
2484.315008  	-0.004138 
2486.243824  	-0.004220 
2488.172640  	-0.004299 
2490.101456  	-0.004141 
2492.030272  	-0.003997 
2493.959088  	-0.003846 
2495.887904  	-0.003843 
2497.816720  	-0.003784 
2499.745536  	-0.003637 
2501.674352  	-0.003509 
2503.603168  	-0.003295 
2505.531984  	-0.003181 
2507.460800  	-0.003478 
2509.389616  	-0.003352 
2511.318432  	-0.003234 
2513.247248  	-0.003217 
2515.176064  	-0.003344 
2517.104880  	-0.003512 
2519.033696  	-0.003672 
2520.962512  	-0.003318 
2522.891328  	-0.003014 
2524.820144  	-0.003200 
2526.748960  	-0.003285 
2528.677776  	-0.003038 
2530.606592  	-0.003024 
2532.535408  	-0.003073 
2534.464224  	-0.002983 
2536.393040  	-0.002932 
2538.321856  	-0.002910 
2540.250672  	-0.002712 
2542.179488  	-0.002622 
2544.108304  	-0.002612 
2546.037120  	-0.002655 
2547.965936  	-0.002662 
2549.894752  	-0.002639 
2551.823568  	-0.002486 
2553.752384  	-0.002232 
2555.681200  	-0.001806 
2557.610016  	-0.001822 
2559.538832  	-0.001913 
2561.467648  	-0.001632 
2563.396464  	-0.001506 
2565.325280  	-0.001561 
2567.254096  	-0.001598 
2569.182912  	-0.001586 
2571.111728  	-0.001381 
2573.040544  	-0.001338 
2574.969360  	-0.001302 
2576.898176  	-0.001053 
2578.826992  	-0.000879 
2580.755808  	-0.000904 
2582.684624  	-0.000902 
2584.613440  	-0.000808 
2586.542256  	-0.000778 
2588.471072  	-0.000657 
2590.399888  	-0.000388 
2592.328704  	-0.000282 
2594.257520  	-0.000374 
2596.186336  	-0.000312 
2598.115152  	-0.000188 
2600.043968  	-0.000203 
2601.972784  	0.000011 
2603.901600  	0.000154 
2605.830416  	0.000401 
2607.759232  	0.000457 
2609.688048  	0.000486 
2611.616864  	0.000610 
2613.545680  	0.000950 
2615.474496  	0.001154 
2617.403312  	0.001266 
2619.332128  	0.001264 
2621.260944  	0.001347 
2623.189760  	0.001491 
2625.118576  	0.001616 
2627.047392  	0.001724 
2628.976208  	0.001907 
2630.905024  	0.001975 
2632.833840  	0.002119 
2634.762656  	0.002194 
2636.691472  	0.002287 
2638.620288  	0.002445 
2640.549104  	0.002608 
2642.477920  	0.002741 
2644.406736  	0.002976 
2646.335552  	0.003113 
2648.264368  	0.003281 
2650.193184  	0.003411 
2652.122000  	0.003490 
2654.050816  	0.003696 
2655.979632  	0.003905 
2657.908448  	0.004054 
2659.837264  	0.004195 
2661.766080  	0.004312 
2663.694896  	0.004449 
2665.623712  	0.004541 
2667.552528  	0.004771 
2669.481344  	0.005025 
2671.410160  	0.005216 
2673.338976  	0.005295 
2675.267792  	0.005456 
2677.196608  	0.005680 
2679.125424  	0.005855 
2681.054240  	0.006015 
2682.983056  	0.006124 
2684.911872  	0.006138 
2686.840688  	0.006271 
2688.769504  	0.006434 
2690.698320  	0.006466 
2692.627136  	0.006563 
2694.555952  	0.006678 
2696.484768  	0.006831 
2698.413584  	0.006928 
2700.342400  	0.006983 
2702.271216  	0.007213 
2704.200032  	0.007383 
2706.128848  	0.007551 
2708.057664  	0.007646 
2709.986480  	0.007834 
2711.915296  	0.008043 
2713.844112  	0.008273 
2715.772928  	0.008401 
2717.701744  	0.008568 
2719.630560  	0.008843 
2721.559376  	0.009031 
2723.488192  	0.009231 
2725.417008  	0.009521 
2727.345824  	0.009689 
2729.274640  	0.009879 
2731.203456  	0.010123 
2733.132272  	0.010369 
2735.061088  	0.010598 
2736.989904  	0.010856 
2738.918720  	0.011048 
2740.847536  	0.011233 
2742.776352  	0.011368 
2744.705168  	0.011478 
2746.633984  	0.011540 
2748.562800  	0.011695 
2750.491616  	0.011771 
2752.420432  	0.011841 
2754.349248  	0.011836 
2756.278064  	0.011856 
2758.206880  	0.011873 
2760.135696  	0.011889 
2762.064512  	0.011936 
2763.993328  	0.011977 
2765.922144  	0.012042 
2767.850960  	0.012091 
2769.779776  	0.012122 
2771.708592  	0.012246 
2773.637408  	0.012199 
2775.566224  	0.012199 
2777.495040  	0.012176 
2779.423856  	0.012261 
2781.352672  	0.012387 
2783.281488  	0.012389 
2785.210304  	0.012346 
2787.139120  	0.012445 
2789.067936  	0.012547 
2790.996752  	0.012650 
2792.925568  	0.012655 
2794.854384  	0.012692 
2796.783200  	0.012757 
2798.712016  	0.012829 
2800.640832  	0.012871 
2802.569648  	0.013027 
2804.498464  	0.013151 
2806.427280  	0.013120 
2808.356096  	0.013123 
2810.284912  	0.013185 
2812.213728  	0.013254 
2814.142544  	0.013369 
2816.071360  	0.013484 
2818.000176  	0.013481 
2819.928992  	0.013494 
2821.857808  	0.013591 
2823.786624  	0.013697 
2825.715440  	0.013824 
2827.644256  	0.013863 
2829.573072  	0.013977 
2831.501888  	0.014023 
2833.430704  	0.014030 
2835.359520  	0.014167 
2837.288336  	0.014434 
2839.217152  	0.014703 
2841.145968  	0.014913 
2843.074784  	0.015119 
2845.003600  	0.015428 
2846.932416  	0.016033 
2848.861232  	0.016779 
2850.790048  	0.017269 
2852.718864  	0.017663 
2854.647680  	0.018250 
2856.576496  	0.018793 
2858.505312  	0.019360 
2860.434128  	0.020156 
2862.362944  	0.021089 
2864.291760  	0.021994 
2866.220576  	0.022902 
2868.149392  	0.023729 
2870.078208  	0.024299 
2872.007024  	0.025006 
2873.935840  	0.025775 
2875.864656  	0.026670 
2877.793472  	0.027850 
2879.722288  	0.029243 
2881.651104  	0.030754 
2883.579920  	0.032159 
2885.508736  	0.032997 
2887.437552  	0.033267 
2889.366368  	0.033590 
2891.295184  	0.034263 
2893.224000  	0.034866 
2895.152816  	0.035107 
2897.081632  	0.035481 
2899.010448  	0.037063 
2900.939264  	0.038455 
2902.868080  	0.037567 
2904.796896  	0.036816 
2906.725712  	0.036801 
2908.654528  	0.037013 
2910.583344  	0.037549 
2912.512160  	0.037605 
2914.440976  	0.037573 
2916.369792  	0.037871 
2918.298608  	0.038267 
2920.227424  	0.038771 
2922.156240  	0.039146 
2924.085056  	0.039422 
2926.013872  	0.039776 
2927.942688  	0.040219 
2929.871504  	0.040570 
2931.800320  	0.040941 
2933.729136  	0.041566 
2935.657952  	0.042306 
2937.586768  	0.043009 
2939.515584  	0.043823 
2941.444400  	0.044777 
2943.373216  	0.045546 
2945.302032  	0.046119 
2947.230848  	0.046355 
2949.159664  	0.046849 
2951.088480  	0.047699 
2953.017296  	0.048422 
2954.946112  	0.048946 
2956.874928  	0.049557 
2958.803744  	0.050106 
2960.732560  	0.050639 
2962.661376  	0.051113 
2964.590192  	0.051761 
2966.519008  	0.052583 
2968.447824  	0.053272 
2970.376640  	0.053710 
2972.305456  	0.053874 
2974.234272  	0.053542 
2976.163088  	0.053201 
2978.091904  	0.052710 
2980.020720  	0.052503 
2981.949536  	0.052469 
2983.878352  	0.052722 
2985.807168  	0.053394 
2987.735984  	0.054197 
2989.664800  	0.053789 
2991.593616  	0.050931 
2993.522432  	0.049389 
2995.451248  	0.048915 
2997.380064  	0.048245 
2999.308880  	0.047455 
3001.237696  	0.046606 
3003.166512  	0.045992 
3005.095328  	0.045226 
3007.024144  	0.044323 
3008.952960  	0.043564 
3010.881776  	0.042876 
3012.810592  	0.042118 
3014.739408  	0.041460 
3016.668224  	0.040678 
3018.597040  	0.040193 
3020.525856  	0.039971 
3022.454672  	0.039579 
3024.383488  	0.039211 
3026.312304  	0.038943 
3028.241120  	0.038752 
3030.169936  	0.038627 
3032.098752  	0.038592 
3034.027568  	0.038702 
3035.956384  	0.038800 
3037.885200  	0.038960 
3039.814016  	0.039126 
3041.742832  	0.039384 
3043.671648  	0.039684 
3045.600464  	0.040158 
3047.529280  	0.040543 
3049.458096  	0.040831 
3051.386912  	0.041432 
3053.315728  	0.042045 
3055.244544  	0.042709 
3057.173360  	0.043363 
3059.102176  	0.043891 
3061.030992  	0.044625 
3062.959808  	0.045505 
3064.888624  	0.046301 
3066.817440  	0.047044 
3068.746256  	0.048123 
3070.675072  	0.049077 
3072.603888  	0.049921 
3074.532704  	0.050930 
3076.461520  	0.051942 
3078.390336  	0.052896 
3080.319152  	0.053794 
3082.247968  	0.054749 
3084.176784  	0.055667 
3086.105600  	0.056614 
3088.034416  	0.057434 
3089.963232  	0.058340 
3091.892048  	0.059307 
3093.820864  	0.060218 
3095.749680  	0.060959 
3097.678496  	0.062054 
3099.607312  	0.063369 
3101.536128  	0.064438 
3103.464944  	0.065307 
3105.393760  	0.066164 
3107.322576  	0.067139 
3109.251392  	0.068138 
3111.180208  	0.068938 
3113.109024  	0.069699 
3115.037840  	0.070494 
3116.966656  	0.071398 
3118.895472  	0.072172 
3120.824288  	0.072881 
3122.753104  	0.073664 
3124.681920  	0.074406 
3126.610736  	0.075064 
3128.539552  	0.075917 
3130.468368  	0.076920 
3132.397184  	0.077717 
3134.326000  	0.078271 
3136.254816  	0.078847 
3138.183632  	0.079783 
3140.112448  	0.080718 
3142.041264  	0.081395 
3143.970080  	0.081939 
3145.898896  	0.082701 
3147.827712  	0.083484 
3149.756528  	0.084222 
3151.685344  	0.085005 
3153.614160  	0.085886 
3155.542976  	0.086737 
3157.471792  	0.087583 
3159.400608  	0.088395 
3161.329424  	0.089119 
3163.258240  	0.089592 
3165.187056  	0.090163 
3167.115872  	0.090950 
3169.044688  	0.091508 
3170.973504  	0.092060 
3172.902320  	0.092637 
3174.831136  	0.093224 
3176.759952  	0.093791 
3178.688768  	0.094089 
3180.617584  	0.094550 
3182.546400  	0.095079 
3184.475216  	0.095253 
3186.404032  	0.095269 
3188.332848  	0.095699 
3190.261664  	0.096200 
3192.190480  	0.096540 
3194.119296  	0.096456 
3196.048112  	0.096327 
3197.976928  	0.096200 
3199.905744  	0.096310 
3201.834560  	0.096323 
3203.763376  	0.096234 
3205.692192  	0.096188 
3207.621008  	0.095962 
3209.549824  	0.095760 
3211.478640  	0.095844 
3213.407456  	0.095811 
3215.336272  	0.095680 
3217.265088  	0.095626 
3219.193904  	0.095434 
3221.122720  	0.095284 
3223.051536  	0.095206 
3224.980352  	0.095128 
3226.909168  	0.094974 
3228.837984  	0.094480 
3230.766800  	0.094369 
3232.695616  	0.094464 
3234.624432  	0.094276 
3236.553248  	0.093984 
3238.482064  	0.093896 
3240.410880  	0.094026 
3242.339696  	0.094294 
3244.268512  	0.094103 
3246.197328  	0.094200 
3248.126144  	0.094524 
3250.054960  	0.094683 
3251.983776  	0.094951 
3253.912592  	0.095267 
3255.841408  	0.095622 
3257.770224  	0.095831 
3259.699040  	0.096116 
3261.627856  	0.096473 
3263.556672  	0.096808 
3265.485488  	0.096967 
3267.414304  	0.097009 
3269.343120  	0.097319 
3271.271936  	0.097772 
3273.200752  	0.097980 
3275.129568  	0.097983 
3277.058384  	0.098193 
3278.987200  	0.098453 
3280.916016  	0.098739 
3282.844832  	0.099046 
3284.773648  	0.099271 
3286.702464  	0.099378 
3288.631280  	0.099584 
3290.560096  	0.100042 
3292.488912  	0.100514 
3294.417728  	0.100754 
3296.346544  	0.101169 
3298.275360  	0.101410 
3300.204176  	0.101702 
3302.132992  	0.102271 
3304.061808  	0.102695 
3305.990624  	0.103110 
3307.919440  	0.103395 
3309.848256  	0.103608 
3311.777072  	0.103976 
3313.705888  	0.104393 
3315.634704  	0.104993 
3317.563520  	0.105420 
3319.492336  	0.105491 
3321.421152  	0.105671 
3323.349968  	0.106037 
3325.278784  	0.106197 
3327.207600  	0.106354 
3329.136416  	0.106425 
3331.065232  	0.106609 
3332.994048  	0.106898 
3334.922864  	0.106944 
3336.851680  	0.106817 
3338.780496  	0.106634 
3340.709312  	0.106371 
3342.638128  	0.106132 
3344.566944  	0.105759 
3346.495760  	0.105491 
3348.424576  	0.105296 
3350.353392  	0.104973 
3352.282208  	0.104552 
3354.211024  	0.104226 
3356.139840  	0.103969 
3358.068656  	0.103669 
3359.997472  	0.103399 
3361.926288  	0.103150 
3363.855104  	0.102649 
3365.783920  	0.102062 
3367.712736  	0.101632 
3369.641552  	0.101332 
3371.570368  	0.100931 
3373.499184  	0.100578 
3375.428000  	0.100315 
3377.356816  	0.099858 
3379.285632  	0.099504 
3381.214448  	0.099169 
3383.143264  	0.098755 
3385.072080  	0.098129 
3387.000896  	0.097506 
3388.929712  	0.097157 
3390.858528  	0.096802 
3392.787344  	0.096402 
3394.716160  	0.096024 
3396.644976  	0.095699 
3398.573792  	0.095159 
3400.502608  	0.094616 
3402.431424  	0.093881 
3404.360240  	0.093270 
3406.289056  	0.092678 
3408.217872  	0.092013 
3410.146688  	0.091341 
3412.075504  	0.090857 
3414.004320  	0.090476 
3415.933136  	0.090156 
3417.861952  	0.089389 
3419.790768  	0.088787 
3421.719584  	0.088157 
3423.648400  	0.087422 
3425.577216  	0.086616 
3427.506032  	0.085883 
3429.434848  	0.085201 
3431.363664  	0.084661 
3433.292480  	0.084041 
3435.221296  	0.083464 
3437.150112  	0.082894 
3439.078928  	0.082376 
3441.007744  	0.081706 
3442.936560  	0.081065 
3444.865376  	0.080664 
3446.794192  	0.079840 
3448.723008  	0.078572 
3450.651824  	0.077699 
3452.580640  	0.077139 
3454.509456  	0.076586 
3456.438272  	0.075817 
3458.367088  	0.075143 
3460.295904  	0.074466 
3462.224720  	0.073402 
3464.153536  	0.072319 
3466.082352  	0.071619 
3468.011168  	0.070648 
3469.939984  	0.069639 
3471.868800  	0.068782 
3473.797616  	0.067863 
3475.726432  	0.066785 
3477.655248  	0.065913 
3479.584064  	0.065640 
3481.512880  	0.064914 
3483.441696  	0.063291 
3485.370512  	0.062371 
3487.299328  	0.061483 
3489.228144  	0.060509 
3491.156960  	0.059574 
3493.085776  	0.058781 
3495.014592  	0.057954 
3496.943408  	0.056886 
3498.872224  	0.056128 
3500.801040  	0.056220 
3502.729856  	0.055639 
3504.658672  	0.054038 
3506.587488  	0.053131 
3508.516304  	0.052807 
3510.445120  	0.051808 
3512.373936  	0.050489 
3514.302752  	0.049610 
3516.231568  	0.048976 
3518.160384  	0.048433 
3520.089200  	0.047855 
3522.018016  	0.047726 
3523.946832  	0.047833 
3525.875648  	0.046839 
3527.804464  	0.044956 
3529.733280  	0.043522 
3531.662096  	0.042680 
3533.590912  	0.042118 
3535.519728  	0.042092 
3537.448544  	0.041239 
3539.377360  	0.039799 
3541.306176  	0.039351 
3543.234992  	0.039760 
3545.163808  	0.040363 
3547.092624  	0.038866 
3549.021440  	0.036425 
3550.950256  	0.035716 
3552.879072  	0.035044 
3554.807888  	0.034116 
3556.736704  	0.033449 
3558.665520  	0.033388 
3560.594336  	0.033097 
3562.523152  	0.031877 
3564.451968  	0.032335 
3566.380784  	0.033339 
3568.309600  	0.030289 
3570.238416  	0.028068 
3572.167232  	0.027450 
3574.096048  	0.026579 
3576.024864  	0.025540 
3577.953680  	0.024947 
3579.882496  	0.024234 
3581.811312  	0.023215 
3583.740128  	0.022839 
3585.668944  	0.023589 
3587.597760  	0.022237 
3589.526576  	0.019539 
3591.455392  	0.018800 
3593.384208  	0.018461 
3595.313024  	0.017312 
3597.241840  	0.015765 
3599.170656  	0.014257 
3601.099472  	0.013032 
3603.028288  	0.012858 
3604.957104  	0.013065 
3606.885920  	0.012795 
3608.814736  	0.011346 
3610.743552  	0.010879 
3612.672368  	0.009992 
3614.601184  	0.008515 
3616.530000  	0.008414 
3618.458816  	0.006584 
3620.387632  	0.004142 
3622.316448  	0.004087 
3624.245264  	0.004177 
3626.174080  	0.004234 
3628.102896  	0.001899 
3630.031712  	-0.001772 
3631.960528  	0.000233 
3633.889344  	0.000520 
3635.818160  	-0.000038 
3637.746976  	-0.000541 
3639.675792  	-0.000515 
3641.604608  	0.000016 
3643.533424  	0.000408 
3645.462240  	0.000497 
3647.391056  	-0.001792 
3649.319872  	-0.006407 
3651.248688  	-0.007638 
3653.177504  	-0.004045 
3655.106320  	-0.003372 
3657.035136  	-0.005287 
3658.963952  	-0.004316 
3660.892768  	-0.003809 
3662.821584  	-0.004073 
3664.750400  	-0.004283 
3666.679216  	-0.004236 
3668.608032  	-0.006427 
3670.536848  	-0.010585 
3672.465664  	-0.008593 
3674.394480  	-0.008557 
3676.323296  	-0.013361 
3678.252112  	-0.011673 
3680.180928  	-0.010656 
3682.109744  	-0.009298 
3684.038560  	-0.008696 
3685.967376  	-0.008805 
3687.896192  	-0.012348 
3689.825008  	-0.016554 
3691.753824  	-0.015563 
3693.682640  	-0.013388 
3695.611456  	-0.012872 
3697.540272  	-0.013063 
3699.469088  	-0.013455 
3701.397904  	-0.015555 
3703.326720  	-0.016594 
3705.255536  	-0.015628 
3707.184352  	-0.015797 
3709.113168  	-0.018000 
3711.041984  	-0.020501 
3712.970800  	-0.019598 
3714.899616  	-0.016515 
3716.828432  	-0.015868 
3718.757248  	-0.016608 
3720.686064  	-0.017336 
3722.614880  	-0.017967 
3724.543696  	-0.017017 
3726.472512  	-0.017296 
3728.401328  	-0.017911 
3730.330144  	-0.018773 
3732.258960  	-0.020580 
3734.187776  	-0.019086 
3736.116592  	-0.019860 
3738.045408  	-0.020143 
3739.974224  	-0.017903 
3741.903040  	-0.016466 
3743.831856  	-0.018951 
3745.760672  	-0.021611 
3747.689488  	-0.019347 
3749.618304  	-0.022328 
3751.547120  	-0.024525 
3753.475936  	-0.021454 
3755.404752  	-0.018315 
3757.333568  	-0.017859 
3759.262384  	-0.018896 
3761.191200  	-0.018882 
3763.120016  	-0.016751 
3765.048832  	-0.017110 
3766.977648  	-0.017405 
3768.906464  	-0.018407 
3770.835280  	-0.019389 
3772.764096  	-0.017534 
3774.692912  	-0.016603 
3776.621728  	-0.016446 
3778.550544  	-0.017870 
3780.479360  	-0.019004 
3782.408176  	-0.017274 
3784.336992  	-0.017363 
3786.265808  	-0.017195 
3788.194624  	-0.016754 
3790.123440  	-0.016963 
3792.052256  	-0.016975 
3793.981072  	-0.016748 
3795.909888  	-0.018261 
3797.838704  	-0.018448 
3799.767520  	-0.018661 
3801.696336  	-0.023223 
3803.625152  	-0.021189 
3805.553968  	-0.019439 
3807.482784  	-0.021323 
3809.411600  	-0.018688 
3811.340416  	-0.016724 
3813.269232  	-0.016245 
3815.198048  	-0.019202 
3817.126864  	-0.021186 
3819.055680  	-0.019328 
3820.984496  	-0.023004 
3822.913312  	-0.021660 
3824.842128  	-0.018142 
3826.770944  	-0.018556 
3828.699760  	-0.017913 
3830.628576  	-0.018046 
3832.557392  	-0.019091 
3834.486208  	-0.018896 
3836.415024  	-0.020050 
3838.343840  	-0.021794 
3840.272656  	-0.020585 
3842.201472  	-0.018820 
3844.130288  	-0.018573 
3846.059104  	-0.017452 
3847.987920  	-0.016384 
3849.916736  	-0.016290 
3851.845552  	-0.018850 
3853.774368  	-0.025157 
3855.703184  	-0.021991 
3857.632000  	-0.018149 
3859.560816  	-0.016690 
3861.489632  	-0.016770 
3863.418448  	-0.017634 
3865.347264  	-0.018173 
3867.276080  	-0.016693 
3869.204896  	-0.017654 
3871.133712  	-0.018466 
3873.062528  	-0.017290 
3874.991344  	-0.018127 
3876.920160  	-0.016646 
3878.848976  	-0.015745 
3880.777792  	-0.016660 
3882.706608  	-0.015907 
3884.635424  	-0.015934 
3886.564240  	-0.017897 
3888.493056  	-0.016853 
3890.421872  	-0.017101 
3892.350688  	-0.018203 
3894.279504  	-0.016842 
3896.208320  	-0.015731 
3898.137136  	-0.015312 
3900.065952  	-0.015552 
3901.994768  	-0.015513 
3903.923584  	-0.016583 
3905.852400  	-0.017453 
3907.781216  	-0.017183 
3909.710032  	-0.016958 
3911.638848  	-0.016706 
3913.567664  	-0.016180 
3915.496480  	-0.015348 
3917.425296  	-0.015547 
3919.354112  	-0.016197 
3921.282928  	-0.016082 
3923.211744  	-0.015420 
3925.140560  	-0.015602 
3927.069376  	-0.016158 
3928.998192  	-0.015942 
3930.927008  	-0.015262 
3932.855824  	-0.015298 
3934.784640  	-0.016234 
3936.713456  	-0.016528 
3938.642272  	-0.016192 
3940.571088  	-0.015490 
3942.499904  	-0.015063 
3944.428720  	-0.015505 
3946.357536  	-0.015147 
3948.286352  	-0.014733 
3950.215168  	-0.015735 
3952.143984  	-0.016859 
3954.072800  	-0.016953 
3956.001616  	-0.016502 
3957.930432  	-0.016540 
3959.859248  	-0.016463 
3961.788064  	-0.016169 
3963.716880  	-0.016530 
3965.645696  	-0.017038 
3967.574512  	-0.016757 
3969.503328  	-0.016351 
3971.432144  	-0.016444 
3973.360960  	-0.016428 
3975.289776  	-0.016205 
3977.218592  	-0.016244 
3979.147408  	-0.016506 
3981.076224  	-0.016649 
3983.005040  	-0.016636 
3984.933856  	-0.016581 
3986.862672  	-0.016669 
3988.791488  	-0.016318 
3990.720304  	-0.016066 
3992.649120  	-0.016443 
3994.577936  	-0.016730 
3996.506752  	-0.016723 
3998.435568  	-0.016733 
4000.364384  	-0.016762 