##TITLE=No Description
##DATA TYPE=INFRARED SPECTRUM
##XUNITS=1/CM
##YUNITS=Abs
399.264912  	0.615034 
401.193728  	0.603053 
403.122544  	0.597247 
405.051360  	0.584537 
406.980176  	0.591046 
408.908992  	0.591803 
410.837808  	0.599845 
412.766624  	0.597894 
414.695440  	0.587276 
416.624256  	0.578309 
418.553072  	0.592989 
420.481888  	0.582103 
422.410704  	0.581202 
424.339520  	0.573692 
426.268336  	0.578132 
428.197152  	0.576906 
430.125968  	0.584417 
432.054784  	0.576443 
433.983600  	0.568397 
435.912416  	0.562194 
437.841232  	0.557124 
439.770048  	0.551830 
441.698864  	0.550501 
443.627680  	0.545741 
445.556496  	0.545643 
447.485312  	0.545602 
449.414128  	0.547234 
451.342944  	0.544601 
453.271760  	0.545769 
455.200576  	0.544166 
457.129392  	0.550232 
459.058208  	0.552350 
460.987024  	0.552392 
462.915840  	0.546329 
464.844656  	0.545881 
466.773472  	0.544803 
468.702288  	0.547967 
470.631104  	0.550105 
472.559920  	0.552762 
474.488736  	0.545663 
476.417552  	0.545943 
478.346368  	0.542416 
480.275184  	0.542630 
482.204000  	0.538373 
484.132816  	0.535815 
486.061632  	0.537181 
487.990448  	0.541367 
489.919264  	0.537147 
491.848080  	0.534810 
493.776896  	0.531047 
495.705712  	0.529070 
497.634528  	0.527409 
499.563344  	0.531896 
501.492160  	0.529341 
503.420976  	0.526402 
505.349792  	0.524269 
507.278608  	0.527422 
509.207424  	0.527914 
511.136240  	0.531527 
513.065056  	0.533441 
514.993872  	0.534287 
516.922688  	0.535034 
518.851504  	0.539019 
520.780320  	0.537295 
522.709136  	0.536302 
524.637952  	0.533927 
526.566768  	0.533060 
528.495584  	0.528987 
530.424400  	0.525502 
532.353216  	0.520315 
534.282032  	0.515874 
536.210848  	0.508756 
538.139664  	0.503565 
540.068480  	0.497057 
541.997296  	0.493339 
543.926112  	0.488353 
545.854928  	0.483194 
547.783744  	0.478711 
549.712560  	0.475719 
551.641376  	0.472040 
553.570192  	0.468876 
555.499008  	0.464969 
557.427824  	0.461835 
559.356640  	0.456462 
561.285456  	0.452981 
563.214272  	0.449448 
565.143088  	0.446813 
567.071904  	0.442719 
569.000720  	0.439495 
570.929536  	0.436000 
572.858352  	0.432710 
574.787168  	0.430258 
576.715984  	0.428456 
578.644800  	0.424016 
580.573616  	0.419009 
582.502432  	0.412452 
584.431248  	0.408209 
586.360064  	0.404546 
588.288880  	0.402432 
590.217696  	0.400466 
592.146512  	0.397847 
594.075328  	0.395226 
596.004144  	0.394192 
597.932960  	0.391778 
599.861776  	0.390102 
601.790592  	0.387891 
603.719408  	0.386069 
605.648224  	0.385363 
607.577040  	0.384506 
609.505856  	0.382384 
611.434672  	0.380342 
613.363488  	0.378758 
615.292304  	0.378693 
617.221120  	0.377806 
619.149936  	0.376052 
621.078752  	0.374617 
623.007568  	0.373584 
624.936384  	0.372031 
626.865200  	0.371962 
628.794016  	0.370909 
630.722832  	0.369841 
632.651648  	0.369517 
634.580464  	0.370127 
636.509280  	0.370490 
638.438096  	0.370782 
640.366912  	0.370262 
642.295728  	0.368668 
644.224544  	0.365553 
646.153360  	0.361805 
648.082176  	0.357258 
650.010992  	0.352691 
651.939808  	0.348242 
653.868624  	0.344107 
655.797440  	0.339618 
657.726256  	0.335385 
659.655072  	0.331131 
661.583888  	0.327016 
663.512704  	0.323386 
665.441520  	0.319748 
667.370336  	0.310475 
669.299152  	0.302850 
671.227968  	0.303088 
673.156784  	0.300510 
675.085600  	0.298039 
677.014416  	0.295049 
678.943232  	0.292914 
680.872048  	0.291861 
682.800864  	0.290434 
684.729680  	0.288823 
686.658496  	0.287634 
688.587312  	0.287157 
690.516128  	0.286163 
692.444944  	0.285282 
694.373760  	0.284564 
696.302576  	0.282668 
698.231392  	0.280223 
700.160208  	0.277656 
702.089024  	0.275017 
704.017840  	0.272939 
705.946656  	0.270877 
707.875472  	0.268382 
709.804288  	0.265685 
711.733104  	0.263666 
713.661920  	0.262075 
715.590736  	0.260883 
717.519552  	0.260607 
719.448368  	0.261544 
721.377184  	0.262180 
723.306000  	0.263492 
725.234816  	0.264530 
727.163632  	0.264122 
729.092448  	0.261735 
731.021264  	0.258162 
732.950080  	0.254269 
734.878896  	0.250509 
736.807712  	0.246994 
738.736528  	0.244422 
740.665344  	0.242602 
742.594160  	0.241063 
744.522976  	0.239568 
746.451792  	0.237752 
748.380608  	0.235983 
750.309424  	0.234762 
752.238240  	0.234139 
754.167056  	0.233537 
756.095872  	0.232610 
758.024688  	0.231949 
759.953504  	0.231840 
761.882320  	0.233328 
763.811136  	0.234590 
765.739952  	0.233403 
767.668768  	0.230178 
769.597584  	0.227301 
771.526400  	0.226657 
773.455216  	0.228777 
775.384032  	0.233760 
777.312848  	0.240955 
779.241664  	0.246278 
781.170480  	0.246363 
783.099296  	0.241664 
785.028112  	0.234359 
786.956928  	0.227210 
788.885744  	0.221966 
790.814560  	0.218424 
792.743376  	0.216208 
794.672192  	0.215302 
796.601008  	0.214120 
798.529824  	0.210973 
800.458640  	0.206320 
802.387456  	0.202359 
804.316272  	0.200182 
806.245088  	0.199191 
808.173904  	0.198722 
810.102720  	0.198892 
812.031536  	0.199177 
813.960352  	0.199530 
815.889168  	0.199997 
817.817984  	0.200688 
819.746800  	0.201694 
821.675616  	0.202744 
823.604432  	0.203164 
825.533248  	0.203198 
827.462064  	0.203347 
829.390880  	0.202937 
831.319696  	0.201843 
833.248512  	0.200004 
835.177328  	0.197291 
837.106144  	0.194593 
839.034960  	0.190969 
840.963776  	0.186483 
842.892592  	0.182112 
844.821408  	0.178253 
846.750224  	0.175041 
848.679040  	0.172314 
850.607856  	0.170467 
852.536672  	0.169330 
854.465488  	0.168517 
856.394304  	0.168044 
858.323120  	0.167632 
860.251936  	0.166497 
862.180752  	0.165002 
864.109568  	0.163193 
866.038384  	0.161426 
867.967200  	0.159858 
869.896016  	0.158030 
871.824832  	0.156720 
873.753648  	0.156252 
875.682464  	0.156840 
877.611280  	0.159232 
879.540096  	0.162381 
881.468912  	0.164216 
883.397728  	0.165997 
885.326544  	0.167305 
887.255360  	0.167959 
889.184176  	0.168000 
891.112992  	0.167540 
893.041808  	0.165436 
894.970624  	0.161932 
896.899440  	0.157635 
898.828256  	0.152115 
900.757072  	0.146439 
902.685888  	0.141766 
904.614704  	0.138691 
906.543520  	0.138045 
908.472336  	0.139065 
910.401152  	0.141304 
912.329968  	0.144188 
914.258784  	0.147335 
916.187600  	0.150189 
918.116416  	0.152658 
920.045232  	0.154464 
921.974048  	0.155672 
923.902864  	0.156289 
925.831680  	0.156429 
927.760496  	0.156959 
929.689312  	0.157933 
931.618128  	0.159267 
933.546944  	0.160245 
935.475760  	0.160578 
937.404576  	0.160442 
939.333392  	0.160095 
941.262208  	0.160452 
943.191024  	0.162309 
945.119840  	0.166980 
947.048656  	0.174692 
948.977472  	0.185204 
950.906288  	0.198143 
952.835104  	0.212788 
954.763920  	0.228444 
956.692736  	0.243329 
958.621552  	0.255696 
960.550368  	0.263998 
962.479184  	0.267995 
964.408000  	0.266462 
966.336816  	0.259792 
968.265632  	0.248681 
970.194448  	0.234276 
972.123264  	0.217858 
974.052080  	0.200766 
975.980896  	0.184208 
977.909712  	0.168835 
979.838528  	0.155419 
981.767344  	0.144418 
983.696160  	0.136143 
985.624976  	0.130971 
987.553792  	0.129161 
989.482608  	0.130926 
991.411424  	0.135773 
993.340240  	0.142761 
995.269056  	0.151433 
997.197872  	0.160736 
999.126688  	0.170361 
1001.055504  	0.180161 
1002.984320  	0.190481 
1004.913136  	0.200905 
1006.841952  	0.210853 
1008.770768  	0.219610 
1010.699584  	0.226819 
1012.628400  	0.231823 
1014.557216  	0.234837 
1016.486032  	0.236386 
1018.414848  	0.237086 
1020.343664  	0.237227 
1022.272480  	0.236918 
1024.201296  	0.237402 
1026.130112  	0.240865 
1028.058928  	0.243690 
1029.987744  	0.243139 
1031.916560  	0.246954 
1033.845376  	0.254437 
1035.774192  	0.264662 
1037.703008  	0.276400 
1039.631824  	0.288843 
1041.560640  	0.304784 
1043.489456  	0.324936 
1045.418272  	0.347633 
1047.347088  	0.370622 
1049.275904  	0.389322 
1051.204720  	0.402027 
1053.133536  	0.407164 
1055.062352  	0.407555 
1056.991168  	0.405787 
1058.919984  	0.400848 
1060.848800  	0.394133 
1062.777616  	0.391888 
1064.706432  	0.392624 
1066.635248  	0.390183 
1068.564064  	0.378491 
1070.492880  	0.368029 
1072.421696  	0.361131 
1074.350512  	0.357062 
1076.279328  	0.355010 
1078.208144  	0.356883 
1080.136960  	0.360165 
1082.065776  	0.362828 
1083.994592  	0.361462 
1085.923408  	0.355831 
1087.852224  	0.345719 
1089.781040  	0.332696 
1091.709856  	0.316549 
1093.638672  	0.300717 
1095.567488  	0.284581 
1097.496304  	0.268269 
1099.425120  	0.251357 
1101.353936  	0.234478 
1103.282752  	0.218356 
1105.211568  	0.202737 
1107.140384  	0.187444 
1109.069200  	0.172920 
1110.998016  	0.159625 
1112.926832  	0.147522 
1114.855648  	0.136484 
1116.784464  	0.126296 
1118.713280  	0.116874 
1120.642096  	0.108068 
1122.570912  	0.099977 
1124.499728  	0.092300 
1126.428544  	0.085535 
1128.357360  	0.079583 
1130.286176  	0.074686 
1132.214992  	0.070469 
1134.143808  	0.067389 
1136.072624  	0.064762 
1138.001440  	0.062258 
1139.930256  	0.059550 
1141.859072  	0.056978 
1143.787888  	0.054126 
1145.716704  	0.051352 
1147.645520  	0.048723 
1149.574336  	0.046491 
1151.503152  	0.044986 
1153.431968  	0.044488 
1155.360784  	0.044720 
1157.289600  	0.045761 
1159.218416  	0.047523 
1161.147232  	0.050209 
1163.076048  	0.052951 
1165.004864  	0.055983 
1166.933680  	0.058703 
1168.862496  	0.061777 
1170.791312  	0.065005 
1172.720128  	0.068786 
1174.648944  	0.072639 
1176.577760  	0.076564 
1178.506576  	0.080180 
1180.435392  	0.084140 
1182.364208  	0.088065 
1184.293024  	0.092374 
1186.221840  	0.097142 
1188.150656  	0.102531 
1190.079472  	0.108574 
1192.008288  	0.115881 
1193.937104  	0.124410 
1195.865920  	0.134170 
1197.794736  	0.145223 
1199.723552  	0.157331 
1201.652368  	0.169407 
1203.581184  	0.181196 
1205.510000  	0.192938 
1207.438816  	0.203951 
1209.367632  	0.214101 
1211.296448  	0.223094 
1213.225264  	0.230749 
1215.154080  	0.236518 
1217.082896  	0.241043 
1219.011712  	0.244051 
1220.940528  	0.246339 
1222.869344  	0.247646 
1224.798160  	0.247884 
1226.726976  	0.246657 
1228.655792  	0.244925 
1230.584608  	0.242105 
1232.513424  	0.237864 
1234.442240  	0.232114 
1236.371056  	0.225707 
1238.299872  	0.218831 
1240.228688  	0.213056 
1242.157504  	0.205338 
1244.086320  	0.195343 
1246.015136  	0.186421 
1247.943952  	0.178688 
1249.872768  	0.170699 
1251.801584  	0.161695 
1253.730400  	0.152641 
1255.659216  	0.143799 
1257.588032  	0.135534 
1259.516848  	0.127498 
1261.445664  	0.119660 
1263.374480  	0.112299 
1265.303296  	0.106102 
1267.232112  	0.100785 
1269.160928  	0.096455 
1271.089744  	0.092918 
1273.018560  	0.090772 
1274.947376  	0.089693 
1276.876192  	0.089472 
1278.805008  	0.088883 
1280.733824  	0.087306 
1282.662640  	0.084569 
1284.591456  	0.081541 
1286.520272  	0.079077 
1288.449088  	0.077490 
1290.377904  	0.076555 
1292.306720  	0.076732 
1294.235536  	0.076908 
1296.164352  	0.076142 
1298.093168  	0.073508 
1300.021984  	0.070062 
1301.950800  	0.066398 
1303.879616  	0.063018 
1305.808432  	0.059300 
1307.737248  	0.055480 
1309.666064  	0.051615 
1311.594880  	0.049102 
1313.523696  	0.047156 
1315.452512  	0.045737 
1317.381328  	0.044953 
1319.310144  	0.044736 
1321.238960  	0.044717 
1323.167776  	0.045499 
1325.096592  	0.046530 
1327.025408  	0.047290 
1328.954224  	0.047231 
1330.883040  	0.046646 
1332.811856  	0.045712 
1334.740672  	0.045424 
1336.669488  	0.046000 
1338.598304  	0.046931 
1340.527120  	0.045229 
1342.455936  	0.042843 
1344.384752  	0.042325 
1346.313568  	0.042893 
1348.242384  	0.043853 
1350.171200  	0.045561 
1352.100016  	0.047814 
1354.028832  	0.050691 
1355.957648  	0.053301 
1357.886464  	0.056416 
1359.815280  	0.060207 
1361.744096  	0.064333 
1363.672912  	0.066595 
1365.601728  	0.068523 
1367.530544  	0.071480 
1369.459360  	0.073801 
1371.388176  	0.075425 
1373.316992  	0.075983 
1375.245808  	0.073650 
1377.174624  	0.072088 
1379.103440  	0.070069 
1381.032256  	0.067295 
1382.961072  	0.064727 
1384.889888  	0.063527 
1386.818704  	0.061727 
1388.747520  	0.057942 
1390.676336  	0.056970 
1392.605152  	0.059834 
1394.533968  	0.059967 
1396.462784  	0.056113 
1398.391600  	0.055116 
1400.320416  	0.055149 
1402.249232  	0.057533 
1404.178048  	0.060189 
1406.106864  	0.061229 
1408.035680  	0.062497 
1409.964496  	0.064180 
1411.893312  	0.065296 
1413.822128  	0.066321 
1415.750944  	0.068889 
1417.679760  	0.070352 
1419.608576  	0.066506 
1421.537392  	0.065119 
1423.466208  	0.064772 
1425.395024  	0.061699 
1427.323840  	0.059552 
1429.252656  	0.056080 
1431.181472  	0.053363 
1433.110288  	0.053509 
1435.039104  	0.054875 
1436.967920  	0.053844 
1438.896736  	0.054445 
1440.825552  	0.056129 
1442.754368  	0.056908 
1444.683184  	0.057460 
1446.612000  	0.057989 
1448.540816  	0.057775 
1450.469632  	0.058976 
1452.398448  	0.060191 
1454.327264  	0.061506 
1456.256080  	0.059257 
1458.184896  	0.053042 
1460.113712  	0.054502 
1462.042528  	0.056506 
1463.971344  	0.055866 
1465.900160  	0.055568 
1467.828976  	0.058711 
1469.757792  	0.062776 
1471.686608  	0.066182 
1473.615424  	0.071932 
1475.544240  	0.079920 
1477.473056  	0.086485 
1479.401872  	0.091168 
1481.330688  	0.094903 
1483.259504  	0.097181 
1485.188320  	0.099182 
1487.117136  	0.099319 
1489.045952  	0.098719 
1490.974768  	0.094185 
1492.903584  	0.091306 
1494.832400  	0.087501 
1496.761216  	0.078509 
1498.690032  	0.070543 
1500.618848  	0.065959 
1502.547664  	0.061876 
1504.476480  	0.057209 
1506.405296  	0.049434 
1508.334112  	0.046634 
1510.262928  	0.046912 
1512.191744  	0.044305 
1514.120560  	0.043363 
1516.049376  	0.042845 
1517.978192  	0.041031 
1519.907008  	0.042893 
1521.835824  	0.042487 
1523.764640  	0.047800 
1525.693456  	0.053564 
1527.622272  	0.055891 
1529.551088  	0.056668 
1531.479904  	0.056533 
1533.408720  	0.050607 
1535.337536  	0.046537 
1537.266352  	0.045191 
1539.195168  	0.035164 
1541.123984  	0.025622 
1543.052800  	0.030287 
1544.981616  	0.031703 
1546.910432  	0.031116 
1548.839248  	0.032220 
1550.768064  	0.032171 
1552.696880  	0.031872 
1554.625696  	0.032126 
1556.554512  	0.032529 
1558.483328  	0.028697 
1560.412144  	0.032247 
1562.340960  	0.042311 
1564.269776  	0.047435 
1566.198592  	0.053832 
1568.127408  	0.058959 
1570.056224  	0.063920 
1571.985040  	0.072798 
1573.913856  	0.079081 
1575.842672  	0.079330 
1577.771488  	0.082608 
1579.700304  	0.086034 
1581.629120  	0.086198 
1583.557936  	0.085649 
1585.486752  	0.086621 
1587.415568  	0.089472 
1589.344384  	0.094903 
1591.273200  	0.102031 
1593.202016  	0.110586 
1595.130832  	0.119669 
1597.059648  	0.129248 
1598.988464  	0.137464 
1600.917280  	0.144588 
1602.846096  	0.149075 
1604.774912  	0.152031 
1606.703728  	0.152482 
1608.632544  	0.151215 
1610.561360  	0.148587 
1612.490176  	0.147012 
1614.418992  	0.144567 
1616.347808  	0.139874 
1618.276624  	0.140822 
1620.205440  	0.147400 
1622.134256  	0.150783 
1624.063072  	0.156539 
1625.991888  	0.165111 
1627.920704  	0.174262 
1629.849520  	0.185825 
1631.778336  	0.197327 
1633.707152  	0.204479 
1635.635968  	0.210568 
1637.564784  	0.222138 
1639.493600  	0.232301 
1641.422416  	0.238104 
1643.351232  	0.242191 
1645.280048  	0.241433 
1647.208864  	0.238398 
1649.137680  	0.240571 
1651.066496  	0.241752 
1652.995312  	0.230632 
1654.924128  	0.229687 
1656.852944  	0.232375 
1658.781760  	0.230486 
1660.710576  	0.225928 
1662.639392  	0.218648 
1664.568208  	0.213713 
1666.497024  	0.211466 
1668.425840  	0.204211 
1670.354656  	0.194376 
1672.283472  	0.191108 
1674.212288  	0.187476 
1676.141104  	0.180855 
1678.069920  	0.180744 
1679.998736  	0.180380 
1681.927552  	0.178538 
1683.856368  	0.170539 
1685.785184  	0.168480 
1687.714000  	0.172774 
1689.642816  	0.172365 
1691.571632  	0.170337 
1693.500448  	0.169604 
1695.429264  	0.164234 
1697.358080  	0.160857 
1699.286896  	0.158976 
1701.215712  	0.152333 
1703.144528  	0.153509 
1705.073344  	0.149118 
1707.002160  	0.142446 
1708.930976  	0.138711 
1710.859792  	0.132606 
1712.788608  	0.125454 
1714.717424  	0.115750 
1716.646240  	0.102214 
1718.575056  	0.085744 
1720.503872  	0.078158 
1722.432688  	0.071395 
1724.361504  	0.060675 
1726.290320  	0.051830 
1728.219136  	0.044969 
1730.147952  	0.038839 
1732.076768  	0.033651 
1734.005584  	0.024484 
1735.934400  	0.018496 
1737.863216  	0.019534 
1739.792032  	0.014851 
1741.720848  	0.013827 
1743.649664  	0.013920 
1745.578480  	0.012995 
1747.507296  	0.011095 
1749.436112  	0.009894 
1751.364928  	0.008131 
1753.293744  	0.007362 
1755.222560  	0.007679 
1757.151376  	0.006771 
1759.080192  	0.006163 
1761.009008  	0.005464 
1762.937824  	0.003213 
1764.866640  	0.004166 
1766.795456  	0.005283 
1768.724272  	0.004585 
1770.653088  	0.001787 
1772.581904  	-0.002228 
1774.510720  	-0.000495 
1776.439536  	0.002068 
1778.368352  	0.002517 
1780.297168  	0.002013 
1782.225984  	0.001276 
1784.154800  	0.001978 
1786.083616  	0.001003 
1788.012432  	0.001345 
1789.941248  	0.002255 
1791.870064  	0.000236 
1793.798880  	-0.001909 
1795.727696  	0.000290 
1797.656512  	-0.000019 
1799.585328  	-0.000317 
1801.514144  	0.000109 
1803.442960  	-0.000022 
1805.371776  	-0.000853 
1807.300592  	-0.000241 
1809.229408  	-0.000687 
1811.158224  	-0.001257 
1813.087040  	-0.001763 
1815.015856  	-0.001258 
1816.944672  	-0.000942 
1818.873488  	-0.001086 
1820.802304  	-0.001381 
1822.731120  	-0.000303 
1824.659936  	-0.000984 
1826.588752  	-0.001810 
1828.517568  	-0.002409 
1830.446384  	-0.003439 
1832.375200  	-0.002463 
1834.304016  	-0.001278 
1836.232832  	-0.001516 
1838.161648  	-0.001438 
1840.090464  	-0.001440 
1842.019280  	-0.000142 
1843.948096  	-0.001970 
1845.876912  	-0.002510 
1847.805728  	-0.001486 
1849.734544  	-0.001607 
1851.663360  	-0.002136 
1853.592176  	-0.002126 
1855.520992  	-0.002163 
1857.449808  	-0.001733 
1859.378624  	-0.001784 
1861.307440  	-0.001809 
1863.236256  	-0.002084 
1865.165072  	-0.001664 
1867.093888  	-0.001918 
1869.022704  	-0.002690 
1870.951520  	-0.003011 
1872.880336  	-0.002446 
1874.809152  	-0.002681 
1876.737968  	-0.002491 
1878.666784  	-0.002779 
1880.595600  	-0.002071 
1882.524416  	-0.002253 
1884.453232  	-0.002167 
1886.382048  	-0.002379 
1888.310864  	-0.001871 
1890.239680  	-0.002672 
1892.168496  	-0.002369 
1894.097312  	-0.002038 
1896.026128  	-0.001716 
1897.954944  	-0.002218 
1899.883760  	-0.002020 
1901.812576  	-0.002074 
1903.741392  	-0.002185 
1905.670208  	-0.002097 
1907.599024  	-0.001282 
1909.527840  	-0.001880 
1911.456656  	-0.001836 
1913.385472  	-0.001742 
1915.314288  	-0.000787 
1917.243104  	-0.001613 
1919.171920  	-0.002265 
1921.100736  	-0.001433 
1923.029552  	-0.000953 
1924.958368  	-0.001841 
1926.887184  	-0.001670 
1928.816000  	-0.002227 
1930.744816  	-0.001963 
1932.673632  	-0.002252 
1934.602448  	-0.002122 
1936.531264  	-0.002392 
1938.460080  	-0.001508 
1940.388896  	-0.001330 
1942.317712  	-0.001083 
1944.246528  	-0.001851 
1946.175344  	-0.001405 
1948.104160  	-0.002220 
1950.032976  	-0.001750 
1951.961792  	-0.002415 
1953.890608  	-0.002686 
1955.819424  	-0.003238 
1957.748240  	-0.002414 
1959.677056  	-0.002987 
1961.605872  	-0.001539 
1963.534688  	-0.001316 
1965.463504  	-0.000537 
1967.392320  	-0.001693 
1969.321136  	-0.002139 
1971.249952  	-0.002672 
1973.178768  	-0.001549 
1975.107584  	-0.002434 
1977.036400  	-0.001872 
1978.965216  	-0.001602 
1980.894032  	-0.001787 
1982.822848  	-0.002496 
1984.751664  	-0.001840 
1986.680480  	-0.002682 
1988.609296  	-0.001916 
1990.538112  	-0.002713 
1992.466928  	-0.002254 
1994.395744  	-0.003362 
1996.324560  	-0.003228 
1998.253376  	-0.003516 
2000.182192  	-0.003091 
2002.111008  	-0.002966 
2004.039824  	-0.002029 
2005.968640  	-0.002537 
2007.897456  	-0.001824 
2009.826272  	-0.002185 
2011.755088  	-0.001962 
2013.683904  	-0.003542 
2015.612720  	-0.002585 
2017.541536  	-0.002817 
2019.470352  	-0.002754 
2021.399168  	-0.003960 
2023.327984  	-0.003205 
2025.256800  	-0.002239 
2027.185616  	-0.001307 
2029.114432  	-0.001583 
2031.043248  	-0.000863 
2032.972064  	-0.001210 
2034.900880  	-0.000255 
2036.829696  	-0.001789 
2038.758512  	-0.001406 
2040.687328  	-0.001285 
2042.616144  	-0.001358 
2044.544960  	-0.002132 
2046.473776  	-0.001338 
2048.402592  	-0.001547 
2050.331408  	-0.001540 
2052.260224  	-0.002423 
2054.189040  	-0.002160 
2056.117856  	-0.002223 
2058.046672  	-0.002052 
2059.975488  	-0.002783 
2061.904304  	-0.002879 
2063.833120  	-0.002955 
2065.761936  	-0.002485 
2067.690752  	-0.002699 
2069.619568  	-0.002022 
2071.548384  	-0.002130 
2073.477200  	-0.002202 
2075.406016  	-0.002043 
2077.334832  	-0.001762 
2079.263648  	-0.001945 
2081.192464  	-0.001458 
2083.121280  	-0.001388 
2085.050096  	-0.001866 
2086.978912  	-0.002474 
2088.907728  	-0.001684 
2090.836544  	-0.001755 
2092.765360  	-0.001573 
2094.694176  	-0.000993 
2096.622992  	-0.000806 
2098.551808  	-0.001540 
2100.480624  	-0.001344 
2102.409440  	-0.001315 
2104.338256  	-0.001665 
2106.267072  	-0.001491 
2108.195888  	-0.000481 
2110.124704  	-0.000515 
2112.053520  	-0.000732 
2113.982336  	-0.001383 
2115.911152  	-0.001556 
2117.839968  	-0.001693 
2119.768784  	-0.001774 
2121.697600  	-0.001834 
2123.626416  	-0.001181 
2125.555232  	-0.001487 
2127.484048  	-0.001703 
2129.412864  	-0.002053 
2131.341680  	-0.001736 
2133.270496  	-0.001606 
2135.199312  	-0.000745 
2137.128128  	-0.000241 
2139.056944  	-0.000101 
2140.985760  	-0.000877 
2142.914576  	-0.000431 
2144.843392  	-0.000164 
2146.772208  	-0.000095 
2148.701024  	-0.001158 
2150.629840  	-0.000422 
2152.558656  	0.000235 
2154.487472  	0.000781 
2156.416288  	-0.000437 
2158.345104  	-0.000376 
2160.273920  	0.000849 
2162.202736  	0.001764 
2164.131552  	0.001632 
2166.060368  	0.001372 
2167.989184  	0.001080 
2169.918000  	0.001695 
2171.846816  	0.000349 
2173.775632  	0.001104 
2175.704448  	0.001013 
2177.633264  	0.000788 
2179.562080  	0.000955 
2181.490896  	0.001016 
2183.419712  	-0.000758 
2185.348528  	-0.000330 
2187.277344  	-0.000149 
2189.206160  	-0.000474 
2191.134976  	-0.001355 
2193.063792  	-0.001065 
2194.992608  	-0.000850 
2196.921424  	-0.000469 
2198.850240  	-0.000389 
2200.779056  	-0.000417 
2202.707872  	-0.001104 
2204.636688  	-0.001592 
2206.565504  	-0.001603 
2208.494320  	-0.001524 
2210.423136  	-0.002019 
2212.351952  	-0.002019 
2214.280768  	-0.002366 
2216.209584  	-0.002263 
2218.138400  	-0.002533 
2220.067216  	-0.001834 
2221.996032  	-0.001610 
2223.924848  	-0.001421 
2225.853664  	-0.001465 
2227.782480  	-0.001480 
2229.711296  	-0.002117 
2231.640112  	-0.002455 
2233.568928  	-0.002802 
2235.497744  	-0.002700 
2237.426560  	-0.003202 
2239.355376  	-0.002747 
2241.284192  	-0.002594 
2243.213008  	-0.002667 
2245.141824  	-0.002715 
2247.070640  	-0.002312 
2248.999456  	-0.002658 
2250.928272  	-0.002930 
2252.857088  	-0.003297 
2254.785904  	-0.003729 
2256.714720  	-0.004166 
2258.643536  	-0.003822 
2260.572352  	-0.003745 
2262.501168  	-0.003554 
2264.429984  	-0.003874 
2266.358800  	-0.003807 
2268.287616  	-0.003796 
2270.216432  	-0.003471 
2272.145248  	-0.003339 
2274.074064  	-0.003541 
2276.002880  	-0.003599 
2277.931696  	-0.003145 
2279.860512  	-0.002956 
2281.789328  	-0.002475 
2283.718144  	-0.002534 
2285.646960  	-0.002624 
2287.575776  	-0.002822 
2289.504592  	-0.002774 
2291.433408  	-0.003120 
2293.362224  	-0.003336 
2295.291040  	-0.003159 
2297.219856  	-0.002622 
2299.148672  	-0.002524 
2301.077488  	-0.002379 
2303.006304  	-0.002381 
2304.935120  	-0.002245 
2306.863936  	-0.002364 
2308.792752  	-0.002632 
2310.721568  	-0.003285 
2312.650384  	-0.004148 
2314.579200  	-0.005496 
2316.508016  	-0.006909 
2318.436832  	-0.008331 
2320.365648  	-0.010359 
2322.294464  	-0.012708 
2324.223280  	-0.015072 
2326.152096  	-0.017774 
2328.080912  	-0.019900 
2330.009728  	-0.022389 
2331.938544  	-0.025121 
2333.867360  	-0.027386 
2335.796176  	-0.028763 
2337.724992  	-0.029962 
2339.653808  	-0.030166 
2341.582624  	-0.030332 
2343.511440  	-0.028853 
2345.440256  	-0.025394 
2347.369072  	-0.018522 
2349.297888  	-0.013952 
2351.226704  	-0.017256 
2353.155520  	-0.025187 
2355.084336  	-0.031951 
2357.013152  	-0.037232 
2358.941968  	-0.039868 
2360.870784  	-0.041101 
2362.799600  	-0.039932 
2364.728416  	-0.037705 
2366.657232  	-0.033801 
2368.586048  	-0.028671 
2370.514864  	-0.023529 
2372.443680  	-0.018837 
2374.372496  	-0.014175 
2376.301312  	-0.009987 
2378.230128  	-0.006537 
2380.158944  	-0.004466 
2382.087760  	-0.003456 
2384.016576  	-0.003233 
2385.945392  	-0.003349 
2387.874208  	-0.003558 
2389.803024  	-0.003717 
2391.731840  	-0.004032 
2393.660656  	-0.003968 
2395.589472  	-0.003794 
2397.518288  	-0.003683 
2399.447104  	-0.003935 
2401.375920  	-0.004078 
2403.304736  	-0.004209 
2405.233552  	-0.004040 
2407.162368  	-0.003874 
2409.091184  	-0.003776 
2411.020000  	-0.003858 
2412.948816  	-0.003967 
2414.877632  	-0.004100 
2416.806448  	-0.003910 
2418.735264  	-0.003940 
2420.664080  	-0.003995 
2422.592896  	-0.003988 
2424.521712  	-0.003926 
2426.450528  	-0.004196 
2428.379344  	-0.004099 
2430.308160  	-0.003712 
2432.236976  	-0.003516 
2434.165792  	-0.003696 
2436.094608  	-0.003667 
2438.023424  	-0.003454 
2439.952240  	-0.003215 
2441.881056  	-0.003237 
2443.809872  	-0.003439 
2445.738688  	-0.003408 
2447.667504  	-0.003017 
2449.596320  	-0.002999 
2451.525136  	-0.003023 
2453.453952  	-0.003192 
2455.382768  	-0.003221 
2457.311584  	-0.003312 
2459.240400  	-0.003448 
2461.169216  	-0.003360 
2463.098032  	-0.003373 
2465.026848  	-0.003507 
2466.955664  	-0.003390 
2468.884480  	-0.003648 
2470.813296  	-0.003742 
2472.742112  	-0.003598 
2474.670928  	-0.003492 
2476.599744  	-0.003513 
2478.528560  	-0.003313 
2480.457376  	-0.003367 
2482.386192  	-0.003441 
2484.315008  	-0.003324 
2486.243824  	-0.003287 
2488.172640  	-0.003236 
2490.101456  	-0.003042 
2492.030272  	-0.002843 
2493.959088  	-0.002841 
2495.887904  	-0.002893 
2497.816720  	-0.002539 
2499.745536  	-0.002426 
2501.674352  	-0.002504 
2503.603168  	-0.002497 
2505.531984  	-0.002499 
2507.460800  	-0.002553 
2509.389616  	-0.002310 
2511.318432  	-0.002237 
2513.247248  	-0.002010 
2515.176064  	-0.001976 
2517.104880  	-0.002217 
2519.033696  	-0.002573 
2520.962512  	-0.002452 
2522.891328  	-0.001971 
2524.820144  	-0.001974 
2526.748960  	-0.002200 
2528.677776  	-0.001976 
2530.606592  	-0.002017 
2532.535408  	-0.002039 
2534.464224  	-0.001975 
2536.393040  	-0.001884 
2538.321856  	-0.001697 
2540.250672  	-0.001576 
2542.179488  	-0.001700 
2544.108304  	-0.001703 
2546.037120  	-0.001590 
2547.965936  	-0.001403 
2549.894752  	-0.001341 
2551.823568  	-0.001284 
2553.752384  	-0.001001 
2555.681200  	-0.000561 
2557.610016  	-0.000674 
2559.538832  	-0.000741 
2561.467648  	-0.000525 
2563.396464  	-0.000372 
2565.325280  	-0.000347 
2567.254096  	-0.000333 
2569.182912  	-0.000313 
2571.111728  	-0.000161 
2573.040544  	-0.000073 
2574.969360  	0.000116 
2576.898176  	0.000376 
2578.826992  	0.000238 
2580.755808  	0.000169 
2582.684624  	0.000448 
2584.613440  	0.000540 
2586.542256  	0.000647 
2588.471072  	0.000642 
2590.399888  	0.000709 
2592.328704  	0.000918 
2594.257520  	0.001046 
2596.186336  	0.001079 
2598.115152  	0.001109 
2600.043968  	0.001106 
2601.972784  	0.001282 
2603.901600  	0.001335 
2605.830416  	0.001516 
2607.759232  	0.001733 
2609.688048  	0.001982 
2611.616864  	0.002258 
2613.545680  	0.002469 
2615.474496  	0.002546 
2617.403312  	0.002709 
2619.332128  	0.002949 
2621.260944  	0.003088 
2623.189760  	0.003109 
2625.118576  	0.003172 
2627.047392  	0.003210 
2628.976208  	0.003395 
2630.905024  	0.003531 
2632.833840  	0.003716 
2634.762656  	0.003883 
2636.691472  	0.003926 
2638.620288  	0.004045 
2640.549104  	0.004266 
2642.477920  	0.004402 
2644.406736  	0.004647 
2646.335552  	0.004874 
2648.264368  	0.005059 
2650.193184  	0.005142 
2652.122000  	0.005334 
2654.050816  	0.005582 
2655.979632  	0.005769 
2657.908448  	0.005916 
2659.837264  	0.006118 
2661.766080  	0.006295 
2663.694896  	0.006524 
2665.623712  	0.006693 
2667.552528  	0.007000 
2669.481344  	0.007247 
2671.410160  	0.007372 
2673.338976  	0.007464 
2675.267792  	0.007591 
2677.196608  	0.007754 
2679.125424  	0.007934 
2681.054240  	0.008145 
2682.983056  	0.008452 
2684.911872  	0.008547 
2686.840688  	0.008652 
2688.769504  	0.008763 
2690.698320  	0.008869 
2692.627136  	0.008904 
2694.555952  	0.009019 
2696.484768  	0.009199 
2698.413584  	0.009374 
2700.342400  	0.009488 
2702.271216  	0.009718 
2704.200032  	0.009947 
2706.128848  	0.010053 
2708.057664  	0.010189 
2709.986480  	0.010358 
2711.915296  	0.010515 
2713.844112  	0.010817 
2715.772928  	0.011027 
2717.701744  	0.011222 
2719.630560  	0.011543 
2721.559376  	0.011825 
2723.488192  	0.012095 
2725.417008  	0.012346 
2727.345824  	0.012593 
2729.274640  	0.012796 
2731.203456  	0.012988 
2733.132272  	0.013324 
2735.061088  	0.013598 
2736.989904  	0.013814 
2738.918720  	0.014038 
2740.847536  	0.014256 
2742.776352  	0.014367 
2744.705168  	0.014550 
2746.633984  	0.014724 
2748.562800  	0.014904 
2750.491616  	0.015066 
2752.420432  	0.015236 
2754.349248  	0.015242 
2756.278064  	0.015176 
2758.206880  	0.015101 
2760.135696  	0.015040 
2762.064512  	0.015127 
2763.993328  	0.015303 
2765.922144  	0.015303 
2767.850960  	0.015296 
2769.779776  	0.015337 
2771.708592  	0.015440 
2773.637408  	0.015435 
2775.566224  	0.015423 
2777.495040  	0.015477 
2779.423856  	0.015651 
2781.352672  	0.015700 
2783.281488  	0.015682 
2785.210304  	0.015738 
2787.139120  	0.015938 
2789.067936  	0.016077 
2790.996752  	0.016167 
2792.925568  	0.016148 
2794.854384  	0.016204 
2796.783200  	0.016237 
2798.712016  	0.016297 
2800.640832  	0.016413 
2802.569648  	0.016604 
2804.498464  	0.016710 
2806.427280  	0.016742 
2808.356096  	0.016770 
2810.284912  	0.016867 
2812.213728  	0.016954 
2814.142544  	0.017078 
2816.071360  	0.017314 
2818.000176  	0.017382 
2819.928992  	0.017424 
2821.857808  	0.017480 
2823.786624  	0.017581 
2825.715440  	0.017760 
2827.644256  	0.017803 
2829.573072  	0.017886 
2831.501888  	0.017938 
2833.430704  	0.018034 
2835.359520  	0.018225 
2837.288336  	0.018470 
2839.217152  	0.018725 
2841.145968  	0.019016 
2843.074784  	0.019335 
2845.003600  	0.019781 
2846.932416  	0.020315 
2848.861232  	0.020973 
2850.790048  	0.021652 
2852.718864  	0.022271 
2854.647680  	0.022957 
2856.576496  	0.023680 
2858.505312  	0.024529 
2860.434128  	0.025609 
2862.362944  	0.026695 
2864.291760  	0.027713 
2866.220576  	0.028827 
2868.149392  	0.029931 
2870.078208  	0.030811 
2872.007024  	0.031726 
2873.935840  	0.032653 
2875.864656  	0.033772 
2877.793472  	0.035270 
2879.722288  	0.036973 
2881.651104  	0.038794 
2883.579920  	0.040423 
2885.508736  	0.041397 
2887.437552  	0.041704 
2889.366368  	0.042030 
2891.295184  	0.042707 
2893.224000  	0.043272 
2895.152816  	0.043498 
2897.081632  	0.044061 
2899.010448  	0.046197 
2900.939264  	0.048054 
2902.868080  	0.046892 
2904.796896  	0.045723 
2906.725712  	0.045611 
2908.654528  	0.045885 
2910.583344  	0.046521 
2912.512160  	0.046489 
2914.440976  	0.046219 
2916.369792  	0.046191 
2918.298608  	0.046590 
2920.227424  	0.047279 
2922.156240  	0.047837 
2924.085056  	0.048173 
2926.013872  	0.048625 
2927.942688  	0.049229 
2929.871504  	0.049749 
2931.800320  	0.050210 
2933.729136  	0.050952 
2935.657952  	0.051824 
2937.586768  	0.052611 
2939.515584  	0.053520 
2941.444400  	0.054573 
2943.373216  	0.055487 
2945.302032  	0.056104 
2947.230848  	0.056381 
2949.159664  	0.056904 
2951.088480  	0.057887 
2953.017296  	0.058813 
2954.946112  	0.059548 
2956.874928  	0.060371 
2958.803744  	0.060996 
2960.732560  	0.061493 
2962.661376  	0.062068 
2964.590192  	0.062958 
2966.519008  	0.064134 
2968.447824  	0.065114 
2970.376640  	0.065617 
2972.305456  	0.065654 
2974.234272  	0.065237 
2976.163088  	0.064952 
2978.091904  	0.064515 
2980.020720  	0.064267 
2981.949536  	0.064124 
2983.878352  	0.064435 
2985.807168  	0.065275 
2987.735984  	0.066219 
2989.664800  	0.065531 
2991.593616  	0.061950 
2993.522432  	0.060057 
2995.451248  	0.059712 
2997.380064  	0.059039 
2999.308880  	0.058044 
3001.237696  	0.056902 
3003.166512  	0.055943 
3005.095328  	0.055022 
3007.024144  	0.053922 
3008.952960  	0.052685 
3010.881776  	0.051708 
3012.810592  	0.050810 
3014.739408  	0.049931 
3016.668224  	0.049111 
3018.597040  	0.048416 
3020.525856  	0.047789 
3022.454672  	0.047244 
3024.383488  	0.046779 
3026.312304  	0.046412 
3028.241120  	0.046349 
3030.169936  	0.046295 
3032.098752  	0.045993 
3034.027568  	0.045913 
3035.956384  	0.046017 
3037.885200  	0.046288 
3039.814016  	0.046488 
3041.742832  	0.046715 
3043.671648  	0.046968 
3045.600464  	0.047402 
3047.529280  	0.047779 
3049.458096  	0.048293 
3051.386912  	0.049077 
3053.315728  	0.049709 
3055.244544  	0.050318 
3057.173360  	0.051044 
3059.102176  	0.051750 
3061.030992  	0.052585 
3062.959808  	0.053590 
3064.888624  	0.054461 
3066.817440  	0.055339 
3068.746256  	0.056520 
3070.675072  	0.057678 
3072.603888  	0.058518 
3074.532704  	0.059511 
3076.461520  	0.060679 
3078.390336  	0.061754 
3080.319152  	0.062781 
3082.247968  	0.063877 
3084.176784  	0.064798 
3086.105600  	0.065752 
3088.034416  	0.066747 
3089.963232  	0.067900 
3091.892048  	0.068988 
3093.820864  	0.069954 
3095.749680  	0.071075 
3097.678496  	0.072288 
3099.607312  	0.073361 
3101.536128  	0.074458 
3103.464944  	0.075671 
3105.393760  	0.076643 
3107.322576  	0.077497 
3109.251392  	0.078461 
3111.180208  	0.079505 
3113.109024  	0.080605 
3115.037840  	0.081414 
3116.966656  	0.082254 
3118.895472  	0.083147 
3120.824288  	0.083941 
3122.753104  	0.084665 
3124.681920  	0.085507 
3126.610736  	0.086322 
3128.539552  	0.087113 
3130.468368  	0.088040 
3132.397184  	0.088768 
3134.326000  	0.089482 
3136.254816  	0.090262 
3138.183632  	0.091192 
3140.112448  	0.092076 
3142.041264  	0.092733 
3143.970080  	0.093310 
3145.898896  	0.094133 
3147.827712  	0.095071 
3149.756528  	0.095800 
3151.685344  	0.096498 
3153.614160  	0.097412 
3155.542976  	0.098405 
3157.471792  	0.099359 
3159.400608  	0.100243 
3161.329424  	0.100905 
3163.258240  	0.101350 
3165.187056  	0.101899 
3167.115872  	0.102536 
3169.044688  	0.103138 
3170.973504  	0.103715 
3172.902320  	0.104262 
3174.831136  	0.104881 
3176.759952  	0.105391 
3178.688768  	0.105810 
3180.617584  	0.106129 
3182.546400  	0.106427 
3184.475216  	0.106877 
3186.404032  	0.106848 
3188.332848  	0.106893 
3190.261664  	0.107350 
3192.190480  	0.107639 
3194.119296  	0.107599 
3196.048112  	0.107675 
3197.976928  	0.107597 
3199.905744  	0.107655 
3201.834560  	0.107564 
3203.763376  	0.107353 
3205.692192  	0.107227 
3207.621008  	0.107087 
3209.549824  	0.106997 
3211.478640  	0.106922 
3213.407456  	0.106783 
3215.336272  	0.106570 
3217.265088  	0.106519 
3219.193904  	0.106276 
3221.122720  	0.105845 
3223.051536  	0.105594 
3224.980352  	0.105481 
3226.909168  	0.105350 
3228.837984  	0.104956 
3230.766800  	0.104695 
3232.695616  	0.104668 
3234.624432  	0.104677 
3236.553248  	0.104630 
3238.482064  	0.104505 
3240.410880  	0.104528 
3242.339696  	0.104676 
3244.268512  	0.104471 
3246.197328  	0.104516 
3248.126144  	0.104848 
3250.054960  	0.105154 
3251.983776  	0.105481 
3253.912592  	0.105617 
3255.841408  	0.105670 
3257.770224  	0.106107 
3259.699040  	0.106471 
3261.627856  	0.106720 
3263.556672  	0.107071 
3265.485488  	0.107191 
3267.414304  	0.107356 
3269.343120  	0.107820 
3271.271936  	0.108116 
3273.200752  	0.108122 
3275.129568  	0.108182 
3277.058384  	0.108544 
3278.987200  	0.108865 
3280.916016  	0.109040 
3282.844832  	0.109201 
3284.773648  	0.109327 
3286.702464  	0.109386 
3288.631280  	0.109649 
3290.560096  	0.110239 
3292.488912  	0.110818 
3294.417728  	0.110985 
3296.346544  	0.111193 
3298.275360  	0.111580 
3300.204176  	0.112097 
3302.132992  	0.112548 
3304.061808  	0.112801 
3305.990624  	0.113113 
3307.919440  	0.113549 
3309.848256  	0.113795 
3311.777072  	0.114095 
3313.705888  	0.114450 
3315.634704  	0.114967 
3317.563520  	0.115246 
3319.492336  	0.115416 
3321.421152  	0.115811 
3323.349968  	0.116225 
3325.278784  	0.116439 
3327.207600  	0.116595 
3329.136416  	0.116414 
3331.065232  	0.116526 
3332.994048  	0.116840 
3334.922864  	0.116842 
3336.851680  	0.116676 
3338.780496  	0.116457 
3340.709312  	0.116132 
3342.638128  	0.115810 
3344.566944  	0.115387 
3346.495760  	0.115137 
3348.424576  	0.114828 
3350.353392  	0.114453 
3352.282208  	0.114040 
3354.211024  	0.113663 
3356.139840  	0.113327 
3358.068656  	0.112878 
3359.997472  	0.112329 
3361.926288  	0.111719 
3363.855104  	0.111102 
3365.783920  	0.110516 
3367.712736  	0.110201 
3369.641552  	0.109891 
3371.570368  	0.109418 
3373.499184  	0.109072 
3375.428000  	0.108609 
3377.356816  	0.108113 
3379.285632  	0.107835 
3381.214448  	0.107423 
3383.143264  	0.107085 
3385.072080  	0.106603 
3387.000896  	0.105952 
3388.929712  	0.105465 
3390.858528  	0.105031 
3392.787344  	0.104464 
3394.716160  	0.103885 
3396.644976  	0.103555 
3398.573792  	0.103025 
3400.502608  	0.102559 
3402.431424  	0.101936 
3404.360240  	0.100996 
3406.289056  	0.100135 
3408.217872  	0.099649 
3410.146688  	0.099214 
3412.075504  	0.098754 
3414.004320  	0.098086 
3415.933136  	0.097431 
3417.861952  	0.096713 
3419.790768  	0.096083 
3421.719584  	0.095376 
3423.648400  	0.094767 
3425.577216  	0.093871 
3427.506032  	0.092991 
3429.434848  	0.092267 
3431.363664  	0.091681 
3433.292480  	0.091055 
3435.221296  	0.090247 
3437.150112  	0.089579 
3439.078928  	0.089081 
3441.007744  	0.088340 
3442.936560  	0.087628 
3444.865376  	0.087263 
3446.794192  	0.086422 
3448.723008  	0.085112 
3450.651824  	0.084301 
3452.580640  	0.083598 
3454.509456  	0.082880 
3456.438272  	0.082047 
3458.367088  	0.081163 
3460.295904  	0.080392 
3462.224720  	0.079359 
3464.153536  	0.078326 
3466.082352  	0.077498 
3468.011168  	0.076418 
3469.939984  	0.075346 
3471.868800  	0.074428 
3473.797616  	0.073470 
3475.726432  	0.072416 
3477.655248  	0.071571 
3479.584064  	0.071083 
3481.512880  	0.070169 
3483.441696  	0.068720 
3485.370512  	0.067890 
3487.299328  	0.066822 
3489.228144  	0.065666 
3491.156960  	0.064680 
3493.085776  	0.063742 
3495.014592  	0.062801 
3496.943408  	0.061819 
3498.872224  	0.061258 
3500.801040  	0.061382 
3502.729856  	0.060431 
3504.658672  	0.058540 
3506.587488  	0.057726 
3508.516304  	0.057327 
3510.445120  	0.056240 
3512.373936  	0.054866 
3514.302752  	0.054000 
3516.231568  	0.053607 
3518.160384  	0.052974 
3520.089200  	0.052381 
3522.018016  	0.052348 
3523.946832  	0.052270 
3525.875648  	0.050914 
3527.804464  	0.048878 
3529.733280  	0.047550 
3531.662096  	0.046814 
3533.590912  	0.046209 
3535.519728  	0.046018 
3537.448544  	0.045239 
3539.377360  	0.043940 
3541.306176  	0.043349 
3543.234992  	0.043669 
3545.163808  	0.044245 
3547.092624  	0.042671 
3549.021440  	0.040507 
3550.950256  	0.039632 
3552.879072  	0.038481 
3554.807888  	0.037645 
3556.736704  	0.036900 
3558.665520  	0.036714 
3560.594336  	0.036388 
3562.523152  	0.035494 
3564.451968  	0.035905 
3566.380784  	0.036395 
3568.309600  	0.033449 
3570.238416  	0.031437 
3572.167232  	0.030581 
3574.096048  	0.029501 
3576.024864  	0.028332 
3577.953680  	0.027897 
3579.882496  	0.027314 
3581.811312  	0.026397 
3583.740128  	0.026106 
3585.668944  	0.026507 
3587.597760  	0.024618 
3589.526576  	0.022055 
3591.455392  	0.021562 
3593.384208  	0.021396 
3595.313024  	0.020107 
3597.241840  	0.018396 
3599.170656  	0.016676 
3601.099472  	0.015342 
3603.028288  	0.015232 
3604.957104  	0.015571 
3606.885920  	0.015267 
3608.814736  	0.013519 
3610.743552  	0.013047 
3612.672368  	0.012030 
3614.601184  	0.010269 
3616.530000  	0.010156 
3618.458816  	0.007756 
3620.387632  	0.005313 
3622.316448  	0.005994 
3624.245264  	0.006605 
3626.174080  	0.006807 
3628.102896  	0.003667 
3630.031712  	-0.001023 
3631.960528  	0.001834 
3633.889344  	0.002376 
3635.818160  	0.001675 
3637.746976  	0.001159 
3639.675792  	0.001281 
3641.604608  	0.001937 
3643.533424  	0.002345 
3645.462240  	0.002637 
3647.391056  	-0.000157 
3649.319872  	-0.005671 
3651.248688  	-0.007202 
3653.177504  	-0.002667 
3655.106320  	-0.001314 
3657.035136  	-0.003419 
3658.963952  	-0.002352 
3660.892768  	-0.001780 
3662.821584  	-0.002068 
3664.750400  	-0.002272 
3666.679216  	-0.002037 
3668.608032  	-0.003971 
3670.536848  	-0.008782 
3672.465664  	-0.006480 
3674.394480  	-0.006192 
3676.323296  	-0.012211 
3678.252112  	-0.010266 
3680.180928  	-0.009322 
3682.109744  	-0.008020 
3684.038560  	-0.007314 
3685.967376  	-0.007266 
3687.896192  	-0.010839 
3689.825008  	-0.015498 
3691.753824  	-0.014720 
3693.682640  	-0.012433 
3695.611456  	-0.011859 
3697.540272  	-0.012036 
3699.469088  	-0.012162 
3701.397904  	-0.014786 
3703.326720  	-0.016307 
3705.255536  	-0.015041 
3707.184352  	-0.014939 
3709.113168  	-0.017163 
3711.041984  	-0.020703 
3712.970800  	-0.020517 
3714.899616  	-0.016823 
3716.828432  	-0.015702 
3718.757248  	-0.016462 
3720.686064  	-0.016979 
3722.614880  	-0.017693 
3724.543696  	-0.017029 
3726.472512  	-0.017620 
3728.401328  	-0.017798 
3730.330144  	-0.017922 
3732.258960  	-0.020134 
3734.187776  	-0.019270 
3736.116592  	-0.020728 
3738.045408  	-0.020839 
3739.974224  	-0.017973 
3741.903040  	-0.015904 
3743.831856  	-0.018749 
3745.760672  	-0.022518 
3747.689488  	-0.019409 
3749.618304  	-0.022358 
3751.547120  	-0.025359 
3753.475936  	-0.022451 
3755.404752  	-0.018486 
3757.333568  	-0.017728 
3759.262384  	-0.019015 
3761.191200  	-0.019193 
3763.120016  	-0.016559 
3765.048832  	-0.017156 
3766.977648  	-0.017736 
3768.906464  	-0.018496 
3770.835280  	-0.019854 
3772.764096  	-0.017876 
3774.692912  	-0.016605 
3776.621728  	-0.016327 
3778.550544  	-0.017823 
3780.479360  	-0.019297 
3782.408176  	-0.017275 
3784.336992  	-0.017447 
3786.265808  	-0.017544 
3788.194624  	-0.016871 
3790.123440  	-0.016864 
3792.052256  	-0.016744 
3793.981072  	-0.016436 
3795.909888  	-0.018279 
3797.838704  	-0.018640 
3799.767520  	-0.018370 
3801.696336  	-0.023571 
3803.625152  	-0.021347 
3805.553968  	-0.019072 
3807.482784  	-0.021582 
3809.411600  	-0.018885 
3811.340416  	-0.016701 
3813.269232  	-0.016173 
3815.198048  	-0.019279 
3817.126864  	-0.021720 
3819.055680  	-0.019335 
3820.984496  	-0.023435 
3822.913312  	-0.022498 
3824.842128  	-0.018380 
3826.770944  	-0.018730 
3828.699760  	-0.018045 
3830.628576  	-0.018056 
3832.557392  	-0.019147 
3834.486208  	-0.018770 
3836.415024  	-0.019986 
3838.343840  	-0.022220 
3840.272656  	-0.021242 
3842.201472  	-0.019143 
3844.130288  	-0.018839 
3846.059104  	-0.017609 
3847.987920  	-0.016060 
3849.916736  	-0.015505 
3851.845552  	-0.017972 
3853.774368  	-0.025966 
3855.703184  	-0.022940 
3857.632000  	-0.018416 
3859.560816  	-0.016391 
3861.489632  	-0.016307 
3863.418448  	-0.017573 
3865.347264  	-0.018522 
3867.276080  	-0.016425 
3869.204896  	-0.017386 
3871.133712  	-0.018923 
3873.062528  	-0.017509 
3874.991344  	-0.018514 
3876.920160  	-0.016422 
3878.848976  	-0.015238 
3880.777792  	-0.016786 
3882.706608  	-0.016077 
3884.635424  	-0.015917 
3886.564240  	-0.018327 
3888.493056  	-0.016805 
3890.421872  	-0.016926 
3892.350688  	-0.018488 
3894.279504  	-0.016889 
3896.208320  	-0.015377 
3898.137136  	-0.015131 
3900.065952  	-0.015826 
3901.994768  	-0.015892 
3903.923584  	-0.017277 
3905.852400  	-0.018190 
3907.781216  	-0.017471 
3909.710032  	-0.016966 
3911.638848  	-0.016719 
3913.567664  	-0.015993 
3915.496480  	-0.015085 
3917.425296  	-0.015801 
3919.354112  	-0.016549 
3921.282928  	-0.016217 
3923.211744  	-0.015402 
3925.140560  	-0.015789 
3927.069376  	-0.016174 
3928.998192  	-0.015867 
3930.927008  	-0.015336 
3932.855824  	-0.015488 
3934.784640  	-0.016148 
3936.713456  	-0.016354 
3938.642272  	-0.016242 
3940.571088  	-0.015572 
3942.499904  	-0.015379 
3944.428720  	-0.015881 
3946.357536  	-0.015351 
3948.286352  	-0.015044 
3950.215168  	-0.015949 
3952.143984  	-0.016821 
3954.072800  	-0.016896 
3956.001616  	-0.016503 
3957.930432  	-0.016430 
3959.859248  	-0.016260 
3961.788064  	-0.016181 
3963.716880  	-0.016609 
3965.645696  	-0.016941 
3967.574512  	-0.016680 
3969.503328  	-0.016345 
3971.432144  	-0.016441 
3973.360960  	-0.016372 
3975.289776  	-0.016111 
3977.218592  	-0.016116 
3979.147408  	-0.016335 
3981.076224  	-0.016515 
3983.005040  	-0.016565 
3984.933856  	-0.016445 
3986.862672  	-0.016533 
3988.791488  	-0.016320 
3990.720304  	-0.015963 
3992.649120  	-0.016070 
3994.577936  	-0.016292 
3996.506752  	-0.016469 
3998.435568  	-0.016676 
4000.364384  	-0.016755 