##TITLE=No Description
##DATA TYPE=INFRARED SPECTRUM
##XUNITS=1/CM
##YUNITS=Abs
399.264912  	0.658857 
401.193728  	0.632592 
403.122544  	0.626639 
405.051360  	0.613937 
406.980176  	0.611664 
408.908992  	0.598781 
410.837808  	0.597439 
412.766624  	0.597501 
414.695440  	0.599990 
416.624256  	0.599390 
418.553072  	0.625442 
420.481888  	0.620998 
422.410704  	0.610434 
424.339520  	0.597266 
426.268336  	0.586806 
428.197152  	0.582641 
430.125968  	0.588406 
432.054784  	0.576642 
433.983600  	0.574637 
435.912416  	0.571464 
437.841232  	0.570320 
439.770048  	0.560178 
441.698864  	0.559471 
443.627680  	0.562445 
445.556496  	0.565200 
447.485312  	0.555645 
449.414128  	0.550972 
451.342944  	0.551546 
453.271760  	0.553548 
455.200576  	0.549953 
457.129392  	0.556209 
459.058208  	0.551051 
460.987024  	0.551617 
462.915840  	0.551045 
464.844656  	0.555669 
466.773472  	0.558206 
468.702288  	0.556785 
470.631104  	0.552269 
472.559920  	0.551679 
474.488736  	0.546167 
476.417552  	0.545904 
478.346368  	0.544146 
480.275184  	0.543723 
482.204000  	0.542286 
484.132816  	0.542339 
486.061632  	0.535556 
487.990448  	0.535571 
489.919264  	0.534565 
491.848080  	0.537282 
493.776896  	0.535968 
495.705712  	0.534352 
497.634528  	0.527890 
499.563344  	0.528874 
501.492160  	0.530374 
503.420976  	0.529505 
505.349792  	0.523368 
507.278608  	0.523492 
509.207424  	0.524887 
511.136240  	0.525305 
513.065056  	0.526556 
514.993872  	0.532852 
516.922688  	0.535772 
518.851504  	0.538178 
520.780320  	0.534295 
522.709136  	0.531380 
524.637952  	0.529681 
526.566768  	0.529380 
528.495584  	0.526667 
530.424400  	0.527014 
532.353216  	0.523301 
534.282032  	0.516953 
536.210848  	0.509153 
538.139664  	0.503090 
540.068480  	0.497142 
541.997296  	0.493895 
543.926112  	0.490392 
545.854928  	0.487396 
547.783744  	0.483037 
549.712560  	0.479377 
551.641376  	0.475627 
553.570192  	0.473051 
555.499008  	0.468663 
557.427824  	0.465479 
559.356640  	0.461108 
561.285456  	0.458212 
563.214272  	0.455775 
565.143088  	0.453160 
567.071904  	0.448560 
569.000720  	0.444167 
570.929536  	0.441215 
572.858352  	0.439077 
574.787168  	0.435811 
576.715984  	0.433402 
578.644800  	0.430214 
580.573616  	0.426762 
582.502432  	0.421025 
584.431248  	0.417474 
586.360064  	0.413655 
588.288880  	0.410967 
590.217696  	0.408885 
592.146512  	0.407060 
594.075328  	0.403600 
596.004144  	0.401608 
597.932960  	0.399967 
599.861776  	0.398644 
601.790592  	0.396127 
603.719408  	0.394944 
605.648224  	0.393571 
607.577040  	0.392308 
609.505856  	0.390521 
611.434672  	0.388668 
613.363488  	0.386666 
615.292304  	0.386124 
617.221120  	0.384487 
619.149936  	0.382773 
621.078752  	0.381153 
623.007568  	0.380094 
624.936384  	0.378234 
626.865200  	0.376550 
628.794016  	0.375290 
630.722832  	0.375249 
632.651648  	0.375153 
634.580464  	0.375275 
636.509280  	0.374869 
638.438096  	0.374761 
640.366912  	0.373562 
642.295728  	0.371252 
644.224544  	0.368049 
646.153360  	0.364578 
648.082176  	0.359854 
650.010992  	0.355708 
651.939808  	0.351867 
653.868624  	0.347905 
655.797440  	0.344130 
657.726256  	0.340125 
659.655072  	0.336245 
661.583888  	0.332694 
663.512704  	0.328555 
665.441520  	0.325294 
667.370336  	0.316889 
669.299152  	0.309606 
671.227968  	0.310299 
673.156784  	0.307513 
675.085600  	0.304181 
677.014416  	0.301535 
678.943232  	0.299225 
680.872048  	0.297627 
682.800864  	0.295894 
684.729680  	0.294073 
686.658496  	0.292492 
688.587312  	0.291780 
690.516128  	0.290550 
692.444944  	0.289684 
694.373760  	0.288719 
696.302576  	0.286684 
698.231392  	0.284286 
700.160208  	0.281948 
702.089024  	0.279694 
704.017840  	0.277324 
705.946656  	0.274763 
707.875472  	0.272794 
709.804288  	0.270716 
711.733104  	0.268691 
713.661920  	0.266462 
715.590736  	0.264866 
717.519552  	0.264288 
719.448368  	0.264816 
721.377184  	0.265228 
723.306000  	0.265506 
725.234816  	0.265686 
727.163632  	0.264827 
729.092448  	0.262604 
731.021264  	0.259290 
732.950080  	0.255630 
734.878896  	0.252472 
736.807712  	0.249554 
738.736528  	0.247050 
740.665344  	0.245056 
742.594160  	0.243021 
744.522976  	0.241114 
746.451792  	0.239406 
748.380608  	0.237755 
750.309424  	0.236434 
752.238240  	0.235676 
754.167056  	0.234850 
756.095872  	0.232986 
758.024688  	0.231624 
759.953504  	0.231501 
761.882320  	0.232471 
763.811136  	0.233029 
765.739952  	0.232118 
767.668768  	0.229208 
769.597584  	0.226129 
771.526400  	0.224724 
773.455216  	0.225889 
775.384032  	0.229497 
777.312848  	0.234756 
779.241664  	0.239254 
781.170480  	0.239062 
783.099296  	0.234580 
785.028112  	0.228472 
786.956928  	0.222471 
788.885744  	0.217443 
790.814560  	0.213664 
792.743376  	0.211030 
794.672192  	0.209866 
796.601008  	0.208907 
798.529824  	0.205895 
800.458640  	0.201385 
802.387456  	0.197411 
804.316272  	0.195238 
806.245088  	0.194044 
808.173904  	0.193088 
810.102720  	0.192691 
812.031536  	0.192438 
813.960352  	0.192556 
815.889168  	0.192868 
817.817984  	0.193115 
819.746800  	0.193288 
821.675616  	0.193571 
823.604432  	0.193797 
825.533248  	0.193734 
827.462064  	0.193271 
829.390880  	0.192234 
831.319696  	0.190944 
833.248512  	0.189337 
835.177328  	0.187061 
837.106144  	0.184247 
839.034960  	0.180884 
840.963776  	0.177071 
842.892592  	0.172858 
844.821408  	0.169048 
846.750224  	0.166093 
848.679040  	0.163512 
850.607856  	0.161374 
852.536672  	0.160039 
854.465488  	0.158970 
856.394304  	0.158076 
858.323120  	0.157564 
860.251936  	0.156519 
862.180752  	0.155104 
864.109568  	0.153230 
866.038384  	0.151233 
867.967200  	0.149693 
869.896016  	0.148095 
871.824832  	0.146790 
873.753648  	0.146032 
875.682464  	0.146621 
877.611280  	0.148944 
879.540096  	0.151446 
881.468912  	0.152330 
883.397728  	0.153677 
885.326544  	0.154783 
887.255360  	0.155239 
889.184176  	0.155269 
891.112992  	0.154909 
893.041808  	0.152917 
894.970624  	0.149547 
896.899440  	0.145666 
898.828256  	0.140832 
900.757072  	0.135864 
902.685888  	0.131576 
904.614704  	0.128545 
906.543520  	0.127662 
908.472336  	0.128281 
910.401152  	0.129910 
912.329968  	0.131863 
914.258784  	0.134119 
916.187600  	0.136294 
918.116416  	0.138211 
920.045232  	0.139618 
921.974048  	0.140486 
923.902864  	0.140865 
925.831680  	0.140796 
927.760496  	0.141008 
929.689312  	0.141555 
931.618128  	0.142370 
933.546944  	0.142990 
935.475760  	0.143273 
937.404576  	0.143043 
939.333392  	0.142403 
941.262208  	0.142086 
943.191024  	0.143141 
945.119840  	0.146624 
947.048656  	0.152622 
948.977472  	0.160943 
950.906288  	0.171089 
952.835104  	0.182820 
954.763920  	0.195551 
956.692736  	0.208092 
958.621552  	0.219025 
960.550368  	0.226674 
962.479184  	0.230681 
964.408000  	0.230291 
966.336816  	0.225445 
968.265632  	0.216447 
970.194448  	0.204271 
972.123264  	0.190253 
974.052080  	0.175435 
975.980896  	0.161106 
977.909712  	0.147636 
979.838528  	0.135634 
981.767344  	0.125562 
983.696160  	0.117942 
985.624976  	0.113071 
987.553792  	0.111242 
989.482608  	0.112302 
991.411424  	0.115943 
993.340240  	0.121247 
995.269056  	0.127914 
997.197872  	0.135363 
999.126688  	0.143204 
1001.055504  	0.151175 
1002.984320  	0.159608 
1004.913136  	0.168089 
1006.841952  	0.176333 
1008.770768  	0.183841 
1010.699584  	0.190260 
1012.628400  	0.194847 
1014.557216  	0.197702 
1016.486032  	0.199481 
1018.414848  	0.200171 
1020.343664  	0.200201 
1022.272480  	0.200028 
1024.201296  	0.200636 
1026.130112  	0.203977 
1028.058928  	0.206388 
1029.987744  	0.205487 
1031.916560  	0.208497 
1033.845376  	0.214751 
1035.774192  	0.223636 
1037.703008  	0.233432 
1039.631824  	0.243367 
1041.560640  	0.256912 
1043.489456  	0.274407 
1045.418272  	0.294085 
1047.347088  	0.314238 
1049.275904  	0.331638 
1051.204720  	0.344388 
1053.133536  	0.350469 
1055.062352  	0.352852 
1056.991168  	0.353279 
1058.919984  	0.349765 
1060.848800  	0.344440 
1062.777616  	0.343780 
1064.706432  	0.346216 
1066.635248  	0.344866 
1068.564064  	0.334930 
1070.492880  	0.326401 
1072.421696  	0.320369 
1074.350512  	0.316507 
1076.279328  	0.314930 
1078.208144  	0.316662 
1080.136960  	0.319840 
1082.065776  	0.323257 
1083.994592  	0.323396 
1085.923408  	0.319408 
1087.852224  	0.311665 
1089.781040  	0.301629 
1091.709856  	0.288451 
1093.638672  	0.274916 
1095.567488  	0.260678 
1097.496304  	0.246121 
1099.425120  	0.231013 
1101.353936  	0.215854 
1103.282752  	0.200908 
1105.211568  	0.186545 
1107.140384  	0.172264 
1109.069200  	0.158799 
1110.998016  	0.146229 
1112.926832  	0.134963 
1114.855648  	0.124890 
1116.784464  	0.115535 
1118.713280  	0.106648 
1120.642096  	0.098356 
1122.570912  	0.090915 
1124.499728  	0.083804 
1126.428544  	0.077542 
1128.357360  	0.072100 
1130.286176  	0.067545 
1132.214992  	0.063755 
1134.143808  	0.060809 
1136.072624  	0.058349 
1138.001440  	0.056133 
1139.930256  	0.053510 
1141.859072  	0.051129 
1143.787888  	0.048703 
1145.716704  	0.046352 
1147.645520  	0.043996 
1149.574336  	0.042135 
1151.503152  	0.040603 
1153.431968  	0.039826 
1155.360784  	0.039854 
1157.289600  	0.040589 
1159.218416  	0.042034 
1161.147232  	0.044221 
1163.076048  	0.046468 
1165.004864  	0.048964 
1166.933680  	0.051214 
1168.862496  	0.053741 
1170.791312  	0.056216 
1172.720128  	0.059249 
1174.648944  	0.062343 
1176.577760  	0.065580 
1178.506576  	0.068666 
1180.435392  	0.071773 
1182.364208  	0.074907 
1184.293024  	0.078522 
1186.221840  	0.082416 
1188.150656  	0.086847 
1190.079472  	0.091836 
1192.008288  	0.097984 
1193.937104  	0.105321 
1195.865920  	0.113758 
1197.794736  	0.123052 
1199.723552  	0.133137 
1201.652368  	0.143116 
1203.581184  	0.153118 
1205.510000  	0.163296 
1207.438816  	0.173303 
1209.367632  	0.182650 
1211.296448  	0.190861 
1213.225264  	0.197963 
1215.154080  	0.203656 
1217.082896  	0.208224 
1219.011712  	0.211522 
1220.940528  	0.214242 
1222.869344  	0.216106 
1224.798160  	0.216974 
1226.726976  	0.216564 
1228.655792  	0.215675 
1230.584608  	0.213655 
1232.513424  	0.210469 
1234.442240  	0.205842 
1236.371056  	0.200360 
1238.299872  	0.194442 
1240.228688  	0.189771 
1242.157504  	0.183267 
1244.086320  	0.174316 
1246.015136  	0.166592 
1247.943952  	0.159851 
1249.872768  	0.152657 
1251.801584  	0.144513 
1253.730400  	0.136445 
1255.659216  	0.128463 
1257.588032  	0.120999 
1259.516848  	0.113640 
1261.445664  	0.106442 
1263.374480  	0.099702 
1265.303296  	0.093976 
1267.232112  	0.088881 
1269.160928  	0.084759 
1271.089744  	0.081494 
1273.018560  	0.079488 
1274.947376  	0.078501 
1276.876192  	0.078344 
1278.805008  	0.077879 
1280.733824  	0.076359 
1282.662640  	0.073903 
1284.591456  	0.071283 
1286.520272  	0.069036 
1288.449088  	0.067586 
1290.377904  	0.066590 
1292.306720  	0.066772 
1294.235536  	0.067069 
1296.164352  	0.066481 
1298.093168  	0.064032 
1300.021984  	0.060927 
1301.950800  	0.057784 
1303.879616  	0.054899 
1305.808432  	0.051408 
1307.737248  	0.047881 
1309.666064  	0.044552 
1311.594880  	0.042438 
1313.523696  	0.040677 
1315.452512  	0.039413 
1317.381328  	0.038761 
1319.310144  	0.038485 
1321.238960  	0.038320 
1323.167776  	0.038980 
1325.096592  	0.039767 
1327.025408  	0.040283 
1328.954224  	0.040143 
1330.883040  	0.039653 
1332.811856  	0.038757 
1334.740672  	0.038598 
1336.669488  	0.039345 
1338.598304  	0.040378 
1340.527120  	0.038673 
1342.455936  	0.036259 
1344.384752  	0.035744 
1346.313568  	0.036259 
1348.242384  	0.037062 
1350.171200  	0.038473 
1352.100016  	0.040466 
1354.028832  	0.042994 
1355.957648  	0.045345 
1357.886464  	0.048068 
1359.815280  	0.051384 
1361.744096  	0.055262 
1363.672912  	0.057135 
1365.601728  	0.058736 
1367.530544  	0.061611 
1369.459360  	0.063780 
1371.388176  	0.065324 
1373.316992  	0.066098 
1375.245808  	0.064086 
1377.174624  	0.062864 
1379.103440  	0.061231 
1381.032256  	0.058716 
1382.961072  	0.056432 
1384.889888  	0.055493 
1386.818704  	0.054044 
1388.747520  	0.050560 
1390.676336  	0.049684 
1392.605152  	0.052603 
1394.533968  	0.052818 
1396.462784  	0.048850 
1398.391600  	0.047764 
1400.320416  	0.047616 
1402.249232  	0.049802 
1404.178048  	0.052289 
1406.106864  	0.053147 
1408.035680  	0.054139 
1409.964496  	0.055548 
1411.893312  	0.056377 
1413.822128  	0.057052 
1415.750944  	0.059449 
1417.679760  	0.060972 
1419.608576  	0.057111 
1421.537392  	0.055668 
1423.466208  	0.055578 
1425.395024  	0.052833 
1427.323840  	0.051136 
1429.252656  	0.048068 
1431.181472  	0.045486 
1433.110288  	0.045567 
1435.039104  	0.046879 
1436.967920  	0.045785 
1438.896736  	0.046013 
1440.825552  	0.047645 
1442.754368  	0.048378 
1444.683184  	0.048782 
1446.612000  	0.049160 
1448.540816  	0.048843 
1450.469632  	0.049906 
1452.398448  	0.051122 
1454.327264  	0.052619 
1456.256080  	0.050784 
1458.184896  	0.044392 
1460.113712  	0.045483 
1462.042528  	0.047458 
1463.971344  	0.046879 
1465.900160  	0.046215 
1467.828976  	0.048955 
1469.757792  	0.052662 
1471.686608  	0.055671 
1473.615424  	0.060252 
1475.544240  	0.067083 
1477.473056  	0.072551 
1479.401872  	0.076801 
1481.330688  	0.080242 
1483.259504  	0.082346 
1485.188320  	0.084522 
1487.117136  	0.085061 
1489.045952  	0.084915 
1490.974768  	0.080783 
1492.903584  	0.078391 
1494.832400  	0.075481 
1496.761216  	0.067482 
1498.690032  	0.060395 
1500.618848  	0.056467 
1502.547664  	0.052901 
1504.476480  	0.048838 
1506.405296  	0.041976 
1508.334112  	0.039656 
1510.262928  	0.040024 
1512.191744  	0.037575 
1514.120560  	0.036683 
1516.049376  	0.036173 
1517.978192  	0.034156 
1519.907008  	0.035756 
1521.835824  	0.034923 
1523.764640  	0.039617 
1525.693456  	0.044989 
1527.622272  	0.046890 
1529.551088  	0.047534 
1531.479904  	0.047697 
1533.408720  	0.042399 
1535.337536  	0.038648 
1537.266352  	0.037640 
1539.195168  	0.028643 
1541.123984  	0.020049 
1543.052800  	0.024559 
1544.981616  	0.025896 
1546.910432  	0.025225 
1548.839248  	0.026276 
1550.768064  	0.026097 
1552.696880  	0.025664 
1554.625696  	0.025699 
1556.554512  	0.025835 
1558.483328  	0.021715 
1560.412144  	0.024248 
1562.340960  	0.033521 
1564.269776  	0.037924 
1566.198592  	0.043058 
1568.127408  	0.047347 
1570.056224  	0.051018 
1571.985040  	0.058726 
1573.913856  	0.064465 
1575.842672  	0.064276 
1577.771488  	0.066915 
1579.700304  	0.070530 
1581.629120  	0.070815 
1583.557936  	0.070318 
1585.486752  	0.071063 
1587.415568  	0.073268 
1589.344384  	0.077556 
1591.273200  	0.083422 
1593.202016  	0.090646 
1595.130832  	0.098351 
1597.059648  	0.106595 
1598.988464  	0.113978 
1600.917280  	0.120584 
1602.846096  	0.125039 
1604.774912  	0.128098 
1606.703728  	0.128889 
1608.632544  	0.127923 
1610.561360  	0.125751 
1612.490176  	0.124342 
1614.418992  	0.122451 
1616.347808  	0.117741 
1618.276624  	0.117782 
1620.205440  	0.124093 
1622.134256  	0.127069 
1624.063072  	0.130962 
1625.991888  	0.138482 
1627.920704  	0.146409 
1629.849520  	0.156403 
1631.778336  	0.167363 
1633.707152  	0.174795 
1635.635968  	0.179697 
1637.564784  	0.189695 
1639.493600  	0.200346 
1641.422416  	0.206888 
1643.351232  	0.212396 
1645.280048  	0.213437 
1647.208864  	0.210375 
1649.137680  	0.213127 
1651.066496  	0.217175 
1652.995312  	0.206869 
1654.924128  	0.204459 
1656.852944  	0.208969 
1658.781760  	0.208544 
1660.710576  	0.205347 
1662.639392  	0.198707 
1664.568208  	0.194194 
1666.497024  	0.193308 
1668.425840  	0.187093 
1670.354656  	0.177357 
1672.283472  	0.174489 
1674.212288  	0.171791 
1676.141104  	0.164806 
1678.069920  	0.165006 
1679.998736  	0.164914 
1681.927552  	0.163561 
1683.856368  	0.155830 
1685.785184  	0.153052 
1687.714000  	0.158029 
1689.642816  	0.157820 
1691.571632  	0.156122 
1693.500448  	0.156398 
1695.429264  	0.151718 
1697.358080  	0.148141 
1699.286896  	0.146985 
1701.215712  	0.140087 
1703.144528  	0.142188 
1705.073344  	0.138763 
1707.002160  	0.132633 
1708.930976  	0.129719 
1710.859792  	0.124476 
1712.788608  	0.118234 
1714.717424  	0.109547 
1716.646240  	0.097144 
1718.575056  	0.080889 
1720.503872  	0.073485 
1722.432688  	0.067225 
1724.361504  	0.057047 
1726.290320  	0.048582 
1728.219136  	0.042110 
1730.147952  	0.036413 
1732.076768  	0.031436 
1734.005584  	0.022641 
1735.934400  	0.016829 
1737.863216  	0.017683 
1739.792032  	0.013276 
1741.720848  	0.012415 
1743.649664  	0.012592 
1745.578480  	0.011530 
1747.507296  	0.009603 
1749.436112  	0.008733 
1751.364928  	0.007263 
1753.293744  	0.006256 
1755.222560  	0.006376 
1757.151376  	0.005652 
1759.080192  	0.005065 
1761.009008  	0.004274 
1762.937824  	0.002166 
1764.866640  	0.002975 
1766.795456  	0.003923 
1768.724272  	0.003325 
1770.653088  	0.000702 
1772.581904  	-0.002883 
1774.510720  	-0.001230 
1776.439536  	0.001087 
1778.368352  	0.001525 
1780.297168  	0.000995 
1782.225984  	0.000386 
1784.154800  	0.001154 
1786.083616  	0.000279 
1788.012432  	0.000413 
1789.941248  	0.001156 
1791.870064  	-0.000545 
1793.798880  	-0.002499 
1795.727696  	-0.000462 
1797.656512  	-0.000756 
1799.585328  	-0.000947 
1801.514144  	-0.000517 
1803.442960  	-0.000888 
1805.371776  	-0.001690 
1807.300592  	-0.001127 
1809.229408  	-0.001603 
1811.158224  	-0.002136 
1813.087040  	-0.002441 
1815.015856  	-0.002009 
1816.944672  	-0.001762 
1818.873488  	-0.001819 
1820.802304  	-0.001954 
1822.731120  	-0.000934 
1824.659936  	-0.001634 
1826.588752  	-0.002567 
1828.517568  	-0.003234 
1830.446384  	-0.004117 
1832.375200  	-0.003178 
1834.304016  	-0.002060 
1836.232832  	-0.002267 
1838.161648  	-0.002215 
1840.090464  	-0.002249 
1842.019280  	-0.001050 
1843.948096  	-0.002672 
1845.876912  	-0.002965 
1847.805728  	-0.001964 
1849.734544  	-0.002272 
1851.663360  	-0.002717 
1853.592176  	-0.002562 
1855.520992  	-0.002709 
1857.449808  	-0.002510 
1859.378624  	-0.002751 
1861.307440  	-0.002808 
1863.236256  	-0.003113 
1865.165072  	-0.002620 
1867.093888  	-0.002640 
1869.022704  	-0.003336 
1870.951520  	-0.003720 
1872.880336  	-0.003221 
1874.809152  	-0.003523 
1876.737968  	-0.003297 
1878.666784  	-0.003277 
1880.595600  	-0.002628 
1882.524416  	-0.002969 
1884.453232  	-0.002928 
1886.382048  	-0.003009 
1888.310864  	-0.002457 
1890.239680  	-0.003351 
1892.168496  	-0.003187 
1894.097312  	-0.002982 
1896.026128  	-0.002604 
1897.954944  	-0.002791 
1899.883760  	-0.002543 
1901.812576  	-0.002910 
1903.741392  	-0.003101 
1905.670208  	-0.002952 
1907.599024  	-0.002148 
1909.527840  	-0.002346 
1911.456656  	-0.002009 
1913.385472  	-0.002216 
1915.314288  	-0.001677 
1917.243104  	-0.002172 
1919.171920  	-0.002722 
1921.100736  	-0.002171 
1923.029552  	-0.001904 
1924.958368  	-0.003297 
1926.887184  	-0.003083 
1928.816000  	-0.003145 
1930.744816  	-0.002851 
1932.673632  	-0.002846 
1934.602448  	-0.002411 
1936.531264  	-0.002618 
1938.460080  	-0.002094 
1940.388896  	-0.002236 
1942.317712  	-0.002436 
1944.246528  	-0.003158 
1946.175344  	-0.002048 
1948.104160  	-0.002460 
1950.032976  	-0.002580 
1951.961792  	-0.002984 
1953.890608  	-0.002386 
1955.819424  	-0.003384 
1957.748240  	-0.003538 
1959.677056  	-0.004049 
1961.605872  	-0.002852 
1963.534688  	-0.002901 
1965.463504  	-0.001693 
1967.392320  	-0.002227 
1969.321136  	-0.002534 
1971.249952  	-0.003446 
1973.178768  	-0.002792 
1975.107584  	-0.002984 
1977.036400  	-0.002294 
1978.965216  	-0.002397 
1980.894032  	-0.002319 
1982.822848  	-0.002666 
1984.751664  	-0.002316 
1986.680480  	-0.003019 
1988.609296  	-0.002406 
1990.538112  	-0.003038 
1992.466928  	-0.002840 
1994.395744  	-0.003856 
1996.324560  	-0.003981 
1998.253376  	-0.004429 
2000.182192  	-0.004640 
2002.111008  	-0.004521 
2004.039824  	-0.002835 
2005.968640  	-0.002769 
2007.897456  	-0.002166 
2009.826272  	-0.003518 
2011.755088  	-0.003398 
2013.683904  	-0.003624 
2015.612720  	-0.003165 
2017.541536  	-0.002710 
2019.470352  	-0.002243 
2021.399168  	-0.004160 
2023.327984  	-0.004650 
2025.256800  	-0.003234 
2027.185616  	-0.001157 
2029.114432  	-0.001724 
2031.043248  	-0.002209 
2032.972064  	-0.002717 
2034.900880  	-0.001810 
2036.829696  	-0.003053 
2038.758512  	-0.002961 
2040.687328  	-0.003181 
2042.616144  	-0.002144 
2044.544960  	-0.002649 
2046.473776  	-0.001968 
2048.402592  	-0.002156 
2050.331408  	-0.002472 
2052.260224  	-0.003474 
2054.189040  	-0.003332 
2056.117856  	-0.003673 
2058.046672  	-0.003512 
2059.975488  	-0.003820 
2061.904304  	-0.003955 
2063.833120  	-0.004041 
2065.761936  	-0.003535 
2067.690752  	-0.003836 
2069.619568  	-0.003380 
2071.548384  	-0.002943 
2073.477200  	-0.002597 
2075.406016  	-0.002379 
2077.334832  	-0.002064 
2079.263648  	-0.002504 
2081.192464  	-0.002327 
2083.121280  	-0.002569 
2085.050096  	-0.002633 
2086.978912  	-0.002741 
2088.907728  	-0.002376 
2090.836544  	-0.002599 
2092.765360  	-0.002360 
2094.694176  	-0.002247 
2096.622992  	-0.002027 
2098.551808  	-0.002099 
2100.480624  	-0.001695 
2102.409440  	-0.002069 
2104.338256  	-0.002241 
2106.267072  	-0.001916 
2108.195888  	-0.001665 
2110.124704  	-0.002027 
2112.053520  	-0.001667 
2113.982336  	-0.001646 
2115.911152  	-0.001468 
2117.839968  	-0.001572 
2119.768784  	-0.001901 
2121.697600  	-0.002442 
2123.626416  	-0.002258 
2125.555232  	-0.002183 
2127.484048  	-0.001745 
2129.412864  	-0.002236 
2131.341680  	-0.002453 
2133.270496  	-0.002161 
2135.199312  	-0.001060 
2137.128128  	-0.001064 
2139.056944  	-0.000441 
2140.985760  	-0.000627 
2142.914576  	-0.000295 
2144.843392  	-0.000167 
2146.772208  	-0.000758 
2148.701024  	-0.001769 
2150.629840  	-0.001078 
2152.558656  	-0.000727 
2154.487472  	-0.000031 
2156.416288  	-0.000653 
2158.345104  	0.001067 
2160.273920  	0.001941 
2162.202736  	0.001627 
2164.131552  	0.000952 
2166.060368  	0.001031 
2167.989184  	0.001299 
2169.918000  	0.002905 
2171.846816  	0.001735 
2173.775632  	0.000717 
2175.704448  	0.000695 
2177.633264  	0.000884 
2179.562080  	-0.000290 
2181.490896  	-0.000072 
2183.419712  	-0.000321 
2185.348528  	0.000114 
2187.277344  	-0.000273 
2189.206160  	-0.000214 
2191.134976  	-0.001109 
2193.063792  	-0.001509 
2194.992608  	-0.001556 
2196.921424  	-0.001293 
2198.850240  	-0.001470 
2200.779056  	-0.001600 
2202.707872  	-0.001980 
2204.636688  	-0.001442 
2206.565504  	-0.000473 
2208.494320  	-0.000433 
2210.423136  	-0.001603 
2212.351952  	-0.001894 
2214.280768  	-0.002312 
2216.209584  	-0.002033 
2218.138400  	-0.002283 
2220.067216  	-0.002150 
2221.996032  	-0.001995 
2223.924848  	-0.001680 
2225.853664  	-0.001553 
2227.782480  	-0.001368 
2229.711296  	-0.002489 
2231.640112  	-0.003328 
2233.568928  	-0.003430 
2235.497744  	-0.003161 
2237.426560  	-0.003136 
2239.355376  	-0.002799 
2241.284192  	-0.002901 
2243.213008  	-0.003020 
2245.141824  	-0.003132 
2247.070640  	-0.002921 
2248.999456  	-0.002970 
2250.928272  	-0.003100 
2252.857088  	-0.003765 
2254.785904  	-0.003843 
2256.714720  	-0.004317 
2258.643536  	-0.004438 
2260.572352  	-0.004337 
2262.501168  	-0.004068 
2264.429984  	-0.004003 
2266.358800  	-0.003922 
2268.287616  	-0.004119 
2270.216432  	-0.003956 
2272.145248  	-0.003865 
2274.074064  	-0.004073 
2276.002880  	-0.004014 
2277.931696  	-0.003389 
2279.860512  	-0.003316 
2281.789328  	-0.003391 
2283.718144  	-0.003566 
2285.646960  	-0.003191 
2287.575776  	-0.003149 
2289.504592  	-0.003447 
2291.433408  	-0.003864 
2293.362224  	-0.003806 
2295.291040  	-0.003514 
2297.219856  	-0.003091 
2299.148672  	-0.003115 
2301.077488  	-0.003147 
2303.006304  	-0.003259 
2304.935120  	-0.003089 
2306.863936  	-0.003165 
2308.792752  	-0.003512 
2310.721568  	-0.004237 
2312.650384  	-0.005327 
2314.579200  	-0.006624 
2316.508016  	-0.007818 
2318.436832  	-0.009395 
2320.365648  	-0.011455 
2322.294464  	-0.013788 
2324.223280  	-0.016253 
2326.152096  	-0.019080 
2328.080912  	-0.021402 
2330.009728  	-0.024005 
2331.938544  	-0.026425 
2333.867360  	-0.028453 
2335.796176  	-0.030094 
2337.724992  	-0.031637 
2339.653808  	-0.032142 
2341.582624  	-0.032282 
2343.511440  	-0.030673 
2345.440256  	-0.027093 
2347.369072  	-0.019973 
2349.297888  	-0.015613 
2351.226704  	-0.019472 
2353.155520  	-0.027444 
2355.084336  	-0.033995 
2357.013152  	-0.038602 
2358.941968  	-0.041048 
2360.870784  	-0.043081 
2362.799600  	-0.042396 
2364.728416  	-0.040002 
2366.657232  	-0.035747 
2368.586048  	-0.030799 
2370.514864  	-0.025531 
2372.443680  	-0.020206 
2374.372496  	-0.015219 
2376.301312  	-0.011022 
2378.230128  	-0.007574 
2380.158944  	-0.005248 
2382.087760  	-0.003923 
2384.016576  	-0.003543 
2385.945392  	-0.003657 
2387.874208  	-0.003877 
2389.803024  	-0.003977 
2391.731840  	-0.004268 
2393.660656  	-0.004415 
2395.589472  	-0.004383 
2397.518288  	-0.004197 
2399.447104  	-0.004334 
2401.375920  	-0.004289 
2403.304736  	-0.004390 
2405.233552  	-0.004374 
2407.162368  	-0.004382 
2409.091184  	-0.004194 
2411.020000  	-0.004086 
2412.948816  	-0.004137 
2414.877632  	-0.004110 
2416.806448  	-0.003786 
2418.735264  	-0.003964 
2420.664080  	-0.004153 
2422.592896  	-0.004180 
2424.521712  	-0.004250 
2426.450528  	-0.004440 
2428.379344  	-0.004281 
2430.308160  	-0.004077 
2432.236976  	-0.003787 
2434.165792  	-0.003864 
2436.094608  	-0.003934 
2438.023424  	-0.003782 
2439.952240  	-0.003487 
2441.881056  	-0.003353 
2443.809872  	-0.003431 
2445.738688  	-0.003457 
2447.667504  	-0.003283 
2449.596320  	-0.003178 
2451.525136  	-0.003031 
2453.453952  	-0.003116 
2455.382768  	-0.003186 
2457.311584  	-0.003335 
2459.240400  	-0.003433 
2461.169216  	-0.003654 
2463.098032  	-0.003827 
2465.026848  	-0.003759 
2466.955664  	-0.003700 
2468.884480  	-0.003916 
2470.813296  	-0.003962 
2472.742112  	-0.003765 
2474.670928  	-0.003597 
2476.599744  	-0.003612 
2478.528560  	-0.003552 
2480.457376  	-0.003507 
2482.386192  	-0.003416 
2484.315008  	-0.003338 
2486.243824  	-0.003433 
2488.172640  	-0.003422 
2490.101456  	-0.003087 
2492.030272  	-0.003061 
2493.959088  	-0.003094 
2495.887904  	-0.003188 
2497.816720  	-0.002986 
2499.745536  	-0.002800 
2501.674352  	-0.002749 
2503.603168  	-0.002565 
2505.531984  	-0.002530 
2507.460800  	-0.002692 
2509.389616  	-0.002652 
2511.318432  	-0.002751 
2513.247248  	-0.002735 
2515.176064  	-0.002658 
2517.104880  	-0.002501 
2519.033696  	-0.002470 
2520.962512  	-0.002475 
2522.891328  	-0.002541 
2524.820144  	-0.002558 
2526.748960  	-0.002360 
2528.677776  	-0.002106 
2530.606592  	-0.002273 
2532.535408  	-0.002388 
2534.464224  	-0.002386 
2536.393040  	-0.002244 
2538.321856  	-0.002218 
2540.250672  	-0.002114 
2542.179488  	-0.002141 
2544.108304  	-0.002003 
2546.037120  	-0.001853 
2547.965936  	-0.001807 
2549.894752  	-0.001727 
2551.823568  	-0.001708 
2553.752384  	-0.001699 
2555.681200  	-0.001406 
2557.610016  	-0.001260 
2559.538832  	-0.001101 
2561.467648  	-0.001008 
2563.396464  	-0.000857 
2565.325280  	-0.000687 
2567.254096  	-0.000765 
2569.182912  	-0.000869 
2571.111728  	-0.000865 
2573.040544  	-0.000754 
2574.969360  	-0.000484 
2576.898176  	-0.000286 
2578.826992  	-0.000309 
2580.755808  	-0.000428 
2582.684624  	-0.000192 
2584.613440  	-0.000072 
2586.542256  	-0.000112 
2588.471072  	-0.000064 
2590.399888  	0.000061 
2592.328704  	0.000031 
2594.257520  	-0.000084 
2596.186336  	-0.000040 
2598.115152  	0.000178 
2600.043968  	0.000232 
2601.972784  	0.000408 
2603.901600  	0.000592 
2605.830416  	0.000875 
2607.759232  	0.001007 
2609.688048  	0.001049 
2611.616864  	0.001144 
2613.545680  	0.001397 
2615.474496  	0.001549 
2617.403312  	0.001618 
2619.332128  	0.001683 
2621.260944  	0.001674 
2623.189760  	0.001702 
2625.118576  	0.001797 
2627.047392  	0.001981 
2628.976208  	0.002263 
2630.905024  	0.002333 
2632.833840  	0.002391 
2634.762656  	0.002626 
2636.691472  	0.002746 
2638.620288  	0.002777 
2640.549104  	0.002924 
2642.477920  	0.003009 
2644.406736  	0.003251 
2646.335552  	0.003356 
2648.264368  	0.003449 
2650.193184  	0.003604 
2652.122000  	0.003853 
2654.050816  	0.004047 
2655.979632  	0.004151 
2657.908448  	0.004238 
2659.837264  	0.004458 
2661.766080  	0.004691 
2663.694896  	0.004796 
2665.623712  	0.004921 
2667.552528  	0.005239 
2669.481344  	0.005395 
2671.410160  	0.005447 
2673.338976  	0.005534 
2675.267792  	0.005690 
2677.196608  	0.005835 
2679.125424  	0.005967 
2681.054240  	0.006247 
2682.983056  	0.006500 
2684.911872  	0.006508 
2686.840688  	0.006598 
2688.769504  	0.006736 
2690.698320  	0.006813 
2692.627136  	0.006863 
2694.555952  	0.007048 
2696.484768  	0.007156 
2698.413584  	0.007162 
2700.342400  	0.007240 
2702.271216  	0.007493 
2704.200032  	0.007737 
2706.128848  	0.007921 
2708.057664  	0.008014 
2709.986480  	0.008175 
2711.915296  	0.008340 
2713.844112  	0.008559 
2715.772928  	0.008780 
2717.701744  	0.009022 
2719.630560  	0.009359 
2721.559376  	0.009610 
2723.488192  	0.009712 
2725.417008  	0.009997 
2727.345824  	0.010309 
2729.274640  	0.010453 
2731.203456  	0.010636 
2733.132272  	0.010836 
2735.061088  	0.011019 
2736.989904  	0.011394 
2738.918720  	0.011563 
2740.847536  	0.011709 
2742.776352  	0.011883 
2744.705168  	0.012014 
2746.633984  	0.012098 
2748.562800  	0.012200 
2750.491616  	0.012335 
2752.420432  	0.012535 
2754.349248  	0.012561 
2756.278064  	0.012540 
2758.206880  	0.012425 
2760.135696  	0.012345 
2762.064512  	0.012546 
2763.993328  	0.012644 
2765.922144  	0.012634 
2767.850960  	0.012719 
2769.779776  	0.012766 
2771.708592  	0.012890 
2773.637408  	0.012837 
2775.566224  	0.012805 
2777.495040  	0.012907 
2779.423856  	0.013043 
2781.352672  	0.013091 
2783.281488  	0.013036 
2785.210304  	0.013057 
2787.139120  	0.013198 
2789.067936  	0.013375 
2790.996752  	0.013522 
2792.925568  	0.013484 
2794.854384  	0.013463 
2796.783200  	0.013551 
2798.712016  	0.013677 
2800.640832  	0.013762 
2802.569648  	0.013854 
2804.498464  	0.013930 
2806.427280  	0.013928 
2808.356096  	0.013937 
2810.284912  	0.014099 
2812.213728  	0.014222 
2814.142544  	0.014295 
2816.071360  	0.014470 
2818.000176  	0.014486 
2819.928992  	0.014597 
2821.857808  	0.014707 
2823.786624  	0.014760 
2825.715440  	0.014886 
2827.644256  	0.014895 
2829.573072  	0.015060 
2831.501888  	0.015288 
2833.430704  	0.015368 
2835.359520  	0.015471 
2837.288336  	0.015798 
2839.217152  	0.016098 
2841.145968  	0.016331 
2843.074784  	0.016726 
2845.003600  	0.017311 
2846.932416  	0.017891 
2848.861232  	0.018581 
2850.790048  	0.019213 
2852.718864  	0.019762 
2854.647680  	0.020353 
2856.576496  	0.020939 
2858.505312  	0.021741 
2860.434128  	0.022840 
2862.362944  	0.023878 
2864.291760  	0.024874 
2866.220576  	0.025997 
2868.149392  	0.027033 
2870.078208  	0.027732 
2872.007024  	0.028460 
2873.935840  	0.029372 
2875.864656  	0.030507 
2877.793472  	0.031810 
2879.722288  	0.033381 
2881.651104  	0.035146 
2883.579920  	0.036609 
2885.508736  	0.037478 
2887.437552  	0.037801 
2889.366368  	0.038225 
2891.295184  	0.039037 
2893.224000  	0.039623 
2895.152816  	0.039757 
2897.081632  	0.040232 
2899.010448  	0.042217 
2900.939264  	0.043971 
2902.868080  	0.042942 
2904.796896  	0.041845 
2906.725712  	0.041700 
2908.654528  	0.041878 
2910.583344  	0.042383 
2912.512160  	0.042299 
2914.440976  	0.042034 
2916.369792  	0.042348 
2918.298608  	0.042808 
2920.227424  	0.043177 
2922.156240  	0.043565 
2924.085056  	0.043805 
2926.013872  	0.044034 
2927.942688  	0.044461 
2929.871504  	0.044847 
2931.800320  	0.045125 
2933.729136  	0.045735 
2935.657952  	0.046467 
2937.586768  	0.047040 
2939.515584  	0.047837 
2941.444400  	0.048765 
2943.373216  	0.049467 
2945.302032  	0.050099 
2947.230848  	0.050544 
2949.159664  	0.051186 
2951.088480  	0.052169 
2953.017296  	0.053063 
2954.946112  	0.053843 
2956.874928  	0.054591 
2958.803744  	0.055104 
2960.732560  	0.055696 
2962.661376  	0.056292 
2964.590192  	0.057107 
2966.519008  	0.058354 
2968.447824  	0.059377 
2970.376640  	0.059926 
2972.305456  	0.060062 
2974.234272  	0.059636 
2976.163088  	0.059229 
2978.091904  	0.058718 
2980.020720  	0.058480 
2981.949536  	0.058384 
2983.878352  	0.058755 
2985.807168  	0.059677 
2987.735984  	0.060493 
2989.664800  	0.059848 
2991.593616  	0.056147 
2993.522432  	0.054190 
2995.451248  	0.053875 
2997.380064  	0.053127 
2999.308880  	0.052141 
3001.237696  	0.051142 
3003.166512  	0.050255 
3005.095328  	0.049169 
3007.024144  	0.047897 
3008.952960  	0.046664 
3010.881776  	0.045535 
3012.810592  	0.044597 
3014.739408  	0.043671 
3016.668224  	0.042726 
3018.597040  	0.042055 
3020.525856  	0.041527 
3022.454672  	0.040942 
3024.383488  	0.040510 
3026.312304  	0.040059 
3028.241120  	0.039755 
3030.169936  	0.039534 
3032.098752  	0.039282 
3034.027568  	0.039078 
3035.956384  	0.039076 
3037.885200  	0.039381 
3039.814016  	0.039505 
3041.742832  	0.039651 
3043.671648  	0.039815 
3045.600464  	0.040111 
3047.529280  	0.040430 
3049.458096  	0.040858 
3051.386912  	0.041535 
3053.315728  	0.041979 
3055.244544  	0.042473 
3057.173360  	0.043161 
3059.102176  	0.043749 
3061.030992  	0.044491 
3062.959808  	0.045370 
3064.888624  	0.046082 
3066.817440  	0.046893 
3068.746256  	0.047978 
3070.675072  	0.048969 
3072.603888  	0.049774 
3074.532704  	0.050707 
3076.461520  	0.051739 
3078.390336  	0.052741 
3080.319152  	0.053507 
3082.247968  	0.054374 
3084.176784  	0.055386 
3086.105600  	0.056333 
3088.034416  	0.057300 
3089.963232  	0.058333 
3091.892048  	0.059135 
3093.820864  	0.060034 
3095.749680  	0.061001 
3097.678496  	0.062021 
3099.607312  	0.063077 
3101.536128  	0.064139 
3103.464944  	0.065108 
3105.393760  	0.065938 
3107.322576  	0.066971 
3109.251392  	0.068045 
3111.180208  	0.068892 
3113.109024  	0.069635 
3115.037840  	0.070421 
3116.966656  	0.071292 
3118.895472  	0.072109 
3120.824288  	0.073015 
3122.753104  	0.073889 
3124.681920  	0.074469 
3126.610736  	0.075047 
3128.539552  	0.076019 
3130.468368  	0.076892 
3132.397184  	0.077428 
3134.326000  	0.078175 
3136.254816  	0.079019 
3138.183632  	0.079881 
3140.112448  	0.080666 
3142.041264  	0.081156 
3143.970080  	0.081735 
3145.898896  	0.082600 
3147.827712  	0.083655 
3149.756528  	0.084496 
3151.685344  	0.085163 
3153.614160  	0.086023 
3155.542976  	0.086810 
3157.471792  	0.087501 
3159.400608  	0.088372 
3161.329424  	0.089126 
3163.258240  	0.089686 
3165.187056  	0.090191 
3167.115872  	0.090834 
3169.044688  	0.091450 
3170.973504  	0.092130 
3172.902320  	0.092877 
3174.831136  	0.093411 
3176.759952  	0.093835 
3178.688768  	0.094264 
3180.617584  	0.094712 
3182.546400  	0.095075 
3184.475216  	0.095299 
3186.404032  	0.095443 
3188.332848  	0.095837 
3190.261664  	0.096337 
3192.190480  	0.096595 
3194.119296  	0.096593 
3196.048112  	0.096730 
3197.976928  	0.096658 
3199.905744  	0.096497 
3201.834560  	0.096434 
3203.763376  	0.096514 
3205.692192  	0.096517 
3207.621008  	0.096382 
3209.549824  	0.096116 
3211.478640  	0.096053 
3213.407456  	0.096084 
3215.336272  	0.095986 
3217.265088  	0.095932 
3219.193904  	0.095676 
3221.122720  	0.095550 
3223.051536  	0.095359 
3224.980352  	0.095274 
3226.909168  	0.095197 
3228.837984  	0.094931 
3230.766800  	0.094831 
3232.695616  	0.094767 
3234.624432  	0.094661 
3236.553248  	0.094605 
3238.482064  	0.094641 
3240.410880  	0.094588 
3242.339696  	0.094713 
3244.268512  	0.094585 
3246.197328  	0.094612 
3248.126144  	0.094933 
3250.054960  	0.095157 
3251.983776  	0.095483 
3253.912592  	0.095670 
3255.841408  	0.095961 
3257.770224  	0.096299 
3259.699040  	0.096460 
3261.627856  	0.096692 
3263.556672  	0.097010 
3265.485488  	0.097186 
3267.414304  	0.097432 
3269.343120  	0.097888 
3271.271936  	0.098259 
3273.200752  	0.098264 
3275.129568  	0.098260 
3277.058384  	0.098571 
3278.987200  	0.098739 
3280.916016  	0.099034 
3282.844832  	0.099389 
3284.773648  	0.099560 
3286.702464  	0.099909 
3288.631280  	0.100267 
3290.560096  	0.100607 
3292.488912  	0.101027 
3294.417728  	0.101436 
3296.346544  	0.101777 
3298.275360  	0.101844 
3300.204176  	0.102195 
3302.132992  	0.102815 
3304.061808  	0.103164 
3305.990624  	0.103575 
3307.919440  	0.104025 
3309.848256  	0.104354 
3311.777072  	0.104707 
3313.705888  	0.105056 
3315.634704  	0.105580 
3317.563520  	0.105989 
3319.492336  	0.106236 
3321.421152  	0.106352 
3323.349968  	0.106624 
3325.278784  	0.106959 
3327.207600  	0.107158 
3329.136416  	0.107120 
3331.065232  	0.107253 
3332.994048  	0.107423 
3334.922864  	0.107573 
3336.851680  	0.107431 
3338.780496  	0.107296 
3340.709312  	0.107261 
3342.638128  	0.107039 
3344.566944  	0.106516 
3346.495760  	0.106183 
3348.424576  	0.106009 
3350.353392  	0.105733 
3352.282208  	0.105374 
3354.211024  	0.105159 
3356.139840  	0.104965 
3358.068656  	0.104735 
3359.997472  	0.104337 
3361.926288  	0.103730 
3363.855104  	0.103217 
3365.783920  	0.102668 
3367.712736  	0.102435 
3369.641552  	0.102194 
3371.570368  	0.101756 
3373.499184  	0.101370 
3375.428000  	0.100945 
3377.356816  	0.100549 
3379.285632  	0.100336 
3381.214448  	0.100076 
3383.143264  	0.099791 
3385.072080  	0.099195 
3387.000896  	0.098476 
3388.929712  	0.098036 
3390.858528  	0.097714 
3392.787344  	0.097341 
3394.716160  	0.096907 
3396.644976  	0.096497 
3398.573792  	0.095856 
3400.502608  	0.095370 
3402.431424  	0.094895 
3404.360240  	0.094267 
3406.289056  	0.093544 
3408.217872  	0.092915 
3410.146688  	0.092437 
3412.075504  	0.091981 
3414.004320  	0.091362 
3415.933136  	0.090874 
3417.861952  	0.090169 
3419.790768  	0.089545 
3421.719584  	0.088865 
3423.648400  	0.088301 
3425.577216  	0.087652 
3427.506032  	0.086885 
3429.434848  	0.086303 
3431.363664  	0.085684 
3433.292480  	0.084884 
3435.221296  	0.084100 
3437.150112  	0.083568 
3439.078928  	0.083139 
3441.007744  	0.082520 
3442.936560  	0.081974 
3444.865376  	0.081523 
3446.794192  	0.080619 
3448.723008  	0.079405 
3450.651824  	0.078627 
3452.580640  	0.078019 
3454.509456  	0.077445 
3456.438272  	0.076598 
3458.367088  	0.075868 
3460.295904  	0.075205 
3462.224720  	0.074161 
3464.153536  	0.073198 
3466.082352  	0.072519 
3468.011168  	0.071446 
3469.939984  	0.070386 
3471.868800  	0.069796 
3473.797616  	0.069130 
3475.726432  	0.067990 
3477.655248  	0.066954 
3479.584064  	0.066506 
3481.512880  	0.065593 
3483.441696  	0.063986 
3485.370512  	0.063213 
3487.299328  	0.062332 
3489.228144  	0.061471 
3491.156960  	0.060582 
3493.085776  	0.059516 
3495.014592  	0.058599 
3496.943408  	0.057812 
3498.872224  	0.057300 
3500.801040  	0.057272 
3502.729856  	0.056453 
3504.658672  	0.054796 
3506.587488  	0.054217 
3508.516304  	0.053773 
3510.445120  	0.052548 
3512.373936  	0.051168 
3514.302752  	0.050396 
3516.231568  	0.050192 
3518.160384  	0.049499 
3520.089200  	0.048590 
3522.018016  	0.048566 
3523.946832  	0.048558 
3525.875648  	0.047453 
3527.804464  	0.045712 
3529.733280  	0.044454 
3531.662096  	0.043594 
3533.590912  	0.042925 
3535.519728  	0.042880 
3537.448544  	0.042199 
3539.377360  	0.040910 
3541.306176  	0.040404 
3543.234992  	0.040735 
3545.163808  	0.041198 
3547.092624  	0.039677 
3549.021440  	0.037552 
3550.950256  	0.036788 
3552.879072  	0.035818 
3554.807888  	0.034902 
3556.736704  	0.034285 
3558.665520  	0.034287 
3560.594336  	0.034014 
3562.523152  	0.032940 
3564.451968  	0.033464 
3566.380784  	0.034437 
3568.309600  	0.031557 
3570.238416  	0.029528 
3572.167232  	0.028759 
3574.096048  	0.027503 
3576.024864  	0.026273 
3577.953680  	0.025706 
3579.882496  	0.025247 
3581.811312  	0.024597 
3583.740128  	0.024206 
3585.668944  	0.024647 
3587.597760  	0.023170 
3589.526576  	0.020514 
3591.455392  	0.019845 
3593.384208  	0.019709 
3595.313024  	0.018485 
3597.241840  	0.016766 
3599.170656  	0.015325 
3601.099472  	0.014090 
3603.028288  	0.014005 
3604.957104  	0.014377 
3606.885920  	0.013816 
3608.814736  	0.012315 
3610.743552  	0.011893 
3612.672368  	0.011037 
3614.601184  	0.009558 
3616.530000  	0.009291 
3618.458816  	0.007436 
3620.387632  	0.005271 
3622.316448  	0.005375 
3624.245264  	0.005552 
3626.174080  	0.005822 
3628.102896  	0.003452 
3630.031712  	-0.000348 
3631.960528  	0.001835 
3633.889344  	0.002097 
3635.818160  	0.001508 
3637.746976  	0.000996 
3639.675792  	0.001209 
3641.604608  	0.001890 
3643.533424  	0.002234 
3645.462240  	0.002617 
3647.391056  	0.000271 
3649.319872  	-0.004515 
3651.248688  	-0.005838 
3653.177504  	-0.002100 
3655.106320  	-0.001372 
3657.035136  	-0.003021 
3658.963952  	-0.001920 
3660.892768  	-0.001354 
3662.821584  	-0.001434 
3664.750400  	-0.001789 
3666.679216  	-0.001693 
3668.608032  	-0.003764 
3670.536848  	-0.007900 
3672.465664  	-0.005614 
3674.394480  	-0.005504 
3676.323296  	-0.010505 
3678.252112  	-0.009226 
3680.180928  	-0.008549 
3682.109744  	-0.007089 
3684.038560  	-0.006413 
3685.967376  	-0.006760 
3687.896192  	-0.010313 
3689.825008  	-0.014346 
3691.753824  	-0.013409 
3693.682640  	-0.011132 
3695.611456  	-0.010602 
3697.540272  	-0.011000 
3699.469088  	-0.011405 
3701.397904  	-0.013841 
3703.326720  	-0.015204 
3705.255536  	-0.014130 
3707.184352  	-0.014182 
3709.113168  	-0.016389 
3711.041984  	-0.019306 
3712.970800  	-0.018458 
3714.899616  	-0.015206 
3716.828432  	-0.014472 
3718.757248  	-0.015235 
3720.686064  	-0.016018 
3722.614880  	-0.016516 
3724.543696  	-0.015778 
3726.472512  	-0.016347 
3728.401328  	-0.016939 
3730.330144  	-0.017502 
3732.258960  	-0.019322 
3734.187776  	-0.018006 
3736.116592  	-0.018636 
3738.045408  	-0.018915 
3739.974224  	-0.016850 
3741.903040  	-0.015258 
3743.831856  	-0.017799 
3745.760672  	-0.020564 
3747.689488  	-0.018104 
3749.618304  	-0.021027 
3751.547120  	-0.023411 
3753.475936  	-0.020582 
3755.404752  	-0.017260 
3757.333568  	-0.016768 
3759.262384  	-0.017904 
3761.191200  	-0.017876 
3763.120016  	-0.015665 
3765.048832  	-0.016075 
3766.977648  	-0.016409 
3768.906464  	-0.017443 
3770.835280  	-0.018437 
3772.764096  	-0.016631 
3774.692912  	-0.015702 
3776.621728  	-0.015568 
3778.550544  	-0.017078 
3780.479360  	-0.018419 
3782.408176  	-0.016519 
3784.336992  	-0.016479 
3786.265808  	-0.016360 
3788.194624  	-0.015768 
3790.123440  	-0.015670 
3792.052256  	-0.015694 
3793.981072  	-0.015508 
3795.909888  	-0.016950 
3797.838704  	-0.017183 
3799.767520  	-0.017501 
3801.696336  	-0.022360 
3803.625152  	-0.020117 
3805.553968  	-0.018246 
3807.482784  	-0.020315 
3809.411600  	-0.017651 
3811.340416  	-0.015701 
3813.269232  	-0.015291 
3815.198048  	-0.018307 
3817.126864  	-0.020229 
3819.055680  	-0.018087 
3820.984496  	-0.021579 
3822.913312  	-0.020431 
3824.842128  	-0.017030 
3826.770944  	-0.017517 
3828.699760  	-0.016798 
3830.628576  	-0.016733 
3832.557392  	-0.017458 
3834.486208  	-0.017488 
3836.415024  	-0.018810 
3838.343840  	-0.020458 
3840.272656  	-0.019335 
3842.201472  	-0.017597 
3844.130288  	-0.017388 
3846.059104  	-0.016310 
3847.987920  	-0.015209 
3849.916736  	-0.015118 
3851.845552  	-0.017541 
3853.774368  	-0.023839 
3855.703184  	-0.020881 
3857.632000  	-0.017041 
3859.560816  	-0.015447 
3861.489632  	-0.015416 
3863.418448  	-0.016564 
3865.347264  	-0.017317 
3867.276080  	-0.015463 
3869.204896  	-0.016370 
3871.133712  	-0.017526 
3873.062528  	-0.016415 
3874.991344  	-0.017282 
3876.920160  	-0.015593 
3878.848976  	-0.014493 
3880.777792  	-0.015347 
3882.706608  	-0.014713 
3884.635424  	-0.014947 
3886.564240  	-0.016910 
3888.493056  	-0.015505 
3890.421872  	-0.015859 
3892.350688  	-0.017289 
3894.279504  	-0.015820 
3896.208320  	-0.014557 
3898.137136  	-0.014210 
3900.065952  	-0.014428 
3901.994768  	-0.014321 
3903.923584  	-0.015567 
3905.852400  	-0.016567 
3907.781216  	-0.016169 
3909.710032  	-0.015854 
3911.638848  	-0.015749 
3913.567664  	-0.015141 
3915.496480  	-0.014289 
3917.425296  	-0.014658 
3919.354112  	-0.015247 
3921.282928  	-0.015043 
3923.211744  	-0.014325 
3925.140560  	-0.014463 
3927.069376  	-0.014897 
3928.998192  	-0.014808 
3930.927008  	-0.014072 
3932.855824  	-0.014072 
3934.784640  	-0.015039 
3936.713456  	-0.015408 
3938.642272  	-0.015086 
3940.571088  	-0.014356 
3942.499904  	-0.014037 
3944.428720  	-0.014520 
3946.357536  	-0.014199 
3948.286352  	-0.013852 
3950.215168  	-0.014684 
3952.143984  	-0.015562 
3954.072800  	-0.015627 
3956.001616  	-0.015255 
3957.930432  	-0.015277 
3959.859248  	-0.015237 
3961.788064  	-0.015111 
3963.716880  	-0.015532 
3965.645696  	-0.015976 
3967.574512  	-0.015693 
3969.503328  	-0.015293 
3971.432144  	-0.015362 
3973.360960  	-0.015335 
3975.289776  	-0.015171 
3977.218592  	-0.015198 
3979.147408  	-0.015389 
3981.076224  	-0.015480 
3983.005040  	-0.015462 
3984.933856  	-0.015409 
3986.862672  	-0.015472 
3988.791488  	-0.015216 
3990.720304  	-0.014829 
3992.649120  	-0.015023 
3994.577936  	-0.015338 
3996.506752  	-0.015500 
3998.435568  	-0.015623 
4000.364384  	-0.015573 