##TITLE=No Description
##DATA TYPE=INFRARED SPECTRUM
##XUNITS=1/CM
##YUNITS=Abs
399.264912  	0.630824 
401.193728  	0.616031 
403.122544  	0.626165 
405.051360  	0.620527 
406.980176  	0.612606 
408.908992  	0.596948 
410.837808  	0.610705 
412.766624  	0.605466 
414.695440  	0.596008 
416.624256  	0.599638 
418.553072  	0.627150 
420.481888  	0.613245 
422.410704  	0.605549 
424.339520  	0.595799 
426.268336  	0.590134 
428.197152  	0.577072 
430.125968  	0.576759 
432.054784  	0.577606 
433.983600  	0.579158 
435.912416  	0.569072 
437.841232  	0.568607 
439.770048  	0.562624 
441.698864  	0.559352 
443.627680  	0.557172 
445.556496  	0.557186 
447.485312  	0.557056 
449.414128  	0.559687 
451.342944  	0.561008 
453.271760  	0.562602 
455.200576  	0.559050 
457.129392  	0.565161 
459.058208  	0.561838 
460.987024  	0.562148 
462.915840  	0.561372 
464.844656  	0.560002 
466.773472  	0.558471 
468.702288  	0.561787 
470.631104  	0.561545 
472.559920  	0.560464 
474.488736  	0.551816 
476.417552  	0.551167 
478.346368  	0.548237 
480.275184  	0.551345 
482.204000  	0.551107 
484.132816  	0.550855 
486.061632  	0.551920 
487.990448  	0.551480 
489.919264  	0.548742 
491.848080  	0.551321 
493.776896  	0.548581 
495.705712  	0.548147 
497.634528  	0.545994 
499.563344  	0.545139 
501.492160  	0.541138 
503.420976  	0.540914 
505.349792  	0.541442 
507.278608  	0.541846 
509.207424  	0.542372 
511.136240  	0.546732 
513.065056  	0.546512 
514.993872  	0.547995 
516.922688  	0.550840 
518.851504  	0.553351 
520.780320  	0.548470 
522.709136  	0.548431 
524.637952  	0.549898 
526.566768  	0.549286 
528.495584  	0.545751 
530.424400  	0.543298 
532.353216  	0.537596 
534.282032  	0.533498 
536.210848  	0.525782 
538.139664  	0.517658 
540.068480  	0.511157 
541.997296  	0.508188 
543.926112  	0.504536 
545.854928  	0.500090 
547.783744  	0.492825 
549.712560  	0.488505 
551.641376  	0.486010 
553.570192  	0.482261 
555.499008  	0.476658 
557.427824  	0.472969 
559.356640  	0.469604 
561.285456  	0.465801 
563.214272  	0.460286 
565.143088  	0.457099 
567.071904  	0.453754 
569.000720  	0.449489 
570.929536  	0.445402 
572.858352  	0.442944 
574.787168  	0.440359 
576.715984  	0.437832 
578.644800  	0.433386 
580.573616  	0.429369 
582.502432  	0.422320 
584.431248  	0.417563 
586.360064  	0.413599 
588.288880  	0.411412 
590.217696  	0.409050 
592.146512  	0.406509 
594.075328  	0.403118 
596.004144  	0.401833 
597.932960  	0.400806 
599.861776  	0.400287 
601.790592  	0.397674 
603.719408  	0.395813 
605.648224  	0.394898 
607.577040  	0.393808 
609.505856  	0.392419 
611.434672  	0.390882 
613.363488  	0.388452 
615.292304  	0.387596 
617.221120  	0.385993 
619.149936  	0.384075 
621.078752  	0.382771 
623.007568  	0.382733 
624.936384  	0.381809 
626.865200  	0.380723 
628.794016  	0.379511 
630.722832  	0.379218 
632.651648  	0.379303 
634.580464  	0.379582 
636.509280  	0.379510 
638.438096  	0.380022 
640.366912  	0.379546 
642.295728  	0.377702 
644.224544  	0.374897 
646.153360  	0.370678 
648.082176  	0.365075 
650.010992  	0.360608 
651.939808  	0.356565 
653.868624  	0.352697 
655.797440  	0.349107 
657.726256  	0.344647 
659.655072  	0.340114 
661.583888  	0.335825 
663.512704  	0.331896 
665.441520  	0.328080 
667.370336  	0.318670 
669.299152  	0.310708 
671.227968  	0.310967 
673.156784  	0.307860 
675.085600  	0.304817 
677.014416  	0.302150 
678.943232  	0.300133 
680.872048  	0.298989 
682.800864  	0.297773 
684.729680  	0.296056 
686.658496  	0.294696 
688.587312  	0.294116 
690.516128  	0.292931 
692.444944  	0.292171 
694.373760  	0.291545 
696.302576  	0.289814 
698.231392  	0.287428 
700.160208  	0.284858 
702.089024  	0.282802 
704.017840  	0.281199 
705.946656  	0.278620 
707.875472  	0.275653 
709.804288  	0.273153 
711.733104  	0.271103 
713.661920  	0.269244 
715.590736  	0.268283 
717.519552  	0.268176 
719.448368  	0.268532 
721.377184  	0.269842 
723.306000  	0.272042 
725.234816  	0.273287 
727.163632  	0.272766 
729.092448  	0.270191 
731.021264  	0.266032 
732.950080  	0.261999 
734.878896  	0.258863 
736.807712  	0.255512 
738.736528  	0.252652 
740.665344  	0.250623 
742.594160  	0.248992 
744.522976  	0.247386 
746.451792  	0.245764 
748.380608  	0.244321 
750.309424  	0.243200 
752.238240  	0.242636 
754.167056  	0.242086 
756.095872  	0.240868 
758.024688  	0.240064 
759.953504  	0.240363 
761.882320  	0.241619 
763.811136  	0.242851 
765.739952  	0.242296 
767.668768  	0.239479 
769.597584  	0.236804 
771.526400  	0.236382 
773.455216  	0.238953 
775.384032  	0.244541 
777.312848  	0.251829 
779.241664  	0.257565 
781.170480  	0.258140 
783.099296  	0.253614 
785.028112  	0.246585 
786.956928  	0.239507 
788.885744  	0.233606 
790.814560  	0.229571 
792.743376  	0.227250 
794.672192  	0.226002 
796.601008  	0.224939 
798.529824  	0.221960 
800.458640  	0.216767 
802.387456  	0.212578 
804.316272  	0.210978 
806.245088  	0.210349 
808.173904  	0.209968 
810.102720  	0.209917 
812.031536  	0.210011 
813.960352  	0.210536 
815.889168  	0.211352 
817.817984  	0.212280 
819.746800  	0.213412 
821.675616  	0.214123 
823.604432  	0.214267 
825.533248  	0.214566 
827.462064  	0.214585 
829.390880  	0.213854 
831.319696  	0.212613 
833.248512  	0.210709 
835.177328  	0.207843 
837.106144  	0.204416 
839.034960  	0.200653 
840.963776  	0.196585 
842.892592  	0.192398 
844.821408  	0.188433 
846.750224  	0.184994 
848.679040  	0.181955 
850.607856  	0.179920 
852.536672  	0.178756 
854.465488  	0.177719 
856.394304  	0.176890 
858.323120  	0.176171 
860.251936  	0.175102 
862.180752  	0.173246 
864.109568  	0.170740 
866.038384  	0.168440 
867.967200  	0.166459 
869.896016  	0.164467 
871.824832  	0.163261 
873.753648  	0.163030 
875.682464  	0.164130 
877.611280  	0.166409 
879.540096  	0.169073 
881.468912  	0.171067 
883.397728  	0.173041 
885.326544  	0.174341 
887.255360  	0.174881 
889.184176  	0.174371 
891.112992  	0.173382 
893.041808  	0.171113 
894.970624  	0.167449 
896.899440  	0.163150 
898.828256  	0.157703 
900.757072  	0.152245 
902.685888  	0.147874 
904.614704  	0.145157 
906.543520  	0.144938 
908.472336  	0.146490 
910.401152  	0.149181 
912.329968  	0.152508 
914.258784  	0.156317 
916.187600  	0.159703 
918.116416  	0.162561 
920.045232  	0.164617 
921.974048  	0.165983 
923.902864  	0.166623 
925.831680  	0.166664 
927.760496  	0.167020 
929.689312  	0.167928 
931.618128  	0.169228 
933.546944  	0.170294 
935.475760  	0.171088 
937.404576  	0.171139 
939.333392  	0.170894 
941.262208  	0.171397 
943.191024  	0.173706 
945.119840  	0.179044 
947.048656  	0.187504 
948.977472  	0.198690 
950.906288  	0.212172 
952.835104  	0.227478 
954.763920  	0.243267 
956.692736  	0.257919 
958.621552  	0.270202 
960.550368  	0.278338 
962.479184  	0.281641 
964.408000  	0.279493 
966.336816  	0.272252 
968.265632  	0.260396 
970.194448  	0.245269 
972.123264  	0.228352 
974.052080  	0.210854 
975.980896  	0.193718 
977.909712  	0.178058 
979.838528  	0.164321 
981.767344  	0.153097 
983.696160  	0.144774 
985.624976  	0.139800 
987.553792  	0.138427 
989.482608  	0.140606 
991.411424  	0.146087 
993.340240  	0.153741 
995.269056  	0.162862 
997.197872  	0.172697 
999.126688  	0.182947 
1001.055504  	0.193463 
1002.984320  	0.204135 
1004.913136  	0.214573 
1006.841952  	0.224590 
1008.770768  	0.233496 
1010.699584  	0.240534 
1012.628400  	0.245348 
1014.557216  	0.247988 
1016.486032  	0.249132 
1018.414848  	0.249463 
1020.343664  	0.249530 
1022.272480  	0.249277 
1024.201296  	0.249546 
1026.130112  	0.251301 
1028.058928  	0.253056 
1029.987744  	0.253760 
1031.916560  	0.257524 
1033.845376  	0.263724 
1035.774192  	0.272519 
1037.703008  	0.282724 
1039.631824  	0.294630 
1041.560640  	0.310453 
1043.489456  	0.330341 
1045.418272  	0.352878 
1047.347088  	0.376219 
1049.275904  	0.396109 
1051.204720  	0.410116 
1053.133536  	0.416884 
1055.062352  	0.418575 
1056.991168  	0.416954 
1058.919984  	0.412854 
1060.848800  	0.407157 
1062.777616  	0.404274 
1064.706432  	0.402470 
1066.635248  	0.397813 
1068.564064  	0.386802 
1070.492880  	0.376197 
1072.421696  	0.367850 
1074.350512  	0.362230 
1076.279328  	0.359874 
1078.208144  	0.362033 
1080.136960  	0.364959 
1082.065776  	0.367218 
1083.994592  	0.366358 
1085.923408  	0.361354 
1087.852224  	0.352377 
1089.781040  	0.340609 
1091.709856  	0.326005 
1093.638672  	0.310734 
1095.567488  	0.294741 
1097.496304  	0.278270 
1099.425120  	0.261242 
1101.353936  	0.244371 
1103.282752  	0.228020 
1105.211568  	0.212258 
1107.140384  	0.196580 
1109.069200  	0.181556 
1110.998016  	0.167731 
1112.926832  	0.155534 
1114.855648  	0.144319 
1116.784464  	0.133742 
1118.713280  	0.124106 
1120.642096  	0.115009 
1122.570912  	0.106582 
1124.499728  	0.098763 
1126.428544  	0.091713 
1128.357360  	0.085347 
1130.286176  	0.080214 
1132.214992  	0.075758 
1134.143808  	0.072386 
1136.072624  	0.069482 
1138.001440  	0.066750 
1139.930256  	0.063805 
1141.859072  	0.060870 
1143.787888  	0.057898 
1145.716704  	0.055133 
1147.645520  	0.052313 
1149.574336  	0.050217 
1151.503152  	0.048648 
1153.431968  	0.048078 
1155.360784  	0.048269 
1157.289600  	0.049409 
1159.218416  	0.051264 
1161.147232  	0.053969 
1163.076048  	0.057015 
1165.004864  	0.060412 
1166.933680  	0.063265 
1168.862496  	0.066392 
1170.791312  	0.069875 
1172.720128  	0.073989 
1174.648944  	0.077902 
1176.577760  	0.081900 
1178.506576  	0.085722 
1180.435392  	0.089665 
1182.364208  	0.093540 
1184.293024  	0.097940 
1186.221840  	0.102835 
1188.150656  	0.108347 
1190.079472  	0.114578 
1192.008288  	0.122174 
1193.937104  	0.131318 
1195.865920  	0.141910 
1197.794736  	0.153386 
1199.723552  	0.165616 
1201.652368  	0.178047 
1203.581184  	0.190643 
1205.510000  	0.203334 
1207.438816  	0.215190 
1209.367632  	0.226075 
1211.296448  	0.235715 
1213.225264  	0.243738 
1215.154080  	0.249770 
1217.082896  	0.254490 
1219.011712  	0.257664 
1220.940528  	0.259980 
1222.869344  	0.261285 
1224.798160  	0.261577 
1226.726976  	0.260499 
1228.655792  	0.258866 
1230.584608  	0.255830 
1232.513424  	0.251643 
1234.442240  	0.246110 
1236.371056  	0.239904 
1238.299872  	0.232673 
1240.228688  	0.225738 
1242.157504  	0.217402 
1244.086320  	0.207492 
1246.015136  	0.197946 
1247.943952  	0.188999 
1249.872768  	0.179749 
1251.801584  	0.170191 
1253.730400  	0.160746 
1255.659216  	0.151591 
1257.588032  	0.143045 
1259.516848  	0.134639 
1261.445664  	0.126505 
1263.374480  	0.119000 
1265.303296  	0.112656 
1267.232112  	0.107195 
1269.160928  	0.102900 
1271.089744  	0.099453 
1273.018560  	0.097195 
1274.947376  	0.096149 
1276.876192  	0.095878 
1278.805008  	0.095185 
1280.733824  	0.093476 
1282.662640  	0.090616 
1284.591456  	0.087453 
1286.520272  	0.084744 
1288.449088  	0.082967 
1290.377904  	0.081943 
1292.306720  	0.082065 
1294.235536  	0.082120 
1296.164352  	0.081121 
1298.093168  	0.078117 
1300.021984  	0.074283 
1301.950800  	0.070436 
1303.879616  	0.066890 
1305.808432  	0.062904 
1307.737248  	0.059051 
1309.666064  	0.055217 
1311.594880  	0.052666 
1313.523696  	0.050702 
1315.452512  	0.049101 
1317.381328  	0.048390 
1319.310144  	0.048376 
1321.238960  	0.048342 
1323.167776  	0.049061 
1325.096592  	0.050081 
1327.025408  	0.050857 
1328.954224  	0.050887 
1330.883040  	0.050360 
1332.811856  	0.049322 
1334.740672  	0.048952 
1336.669488  	0.049549 
1338.598304  	0.050612 
1340.527120  	0.048889 
1342.455936  	0.046187 
1344.384752  	0.045551 
1346.313568  	0.046017 
1348.242384  	0.047017 
1350.171200  	0.048878 
1352.100016  	0.051252 
1354.028832  	0.054258 
1355.957648  	0.057097 
1357.886464  	0.060187 
1359.815280  	0.063970 
1361.744096  	0.068554 
1363.672912  	0.070999 
1365.601728  	0.072294 
1367.530544  	0.074841 
1369.459360  	0.076707 
1371.388176  	0.077705 
1373.316992  	0.077924 
1375.245808  	0.075190 
1377.174624  	0.072775 
1379.103440  	0.070254 
1381.032256  	0.067016 
1382.961072  	0.064131 
1384.889888  	0.062733 
1386.818704  	0.061404 
1388.747520  	0.057995 
1390.676336  	0.056139 
1392.605152  	0.057212 
1394.533968  	0.057207 
1396.462784  	0.055264 
1398.391600  	0.054843 
1400.320416  	0.054585 
1402.249232  	0.056081 
1404.178048  	0.058586 
1406.106864  	0.059993 
1408.035680  	0.061480 
1409.964496  	0.063609 
1411.893312  	0.065461 
1413.822128  	0.067150 
1415.750944  	0.070500 
1417.679760  	0.072749 
1419.608576  	0.069979 
1421.537392  	0.068534 
1423.466208  	0.068182 
1425.395024  	0.065170 
1427.323840  	0.062600 
1429.252656  	0.059237 
1431.181472  	0.056765 
1433.110288  	0.056626 
1435.039104  	0.057716 
1436.967920  	0.057321 
1438.896736  	0.057806 
1440.825552  	0.059172 
1442.754368  	0.059885 
1444.683184  	0.060348 
1446.612000  	0.060860 
1448.540816  	0.060636 
1450.469632  	0.061520 
1452.398448  	0.062637 
1454.327264  	0.064028 
1456.256080  	0.062817 
1458.184896  	0.058008 
1460.113712  	0.058864 
1462.042528  	0.060374 
1463.971344  	0.059925 
1465.900160  	0.060434 
1467.828976  	0.063737 
1469.757792  	0.067846 
1471.686608  	0.072183 
1473.615424  	0.079610 
1475.544240  	0.087850 
1477.473056  	0.094564 
1479.401872  	0.099202 
1481.330688  	0.103130 
1483.259504  	0.105411 
1485.188320  	0.107289 
1487.117136  	0.107459 
1489.045952  	0.106992 
1490.974768  	0.102318 
1492.903584  	0.098428 
1494.832400  	0.094072 
1496.761216  	0.085347 
1498.690032  	0.077251 
1500.618848  	0.072111 
1502.547664  	0.067199 
1504.476480  	0.061771 
1506.405296  	0.054999 
1508.334112  	0.053478 
1510.262928  	0.052568 
1512.191744  	0.049286 
1514.120560  	0.047914 
1516.049376  	0.047547 
1517.978192  	0.046113 
1519.907008  	0.047706 
1521.835824  	0.048449 
1523.764640  	0.053650 
1525.693456  	0.059260 
1527.622272  	0.061878 
1529.551088  	0.062430 
1531.479904  	0.062013 
1533.408720  	0.056820 
1535.337536  	0.052510 
1537.266352  	0.050053 
1539.195168  	0.040328 
1541.123984  	0.031746 
1543.052800  	0.035781 
1544.981616  	0.036708 
1546.910432  	0.035333 
1548.839248  	0.035963 
1550.768064  	0.036212 
1552.696880  	0.035653 
1554.625696  	0.036275 
1556.554512  	0.036304 
1558.483328  	0.033401 
1560.412144  	0.039094 
1562.340960  	0.048219 
1564.269776  	0.053339 
1566.198592  	0.060232 
1568.127408  	0.065733 
1570.056224  	0.072276 
1571.985040  	0.081476 
1573.913856  	0.087570 
1575.842672  	0.088564 
1577.771488  	0.092532 
1579.700304  	0.095461 
1581.629120  	0.095421 
1583.557936  	0.094765 
1585.486752  	0.095817 
1587.415568  	0.099012 
1589.344384  	0.105029 
1591.273200  	0.112791 
1593.202016  	0.122145 
1595.130832  	0.131939 
1597.059648  	0.142210 
1598.988464  	0.150977 
1600.917280  	0.158633 
1602.846096  	0.163375 
1604.774912  	0.166303 
1606.703728  	0.166364 
1608.632544  	0.164896 
1610.561360  	0.162129 
1612.490176  	0.160231 
1614.418992  	0.157503 
1616.347808  	0.153237 
1618.276624  	0.154709 
1620.205440  	0.161398 
1622.134256  	0.165354 
1624.063072  	0.172258 
1625.991888  	0.181454 
1627.920704  	0.191733 
1629.849520  	0.204210 
1631.778336  	0.216531 
1633.707152  	0.224857 
1635.635968  	0.232627 
1637.564784  	0.244742 
1639.493600  	0.255094 
1641.422416  	0.261098 
1643.351232  	0.265376 
1645.280048  	0.265328 
1647.208864  	0.262214 
1649.137680  	0.262899 
1651.066496  	0.263604 
1652.995312  	0.252375 
1654.924128  	0.250360 
1656.852944  	0.252135 
1658.781760  	0.249496 
1660.710576  	0.244483 
1662.639392  	0.236587 
1664.568208  	0.230777 
1666.497024  	0.228168 
1668.425840  	0.221097 
1670.354656  	0.211173 
1672.283472  	0.207371 
1674.212288  	0.203752 
1676.141104  	0.197286 
1678.069920  	0.196785 
1679.998736  	0.196446 
1681.927552  	0.194559 
1683.856368  	0.187132 
1685.785184  	0.184793 
1687.714000  	0.188498 
1689.642816  	0.187818 
1691.571632  	0.185306 
1693.500448  	0.184182 
1695.429264  	0.178887 
1697.358080  	0.174794 
1699.286896  	0.172424 
1701.215712  	0.165237 
1703.144528  	0.165088 
1705.073344  	0.160056 
1707.002160  	0.152617 
1708.930976  	0.147695 
1710.859792  	0.140609 
1712.788608  	0.132719 
1714.717424  	0.122879 
1716.646240  	0.109239 
1718.575056  	0.092376 
1720.503872  	0.083651 
1722.432688  	0.076229 
1724.361504  	0.065202 
1726.290320  	0.056023 
1728.219136  	0.048802 
1730.147952  	0.042550 
1732.076768  	0.036704 
1734.005584  	0.028152 
1735.934400  	0.022158 
1737.863216  	0.022204 
1739.792032  	0.017694 
1741.720848  	0.016662 
1743.649664  	0.016624 
1745.578480  	0.015420 
1747.507296  	0.013477 
1749.436112  	0.012677 
1751.364928  	0.011232 
1753.293744  	0.009824 
1755.222560  	0.009435 
1757.151376  	0.008918 
1759.080192  	0.008026 
1761.009008  	0.007189 
1762.937824  	0.005337 
1764.866640  	0.005935 
1766.795456  	0.006899 
1768.724272  	0.006433 
1770.653088  	0.003457 
1772.581904  	0.000261 
1774.510720  	0.001833 
1776.439536  	0.003842 
1778.368352  	0.004152 
1780.297168  	0.003825 
1782.225984  	0.003095 
1784.154800  	0.003641 
1786.083616  	0.002871 
1788.012432  	0.003043 
1789.941248  	0.003682 
1791.870064  	0.002144 
1793.798880  	0.000316 
1795.727696  	0.002193 
1797.656512  	0.001744 
1799.585328  	0.001498 
1801.514144  	0.002223 
1803.442960  	0.001885 
1805.371776  	0.000885 
1807.300592  	0.001287 
1809.229408  	0.000693 
1811.158224  	0.000382 
1813.087040  	-0.000016 
1815.015856  	0.000190 
1816.944672  	0.000496 
1818.873488  	0.000561 
1820.802304  	0.000226 
1822.731120  	0.001032 
1824.659936  	0.000476 
1826.588752  	-0.000263 
1828.517568  	-0.001126 
1830.446384  	-0.001527 
1832.375200  	-0.000628 
1834.304016  	0.000160 
1836.232832  	-0.000150 
1838.161648  	-0.000034 
1840.090464  	-0.000078 
1842.019280  	0.000986 
1843.948096  	-0.000355 
1845.876912  	-0.000520 
1847.805728  	0.000259 
1849.734544  	-0.000013 
1851.663360  	-0.000721 
1853.592176  	-0.000789 
1855.520992  	-0.001014 
1857.449808  	-0.000671 
1859.378624  	-0.000750 
1861.307440  	-0.000664 
1863.236256  	-0.000994 
1865.165072  	-0.000578 
1867.093888  	-0.000862 
1869.022704  	-0.001201 
1870.951520  	-0.001404 
1872.880336  	-0.001058 
1874.809152  	-0.001446 
1876.737968  	-0.001214 
1878.666784  	-0.001423 
1880.595600  	-0.001117 
1882.524416  	-0.001560 
1884.453232  	-0.001224 
1886.382048  	-0.001321 
1888.310864  	-0.000931 
1890.239680  	-0.001453 
1892.168496  	-0.001050 
1894.097312  	-0.000891 
1896.026128  	-0.000661 
1897.954944  	-0.001003 
1899.883760  	-0.000726 
1901.812576  	-0.001045 
1903.741392  	-0.001288 
1905.670208  	-0.001378 
1907.599024  	-0.000340 
1909.527840  	-0.000502 
1911.456656  	-0.000653 
1913.385472  	-0.001117 
1915.314288  	-0.000142 
1917.243104  	-0.000107 
1919.171920  	-0.000506 
1921.100736  	-0.000658 
1923.029552  	-0.000082 
1924.958368  	-0.000745 
1926.887184  	-0.000892 
1928.816000  	-0.001514 
1930.744816  	-0.001088 
1932.673632  	-0.001050 
1934.602448  	-0.000784 
1936.531264  	-0.001089 
1938.460080  	-0.000350 
1940.388896  	-0.000445 
1942.317712  	-0.000249 
1944.246528  	-0.001239 
1946.175344  	-0.000949 
1948.104160  	-0.001569 
1950.032976  	-0.001210 
1951.961792  	-0.001415 
1953.890608  	-0.000571 
1955.819424  	-0.001580 
1957.748240  	-0.001688 
1959.677056  	-0.002639 
1961.605872  	-0.001381 
1963.534688  	-0.001124 
1965.463504  	-0.000825 
1967.392320  	-0.002155 
1969.321136  	-0.002358 
1971.249952  	-0.002624 
1973.178768  	-0.001246 
1975.107584  	-0.002084 
1977.036400  	-0.000603 
1978.965216  	0.000724 
1980.894032  	0.000007 
1982.822848  	-0.001562 
1984.751664  	-0.000880 
1986.680480  	-0.001333 
1988.609296  	-0.000238 
1990.538112  	-0.000315 
1992.466928  	-0.000723 
1994.395744  	-0.002543 
1996.324560  	-0.002678 
1998.253376  	-0.002657 
2000.182192  	-0.002087 
2002.111008  	-0.002086 
2004.039824  	-0.001139 
2005.968640  	-0.001832 
2007.897456  	-0.000004 
2009.826272  	0.000011 
2011.755088  	-0.000223 
2013.683904  	-0.002056 
2015.612720  	-0.001010 
2017.541536  	-0.000546 
2019.470352  	-0.000024 
2021.399168  	-0.002310 
2023.327984  	-0.002247 
2025.256800  	-0.000652 
2027.185616  	0.001335 
2029.114432  	0.000396 
2031.043248  	0.000578 
2032.972064  	0.000013 
2034.900880  	-0.000147 
2036.829696  	-0.001110 
2038.758512  	0.000162 
2040.687328  	-0.000214 
2042.616144  	-0.000079 
2044.544960  	-0.000948 
2046.473776  	-0.000386 
2048.402592  	-0.000616 
2050.331408  	-0.000480 
2052.260224  	-0.001249 
2054.189040  	-0.001000 
2056.117856  	-0.001415 
2058.046672  	-0.000976 
2059.975488  	-0.001380 
2061.904304  	-0.001149 
2063.833120  	-0.001158 
2065.761936  	-0.001284 
2067.690752  	-0.002018 
2069.619568  	-0.001362 
2071.548384  	-0.001340 
2073.477200  	-0.000952 
2075.406016  	-0.000677 
2077.334832  	-0.000367 
2079.263648  	-0.000713 
2081.192464  	-0.000415 
2083.121280  	-0.000499 
2085.050096  	-0.000421 
2086.978912  	-0.000603 
2088.907728  	-0.000150 
2090.836544  	-0.000313 
2092.765360  	-0.000311 
2094.694176  	-0.000239 
2096.622992  	0.000082 
2098.551808  	0.000032 
2100.480624  	0.000161 
2102.409440  	-0.000055 
2104.338256  	-0.000190 
2106.267072  	-0.000067 
2108.195888  	0.000633 
2110.124704  	0.000209 
2112.053520  	-0.000244 
2113.982336  	-0.000465 
2115.911152  	0.000093 
2117.839968  	-0.000052 
2119.768784  	-0.000461 
2121.697600  	-0.000959 
2123.626416  	-0.000813 
2125.555232  	-0.000884 
2127.484048  	-0.000680 
2129.412864  	-0.001041 
2131.341680  	-0.000920 
2133.270496  	-0.001258 
2135.199312  	-0.000443 
2137.128128  	0.000473 
2139.056944  	0.000993 
2140.985760  	0.000290 
2142.914576  	0.000563 
2144.843392  	0.000619 
2146.772208  	0.000584 
2148.701024  	-0.000235 
2150.629840  	0.000948 
2152.558656  	0.000983 
2154.487472  	0.000959 
2156.416288  	0.000167 
2158.345104  	0.001351 
2160.273920  	0.003454 
2162.202736  	0.004399 
2164.131552  	0.003083 
2166.060368  	0.002618 
2167.989184  	0.002583 
2169.918000  	0.003997 
2171.846816  	0.002776 
2173.775632  	0.002239 
2175.704448  	0.002054 
2177.633264  	0.001944 
2179.562080  	0.000811 
2181.490896  	0.000821 
2183.419712  	0.000630 
2185.348528  	0.001004 
2187.277344  	0.000844 
2189.206160  	0.001269 
2191.134976  	0.000781 
2193.063792  	0.000528 
2194.992608  	-0.000095 
2196.921424  	0.000457 
2198.850240  	0.000748 
2200.779056  	0.000126 
2202.707872  	-0.000350 
2204.636688  	0.000419 
2206.565504  	0.000516 
2208.494320  	0.000164 
2210.423136  	-0.000696 
2212.351952  	-0.000068 
2214.280768  	0.000029 
2216.209584  	0.000150 
2218.138400  	-0.000348 
2220.067216  	0.000100 
2221.996032  	0.000016 
2223.924848  	0.000416 
2225.853664  	0.000385 
2227.782480  	0.000044 
2229.711296  	-0.001009 
2231.640112  	-0.001232 
2233.568928  	-0.001393 
2235.497744  	-0.001046 
2237.426560  	-0.001196 
2239.355376  	-0.000875 
2241.284192  	-0.001126 
2243.213008  	-0.001223 
2245.141824  	-0.001440 
2247.070640  	-0.000849 
2248.999456  	-0.001086 
2250.928272  	-0.001573 
2252.857088  	-0.001779 
2254.785904  	-0.001596 
2256.714720  	-0.001925 
2258.643536  	-0.002085 
2260.572352  	-0.002435 
2262.501168  	-0.002223 
2264.429984  	-0.002260 
2266.358800  	-0.002088 
2268.287616  	-0.002230 
2270.216432  	-0.002128 
2272.145248  	-0.002065 
2274.074064  	-0.002152 
2276.002880  	-0.001994 
2277.931696  	-0.001692 
2279.860512  	-0.001861 
2281.789328  	-0.001456 
2283.718144  	-0.001069 
2285.646960  	-0.000933 
2287.575776  	-0.001115 
2289.504592  	-0.001302 
2291.433408  	-0.001684 
2293.362224  	-0.001544 
2295.291040  	-0.001361 
2297.219856  	-0.001185 
2299.148672  	-0.001396 
2301.077488  	-0.001396 
2303.006304  	-0.001415 
2304.935120  	-0.001405 
2306.863936  	-0.001580 
2308.792752  	-0.001950 
2310.721568  	-0.002753 
2312.650384  	-0.003952 
2314.579200  	-0.005586 
2316.508016  	-0.007041 
2318.436832  	-0.008655 
2320.365648  	-0.010879 
2322.294464  	-0.013204 
2324.223280  	-0.015536 
2326.152096  	-0.018623 
2328.080912  	-0.021286 
2330.009728  	-0.024028 
2331.938544  	-0.026556 
2333.867360  	-0.028851 
2335.796176  	-0.030662 
2337.724992  	-0.031874 
2339.653808  	-0.032203 
2341.582624  	-0.032623 
2343.511440  	-0.030833 
2345.440256  	-0.026673 
2347.369072  	-0.019204 
2349.297888  	-0.015211 
2351.226704  	-0.019718 
2353.155520  	-0.028079 
2355.084336  	-0.034921 
2357.013152  	-0.040001 
2358.941968  	-0.042542 
2360.870784  	-0.044499 
2362.799600  	-0.043361 
2364.728416  	-0.040734 
2366.657232  	-0.036600 
2368.586048  	-0.031072 
2370.514864  	-0.025341 
2372.443680  	-0.019812 
2374.372496  	-0.014372 
2376.301312  	-0.009638 
2378.230128  	-0.005716 
2380.158944  	-0.003179 
2382.087760  	-0.001829 
2384.016576  	-0.001408 
2385.945392  	-0.001556 
2387.874208  	-0.002027 
2389.803024  	-0.002243 
2391.731840  	-0.002445 
2393.660656  	-0.002425 
2395.589472  	-0.002425 
2397.518288  	-0.002448 
2399.447104  	-0.002628 
2401.375920  	-0.002687 
2403.304736  	-0.002757 
2405.233552  	-0.002496 
2407.162368  	-0.002608 
2409.091184  	-0.002539 
2411.020000  	-0.002591 
2412.948816  	-0.002628 
2414.877632  	-0.002603 
2416.806448  	-0.002397 
2418.735264  	-0.002409 
2420.664080  	-0.002509 
2422.592896  	-0.002557 
2424.521712  	-0.002462 
2426.450528  	-0.002456 
2428.379344  	-0.002192 
2430.308160  	-0.001960 
2432.236976  	-0.001854 
2434.165792  	-0.001982 
2436.094608  	-0.001920 
2438.023424  	-0.001755 
2439.952240  	-0.001630 
2441.881056  	-0.001691 
2443.809872  	-0.001733 
2445.738688  	-0.001579 
2447.667504  	-0.001383 
2449.596320  	-0.001434 
2451.525136  	-0.001215 
2453.453952  	-0.001253 
2455.382768  	-0.001405 
2457.311584  	-0.001497 
2459.240400  	-0.001577 
2461.169216  	-0.001639 
2463.098032  	-0.001837 
2465.026848  	-0.001789 
2466.955664  	-0.001725 
2468.884480  	-0.002003 
2470.813296  	-0.002122 
2472.742112  	-0.002117 
2474.670928  	-0.001972 
2476.599744  	-0.001890 
2478.528560  	-0.001716 
2480.457376  	-0.001762 
2482.386192  	-0.001722 
2484.315008  	-0.001501 
2486.243824  	-0.001485 
2488.172640  	-0.001642 
2490.101456  	-0.001327 
2492.030272  	-0.001029 
2493.959088  	-0.000985 
2495.887904  	-0.000904 
2497.816720  	-0.000944 
2499.745536  	-0.000942 
2501.674352  	-0.000589 
2503.603168  	-0.000412 
2505.531984  	-0.000554 
2507.460800  	-0.000849 
2509.389616  	-0.000737 
2511.318432  	-0.000575 
2513.247248  	-0.000707 
2515.176064  	-0.000721 
2517.104880  	-0.000563 
2519.033696  	-0.000624 
2520.962512  	-0.000421 
2522.891328  	-0.000268 
2524.820144  	-0.000403 
2526.748960  	-0.000389 
2528.677776  	-0.000205 
2530.606592  	-0.000196 
2532.535408  	-0.000170 
2534.464224  	-0.000197 
2536.393040  	-0.000113 
2538.321856  	0.000061 
2540.250672  	0.000245 
2542.179488  	0.000203 
2544.108304  	0.000382 
2546.037120  	0.000421 
2547.965936  	0.000273 
2549.894752  	0.000400 
2551.823568  	0.000634 
2553.752384  	0.000761 
2555.681200  	0.001117 
2557.610016  	0.001098 
2559.538832  	0.001146 
2561.467648  	0.001427 
2563.396464  	0.001695 
2565.325280  	0.001760 
2567.254096  	0.001667 
2569.182912  	0.001629 
2571.111728  	0.001882 
2573.040544  	0.001978 
2574.969360  	0.002118 
2576.898176  	0.002385 
2578.826992  	0.002387 
2580.755808  	0.002298 
2582.684624  	0.002438 
2584.613440  	0.002504 
2586.542256  	0.002528 
2588.471072  	0.002679 
2590.399888  	0.002808 
2592.328704  	0.002848 
2594.257520  	0.002820 
2596.186336  	0.002925 
2598.115152  	0.003177 
2600.043968  	0.003180 
2601.972784  	0.003340 
2603.901600  	0.003549 
2605.830416  	0.003761 
2607.759232  	0.003880 
2609.688048  	0.004145 
2611.616864  	0.004322 
2613.545680  	0.004447 
2615.474496  	0.004578 
2617.403312  	0.004748 
2619.332128  	0.004875 
2621.260944  	0.004941 
2623.189760  	0.005058 
2625.118576  	0.005197 
2627.047392  	0.005202 
2628.976208  	0.005386 
2630.905024  	0.005673 
2632.833840  	0.005921 
2634.762656  	0.006061 
2636.691472  	0.006081 
2638.620288  	0.006155 
2640.549104  	0.006311 
2642.477920  	0.006368 
2644.406736  	0.006606 
2646.335552  	0.006741 
2648.264368  	0.006928 
2650.193184  	0.007137 
2652.122000  	0.007298 
2654.050816  	0.007497 
2655.979632  	0.007723 
2657.908448  	0.007921 
2659.837264  	0.008102 
2661.766080  	0.008290 
2663.694896  	0.008456 
2665.623712  	0.008542 
2667.552528  	0.008726 
2669.481344  	0.008949 
2671.410160  	0.009140 
2673.338976  	0.009395 
2675.267792  	0.009603 
2677.196608  	0.009821 
2679.125424  	0.010046 
2681.054240  	0.010174 
2682.983056  	0.010297 
2684.911872  	0.010332 
2686.840688  	0.010554 
2688.769504  	0.010766 
2690.698320  	0.010876 
2692.627136  	0.010927 
2694.555952  	0.011058 
2696.484768  	0.011199 
2698.413584  	0.011309 
2700.342400  	0.011489 
2702.271216  	0.011746 
2704.200032  	0.011933 
2706.128848  	0.012089 
2708.057664  	0.012160 
2709.986480  	0.012374 
2711.915296  	0.012587 
2713.844112  	0.012803 
2715.772928  	0.012989 
2717.701744  	0.013222 
2719.630560  	0.013563 
2721.559376  	0.013794 
2723.488192  	0.013935 
2725.417008  	0.014218 
2727.345824  	0.014484 
2729.274640  	0.014698 
2731.203456  	0.014950 
2733.132272  	0.015256 
2735.061088  	0.015519 
2736.989904  	0.015798 
2738.918720  	0.015918 
2740.847536  	0.016103 
2742.776352  	0.016266 
2744.705168  	0.016453 
2746.633984  	0.016587 
2748.562800  	0.016689 
2750.491616  	0.016819 
2752.420432  	0.017065 
2754.349248  	0.017070 
2756.278064  	0.017007 
2758.206880  	0.016886 
2760.135696  	0.016884 
2762.064512  	0.017028 
2763.993328  	0.017102 
2765.922144  	0.017121 
2767.850960  	0.017132 
2769.779776  	0.017125 
2771.708592  	0.017257 
2773.637408  	0.017333 
2775.566224  	0.017367 
2777.495040  	0.017431 
2779.423856  	0.017479 
2781.352672  	0.017546 
2783.281488  	0.017489 
2785.210304  	0.017518 
2787.139120  	0.017729 
2789.067936  	0.017829 
2790.996752  	0.017944 
2792.925568  	0.017947 
2794.854384  	0.017991 
2796.783200  	0.018059 
2798.712016  	0.018057 
2800.640832  	0.018056 
2802.569648  	0.018256 
2804.498464  	0.018457 
2806.427280  	0.018478 
2808.356096  	0.018364 
2810.284912  	0.018436 
2812.213728  	0.018602 
2814.142544  	0.018716 
2816.071360  	0.018831 
2818.000176  	0.018903 
2819.928992  	0.018940 
2821.857808  	0.018960 
2823.786624  	0.018987 
2825.715440  	0.019040 
2827.644256  	0.019033 
2829.573072  	0.019110 
2831.501888  	0.019234 
2833.430704  	0.019174 
2835.359520  	0.019059 
2837.288336  	0.019164 
2839.217152  	0.019325 
2841.145968  	0.019387 
2843.074784  	0.019551 
2845.003600  	0.019762 
2846.932416  	0.019980 
2848.861232  	0.020471 
2850.790048  	0.021008 
2852.718864  	0.021370 
2854.647680  	0.021656 
2856.576496  	0.021860 
2858.505312  	0.022302 
2860.434128  	0.023032 
2862.362944  	0.023645 
2864.291760  	0.024194 
2866.220576  	0.024994 
2868.149392  	0.025981 
2870.078208  	0.026603 
2872.007024  	0.027163 
2873.935840  	0.027937 
2875.864656  	0.028873 
2877.793472  	0.030078 
2879.722288  	0.031396 
2881.651104  	0.032739 
2883.579920  	0.033895 
2885.508736  	0.034630 
2887.437552  	0.035010 
2889.366368  	0.035479 
2891.295184  	0.036064 
2893.224000  	0.036413 
2895.152816  	0.036601 
2897.081632  	0.036953 
2899.010448  	0.038032 
2900.939264  	0.039009 
2902.868080  	0.038553 
2904.796896  	0.038103 
2906.725712  	0.038232 
2908.654528  	0.038600 
2910.583344  	0.039195 
2912.512160  	0.039395 
2914.440976  	0.039482 
2916.369792  	0.039908 
2918.298608  	0.040538 
2920.227424  	0.041273 
2922.156240  	0.041990 
2924.085056  	0.042508 
2926.013872  	0.043127 
2927.942688  	0.043914 
2929.871504  	0.044608 
2931.800320  	0.045234 
2933.729136  	0.046141 
2935.657952  	0.046968 
2937.586768  	0.047749 
2939.515584  	0.048743 
2941.444400  	0.049626 
2943.373216  	0.050231 
2945.302032  	0.050833 
2947.230848  	0.051215 
2949.159664  	0.051511 
2951.088480  	0.052036 
2953.017296  	0.052660 
2954.946112  	0.053118 
2956.874928  	0.053489 
2958.803744  	0.053746 
2960.732560  	0.053981 
2962.661376  	0.054213 
2964.590192  	0.054554 
2966.519008  	0.055009 
2968.447824  	0.055393 
2970.376640  	0.055609 
2972.305456  	0.055440 
2974.234272  	0.055082 
2976.163088  	0.054885 
2978.091904  	0.054605 
2980.020720  	0.054529 
2981.949536  	0.054489 
2983.878352  	0.054573 
2985.807168  	0.054924 
2987.735984  	0.055396 
2989.664800  	0.055235 
2991.593616  	0.053311 
2993.522432  	0.052232 
2995.451248  	0.052135 
2997.380064  	0.051961 
2999.308880  	0.051586 
3001.237696  	0.051125 
3003.166512  	0.050841 
3005.095328  	0.050506 
3007.024144  	0.050017 
3008.952960  	0.049649 
3010.881776  	0.049357 
3012.810592  	0.048941 
3014.739408  	0.048605 
3016.668224  	0.048403 
3018.597040  	0.048417 
3020.525856  	0.048363 
3022.454672  	0.048395 
3024.383488  	0.048424 
3026.312304  	0.048297 
3028.241120  	0.048381 
3030.169936  	0.048672 
3032.098752  	0.048857 
3034.027568  	0.049097 
3035.956384  	0.049471 
3037.885200  	0.049861 
3039.814016  	0.050167 
3041.742832  	0.050666 
3043.671648  	0.051108 
3045.600464  	0.051558 
3047.529280  	0.052059 
3049.458096  	0.052661 
3051.386912  	0.053398 
3053.315728  	0.054066 
3055.244544  	0.054833 
3057.173360  	0.055806 
3059.102176  	0.056653 
3061.030992  	0.057446 
3062.959808  	0.058352 
3064.888624  	0.059298 
3066.817440  	0.060266 
3068.746256  	0.061476 
3070.675072  	0.062698 
3072.603888  	0.063700 
3074.532704  	0.064698 
3076.461520  	0.065897 
3078.390336  	0.066890 
3080.319152  	0.067821 
3082.247968  	0.068920 
3084.176784  	0.070016 
3086.105600  	0.071098 
3088.034416  	0.072257 
3089.963232  	0.073442 
3091.892048  	0.074310 
3093.820864  	0.075253 
3095.749680  	0.076404 
3097.678496  	0.077667 
3099.607312  	0.078951 
3101.536128  	0.080206 
3103.464944  	0.081442 
3105.393760  	0.082457 
3107.322576  	0.083330 
3109.251392  	0.084302 
3111.180208  	0.085240 
3113.109024  	0.086090 
3115.037840  	0.086968 
3116.966656  	0.088066 
3118.895472  	0.089081 
3120.824288  	0.090069 
3122.753104  	0.091118 
3124.681920  	0.091822 
3126.610736  	0.092437 
3128.539552  	0.093480 
3130.468368  	0.094381 
3132.397184  	0.095019 
3134.326000  	0.095762 
3136.254816  	0.096530 
3138.183632  	0.097449 
3140.112448  	0.098520 
3142.041264  	0.099365 
3143.970080  	0.100056 
3145.898896  	0.100701 
3147.827712  	0.101390 
3149.756528  	0.102156 
3151.685344  	0.102956 
3153.614160  	0.104011 
3155.542976  	0.105136 
3157.471792  	0.105926 
3159.400608  	0.106664 
3161.329424  	0.107278 
3163.258240  	0.107786 
3165.187056  	0.108422 
3167.115872  	0.109215 
3169.044688  	0.109966 
3170.973504  	0.110584 
3172.902320  	0.111119 
3174.831136  	0.111580 
3176.759952  	0.112025 
3178.688768  	0.112458 
3180.617584  	0.113005 
3182.546400  	0.113507 
3184.475216  	0.113702 
3186.404032  	0.113768 
3188.332848  	0.114011 
3190.261664  	0.114260 
3192.190480  	0.114385 
3194.119296  	0.114437 
3196.048112  	0.114524 
3197.976928  	0.114432 
3199.905744  	0.114466 
3201.834560  	0.114382 
3203.763376  	0.114216 
3205.692192  	0.114014 
3207.621008  	0.113650 
3209.549824  	0.113421 
3211.478640  	0.113483 
3213.407456  	0.113545 
3215.336272  	0.113298 
3217.265088  	0.113058 
3219.193904  	0.112908 
3221.122720  	0.112546 
3223.051536  	0.112092 
3224.980352  	0.111869 
3226.909168  	0.111761 
3228.837984  	0.111548 
3230.766800  	0.111272 
3232.695616  	0.111046 
3234.624432  	0.110927 
3236.553248  	0.110825 
3238.482064  	0.110822 
3240.410880  	0.110877 
3242.339696  	0.110952 
3244.268512  	0.110679 
3246.197328  	0.110763 
3248.126144  	0.111153 
3250.054960  	0.111372 
3251.983776  	0.111684 
3253.912592  	0.111861 
3255.841408  	0.112032 
3257.770224  	0.112294 
3259.699040  	0.112545 
3261.627856  	0.112816 
3263.556672  	0.113107 
3265.485488  	0.113396 
3267.414304  	0.113632 
3269.343120  	0.114162 
3271.271936  	0.114630 
3273.200752  	0.114468 
3275.129568  	0.114521 
3277.058384  	0.115012 
3278.987200  	0.115367 
3280.916016  	0.115425 
3282.844832  	0.115487 
3284.773648  	0.115618 
3286.702464  	0.115798 
3288.631280  	0.116406 
3290.560096  	0.116968 
3292.488912  	0.117217 
3294.417728  	0.117513 
3296.346544  	0.118030 
3298.275360  	0.118425 
3300.204176  	0.118834 
3302.132992  	0.119160 
3304.061808  	0.119382 
3305.990624  	0.119881 
3307.919440  	0.120397 
3309.848256  	0.120862 
3311.777072  	0.121161 
3313.705888  	0.121296 
3315.634704  	0.121808 
3317.563520  	0.122454 
3319.492336  	0.122708 
3321.421152  	0.122706 
3323.349968  	0.123008 
3325.278784  	0.123370 
3327.207600  	0.123594 
3329.136416  	0.123410 
3331.065232  	0.123379 
3332.994048  	0.123600 
3334.922864  	0.123826 
3336.851680  	0.123968 
3338.780496  	0.123723 
3340.709312  	0.123322 
3342.638128  	0.123035 
3344.566944  	0.122542 
3346.495760  	0.122288 
3348.424576  	0.121968 
3350.353392  	0.121419 
3352.282208  	0.120854 
3354.211024  	0.120481 
3356.139840  	0.120308 
3358.068656  	0.119851 
3359.997472  	0.119318 
3361.926288  	0.118738 
3363.855104  	0.118040 
3365.783920  	0.117671 
3367.712736  	0.117259 
3369.641552  	0.116579 
3371.570368  	0.115853 
3373.499184  	0.115380 
3375.428000  	0.114847 
3377.356816  	0.114402 
3379.285632  	0.114119 
3381.214448  	0.113568 
3383.143264  	0.113112 
3385.072080  	0.112824 
3387.000896  	0.112238 
3388.929712  	0.111553 
3390.858528  	0.110973 
3392.787344  	0.110553 
3394.716160  	0.109908 
3396.644976  	0.109386 
3398.573792  	0.108955 
3400.502608  	0.108432 
3402.431424  	0.107516 
3404.360240  	0.106703 
3406.289056  	0.106033 
3408.217872  	0.105507 
3410.146688  	0.104822 
3412.075504  	0.104235 
3414.004320  	0.103547 
3415.933136  	0.102989 
3417.861952  	0.102184 
3419.790768  	0.101543 
3421.719584  	0.101030 
3423.648400  	0.100242 
3425.577216  	0.099223 
3427.506032  	0.098483 
3429.434848  	0.097718 
3431.363664  	0.096961 
3433.292480  	0.096041 
3435.221296  	0.095344 
3437.150112  	0.094936 
3439.078928  	0.094279 
3441.007744  	0.093346 
3442.936560  	0.092643 
3444.865376  	0.092010 
3446.794192  	0.091180 
3448.723008  	0.090047 
3450.651824  	0.089176 
3452.580640  	0.088300 
3454.509456  	0.087631 
3456.438272  	0.086989 
3458.367088  	0.086170 
3460.295904  	0.085116 
3462.224720  	0.084041 
3464.153536  	0.083010 
3466.082352  	0.081979 
3468.011168  	0.080836 
3469.939984  	0.079782 
3471.868800  	0.078794 
3473.797616  	0.077750 
3475.726432  	0.076764 
3477.655248  	0.075825 
3479.584064  	0.075313 
3481.512880  	0.074443 
3483.441696  	0.072991 
3485.370512  	0.071958 
3487.299328  	0.070746 
3489.228144  	0.069619 
3491.156960  	0.068509 
3493.085776  	0.067542 
3495.014592  	0.066611 
3496.943408  	0.065723 
3498.872224  	0.064987 
3500.801040  	0.064935 
3502.729856  	0.064179 
3504.658672  	0.062585 
3506.587488  	0.061604 
3508.516304  	0.061112 
3510.445120  	0.059993 
3512.373936  	0.058492 
3514.302752  	0.057638 
3516.231568  	0.057135 
3518.160384  	0.056482 
3520.089200  	0.055801 
3522.018016  	0.055586 
3523.946832  	0.055577 
3525.875648  	0.054326 
3527.804464  	0.052517 
3529.733280  	0.051207 
3531.662096  	0.050160 
3533.590912  	0.049397 
3535.519728  	0.049388 
3537.448544  	0.048679 
3539.377360  	0.047219 
3541.306176  	0.046571 
3543.234992  	0.046931 
3545.163808  	0.047714 
3547.092624  	0.046298 
3549.021440  	0.043742 
3550.950256  	0.042844 
3552.879072  	0.042320 
3554.807888  	0.041001 
3556.736704  	0.039855 
3558.665520  	0.039608 
3560.594336  	0.039244 
3562.523152  	0.038106 
3564.451968  	0.038291 
3566.380784  	0.039526 
3568.309600  	0.037354 
3570.238416  	0.034837 
3572.167232  	0.033620 
3574.096048  	0.032368 
3576.024864  	0.031343 
3577.953680  	0.030863 
3579.882496  	0.030116 
3581.811312  	0.028948 
3583.740128  	0.028200 
3585.668944  	0.028527 
3587.597760  	0.027864 
3589.526576  	0.025595 
3591.455392  	0.024085 
3593.384208  	0.023535 
3595.313024  	0.022551 
3597.241840  	0.020821 
3599.170656  	0.018980 
3601.099472  	0.017770 
3603.028288  	0.017423 
3604.957104  	0.017306 
3606.885920  	0.017097 
3608.814736  	0.016159 
3610.743552  	0.015402 
3612.672368  	0.014203 
3614.601184  	0.012762 
3616.530000  	0.011977 
3618.458816  	0.009981 
3620.387632  	0.007944 
3622.316448  	0.007588 
3624.245264  	0.007417 
3626.174080  	0.007179 
3628.102896  	0.004927 
3630.031712  	0.002032 
3631.960528  	0.003329 
3633.889344  	0.003207 
3635.818160  	0.002540 
3637.746976  	0.001834 
3639.675792  	0.001659 
3641.604608  	0.002076 
3643.533424  	0.002111 
3645.462240  	0.001618 
3647.391056  	-0.000783 
3649.319872  	-0.004836 
3651.248688  	-0.005744 
3653.177504  	-0.003070 
3655.106320  	-0.003041 
3657.035136  	-0.004611 
3658.963952  	-0.004093 
3660.892768  	-0.003898 
3662.821584  	-0.004247 
3664.750400  	-0.004666 
3666.679216  	-0.005031 
3668.608032  	-0.007161 
3670.536848  	-0.010320 
3672.465664  	-0.008779 
3674.394480  	-0.009387 
3676.323296  	-0.012498 
3678.252112  	-0.010817 
3680.180928  	-0.010291 
3682.109744  	-0.009442 
3684.038560  	-0.009143 
3685.967376  	-0.009841 
3687.896192  	-0.013280 
3689.825008  	-0.016487 
3691.753824  	-0.015333 
3693.682640  	-0.013322 
3695.611456  	-0.012908 
3697.540272  	-0.013021 
3699.469088  	-0.013351 
3701.397904  	-0.015020 
3703.326720  	-0.015686 
3705.255536  	-0.014941 
3707.184352  	-0.015425 
3709.113168  	-0.017364 
3711.041984  	-0.019483 
3712.970800  	-0.018113 
3714.899616  	-0.015023 
3716.828432  	-0.014647 
3718.757248  	-0.015414 
3720.686064  	-0.016150 
3722.614880  	-0.016522 
3724.543696  	-0.015827 
3726.472512  	-0.016088 
3728.401328  	-0.016695 
3730.330144  	-0.017967 
3732.258960  	-0.019620 
3734.187776  	-0.017721 
3736.116592  	-0.017671 
3738.045408  	-0.018135 
3739.974224  	-0.016465 
3741.903040  	-0.015457 
3743.831856  	-0.017539 
3745.760672  	-0.019303 
3747.689488  	-0.018108 
3749.618304  	-0.020971 
3751.547120  	-0.022475 
3753.475936  	-0.019623 
3755.404752  	-0.017114 
3757.333568  	-0.016606 
3759.262384  	-0.017255 
3761.191200  	-0.017036 
3763.120016  	-0.015412 
3765.048832  	-0.016002 
3766.977648  	-0.016122 
3768.906464  	-0.016928 
3770.835280  	-0.017442 
3772.764096  	-0.015940 
3774.692912  	-0.015378 
3776.621728  	-0.015471 
3778.550544  	-0.016794 
3780.479360  	-0.017511 
3782.408176  	-0.016093 
3784.336992  	-0.016203 
3786.265808  	-0.016034 
3788.194624  	-0.015691 
3790.123440  	-0.015689 
3792.052256  	-0.015647 
3793.981072  	-0.015696 
3795.909888  	-0.017075 
3797.838704  	-0.017076 
3799.767520  	-0.017720 
3801.696336  	-0.021395 
3803.625152  	-0.019209 
3805.553968  	-0.018139 
3807.482784  	-0.019481 
3809.411600  	-0.017092 
3811.340416  	-0.015654 
3813.269232  	-0.015686 
3815.198048  	-0.018496 
3817.126864  	-0.019831 
3819.055680  	-0.018407 
3820.984496  	-0.021209 
3822.913312  	-0.019447 
3824.842128  	-0.016793 
3826.770944  	-0.017252 
3828.699760  	-0.016660 
3830.628576  	-0.016978 
3832.557392  	-0.017814 
3834.486208  	-0.017739 
3836.415024  	-0.018928 
3838.343840  	-0.020192 
3840.272656  	-0.018902 
3842.201472  	-0.017511 
3844.130288  	-0.017159 
3846.059104  	-0.016096 
3847.987920  	-0.015333 
3849.916736  	-0.015580 
3851.845552  	-0.018167 
3853.774368  	-0.022783 
3855.703184  	-0.019575 
3857.632000  	-0.016534 
3859.560816  	-0.015497 
3861.489632  	-0.015731 
3863.418448  	-0.016487 
3865.347264  	-0.016702 
3867.276080  	-0.015589 
3869.204896  	-0.016473 
3871.133712  	-0.016621 
3873.062528  	-0.015936 
3874.991344  	-0.016490 
3876.920160  	-0.015344 
3878.848976  	-0.014856 
3880.777792  	-0.015245 
3882.706608  	-0.014503 
3884.635424  	-0.014691 
3886.564240  	-0.016174 
3888.493056  	-0.015675 
3890.421872  	-0.016008 
3892.350688  	-0.016510 
3894.279504  	-0.015367 
3896.208320  	-0.014791 
3898.137136  	-0.014486 
3900.065952  	-0.014216 
3901.994768  	-0.014001 
3903.923584  	-0.014871 
3905.852400  	-0.015565 
3907.781216  	-0.015647 
3909.710032  	-0.015686 
3911.638848  	-0.015602 
3913.567664  	-0.015147 
3915.496480  	-0.014365 
3917.425296  	-0.014236 
3919.354112  	-0.014700 
3921.282928  	-0.014781 
3923.211744  	-0.014217 
3925.140560  	-0.013982 
3927.069376  	-0.014632 
3928.998192  	-0.014805 
3930.927008  	-0.013927 
3932.855824  	-0.013658 
3934.784640  	-0.014655 
3936.713456  	-0.015111 
3938.642272  	-0.014991 
3940.571088  	-0.014504 
3942.499904  	-0.013847 
3944.428720  	-0.014106 
3946.357536  	-0.014009 
3948.286352  	-0.013456 
3950.215168  	-0.014297 
3952.143984  	-0.015479 
3954.072800  	-0.015814 
3956.001616  	-0.015321 
3957.930432  	-0.015140 
3959.859248  	-0.015105 
3961.788064  	-0.014964 
3963.716880  	-0.015195 
3965.645696  	-0.015624 
3967.574512  	-0.015631 
3969.503328  	-0.015261 
3971.432144  	-0.015227 
3973.360960  	-0.015277 
3975.289776  	-0.014997 
3977.218592  	-0.014993 
3979.147408  	-0.015378 
3981.076224  	-0.015504 
3983.005040  	-0.015391 
3984.933856  	-0.015367 
3986.862672  	-0.015403 
3988.791488  	-0.015137 
3990.720304  	-0.014871 
3992.649120  	-0.015147 
3994.577936  	-0.015382 
3996.506752  	-0.015530 
3998.435568  	-0.015656 
4000.364384  	-0.015612 