##TITLE=No Description
##DATA TYPE=INFRARED SPECTRUM
##XUNITS=1/CM
##YUNITS=Abs
399.264912  	0.633531 
401.193728  	0.605810 
403.122544  	0.600542 
405.051360  	0.584157 
406.980176  	0.584515 
408.908992  	0.595239 
410.837808  	0.603307 
412.766624  	0.597381 
414.695440  	0.591845 
416.624256  	0.587171 
418.553072  	0.600963 
420.481888  	0.597681 
422.410704  	0.592756 
424.339520  	0.575740 
426.268336  	0.566886 
428.197152  	0.562029 
430.125968  	0.567894 
432.054784  	0.563515 
433.983600  	0.567469 
435.912416  	0.568444 
437.841232  	0.564001 
439.770048  	0.547918 
441.698864  	0.546726 
443.627680  	0.544584 
445.556496  	0.544746 
447.485312  	0.541567 
449.414128  	0.543299 
451.342944  	0.545955 
453.271760  	0.546659 
455.200576  	0.543692 
457.129392  	0.551335 
459.058208  	0.539745 
460.987024  	0.534495 
462.915840  	0.533094 
464.844656  	0.533838 
466.773472  	0.530344 
468.702288  	0.526711 
470.631104  	0.522788 
472.559920  	0.526833 
474.488736  	0.522635 
476.417552  	0.525178 
478.346368  	0.522231 
480.275184  	0.522251 
482.204000  	0.519778 
484.132816  	0.522679 
486.061632  	0.523646 
487.990448  	0.522955 
489.919264  	0.519274 
491.848080  	0.519745 
493.776896  	0.514907 
495.705712  	0.513758 
497.634528  	0.515367 
499.563344  	0.515110 
501.492160  	0.508332 
503.420976  	0.506130 
505.349792  	0.503246 
507.278608  	0.505312 
509.207424  	0.507707 
511.136240  	0.509872 
513.065056  	0.508501 
514.993872  	0.511510 
516.922688  	0.511915 
518.851504  	0.512332 
520.780320  	0.511783 
522.709136  	0.511275 
524.637952  	0.508483 
526.566768  	0.507999 
528.495584  	0.504991 
530.424400  	0.503748 
532.353216  	0.497734 
534.282032  	0.492757 
536.210848  	0.487943 
538.139664  	0.483416 
540.068480  	0.478412 
541.997296  	0.475774 
543.926112  	0.471349 
545.854928  	0.468269 
547.783744  	0.464961 
549.712560  	0.462440 
551.641376  	0.459759 
553.570192  	0.457489 
555.499008  	0.454143 
557.427824  	0.452783 
559.356640  	0.448320 
561.285456  	0.444969 
563.214272  	0.442020 
565.143088  	0.439280 
567.071904  	0.436105 
569.000720  	0.433611 
570.929536  	0.430776 
572.858352  	0.427590 
574.787168  	0.424515 
576.715984  	0.422976 
578.644800  	0.419392 
580.573616  	0.415799 
582.502432  	0.410378 
584.431248  	0.407268 
586.360064  	0.404085 
588.288880  	0.402051 
590.217696  	0.399482 
592.146512  	0.397869 
594.075328  	0.394648 
596.004144  	0.392455 
597.932960  	0.391068 
599.861776  	0.390426 
601.790592  	0.387590 
603.719408  	0.385144 
605.648224  	0.383348 
607.577040  	0.382692 
609.505856  	0.381335 
611.434672  	0.379105 
613.363488  	0.376896 
615.292304  	0.376049 
617.221120  	0.374078 
619.149936  	0.372475 
621.078752  	0.370651 
623.007568  	0.369843 
624.936384  	0.368989 
626.865200  	0.367897 
628.794016  	0.366371 
630.722832  	0.365285 
632.651648  	0.364038 
634.580464  	0.363627 
636.509280  	0.362601 
638.438096  	0.362091 
640.366912  	0.361262 
642.295728  	0.359025 
644.224544  	0.356107 
646.153360  	0.353010 
648.082176  	0.348625 
650.010992  	0.344417 
651.939808  	0.340624 
653.868624  	0.336520 
655.797440  	0.332954 
657.726256  	0.330084 
659.655072  	0.326681 
661.583888  	0.322878 
663.512704  	0.319541 
665.441520  	0.316777 
667.370336  	0.306542 
669.299152  	0.299849 
671.227968  	0.302193 
673.156784  	0.299912 
675.085600  	0.296867 
677.014416  	0.294555 
678.943232  	0.292107 
680.872048  	0.290317 
682.800864  	0.288749 
684.729680  	0.287081 
686.658496  	0.285995 
688.587312  	0.285360 
690.516128  	0.283624 
692.444944  	0.282203 
694.373760  	0.281644 
696.302576  	0.280020 
698.231392  	0.277336 
700.160208  	0.275038 
702.089024  	0.273061 
704.017840  	0.271213 
705.946656  	0.268951 
707.875472  	0.266336 
709.804288  	0.263830 
711.733104  	0.262002 
713.661920  	0.260266 
715.590736  	0.258524 
717.519552  	0.257393 
719.448368  	0.257064 
721.377184  	0.256568 
723.306000  	0.256509 
725.234816  	0.256439 
727.163632  	0.255787 
729.092448  	0.253580 
731.021264  	0.250590 
732.950080  	0.247629 
734.878896  	0.244931 
736.807712  	0.241875 
738.736528  	0.239622 
740.665344  	0.237536 
742.594160  	0.235495 
744.522976  	0.233822 
746.451792  	0.232097 
748.380608  	0.230457 
750.309424  	0.228999 
752.238240  	0.227554 
754.167056  	0.226264 
756.095872  	0.224758 
758.024688  	0.223607 
759.953504  	0.222765 
761.882320  	0.223051 
763.811136  	0.223041 
765.739952  	0.221491 
767.668768  	0.218770 
769.597584  	0.216026 
771.526400  	0.214364 
773.455216  	0.214935 
775.384032  	0.217561 
777.312848  	0.221497 
779.241664  	0.224195 
781.170480  	0.223513 
783.099296  	0.219862 
785.028112  	0.214842 
786.956928  	0.209289 
788.885744  	0.204895 
790.814560  	0.201543 
792.743376  	0.199052 
794.672192  	0.197499 
796.601008  	0.196281 
798.529824  	0.193458 
800.458640  	0.189623 
802.387456  	0.186377 
804.316272  	0.183939 
806.245088  	0.182278 
808.173904  	0.181103 
810.102720  	0.180121 
812.031536  	0.179348 
813.960352  	0.179060 
815.889168  	0.178635 
817.817984  	0.178233 
819.746800  	0.177991 
821.675616  	0.177983 
823.604432  	0.177680 
825.533248  	0.177029 
827.462064  	0.176567 
829.390880  	0.175686 
831.319696  	0.174223 
833.248512  	0.172237 
835.177328  	0.170047 
837.106144  	0.167663 
839.034960  	0.164632 
840.963776  	0.161118 
842.892592  	0.157657 
844.821408  	0.154482 
846.750224  	0.151633 
848.679040  	0.149071 
850.607856  	0.147048 
852.536672  	0.145641 
854.465488  	0.144249 
856.394304  	0.143200 
858.323120  	0.142520 
860.251936  	0.141152 
862.180752  	0.139191 
864.109568  	0.137350 
866.038384  	0.135551 
867.967200  	0.133751 
869.896016  	0.131899 
871.824832  	0.130538 
873.753648  	0.129652 
875.682464  	0.130066 
877.611280  	0.131348 
879.540096  	0.132767 
881.468912  	0.133561 
883.397728  	0.134429 
885.326544  	0.135358 
887.255360  	0.135853 
889.184176  	0.135500 
891.112992  	0.134754 
893.041808  	0.133024 
894.970624  	0.130433 
896.899440  	0.127380 
898.828256  	0.123419 
900.757072  	0.119491 
902.685888  	0.116188 
904.614704  	0.113860 
906.543520  	0.113109 
908.472336  	0.113518 
910.401152  	0.114768 
912.329968  	0.116440 
914.258784  	0.118431 
916.187600  	0.120006 
918.116416  	0.121388 
920.045232  	0.122410 
921.974048  	0.122863 
923.902864  	0.123039 
925.831680  	0.123003 
927.760496  	0.123097 
929.689312  	0.123399 
931.618128  	0.124001 
933.546944  	0.124287 
935.475760  	0.124194 
937.404576  	0.123835 
939.333392  	0.123200 
941.262208  	0.122760 
943.191024  	0.123412 
945.119840  	0.126083 
947.048656  	0.130637 
948.977472  	0.136730 
950.906288  	0.144554 
952.835104  	0.153654 
954.763920  	0.163512 
956.692736  	0.173048 
958.621552  	0.181483 
960.550368  	0.187651 
962.479184  	0.190826 
964.408000  	0.190604 
966.336816  	0.186824 
968.265632  	0.179843 
970.194448  	0.170173 
972.123264  	0.158639 
974.052080  	0.146558 
975.980896  	0.134834 
977.909712  	0.123832 
979.838528  	0.113824 
981.767344  	0.105354 
983.696160  	0.098847 
985.624976  	0.094620 
987.553792  	0.092598 
989.482608  	0.092844 
991.411424  	0.095339 
993.340240  	0.099327 
995.269056  	0.104423 
997.197872  	0.109852 
999.126688  	0.115528 
1001.055504  	0.121202 
1002.984320  	0.127492 
1004.913136  	0.133946 
1006.841952  	0.139998 
1008.770768  	0.145419 
1010.699584  	0.150160 
1012.628400  	0.153456 
1014.557216  	0.155603 
1016.486032  	0.156741 
1018.414848  	0.157136 
1020.343664  	0.157092 
1022.272480  	0.156818 
1024.201296  	0.157035 
1026.130112  	0.158291 
1028.058928  	0.159207 
1029.987744  	0.158966 
1031.916560  	0.161015 
1033.845376  	0.165043 
1035.774192  	0.170338 
1037.703008  	0.176659 
1039.631824  	0.183879 
1041.560640  	0.193463 
1043.489456  	0.205999 
1045.418272  	0.220678 
1047.347088  	0.235818 
1049.275904  	0.249278 
1051.204720  	0.259942 
1053.133536  	0.265830 
1055.062352  	0.268063 
1056.991168  	0.268674 
1058.919984  	0.267447 
1060.848800  	0.264996 
1062.777616  	0.264538 
1064.706432  	0.265462 
1066.635248  	0.264546 
1068.564064  	0.258792 
1070.492880  	0.253025 
1072.421696  	0.248165 
1074.350512  	0.245012 
1076.279328  	0.243591 
1078.208144  	0.244989 
1080.136960  	0.248351 
1082.065776  	0.252477 
1083.994592  	0.254765 
1085.923408  	0.253992 
1087.852224  	0.249546 
1089.781040  	0.242868 
1091.709856  	0.234207 
1093.638672  	0.224747 
1095.567488  	0.213893 
1097.496304  	0.202090 
1099.425120  	0.190075 
1101.353936  	0.177950 
1103.282752  	0.165612 
1105.211568  	0.153619 
1107.140384  	0.141805 
1109.069200  	0.130473 
1110.998016  	0.120444 
1112.926832  	0.111337 
1114.855648  	0.102900 
1116.784464  	0.095143 
1118.713280  	0.087924 
1120.642096  	0.081298 
1122.570912  	0.075194 
1124.499728  	0.069194 
1126.428544  	0.063956 
1128.357360  	0.059220 
1130.286176  	0.055282 
1132.214992  	0.052091 
1134.143808  	0.049619 
1136.072624  	0.047487 
1138.001440  	0.045874 
1139.930256  	0.043864 
1141.859072  	0.041801 
1143.787888  	0.039693 
1145.716704  	0.037639 
1147.645520  	0.035482 
1149.574336  	0.033741 
1151.503152  	0.032324 
1153.431968  	0.031794 
1155.360784  	0.031819 
1157.289600  	0.032401 
1159.218416  	0.033523 
1161.147232  	0.035138 
1163.076048  	0.036832 
1165.004864  	0.038802 
1166.933680  	0.040443 
1168.862496  	0.042320 
1170.791312  	0.044288 
1172.720128  	0.046828 
1174.648944  	0.049300 
1176.577760  	0.051778 
1178.506576  	0.054045 
1180.435392  	0.056631 
1182.364208  	0.059188 
1184.293024  	0.062035 
1186.221840  	0.064997 
1188.150656  	0.068398 
1190.079472  	0.072360 
1192.008288  	0.077281 
1193.937104  	0.083050 
1195.865920  	0.089586 
1197.794736  	0.096642 
1199.723552  	0.104501 
1201.652368  	0.112477 
1203.581184  	0.120617 
1205.510000  	0.128782 
1207.438816  	0.136444 
1209.367632  	0.143698 
1211.296448  	0.150535 
1213.225264  	0.156544 
1215.154080  	0.161212 
1217.082896  	0.164761 
1219.011712  	0.167444 
1220.940528  	0.169730 
1222.869344  	0.171399 
1224.798160  	0.172300 
1226.726976  	0.172245 
1228.655792  	0.171756 
1230.584608  	0.170627 
1232.513424  	0.168538 
1234.442240  	0.165439 
1236.371056  	0.161759 
1238.299872  	0.157382 
1240.228688  	0.152952 
1242.157504  	0.147530 
1244.086320  	0.140981 
1246.015136  	0.134730 
1247.943952  	0.128735 
1249.872768  	0.122455 
1251.801584  	0.115933 
1253.730400  	0.109465 
1255.659216  	0.103011 
1257.588032  	0.096895 
1259.516848  	0.090764 
1261.445664  	0.084844 
1263.374480  	0.079283 
1265.303296  	0.074627 
1267.232112  	0.070636 
1269.160928  	0.067443 
1271.089744  	0.064893 
1273.018560  	0.063307 
1274.947376  	0.062445 
1276.876192  	0.062265 
1278.805008  	0.061894 
1280.733824  	0.060781 
1282.662640  	0.058829 
1284.591456  	0.056614 
1286.520272  	0.054763 
1288.449088  	0.053563 
1290.377904  	0.052807 
1292.306720  	0.052907 
1294.235536  	0.053029 
1296.164352  	0.052579 
1298.093168  	0.050709 
1300.021984  	0.048239 
1301.950800  	0.045521 
1303.879616  	0.043015 
1305.808432  	0.040148 
1307.737248  	0.037310 
1309.666064  	0.034392 
1311.594880  	0.032681 
1313.523696  	0.031296 
1315.452512  	0.030133 
1317.381328  	0.029588 
1319.310144  	0.029307 
1321.238960  	0.028946 
1323.167776  	0.029295 
1325.096592  	0.029965 
1327.025408  	0.030323 
1328.954224  	0.030147 
1330.883040  	0.029832 
1332.811856  	0.029012 
1334.740672  	0.028796 
1336.669488  	0.029818 
1338.598304  	0.031255 
1340.527120  	0.029609 
1342.455936  	0.026834 
1344.384752  	0.026149 
1346.313568  	0.026484 
1348.242384  	0.027122 
1350.171200  	0.028363 
1352.100016  	0.029995 
1354.028832  	0.032053 
1355.957648  	0.033788 
1357.886464  	0.035891 
1359.815280  	0.038849 
1361.744096  	0.042495 
1363.672912  	0.043733 
1365.601728  	0.044226 
1367.530544  	0.046305 
1369.459360  	0.047893 
1371.388176  	0.048925 
1373.316992  	0.049568 
1375.245808  	0.047582 
1377.174624  	0.046042 
1379.103440  	0.044357 
1381.032256  	0.041966 
1382.961072  	0.039845 
1384.889888  	0.039342 
1386.818704  	0.038748 
1388.747520  	0.035836 
1390.676336  	0.034485 
1392.605152  	0.035808 
1394.533968  	0.035983 
1396.462784  	0.034259 
1398.391600  	0.033679 
1400.320416  	0.032806 
1402.249232  	0.034008 
1404.178048  	0.035931 
1406.106864  	0.036467 
1408.035680  	0.037246 
1409.964496  	0.038800 
1411.893312  	0.039972 
1413.822128  	0.041095 
1415.750944  	0.044028 
1417.679760  	0.046194 
1419.608576  	0.043168 
1421.537392  	0.041920 
1423.466208  	0.042170 
1425.395024  	0.039969 
1427.323840  	0.038488 
1429.252656  	0.036104 
1431.181472  	0.034103 
1433.110288  	0.034301 
1435.039104  	0.035568 
1436.967920  	0.034506 
1438.896736  	0.034324 
1440.825552  	0.035497 
1442.754368  	0.036017 
1444.683184  	0.036427 
1446.612000  	0.036986 
1448.540816  	0.036638 
1450.469632  	0.037353 
1452.398448  	0.038441 
1454.327264  	0.039932 
1456.256080  	0.038902 
1458.184896  	0.033558 
1460.113712  	0.034260 
1462.042528  	0.035692 
1463.971344  	0.035118 
1465.900160  	0.034617 
1467.828976  	0.036919 
1469.757792  	0.039998 
1471.686608  	0.042751 
1473.615424  	0.046694 
1475.544240  	0.052429 
1477.473056  	0.056824 
1479.401872  	0.060138 
1481.330688  	0.063178 
1483.259504  	0.065049 
1485.188320  	0.067014 
1487.117136  	0.067860 
1489.045952  	0.068372 
1490.974768  	0.064908 
1492.903584  	0.062437 
1494.832400  	0.059934 
1496.761216  	0.053449 
1498.690032  	0.047668 
1500.618848  	0.044492 
1502.547664  	0.041410 
1504.476480  	0.037724 
1506.405296  	0.032835 
1508.334112  	0.032348 
1510.262928  	0.032177 
1512.191744  	0.029466 
1514.120560  	0.028671 
1516.049376  	0.028767 
1517.978192  	0.026735 
1519.907008  	0.027782 
1521.835824  	0.026801 
1523.764640  	0.030600 
1525.693456  	0.035357 
1527.622272  	0.037010 
1529.551088  	0.037335 
1531.479904  	0.037592 
1533.408720  	0.033177 
1535.337536  	0.029945 
1537.266352  	0.028999 
1539.195168  	0.020910 
1541.123984  	0.013705 
1543.052800  	0.018519 
1544.981616  	0.019909 
1546.910432  	0.018763 
1548.839248  	0.019907 
1550.768064  	0.019870 
1552.696880  	0.019111 
1554.625696  	0.019150 
1556.554512  	0.019013 
1558.483328  	0.014950 
1560.412144  	0.016780 
1562.340960  	0.024618 
1564.269776  	0.028245 
1566.198592  	0.032635 
1568.127408  	0.036144 
1570.056224  	0.039124 
1571.985040  	0.045555 
1573.913856  	0.050061 
1575.842672  	0.049715 
1577.771488  	0.052392 
1579.700304  	0.055456 
1581.629120  	0.055709 
1583.557936  	0.055314 
1585.486752  	0.055868 
1587.415568  	0.057619 
1589.344384  	0.061204 
1591.273200  	0.066075 
1593.202016  	0.071861 
1595.130832  	0.078088 
1597.059648  	0.084812 
1598.988464  	0.090798 
1600.917280  	0.096297 
1602.846096  	0.100042 
1604.774912  	0.102653 
1606.703728  	0.103458 
1608.632544  	0.102910 
1610.561360  	0.101291 
1612.490176  	0.100179 
1614.418992  	0.098208 
1616.347808  	0.094027 
1618.276624  	0.094552 
1620.205440  	0.099608 
1622.134256  	0.101721 
1624.063072  	0.105105 
1625.991888  	0.111148 
1627.920704  	0.117616 
1629.849520  	0.125943 
1631.778336  	0.134375 
1633.707152  	0.139653 
1635.635968  	0.144418 
1637.564784  	0.154146 
1639.493600  	0.162884 
1641.422416  	0.168445 
1643.351232  	0.172694 
1645.280048  	0.173377 
1647.208864  	0.172955 
1649.137680  	0.175886 
1651.066496  	0.177637 
1652.995312  	0.170435 
1654.924128  	0.171703 
1656.852944  	0.174563 
1658.781760  	0.174011 
1660.710576  	0.171374 
1662.639392  	0.166336 
1664.568208  	0.163210 
1666.497024  	0.162332 
1668.425840  	0.157167 
1670.354656  	0.149524 
1672.283472  	0.147233 
1674.212288  	0.144611 
1676.141104  	0.139499 
1678.069920  	0.139675 
1679.998736  	0.139794 
1681.927552  	0.138502 
1683.856368  	0.132062 
1685.785184  	0.130335 
1687.714000  	0.134308 
1689.642816  	0.134178 
1691.571632  	0.132636 
1693.500448  	0.132713 
1695.429264  	0.129015 
1697.358080  	0.126535 
1699.286896  	0.125292 
1701.215712  	0.120951 
1703.144528  	0.122285 
1705.073344  	0.119183 
1707.002160  	0.114205 
1708.930976  	0.111699 
1710.859792  	0.107243 
1712.788608  	0.102087 
1714.717424  	0.094934 
1716.646240  	0.084325 
1718.575056  	0.070118 
1720.503872  	0.063300 
1722.432688  	0.057475 
1724.361504  	0.048408 
1726.290320  	0.040842 
1728.219136  	0.035367 
1730.147952  	0.030645 
1732.076768  	0.026300 
1734.005584  	0.018177 
1735.934400  	0.012573 
1737.863216  	0.013335 
1739.792032  	0.009399 
1741.720848  	0.008766 
1743.649664  	0.009257 
1745.578480  	0.008440 
1747.507296  	0.006804 
1749.436112  	0.006093 
1751.364928  	0.004676 
1753.293744  	0.003277 
1755.222560  	0.003245 
1757.151376  	0.002628 
1759.080192  	0.002159 
1761.009008  	0.001591 
1762.937824  	-0.000372 
1764.866640  	0.000272 
1766.795456  	0.001434 
1768.724272  	0.000949 
1770.653088  	-0.001715 
1772.581904  	-0.005293 
1774.510720  	-0.003624 
1776.439536  	-0.001458 
1778.368352  	-0.001032 
1780.297168  	-0.001343 
1782.225984  	-0.002020 
1784.154800  	-0.001421 
1786.083616  	-0.002184 
1788.012432  	-0.001986 
1789.941248  	-0.001035 
1791.870064  	-0.002526 
1793.798880  	-0.004492 
1795.727696  	-0.002534 
1797.656512  	-0.002835 
1799.585328  	-0.003034 
1801.514144  	-0.002389 
1803.442960  	-0.002874 
1805.371776  	-0.003751 
1807.300592  	-0.003201 
1809.229408  	-0.003710 
1811.158224  	-0.004139 
1813.087040  	-0.004327 
1815.015856  	-0.003983 
1816.944672  	-0.003712 
1818.873488  	-0.003843 
1820.802304  	-0.004004 
1822.731120  	-0.003085 
1824.659936  	-0.003622 
1826.588752  	-0.004376 
1828.517568  	-0.004877 
1830.446384  	-0.005685 
1832.375200  	-0.004845 
1834.304016  	-0.003894 
1836.232832  	-0.004190 
1838.161648  	-0.004250 
1840.090464  	-0.004251 
1842.019280  	-0.002832 
1843.948096  	-0.004253 
1845.876912  	-0.004813 
1847.805728  	-0.003929 
1849.734544  	-0.004319 
1851.663360  	-0.004777 
1853.592176  	-0.004729 
1855.520992  	-0.004927 
1857.449808  	-0.004466 
1859.378624  	-0.004322 
1861.307440  	-0.004464 
1863.236256  	-0.004859 
1865.165072  	-0.004210 
1867.093888  	-0.003958 
1869.022704  	-0.004616 
1870.951520  	-0.005407 
1872.880336  	-0.005081 
1874.809152  	-0.005417 
1876.737968  	-0.005360 
1878.666784  	-0.005351 
1880.595600  	-0.004646 
1882.524416  	-0.004793 
1884.453232  	-0.004726 
1886.382048  	-0.004850 
1888.310864  	-0.004308 
1890.239680  	-0.004882 
1892.168496  	-0.004670 
1894.097312  	-0.004376 
1896.026128  	-0.004225 
1897.954944  	-0.004525 
1899.883760  	-0.004391 
1901.812576  	-0.004660 
1903.741392  	-0.005076 
1905.670208  	-0.004926 
1907.599024  	-0.003987 
1909.527840  	-0.004344 
1911.456656  	-0.004390 
1913.385472  	-0.004505 
1915.314288  	-0.003641 
1917.243104  	-0.003734 
1919.171920  	-0.004255 
1921.100736  	-0.003935 
1923.029552  	-0.003755 
1924.958368  	-0.004816 
1926.887184  	-0.004621 
1928.816000  	-0.004913 
1930.744816  	-0.004878 
1932.673632  	-0.004867 
1934.602448  	-0.004548 
1936.531264  	-0.004624 
1938.460080  	-0.003699 
1940.388896  	-0.003758 
1942.317712  	-0.003643 
1944.246528  	-0.004857 
1946.175344  	-0.004369 
1948.104160  	-0.004947 
1950.032976  	-0.004669 
1951.961792  	-0.004981 
1953.890608  	-0.004922 
1955.819424  	-0.005020 
1957.748240  	-0.004252 
1959.677056  	-0.004852 
1961.605872  	-0.005031 
1963.534688  	-0.006473 
1965.463504  	-0.005341 
1967.392320  	-0.005522 
1969.321136  	-0.006177 
1971.249952  	-0.006067 
1973.178768  	-0.003511 
1975.107584  	-0.004108 
1977.036400  	-0.003774 
1978.965216  	-0.003198 
1980.894032  	-0.003900 
1982.822848  	-0.004615 
1984.751664  	-0.003683 
1986.680480  	-0.004629 
1988.609296  	-0.004963 
1990.538112  	-0.005566 
1992.466928  	-0.004638 
1994.395744  	-0.005851 
1996.324560  	-0.006188 
1998.253376  	-0.006690 
2000.182192  	-0.006426 
2002.111008  	-0.006402 
2004.039824  	-0.005202 
2005.968640  	-0.005452 
2007.897456  	-0.004891 
2009.826272  	-0.004880 
2011.755088  	-0.003599 
2013.683904  	-0.004514 
2015.612720  	-0.005347 
2017.541536  	-0.005799 
2019.470352  	-0.005644 
2021.399168  	-0.007544 
2023.327984  	-0.006887 
2025.256800  	-0.005397 
2027.185616  	-0.004380 
2029.114432  	-0.005133 
2031.043248  	-0.004149 
2032.972064  	-0.003841 
2034.900880  	-0.003776 
2036.829696  	-0.004875 
2038.758512  	-0.004671 
2040.687328  	-0.005128 
2042.616144  	-0.004686 
2044.544960  	-0.004766 
2046.473776  	-0.004318 
2048.402592  	-0.004688 
2050.331408  	-0.004864 
2052.260224  	-0.005850 
2054.189040  	-0.006111 
2056.117856  	-0.006589 
2058.046672  	-0.006148 
2059.975488  	-0.006118 
2061.904304  	-0.006102 
2063.833120  	-0.006056 
2065.761936  	-0.005829 
2067.690752  	-0.006258 
2069.619568  	-0.005614 
2071.548384  	-0.005736 
2073.477200  	-0.005849 
2075.406016  	-0.005572 
2077.334832  	-0.005069 
2079.263648  	-0.005204 
2081.192464  	-0.004911 
2083.121280  	-0.005400 
2085.050096  	-0.005778 
2086.978912  	-0.005730 
2088.907728  	-0.005175 
2090.836544  	-0.005299 
2092.765360  	-0.005188 
2094.694176  	-0.005168 
2096.622992  	-0.004967 
2098.551808  	-0.004886 
2100.480624  	-0.004635 
2102.409440  	-0.004969 
2104.338256  	-0.004977 
2106.267072  	-0.004945 
2108.195888  	-0.004656 
2110.124704  	-0.004887 
2112.053520  	-0.004819 
2113.982336  	-0.005006 
2115.911152  	-0.005336 
2117.839968  	-0.005758 
2119.768784  	-0.005200 
2121.697600  	-0.005115 
2123.626416  	-0.005184 
2125.555232  	-0.005576 
2127.484048  	-0.005653 
2129.412864  	-0.005964 
2131.341680  	-0.006018 
2133.270496  	-0.006145 
2135.199312  	-0.005144 
2137.128128  	-0.004830 
2139.056944  	-0.004792 
2140.985760  	-0.005395 
2142.914576  	-0.005094 
2144.843392  	-0.004600 
2146.772208  	-0.004721 
2148.701024  	-0.005861 
2150.629840  	-0.005189 
2152.558656  	-0.004548 
2154.487472  	-0.004587 
2156.416288  	-0.005196 
2158.345104  	-0.004211 
2160.273920  	-0.002856 
2162.202736  	-0.002206 
2164.131552  	-0.004286 
2166.060368  	-0.004299 
2167.989184  	-0.002871 
2169.918000  	-0.001471 
2171.846816  	-0.003109 
2173.775632  	-0.003686 
2175.704448  	-0.003054 
2177.633264  	-0.002786 
2179.562080  	-0.003108 
2181.490896  	-0.003078 
2183.419712  	-0.004242 
2185.348528  	-0.004585 
2187.277344  	-0.004841 
2189.206160  	-0.005310 
2191.134976  	-0.005730 
2193.063792  	-0.004625 
2194.992608  	-0.004854 
2196.921424  	-0.005132 
2198.850240  	-0.004958 
2200.779056  	-0.004633 
2202.707872  	-0.005061 
2204.636688  	-0.005137 
2206.565504  	-0.004898 
2208.494320  	-0.004418 
2210.423136  	-0.005758 
2212.351952  	-0.006085 
2214.280768  	-0.006107 
2216.209584  	-0.005877 
2218.138400  	-0.006237 
2220.067216  	-0.006021 
2221.996032  	-0.006110 
2223.924848  	-0.005503 
2225.853664  	-0.005240 
2227.782480  	-0.005029 
2229.711296  	-0.005709 
2231.640112  	-0.006320 
2233.568928  	-0.006615 
2235.497744  	-0.006353 
2237.426560  	-0.006634 
2239.355376  	-0.006570 
2241.284192  	-0.006443 
2243.213008  	-0.006387 
2245.141824  	-0.006821 
2247.070640  	-0.006877 
2248.999456  	-0.006888 
2250.928272  	-0.006995 
2252.857088  	-0.007338 
2254.785904  	-0.007202 
2256.714720  	-0.007446 
2258.643536  	-0.007680 
2260.572352  	-0.007823 
2262.501168  	-0.007616 
2264.429984  	-0.007624 
2266.358800  	-0.007358 
2268.287616  	-0.007377 
2270.216432  	-0.007425 
2272.145248  	-0.007519 
2274.074064  	-0.007647 
2276.002880  	-0.007545 
2277.931696  	-0.007068 
2279.860512  	-0.006738 
2281.789328  	-0.006543 
2283.718144  	-0.006429 
2285.646960  	-0.006124 
2287.575776  	-0.006272 
2289.504592  	-0.006747 
2291.433408  	-0.007041 
2293.362224  	-0.006795 
2295.291040  	-0.006592 
2297.219856  	-0.006344 
2299.148672  	-0.006414 
2301.077488  	-0.006462 
2303.006304  	-0.006535 
2304.935120  	-0.006413 
2306.863936  	-0.006605 
2308.792752  	-0.007178 
2310.721568  	-0.007992 
2312.650384  	-0.009113 
2314.579200  	-0.010678 
2316.508016  	-0.012120 
2318.436832  	-0.014009 
2320.365648  	-0.016332 
2322.294464  	-0.018769 
2324.223280  	-0.021664 
2326.152096  	-0.024532 
2328.080912  	-0.026766 
2330.009728  	-0.029664 
2331.938544  	-0.032306 
2333.867360  	-0.034323 
2335.796176  	-0.036050 
2337.724992  	-0.037613 
2339.653808  	-0.038057 
2341.582624  	-0.038378 
2343.511440  	-0.036827 
2345.440256  	-0.032521 
2347.369072  	-0.024551 
2349.297888  	-0.020174 
2351.226704  	-0.024684 
2353.155520  	-0.033488 
2355.084336  	-0.040742 
2357.013152  	-0.046171 
2358.941968  	-0.049018 
2360.870784  	-0.050505 
2362.799600  	-0.049358 
2364.728416  	-0.046701 
2366.657232  	-0.042523 
2368.586048  	-0.037107 
2370.514864  	-0.031064 
2372.443680  	-0.025170 
2374.372496  	-0.019737 
2376.301312  	-0.014990 
2378.230128  	-0.011015 
2380.158944  	-0.008609 
2382.087760  	-0.007231 
2384.016576  	-0.006604 
2385.945392  	-0.006600 
2387.874208  	-0.006886 
2389.803024  	-0.007118 
2391.731840  	-0.007415 
2393.660656  	-0.007429 
2395.589472  	-0.007417 
2397.518288  	-0.007277 
2399.447104  	-0.007515 
2401.375920  	-0.007718 
2403.304736  	-0.007798 
2405.233552  	-0.007610 
2407.162368  	-0.007645 
2409.091184  	-0.007454 
2411.020000  	-0.007334 
2412.948816  	-0.007547 
2414.877632  	-0.007618 
2416.806448  	-0.007396 
2418.735264  	-0.007487 
2420.664080  	-0.007670 
2422.592896  	-0.007746 
2424.521712  	-0.007591 
2426.450528  	-0.007670 
2428.379344  	-0.007631 
2430.308160  	-0.007405 
2432.236976  	-0.007254 
2434.165792  	-0.007284 
2436.094608  	-0.007314 
2438.023424  	-0.007177 
2439.952240  	-0.006951 
2441.881056  	-0.006998 
2443.809872  	-0.007161 
2445.738688  	-0.007084 
2447.667504  	-0.006874 
2449.596320  	-0.006854 
2451.525136  	-0.006622 
2453.453952  	-0.006655 
2455.382768  	-0.006876 
2457.311584  	-0.007031 
2459.240400  	-0.007148 
2461.169216  	-0.007195 
2463.098032  	-0.007240 
2465.026848  	-0.007124 
2466.955664  	-0.006975 
2468.884480  	-0.007077 
2470.813296  	-0.007199 
2472.742112  	-0.007233 
2474.670928  	-0.007126 
2476.599744  	-0.007150 
2478.528560  	-0.006976 
2480.457376  	-0.006968 
2482.386192  	-0.007139 
2484.315008  	-0.007124 
2486.243824  	-0.007107 
2488.172640  	-0.007015 
2490.101456  	-0.006664 
2492.030272  	-0.006571 
2493.959088  	-0.006457 
2495.887904  	-0.006336 
2497.816720  	-0.006346 
2499.745536  	-0.006249 
2501.674352  	-0.006096 
2503.603168  	-0.005769 
2505.531984  	-0.005786 
2507.460800  	-0.006042 
2509.389616  	-0.006230 
2511.318432  	-0.006263 
2513.247248  	-0.006199 
2515.176064  	-0.006264 
2517.104880  	-0.006268 
2519.033696  	-0.006363 
2520.962512  	-0.006340 
2522.891328  	-0.006146 
2524.820144  	-0.006179 
2526.748960  	-0.006051 
2528.677776  	-0.005852 
2530.606592  	-0.005971 
2532.535408  	-0.005945 
2534.464224  	-0.006018 
2536.393040  	-0.005979 
2538.321856  	-0.005843 
2540.250672  	-0.005712 
2542.179488  	-0.005806 
2544.108304  	-0.005752 
2546.037120  	-0.005660 
2547.965936  	-0.005669 
2549.894752  	-0.005671 
2551.823568  	-0.005637 
2553.752384  	-0.005508 
2555.681200  	-0.005068 
2557.610016  	-0.004901 
2559.538832  	-0.004995 
2561.467648  	-0.004834 
2563.396464  	-0.004560 
2565.325280  	-0.004595 
2567.254096  	-0.004697 
2569.182912  	-0.004750 
2571.111728  	-0.004748 
2573.040544  	-0.004647 
2574.969360  	-0.004434 
2576.898176  	-0.004231 
2578.826992  	-0.004310 
2580.755808  	-0.004315 
2582.684624  	-0.004156 
2584.613440  	-0.004206 
2586.542256  	-0.004171 
2588.471072  	-0.003996 
2590.399888  	-0.003848 
2592.328704  	-0.003833 
2594.257520  	-0.003957 
2596.186336  	-0.003892 
2598.115152  	-0.003669 
2600.043968  	-0.003543 
2601.972784  	-0.003408 
2603.901600  	-0.003411 
2605.830416  	-0.003233 
2607.759232  	-0.003135 
2609.688048  	-0.003054 
2611.616864  	-0.002950 
2613.545680  	-0.002805 
2615.474496  	-0.002648 
2617.403312  	-0.002504 
2619.332128  	-0.002377 
2621.260944  	-0.002225 
2623.189760  	-0.002163 
2625.118576  	-0.002095 
2627.047392  	-0.002154 
2628.976208  	-0.002010 
2630.905024  	-0.001794 
2632.833840  	-0.001602 
2634.762656  	-0.001413 
2636.691472  	-0.001393 
2638.620288  	-0.001366 
2640.549104  	-0.001268 
2642.477920  	-0.001151 
2644.406736  	-0.000950 
2646.335552  	-0.000821 
2648.264368  	-0.000751 
2650.193184  	-0.000686 
2652.122000  	-0.000533 
2654.050816  	-0.000322 
2655.979632  	-0.000138 
2657.908448  	-0.000042 
2659.837264  	0.000125 
2661.766080  	0.000200 
2663.694896  	0.000256 
2665.623712  	0.000371 
2667.552528  	0.000640 
2669.481344  	0.000852 
2671.410160  	0.000987 
2673.338976  	0.001062 
2675.267792  	0.001147 
2677.196608  	0.001326 
2679.125424  	0.001443 
2681.054240  	0.001568 
2682.983056  	0.001705 
2684.911872  	0.001786 
2686.840688  	0.001903 
2688.769504  	0.002047 
2690.698320  	0.002055 
2692.627136  	0.002168 
2694.555952  	0.002295 
2696.484768  	0.002296 
2698.413584  	0.002352 
2700.342400  	0.002531 
2702.271216  	0.002681 
2704.200032  	0.002852 
2706.128848  	0.002962 
2708.057664  	0.002994 
2709.986480  	0.003154 
2711.915296  	0.003294 
2713.844112  	0.003526 
2715.772928  	0.003742 
2717.701744  	0.003898 
2719.630560  	0.004084 
2721.559376  	0.004240 
2723.488192  	0.004340 
2725.417008  	0.004493 
2727.345824  	0.004739 
2729.274640  	0.004890 
2731.203456  	0.005005 
2733.132272  	0.005241 
2735.061088  	0.005516 
2736.989904  	0.005788 
2738.918720  	0.005866 
2740.847536  	0.005969 
2742.776352  	0.006025 
2744.705168  	0.006182 
2746.633984  	0.006350 
2748.562800  	0.006415 
2750.491616  	0.006485 
2752.420432  	0.006695 
2754.349248  	0.006684 
2756.278064  	0.006583 
2758.206880  	0.006582 
2760.135696  	0.006547 
2762.064512  	0.006614 
2763.993328  	0.006662 
2765.922144  	0.006660 
2767.850960  	0.006649 
2769.779776  	0.006643 
2771.708592  	0.006753 
2773.637408  	0.006782 
2775.566224  	0.006762 
2777.495040  	0.006831 
2779.423856  	0.006960 
2781.352672  	0.006975 
2783.281488  	0.006987 
2785.210304  	0.006986 
2787.139120  	0.007014 
2789.067936  	0.007114 
2790.996752  	0.007255 
2792.925568  	0.007254 
2794.854384  	0.007319 
2796.783200  	0.007364 
2798.712016  	0.007276 
2800.640832  	0.007304 
2802.569648  	0.007478 
2804.498464  	0.007531 
2806.427280  	0.007454 
2808.356096  	0.007345 
2810.284912  	0.007402 
2812.213728  	0.007526 
2814.142544  	0.007643 
2816.071360  	0.007740 
2818.000176  	0.007678 
2819.928992  	0.007707 
2821.857808  	0.007774 
2823.786624  	0.007792 
2825.715440  	0.007865 
2827.644256  	0.007828 
2829.573072  	0.007840 
2831.501888  	0.007791 
2833.430704  	0.007808 
2835.359520  	0.007951 
2837.288336  	0.008095 
2839.217152  	0.008158 
2841.145968  	0.008277 
2843.074784  	0.008435 
2845.003600  	0.008582 
2846.932416  	0.008822 
2848.861232  	0.009187 
2850.790048  	0.009488 
2852.718864  	0.009746 
2854.647680  	0.010092 
2856.576496  	0.010343 
2858.505312  	0.010676 
2860.434128  	0.011291 
2862.362944  	0.011758 
2864.291760  	0.012108 
2866.220576  	0.012706 
2868.149392  	0.013387 
2870.078208  	0.013782 
2872.007024  	0.014133 
2873.935840  	0.014696 
2875.864656  	0.015343 
2877.793472  	0.016023 
2879.722288  	0.017000 
2881.651104  	0.018055 
2883.579920  	0.018947 
2885.508736  	0.019448 
2887.437552  	0.019642 
2889.366368  	0.019998 
2891.295184  	0.020467 
2893.224000  	0.020773 
2895.152816  	0.020989 
2897.081632  	0.021238 
2899.010448  	0.021955 
2900.939264  	0.022815 
2902.868080  	0.022515 
2904.796896  	0.022045 
2906.725712  	0.022098 
2908.654528  	0.022410 
2910.583344  	0.022861 
2912.512160  	0.023023 
2914.440976  	0.023051 
2916.369792  	0.023307 
2918.298608  	0.023740 
2920.227424  	0.024097 
2922.156240  	0.024532 
2924.085056  	0.025021 
2926.013872  	0.025458 
2927.942688  	0.025890 
2929.871504  	0.026258 
2931.800320  	0.026675 
2933.729136  	0.027286 
2935.657952  	0.027842 
2937.586768  	0.028450 
2939.515584  	0.029194 
2941.444400  	0.029814 
2943.373216  	0.030353 
2945.302032  	0.030825 
2947.230848  	0.031071 
2949.159664  	0.031347 
2951.088480  	0.031934 
2953.017296  	0.032500 
2954.946112  	0.032802 
2956.874928  	0.033147 
2958.803744  	0.033347 
2960.732560  	0.033521 
2962.661376  	0.033703 
2964.590192  	0.034077 
2966.519008  	0.034512 
2968.447824  	0.034918 
2970.376640  	0.035021 
2972.305456  	0.034798 
2974.234272  	0.034599 
2976.163088  	0.034563 
2978.091904  	0.034331 
2980.020720  	0.034334 
2981.949536  	0.034398 
2983.878352  	0.034521 
2985.807168  	0.034860 
2987.735984  	0.035104 
2989.664800  	0.034660 
2991.593616  	0.033090 
2993.522432  	0.032376 
2995.451248  	0.032341 
2997.380064  	0.032135 
2999.308880  	0.031729 
3001.237696  	0.031252 
3003.166512  	0.031002 
3005.095328  	0.030722 
3007.024144  	0.030300 
3008.952960  	0.029903 
3010.881776  	0.029670 
3012.810592  	0.029412 
3014.739408  	0.029041 
3016.668224  	0.028649 
3018.597040  	0.028588 
3020.525856  	0.028718 
3022.454672  	0.028682 
3024.383488  	0.028522 
3026.312304  	0.028341 
3028.241120  	0.028522 
3030.169936  	0.028720 
3032.098752  	0.028732 
3034.027568  	0.028846 
3035.956384  	0.029023 
3037.885200  	0.029355 
3039.814016  	0.029607 
3041.742832  	0.029954 
3043.671648  	0.030144 
3045.600464  	0.030413 
3047.529280  	0.030728 
3049.458096  	0.031124 
3051.386912  	0.031709 
3053.315728  	0.032249 
3055.244544  	0.032707 
3057.173360  	0.033237 
3059.102176  	0.033858 
3061.030992  	0.034518 
3062.959808  	0.035282 
3064.888624  	0.035924 
3066.817440  	0.036573 
3068.746256  	0.037439 
3070.675072  	0.038192 
3072.603888  	0.038871 
3074.532704  	0.039659 
3076.461520  	0.040470 
3078.390336  	0.041303 
3080.319152  	0.042070 
3082.247968  	0.042849 
3084.176784  	0.043592 
3086.105600  	0.044458 
3088.034416  	0.045253 
3089.963232  	0.046072 
3091.892048  	0.046826 
3093.820864  	0.047580 
3095.749680  	0.048411 
3097.678496  	0.049376 
3099.607312  	0.050241 
3101.536128  	0.051064 
3103.464944  	0.052081 
3105.393760  	0.052885 
3107.322576  	0.053525 
3109.251392  	0.054165 
3111.180208  	0.054825 
3113.109024  	0.055505 
3115.037840  	0.056204 
3116.966656  	0.057116 
3118.895472  	0.057989 
3120.824288  	0.058620 
3122.753104  	0.059312 
3124.681920  	0.059923 
3126.610736  	0.060426 
3128.539552  	0.061162 
3130.468368  	0.061953 
3132.397184  	0.062547 
3134.326000  	0.063262 
3136.254816  	0.063865 
3138.183632  	0.064455 
3140.112448  	0.065107 
3142.041264  	0.065663 
3143.970080  	0.066239 
3145.898896  	0.066905 
3147.827712  	0.067582 
3149.756528  	0.068135 
3151.685344  	0.068765 
3153.614160  	0.069611 
3155.542976  	0.070357 
3157.471792  	0.071014 
3159.400608  	0.071763 
3161.329424  	0.072508 
3163.258240  	0.072916 
3165.187056  	0.073410 
3167.115872  	0.074159 
3169.044688  	0.074623 
3170.973504  	0.075019 
3172.902320  	0.075562 
3174.831136  	0.076149 
3176.759952  	0.076681 
3178.688768  	0.076976 
3180.617584  	0.077172 
3182.546400  	0.077547 
3184.475216  	0.077969 
3186.404032  	0.078276 
3188.332848  	0.078540 
3190.261664  	0.078852 
3192.190480  	0.079094 
3194.119296  	0.079078 
3196.048112  	0.079276 
3197.976928  	0.079392 
3199.905744  	0.079407 
3201.834560  	0.079215 
3203.763376  	0.079016 
3205.692192  	0.079053 
3207.621008  	0.078930 
3209.549824  	0.078755 
3211.478640  	0.078976 
3213.407456  	0.079256 
3215.336272  	0.078995 
3217.265088  	0.078693 
3219.193904  	0.078503 
3221.122720  	0.078437 
3223.051536  	0.078301 
3224.980352  	0.078185 
3226.909168  	0.078160 
3228.837984  	0.077902 
3230.766800  	0.077732 
3232.695616  	0.077799 
3234.624432  	0.077774 
3236.553248  	0.077634 
3238.482064  	0.077557 
3240.410880  	0.077605 
3242.339696  	0.077699 
3244.268512  	0.077584 
3246.197328  	0.077685 
3248.126144  	0.078040 
3250.054960  	0.078114 
3251.983776  	0.078202 
3253.912592  	0.078481 
3255.841408  	0.078866 
3257.770224  	0.079251 
3259.699040  	0.079591 
3261.627856  	0.079835 
3263.556672  	0.080087 
3265.485488  	0.080267 
3267.414304  	0.080454 
3269.343120  	0.080822 
3271.271936  	0.081039 
3273.200752  	0.081089 
3275.129568  	0.081196 
3277.058384  	0.081525 
3278.987200  	0.081882 
3280.916016  	0.082126 
3282.844832  	0.082396 
3284.773648  	0.082527 
3286.702464  	0.082692 
3288.631280  	0.082875 
3290.560096  	0.083135 
3292.488912  	0.083579 
3294.417728  	0.083988 
3296.346544  	0.084415 
3298.275360  	0.084670 
3300.204176  	0.084834 
3302.132992  	0.085174 
3304.061808  	0.085546 
3305.990624  	0.085998 
3307.919440  	0.086341 
3309.848256  	0.086610 
3311.777072  	0.086958 
3313.705888  	0.087314 
3315.634704  	0.087871 
3317.563520  	0.088228 
3319.492336  	0.088413 
3321.421152  	0.088759 
3323.349968  	0.089124 
3325.278784  	0.089180 
3327.207600  	0.089349 
3329.136416  	0.089454 
3331.065232  	0.089527 
3332.994048  	0.089786 
3334.922864  	0.090050 
3336.851680  	0.090021 
3338.780496  	0.089903 
3340.709312  	0.089823 
3342.638128  	0.089654 
3344.566944  	0.089237 
3346.495760  	0.088829 
3348.424576  	0.088529 
3350.353392  	0.088379 
3352.282208  	0.088252 
3354.211024  	0.088033 
3356.139840  	0.087816 
3358.068656  	0.087627 
3359.997472  	0.087442 
3361.926288  	0.086994 
3363.855104  	0.086624 
3365.783920  	0.086224 
3367.712736  	0.085831 
3369.641552  	0.085487 
3371.570368  	0.085110 
3373.499184  	0.084804 
3375.428000  	0.084408 
3377.356816  	0.084016 
3379.285632  	0.083836 
3381.214448  	0.083447 
3383.143264  	0.083134 
3385.072080  	0.082651 
3387.000896  	0.082089 
3388.929712  	0.081929 
3390.858528  	0.081871 
3392.787344  	0.081449 
3394.716160  	0.080953 
3396.644976  	0.080753 
3398.573792  	0.080369 
3400.502608  	0.079900 
3402.431424  	0.079385 
3404.360240  	0.078634 
3406.289056  	0.078010 
3408.217872  	0.077616 
3410.146688  	0.077121 
3412.075504  	0.076665 
3414.004320  	0.076202 
3415.933136  	0.075873 
3417.861952  	0.075412 
3419.790768  	0.075023 
3421.719584  	0.074536 
3423.648400  	0.073804 
3425.577216  	0.072994 
3427.506032  	0.072377 
3429.434848  	0.072053 
3431.363664  	0.071600 
3433.292480  	0.070889 
3435.221296  	0.070223 
3437.150112  	0.069702 
3439.078928  	0.069207 
3441.007744  	0.068696 
3442.936560  	0.068134 
3444.865376  	0.067729 
3446.794192  	0.067148 
3448.723008  	0.066201 
3450.651824  	0.065380 
3452.580640  	0.064782 
3454.509456  	0.064260 
3456.438272  	0.063721 
3458.367088  	0.063278 
3460.295904  	0.062709 
3462.224720  	0.061766 
3464.153536  	0.060718 
3466.082352  	0.059873 
3468.011168  	0.058977 
3469.939984  	0.058197 
3471.868800  	0.057494 
3473.797616  	0.056650 
3475.726432  	0.055803 
3477.655248  	0.055058 
3479.584064  	0.054748 
3481.512880  	0.054140 
3483.441696  	0.052922 
3485.370512  	0.052202 
3487.299328  	0.051389 
3489.228144  	0.050382 
3491.156960  	0.049264 
3493.085776  	0.048445 
3495.014592  	0.047877 
3496.943408  	0.047201 
3498.872224  	0.046707 
3500.801040  	0.046966 
3502.729856  	0.046406 
3504.658672  	0.044710 
3506.587488  	0.043895 
3508.516304  	0.043592 
3510.445120  	0.042580 
3512.373936  	0.041371 
3514.302752  	0.040746 
3516.231568  	0.040545 
3518.160384  	0.040193 
3520.089200  	0.039540 
3522.018016  	0.039547 
3523.946832  	0.039697 
3525.875648  	0.038716 
3527.804464  	0.036879 
3529.733280  	0.035464 
3531.662096  	0.034751 
3533.590912  	0.034199 
3535.519728  	0.034169 
3537.448544  	0.033544 
3539.377360  	0.032322 
3541.306176  	0.031903 
3543.234992  	0.032343 
3545.163808  	0.033151 
3547.092624  	0.031806 
3549.021440  	0.029377 
3550.950256  	0.028449 
3552.879072  	0.028021 
3554.807888  	0.027249 
3556.736704  	0.026479 
3558.665520  	0.026438 
3560.594336  	0.026259 
3562.523152  	0.025374 
3564.451968  	0.026046 
3566.380784  	0.027251 
3568.309600  	0.024651 
3570.238416  	0.022245 
3572.167232  	0.021381 
3574.096048  	0.020374 
3576.024864  	0.019417 
3577.953680  	0.019038 
3579.882496  	0.018474 
3581.811312  	0.017611 
3583.740128  	0.017377 
3585.668944  	0.018203 
3587.597760  	0.017346 
3589.526576  	0.014501 
3591.455392  	0.013699 
3593.384208  	0.013535 
3595.313024  	0.012583 
3597.241840  	0.011077 
3599.170656  	0.009278 
3601.099472  	0.008076 
3603.028288  	0.008021 
3604.957104  	0.008324 
3606.885920  	0.008230 
3608.814736  	0.007021 
3610.743552  	0.006575 
3612.672368  	0.005975 
3614.601184  	0.004669 
3616.530000  	0.004255 
3618.458816  	0.002463 
3620.387632  	0.000196 
3622.316448  	-0.000043 
3624.245264  	0.000007 
3626.174080  	0.000497 
3628.102896  	-0.001451 
3630.031712  	-0.005445 
3631.960528  	-0.003822 
3633.889344  	-0.003502 
3635.818160  	-0.004120 
3637.746976  	-0.004610 
3639.675792  	-0.004435 
3641.604608  	-0.003889 
3643.533424  	-0.003665 
3645.462240  	-0.003307 
3647.391056  	-0.005236 
3649.319872  	-0.010064 
3651.248688  	-0.011910 
3653.177504  	-0.008670 
3655.106320  	-0.008139 
3657.035136  	-0.010111 
3658.963952  	-0.009295 
3660.892768  	-0.008757 
3662.821584  	-0.008922 
3664.750400  	-0.009078 
3666.679216  	-0.008958 
3668.608032  	-0.010683 
3670.536848  	-0.014535 
3672.465664  	-0.012871 
3674.394480  	-0.013462 
3676.323296  	-0.018211 
3678.252112  	-0.015645 
3680.180928  	-0.014678 
3682.109744  	-0.013783 
3684.038560  	-0.013157 
3685.967376  	-0.013166 
3687.896192  	-0.016465 
3689.825008  	-0.020281 
3691.753824  	-0.019348 
3693.682640  	-0.017203 
3695.611456  	-0.016628 
3697.540272  	-0.016632 
3699.469088  	-0.016515 
3701.397904  	-0.018418 
3703.326720  	-0.019447 
3705.255536  	-0.018219 
3707.184352  	-0.018040 
3709.113168  	-0.019846 
3711.041984  	-0.022438 
3712.970800  	-0.021517 
3714.899616  	-0.018157 
3716.828432  	-0.017368 
3718.757248  	-0.018169 
3720.686064  	-0.019141 
3722.614880  	-0.019483 
3724.543696  	-0.018414 
3726.472512  	-0.018743 
3728.401328  	-0.019351 
3730.330144  	-0.020042 
3732.258960  	-0.021835 
3734.187776  	-0.020247 
3736.116592  	-0.020994 
3738.045408  	-0.021385 
3739.974224  	-0.019170 
3741.903040  	-0.017491 
3743.831856  	-0.019902 
3745.760672  	-0.022777 
3747.689488  	-0.020400 
3749.618304  	-0.023265 
3751.547120  	-0.025874 
3753.475936  	-0.023089 
3755.404752  	-0.019894 
3757.333568  	-0.019182 
3759.262384  	-0.020139 
3761.191200  	-0.020229 
3763.120016  	-0.017933 
3765.048832  	-0.018373 
3766.977648  	-0.018855 
3768.906464  	-0.019890 
3770.835280  	-0.021009 
3772.764096  	-0.019324 
3774.692912  	-0.018376 
3776.621728  	-0.018204 
3778.550544  	-0.019585 
3780.479360  	-0.020665 
3782.408176  	-0.018977 
3784.336992  	-0.018997 
3786.265808  	-0.018819 
3788.194624  	-0.018424 
3790.123440  	-0.018397 
3792.052256  	-0.018341 
3793.981072  	-0.018236 
3795.909888  	-0.019781 
3797.838704  	-0.019740 
3799.767520  	-0.019965 
3801.696336  	-0.024719 
3803.625152  	-0.022554 
3805.553968  	-0.020834 
3807.482784  	-0.022916 
3809.411600  	-0.020253 
3811.340416  	-0.018278 
3813.269232  	-0.017933 
3815.198048  	-0.020917 
3817.126864  	-0.022768 
3819.055680  	-0.020665 
3820.984496  	-0.024199 
3822.913312  	-0.023050 
3824.842128  	-0.019632 
3826.770944  	-0.020141 
3828.699760  	-0.019622 
3830.628576  	-0.019736 
3832.557392  	-0.020562 
3834.486208  	-0.020464 
3836.415024  	-0.021733 
3838.343840  	-0.023277 
3840.272656  	-0.021977 
3842.201472  	-0.020296 
3844.130288  	-0.020127 
3846.059104  	-0.019036 
3847.987920  	-0.017890 
3849.916736  	-0.017682 
3851.845552  	-0.020054 
3853.774368  	-0.026492 
3855.703184  	-0.023349 
3857.632000  	-0.019567 
3859.560816  	-0.018189 
3861.489632  	-0.018152 
3863.418448  	-0.018987 
3865.347264  	-0.019702 
3867.276080  	-0.018241 
3869.204896  	-0.019080 
3871.133712  	-0.019856 
3873.062528  	-0.018805 
3874.991344  	-0.019777 
3876.920160  	-0.018224 
3878.848976  	-0.017174 
3880.777792  	-0.017889 
3882.706608  	-0.017298 
3884.635424  	-0.017525 
3886.564240  	-0.019440 
3888.493056  	-0.018478 
3890.421872  	-0.018755 
3892.350688  	-0.019756 
3894.279504  	-0.018499 
3896.208320  	-0.017334 
3898.137136  	-0.016691 
3900.065952  	-0.016680 
3901.994768  	-0.016660 
3903.923584  	-0.018061 
3905.852400  	-0.019180 
3907.781216  	-0.018846 
3909.710032  	-0.018633 
3911.638848  	-0.018579 
3913.567664  	-0.018043 
3915.496480  	-0.016860 
3917.425296  	-0.016871 
3919.354112  	-0.017783 
3921.282928  	-0.017930 
3923.211744  	-0.017107 
3925.140560  	-0.017200 
3927.069376  	-0.017689 
3928.998192  	-0.017359 
3930.927008  	-0.016580 
3932.855824  	-0.016655 
3934.784640  	-0.017732 
3936.713456  	-0.018149 
3938.642272  	-0.017908 
3940.571088  	-0.017284 
3942.499904  	-0.016710 
3944.428720  	-0.017034 
3946.357536  	-0.016774 
3948.286352  	-0.016456 
3950.215168  	-0.017353 
3952.143984  	-0.018272 
3954.072800  	-0.018555 
3956.001616  	-0.018336 
3957.930432  	-0.018223 
3959.859248  	-0.018061 
3961.788064  	-0.017819 
3963.716880  	-0.018326 
3965.645696  	-0.018871 
3967.574512  	-0.018628 
3969.503328  	-0.018274 
3971.432144  	-0.018267 
3973.360960  	-0.018236 
3975.289776  	-0.017990 
3977.218592  	-0.017963 
3979.147408  	-0.018155 
3981.076224  	-0.018205 
3983.005040  	-0.018234 
3984.933856  	-0.018188 
3986.862672  	-0.018209 
3988.791488  	-0.017896 
3990.720304  	-0.017647 
3992.649120  	-0.018017 
3994.577936  	-0.018311 
3996.506752  	-0.018449 
3998.435568  	-0.018563 
4000.364384  	-0.018534 