##TITLE=No Description
##DATA TYPE=INFRARED SPECTRUM
##XUNITS=1/CM
##YUNITS=Abs
399.264912  	0.621414 
401.193728  	0.612875 
403.122544  	0.601129 
405.051360  	0.596790 
406.980176  	0.598816 
408.908992  	0.592379 
410.837808  	0.602442 
412.766624  	0.603786 
414.695440  	0.592752 
416.624256  	0.575515 
418.553072  	0.582262 
420.481888  	0.588292 
422.410704  	0.601680 
424.339520  	0.592796 
426.268336  	0.581868 
428.197152  	0.569835 
430.125968  	0.566529 
432.054784  	0.567237 
433.983600  	0.574326 
435.912416  	0.568697 
437.841232  	0.568773 
439.770048  	0.562042 
441.698864  	0.555210 
443.627680  	0.550467 
445.556496  	0.549943 
447.485312  	0.548178 
449.414128  	0.554230 
451.342944  	0.556571 
453.271760  	0.551995 
455.200576  	0.541629 
457.129392  	0.547804 
459.058208  	0.546104 
460.987024  	0.541056 
462.915840  	0.540218 
464.844656  	0.544339 
466.773472  	0.542715 
468.702288  	0.542005 
470.631104  	0.539462 
472.559920  	0.545031 
474.488736  	0.544733 
476.417552  	0.543869 
478.346368  	0.540155 
480.275184  	0.537431 
482.204000  	0.533234 
484.132816  	0.540159 
486.061632  	0.541459 
487.990448  	0.536643 
489.919264  	0.532290 
491.848080  	0.534444 
493.776896  	0.531479 
495.705712  	0.528392 
497.634528  	0.524404 
499.563344  	0.527988 
501.492160  	0.527879 
503.420976  	0.528499 
505.349792  	0.525828 
507.278608  	0.525093 
509.207424  	0.525809 
511.136240  	0.528338 
513.065056  	0.526971 
514.993872  	0.530165 
516.922688  	0.531798 
518.851504  	0.533436 
520.780320  	0.533079 
522.709136  	0.532254 
524.637952  	0.530111 
526.566768  	0.529652 
528.495584  	0.526125 
530.424400  	0.524880 
532.353216  	0.520397 
534.282032  	0.515634 
536.210848  	0.507376 
538.139664  	0.500574 
540.068480  	0.495569 
541.997296  	0.491471 
543.926112  	0.486072 
545.854928  	0.482535 
547.783744  	0.479216 
549.712560  	0.477848 
551.641376  	0.474076 
553.570192  	0.470177 
555.499008  	0.465269 
557.427824  	0.462301 
559.356640  	0.458121 
561.285456  	0.454246 
563.214272  	0.449559 
565.143088  	0.446465 
567.071904  	0.443015 
569.000720  	0.438668 
570.929536  	0.434664 
572.858352  	0.432968 
574.787168  	0.430445 
576.715984  	0.428227 
578.644800  	0.424637 
580.573616  	0.420102 
582.502432  	0.413869 
584.431248  	0.410390 
586.360064  	0.406772 
588.288880  	0.404118 
590.217696  	0.401346 
592.146512  	0.399280 
594.075328  	0.396549 
596.004144  	0.395229 
597.932960  	0.393843 
599.861776  	0.393038 
601.790592  	0.390467 
603.719408  	0.388584 
605.648224  	0.387412 
607.577040  	0.386142 
609.505856  	0.384449 
611.434672  	0.382979 
613.363488  	0.381364 
615.292304  	0.380486 
617.221120  	0.378736 
619.149936  	0.377051 
621.078752  	0.375130 
623.007568  	0.374629 
624.936384  	0.373906 
626.865200  	0.372475 
628.794016  	0.371099 
630.722832  	0.371122 
632.651648  	0.370601 
634.580464  	0.370065 
636.509280  	0.370197 
638.438096  	0.370448 
640.366912  	0.369483 
642.295728  	0.367509 
644.224544  	0.364484 
646.153360  	0.361084 
648.082176  	0.356174 
650.010992  	0.352188 
651.939808  	0.348277 
653.868624  	0.343609 
655.797440  	0.339866 
657.726256  	0.336571 
659.655072  	0.332405 
661.583888  	0.328260 
663.512704  	0.324220 
665.441520  	0.321043 
667.370336  	0.312878 
669.299152  	0.305851 
671.227968  	0.306413 
673.156784  	0.303399 
675.085600  	0.299485 
677.014416  	0.296306 
678.943232  	0.294373 
680.872048  	0.293216 
682.800864  	0.291649 
684.729680  	0.289609 
686.658496  	0.288334 
688.587312  	0.287921 
690.516128  	0.286527 
692.444944  	0.285446 
694.373760  	0.284711 
696.302576  	0.282967 
698.231392  	0.281152 
700.160208  	0.278478 
702.089024  	0.275863 
704.017840  	0.273629 
705.946656  	0.271154 
707.875472  	0.268790 
709.804288  	0.266671 
711.733104  	0.264716 
713.661920  	0.262715 
715.590736  	0.261874 
717.519552  	0.261444 
719.448368  	0.261479 
721.377184  	0.261871 
723.306000  	0.262704 
725.234816  	0.263162 
727.163632  	0.262854 
729.092448  	0.260872 
731.021264  	0.257361 
732.950080  	0.253298 
734.878896  	0.249751 
736.807712  	0.246668 
738.736528  	0.244140 
740.665344  	0.242217 
742.594160  	0.240656 
744.522976  	0.239212 
746.451792  	0.237457 
748.380608  	0.235680 
750.309424  	0.234722 
752.238240  	0.233653 
754.167056  	0.232816 
756.095872  	0.231970 
758.024688  	0.231018 
759.953504  	0.230475 
761.882320  	0.231325 
763.811136  	0.232244 
765.739952  	0.231067 
767.668768  	0.227963 
769.597584  	0.225181 
771.526400  	0.224298 
773.455216  	0.226323 
775.384032  	0.230791 
777.312848  	0.236625 
779.241664  	0.241318 
781.170480  	0.241464 
783.099296  	0.236851 
785.028112  	0.230495 
786.956928  	0.224232 
788.885744  	0.218648 
790.814560  	0.214874 
792.743376  	0.212754 
794.672192  	0.211840 
796.601008  	0.210853 
798.529824  	0.207850 
800.458640  	0.203421 
802.387456  	0.199800 
804.316272  	0.197596 
806.245088  	0.196172 
808.173904  	0.195417 
810.102720  	0.195175 
812.031536  	0.195096 
813.960352  	0.195510 
815.889168  	0.196057 
817.817984  	0.196501 
819.746800  	0.196995 
821.675616  	0.197509 
823.604432  	0.197727 
825.533248  	0.197702 
827.462064  	0.197586 
829.390880  	0.196992 
831.319696  	0.195638 
833.248512  	0.193874 
835.177328  	0.191542 
837.106144  	0.188788 
839.034960  	0.185392 
840.963776  	0.181478 
842.892592  	0.177289 
844.821408  	0.173336 
846.750224  	0.170110 
848.679040  	0.167638 
850.607856  	0.166057 
852.536672  	0.165018 
854.465488  	0.163976 
856.394304  	0.163222 
858.323120  	0.162698 
860.251936  	0.161714 
862.180752  	0.160206 
864.109568  	0.158189 
866.038384  	0.156314 
867.967200  	0.154627 
869.896016  	0.152728 
871.824832  	0.151446 
873.753648  	0.150997 
875.682464  	0.151839 
877.611280  	0.154016 
879.540096  	0.156583 
881.468912  	0.157966 
883.397728  	0.159385 
885.326544  	0.160606 
887.255360  	0.161417 
889.184176  	0.161465 
891.112992  	0.160947 
893.041808  	0.158835 
894.970624  	0.155388 
896.899440  	0.151548 
898.828256  	0.146566 
900.757072  	0.141283 
902.685888  	0.136868 
904.614704  	0.133931 
906.543520  	0.133183 
908.472336  	0.133811 
910.401152  	0.135579 
912.329968  	0.137879 
914.258784  	0.140638 
916.187600  	0.143087 
918.116416  	0.145334 
920.045232  	0.147062 
921.974048  	0.148078 
923.902864  	0.148405 
925.831680  	0.148412 
927.760496  	0.148794 
929.689312  	0.149514 
931.618128  	0.150514 
933.546944  	0.151268 
935.475760  	0.151682 
937.404576  	0.151510 
939.333392  	0.150942 
941.262208  	0.150978 
943.191024  	0.152514 
945.119840  	0.156612 
947.048656  	0.163355 
948.977472  	0.172428 
950.906288  	0.183898 
952.835104  	0.197132 
954.763920  	0.211006 
956.692736  	0.224088 
958.621552  	0.235504 
960.550368  	0.243616 
962.479184  	0.247465 
964.408000  	0.246253 
966.336816  	0.240508 
968.265632  	0.230814 
970.194448  	0.217779 
972.123264  	0.202634 
974.052080  	0.187048 
975.980896  	0.171836 
977.909712  	0.157697 
979.838528  	0.145237 
981.767344  	0.134893 
983.696160  	0.127116 
985.624976  	0.122093 
987.553792  	0.120359 
989.482608  	0.121887 
991.411424  	0.126013 
993.340240  	0.131764 
995.269056  	0.139142 
997.197872  	0.147402 
999.126688  	0.155925 
1001.055504  	0.164623 
1002.984320  	0.173665 
1004.913136  	0.182823 
1006.841952  	0.191852 
1008.770768  	0.199760 
1010.699584  	0.206226 
1012.628400  	0.210916 
1014.557216  	0.213893 
1016.486032  	0.215534 
1018.414848  	0.215864 
1020.343664  	0.215784 
1022.272480  	0.215502 
1024.201296  	0.215938 
1026.130112  	0.218682 
1028.058928  	0.220855 
1029.987744  	0.220367 
1031.916560  	0.223690 
1033.845376  	0.230410 
1035.774192  	0.239337 
1037.703008  	0.249243 
1039.631824  	0.259854 
1041.560640  	0.273968 
1043.489456  	0.292287 
1045.418272  	0.313021 
1047.347088  	0.334019 
1049.275904  	0.351354 
1051.204720  	0.363681 
1053.133536  	0.369491 
1055.062352  	0.371067 
1056.991168  	0.370399 
1058.919984  	0.366698 
1060.848800  	0.361007 
1062.777616  	0.359441 
1064.706432  	0.360867 
1066.635248  	0.358791 
1068.564064  	0.348554 
1070.492880  	0.339724 
1072.421696  	0.333431 
1074.350512  	0.329420 
1076.279328  	0.328032 
1078.208144  	0.330240 
1080.136960  	0.333545 
1082.065776  	0.336543 
1083.994592  	0.336166 
1085.923408  	0.331957 
1087.852224  	0.323455 
1089.781040  	0.312236 
1091.709856  	0.298529 
1093.638672  	0.284313 
1095.567488  	0.269315 
1097.496304  	0.254199 
1099.425120  	0.238567 
1101.353936  	0.223057 
1103.282752  	0.207638 
1105.211568  	0.192633 
1107.140384  	0.177950 
1109.069200  	0.164017 
1110.998016  	0.151346 
1112.926832  	0.140193 
1114.855648  	0.130220 
1116.784464  	0.120459 
1118.713280  	0.111248 
1120.642096  	0.103079 
1122.570912  	0.095591 
1124.499728  	0.088372 
1126.428544  	0.081838 
1128.357360  	0.076084 
1130.286176  	0.071462 
1132.214992  	0.067459 
1134.143808  	0.064436 
1136.072624  	0.061962 
1138.001440  	0.059774 
1139.930256  	0.057225 
1141.859072  	0.054598 
1143.787888  	0.051980 
1145.716704  	0.049607 
1147.645520  	0.046930 
1149.574336  	0.044841 
1151.503152  	0.043471 
1153.431968  	0.042936 
1155.360784  	0.042872 
1157.289600  	0.043781 
1159.218416  	0.045442 
1161.147232  	0.047803 
1163.076048  	0.050340 
1165.004864  	0.053198 
1166.933680  	0.055825 
1168.862496  	0.058605 
1170.791312  	0.061403 
1172.720128  	0.064730 
1174.648944  	0.068107 
1176.577760  	0.071556 
1178.506576  	0.074959 
1180.435392  	0.078576 
1182.364208  	0.082075 
1184.293024  	0.085932 
1186.221840  	0.090147 
1188.150656  	0.094984 
1190.079472  	0.100346 
1192.008288  	0.106910 
1193.937104  	0.114863 
1195.865920  	0.123990 
1197.794736  	0.133743 
1199.723552  	0.144439 
1201.652368  	0.155303 
1203.581184  	0.166295 
1205.510000  	0.177052 
1207.438816  	0.187090 
1209.367632  	0.196732 
1211.296448  	0.205319 
1213.225264  	0.212527 
1215.154080  	0.218096 
1217.082896  	0.222468 
1219.011712  	0.225376 
1220.940528  	0.227801 
1222.869344  	0.229428 
1224.798160  	0.230088 
1226.726976  	0.229265 
1228.655792  	0.227941 
1230.584608  	0.225467 
1232.513424  	0.221973 
1234.442240  	0.216944 
1236.371056  	0.211126 
1238.299872  	0.204846 
1240.228688  	0.199505 
1242.157504  	0.192556 
1244.086320  	0.183612 
1246.015136  	0.175578 
1247.943952  	0.168240 
1249.872768  	0.160329 
1251.801584  	0.151767 
1253.730400  	0.143380 
1255.659216  	0.135153 
1257.588032  	0.127495 
1259.516848  	0.120063 
1261.445664  	0.112813 
1263.374480  	0.105780 
1265.303296  	0.099858 
1267.232112  	0.094810 
1269.160928  	0.090723 
1271.089744  	0.087484 
1273.018560  	0.085458 
1274.947376  	0.084355 
1276.876192  	0.083992 
1278.805008  	0.083457 
1280.733824  	0.082096 
1282.662640  	0.079684 
1284.591456  	0.076868 
1286.520272  	0.074418 
1288.449088  	0.072853 
1290.377904  	0.071984 
1292.306720  	0.072211 
1294.235536  	0.072450 
1296.164352  	0.071779 
1298.093168  	0.069236 
1300.021984  	0.065977 
1301.950800  	0.062593 
1303.879616  	0.059441 
1305.808432  	0.055844 
1307.737248  	0.052262 
1309.666064  	0.048730 
1311.594880  	0.046462 
1313.523696  	0.044753 
1315.452512  	0.043375 
1317.381328  	0.042634 
1319.310144  	0.042425 
1321.238960  	0.042402 
1323.167776  	0.043040 
1325.096592  	0.043823 
1327.025408  	0.044396 
1328.954224  	0.044455 
1330.883040  	0.044059 
1332.811856  	0.043028 
1334.740672  	0.042697 
1336.669488  	0.043402 
1338.598304  	0.044546 
1340.527120  	0.042916 
1342.455936  	0.040291 
1344.384752  	0.039701 
1346.313568  	0.040242 
1348.242384  	0.041091 
1350.171200  	0.042660 
1352.100016  	0.044723 
1354.028832  	0.047367 
1355.957648  	0.049830 
1357.886464  	0.052586 
1359.815280  	0.056027 
1361.744096  	0.060079 
1363.672912  	0.062221 
1365.601728  	0.063709 
1367.530544  	0.066379 
1369.459360  	0.068420 
1371.388176  	0.069809 
1373.316992  	0.070612 
1375.245808  	0.068666 
1377.174624  	0.066982 
1379.103440  	0.065018 
1381.032256  	0.062296 
1382.961072  	0.059895 
1384.889888  	0.058825 
1386.818704  	0.057518 
1388.747520  	0.054100 
1390.676336  	0.052801 
1392.605152  	0.055054 
1394.533968  	0.055398 
1396.462784  	0.052212 
1398.391600  	0.051265 
1400.320416  	0.051049 
1402.249232  	0.052950 
1404.178048  	0.055451 
1406.106864  	0.056485 
1408.035680  	0.057629 
1409.964496  	0.059205 
1411.893312  	0.060295 
1413.822128  	0.061243 
1415.750944  	0.063849 
1417.679760  	0.065672 
1419.608576  	0.062397 
1421.537392  	0.060757 
1423.466208  	0.060448 
1425.395024  	0.057661 
1427.323840  	0.055564 
1429.252656  	0.052500 
1431.181472  	0.050079 
1433.110288  	0.050052 
1435.039104  	0.051203 
1436.967920  	0.050538 
1438.896736  	0.050872 
1440.825552  	0.052271 
1442.754368  	0.052987 
1444.683184  	0.053403 
1446.612000  	0.053888 
1448.540816  	0.053790 
1450.469632  	0.054805 
1452.398448  	0.055958 
1454.327264  	0.057234 
1456.256080  	0.055604 
1458.184896  	0.050278 
1460.113712  	0.051193 
1462.042528  	0.052654 
1463.971344  	0.051989 
1465.900160  	0.051892 
1467.828976  	0.054712 
1469.757792  	0.058244 
1471.686608  	0.061648 
1473.615424  	0.067562 
1475.544240  	0.074745 
1477.473056  	0.080494 
1479.401872  	0.084549 
1481.330688  	0.088086 
1483.259504  	0.090165 
1485.188320  	0.092098 
1487.117136  	0.092545 
1489.045952  	0.092378 
1490.974768  	0.088366 
1492.903584  	0.085247 
1494.832400  	0.081666 
1496.761216  	0.073758 
1498.690032  	0.066510 
1500.618848  	0.062168 
1502.547664  	0.058096 
1504.476480  	0.053548 
1506.405296  	0.047498 
1508.334112  	0.045707 
1510.262928  	0.045126 
1512.191744  	0.042293 
1514.120560  	0.041244 
1516.049376  	0.041032 
1517.978192  	0.039349 
1519.907008  	0.040770 
1521.835824  	0.040751 
1523.764640  	0.045417 
1525.693456  	0.050633 
1527.622272  	0.052722 
1529.551088  	0.053170 
1531.479904  	0.052965 
1533.408720  	0.047916 
1535.337536  	0.043969 
1537.266352  	0.042256 
1539.195168  	0.033273 
1541.123984  	0.025145 
1543.052800  	0.029583 
1544.981616  	0.030792 
1546.910432  	0.029658 
1548.839248  	0.030596 
1550.768064  	0.030732 
1552.696880  	0.030173 
1554.625696  	0.030424 
1556.554512  	0.030393 
1558.483328  	0.027203 
1560.412144  	0.031054 
1562.340960  	0.039627 
1564.269776  	0.044135 
1566.198592  	0.049833 
1568.127408  	0.054323 
1570.056224  	0.059175 
1571.985040  	0.067143 
1573.913856  	0.072593 
1575.842672  	0.073078 
1577.771488  	0.076381 
1579.700304  	0.079284 
1581.629120  	0.079425 
1583.557936  	0.078919 
1585.486752  	0.079762 
1587.415568  	0.082260 
1589.344384  	0.087107 
1591.273200  	0.093472 
1593.202016  	0.101281 
1595.130832  	0.109614 
1597.059648  	0.118480 
1598.988464  	0.126091 
1600.917280  	0.132880 
1602.846096  	0.137242 
1604.774912  	0.140038 
1606.703728  	0.140477 
1608.632544  	0.139439 
1610.561360  	0.137196 
1612.490176  	0.135738 
1614.418992  	0.133204 
1616.347808  	0.129038 
1618.276624  	0.130301 
1620.205440  	0.135881 
1622.134256  	0.138681 
1624.063072  	0.144087 
1625.991888  	0.151732 
1627.920704  	0.160249 
1629.849520  	0.170906 
1631.778336  	0.181337 
1633.707152  	0.188001 
1635.635968  	0.194441 
1637.564784  	0.205690 
1639.493600  	0.215148 
1641.422416  	0.220935 
1643.351232  	0.225043 
1645.280048  	0.225024 
1647.208864  	0.223394 
1649.137680  	0.225521 
1651.066496  	0.226599 
1652.995312  	0.217764 
1654.924128  	0.217227 
1656.852944  	0.219218 
1658.781760  	0.217472 
1660.710576  	0.213447 
1662.639392  	0.206944 
1664.568208  	0.202577 
1666.497024  	0.200530 
1668.425840  	0.194089 
1670.354656  	0.185297 
1672.283472  	0.182108 
1674.212288  	0.178660 
1676.141104  	0.172566 
1678.069920  	0.172154 
1679.998736  	0.171732 
1681.927552  	0.169797 
1683.856368  	0.162868 
1685.785184  	0.161266 
1687.714000  	0.165096 
1689.642816  	0.164692 
1691.571632  	0.162648 
1693.500448  	0.161876 
1695.429264  	0.157286 
1697.358080  	0.154133 
1699.286896  	0.152217 
1701.215712  	0.146711 
1703.144528  	0.147537 
1705.073344  	0.143553 
1707.002160  	0.137367 
1708.930976  	0.133746 
1710.859792  	0.127970 
1712.788608  	0.121324 
1714.717424  	0.112352 
1716.646240  	0.099763 
1718.575056  	0.084068 
1720.503872  	0.076296 
1722.432688  	0.069565 
1724.361504  	0.059363 
1726.290320  	0.050877 
1728.219136  	0.044421 
1730.147952  	0.038751 
1732.076768  	0.033658 
1734.005584  	0.025208 
1735.934400  	0.019252 
1737.863216  	0.019762 
1739.792032  	0.015416 
1741.720848  	0.014433 
1743.649664  	0.014633 
1745.578480  	0.013646 
1747.507296  	0.011773 
1749.436112  	0.010800 
1751.364928  	0.009320 
1753.293744  	0.008233 
1755.222560  	0.008212 
1757.151376  	0.007560 
1759.080192  	0.006787 
1761.009008  	0.006028 
1762.937824  	0.004001 
1764.866640  	0.004674 
1766.795456  	0.005684 
1768.724272  	0.005171 
1770.653088  	0.002517 
1772.581904  	-0.000856 
1774.510720  	0.000761 
1776.439536  	0.002910 
1778.368352  	0.003210 
1780.297168  	0.002909 
1782.225984  	0.002300 
1784.154800  	0.002893 
1786.083616  	0.001873 
1788.012432  	0.002200 
1789.941248  	0.003226 
1791.870064  	0.001491 
1793.798880  	-0.000632 
1795.727696  	0.001360 
1797.656512  	0.001050 
1799.585328  	0.000854 
1801.514144  	0.001369 
1803.442960  	0.000977 
1805.371776  	0.000087 
1807.300592  	0.000600 
1809.229408  	0.000097 
1811.158224  	-0.000353 
1813.087040  	-0.000693 
1815.015856  	-0.000314 
1816.944672  	-0.000157 
1818.873488  	-0.000258 
1820.802304  	-0.000497 
1822.731120  	0.000439 
1824.659936  	-0.000050 
1826.588752  	-0.000770 
1828.517568  	-0.001356 
1830.446384  	-0.002160 
1832.375200  	-0.001309 
1834.304016  	-0.000381 
1836.232832  	-0.000621 
1838.161648  	-0.000433 
1840.090464  	-0.000604 
1842.019280  	0.000459 
1843.948096  	-0.000850 
1845.876912  	-0.001153 
1847.805728  	-0.000366 
1849.734544  	-0.000610 
1851.663360  	-0.001105 
1853.592176  	-0.001146 
1855.520992  	-0.001423 
1857.449808  	-0.001011 
1859.378624  	-0.001020 
1861.307440  	-0.001215 
1863.236256  	-0.001542 
1865.165072  	-0.001039 
1867.093888  	-0.001028 
1869.022704  	-0.001563 
1870.951520  	-0.001930 
1872.880336  	-0.001424 
1874.809152  	-0.001679 
1876.737968  	-0.001491 
1878.666784  	-0.001726 
1880.595600  	-0.001270 
1882.524416  	-0.001653 
1884.453232  	-0.001510 
1886.382048  	-0.001694 
1888.310864  	-0.001155 
1890.239680  	-0.001796 
1892.168496  	-0.001366 
1894.097312  	-0.000931 
1896.026128  	-0.000897 
1897.954944  	-0.001558 
1899.883760  	-0.001378 
1901.812576  	-0.001459 
1903.741392  	-0.001449 
1905.670208  	-0.001480 
1907.599024  	-0.000512 
1909.527840  	-0.000521 
1911.456656  	-0.000654 
1913.385472  	-0.000937 
1915.314288  	-0.000228 
1917.243104  	-0.000502 
1919.171920  	-0.000935 
1921.100736  	-0.000692 
1923.029552  	-0.000025 
1924.958368  	-0.001082 
1926.887184  	-0.001250 
1928.816000  	-0.001432 
1930.744816  	-0.000995 
1932.673632  	-0.001494 
1934.602448  	-0.001356 
1936.531264  	-0.001220 
1938.460080  	-0.000588 
1940.388896  	-0.000667 
1942.317712  	-0.000269 
1944.246528  	-0.001125 
1946.175344  	-0.000901 
1948.104160  	-0.001267 
1950.032976  	-0.001078 
1951.961792  	-0.001587 
1953.890608  	-0.001034 
1955.819424  	-0.001263 
1957.748240  	-0.000687 
1959.677056  	-0.001598 
1961.605872  	-0.001218 
1963.534688  	-0.001417 
1965.463504  	-0.000972 
1967.392320  	-0.001876 
1969.321136  	-0.001557 
1971.249952  	-0.001996 
1973.178768  	-0.000739 
1975.107584  	-0.001282 
1977.036400  	-0.000304 
1978.965216  	0.000332 
1980.894032  	0.000126 
1982.822848  	-0.001279 
1984.751664  	-0.000882 
1986.680480  	-0.001787 
1988.609296  	-0.000890 
1990.538112  	-0.000479 
1992.466928  	0.000466 
1994.395744  	-0.001134 
1996.324560  	-0.001972 
1998.253376  	-0.002676 
2000.182192  	-0.002265 
2002.111008  	-0.001595 
2004.039824  	-0.000353 
2005.968640  	-0.001333 
2007.897456  	-0.000803 
2009.826272  	-0.001239 
2011.755088  	-0.000794 
2013.683904  	-0.001299 
2015.612720  	-0.000170 
2017.541536  	-0.000191 
2019.470352  	-0.000431 
2021.399168  	-0.002441 
2023.327984  	-0.001538 
2025.256800  	-0.000589 
2027.185616  	-0.000030 
2029.114432  	-0.000347 
2031.043248  	0.000847 
2032.972064  	0.000634 
2034.900880  	0.000860 
2036.829696  	0.000123 
2038.758512  	0.001431 
2040.687328  	0.000996 
2042.616144  	0.000870 
2044.544960  	-0.000361 
2046.473776  	-0.000283 
2048.402592  	-0.000958 
2050.331408  	-0.000655 
2052.260224  	-0.001316 
2054.189040  	-0.001753 
2056.117856  	-0.002039 
2058.046672  	-0.001246 
2059.975488  	-0.001212 
2061.904304  	-0.001577 
2063.833120  	-0.001669 
2065.761936  	-0.001448 
2067.690752  	-0.001907 
2069.619568  	-0.001413 
2071.548384  	-0.001451 
2073.477200  	-0.001416 
2075.406016  	-0.001099 
2077.334832  	-0.000545 
2079.263648  	-0.000848 
2081.192464  	-0.000695 
2083.121280  	-0.000554 
2085.050096  	-0.000600 
2086.978912  	-0.000847 
2088.907728  	-0.000302 
2090.836544  	-0.000791 
2092.765360  	-0.000365 
2094.694176  	-0.000054 
2096.622992  	-0.000284 
2098.551808  	-0.000324 
2100.480624  	0.000593 
2102.409440  	0.000436 
2104.338256  	-0.000068 
2106.267072  	-0.000150 
2108.195888  	0.000225 
2110.124704  	0.000019 
2112.053520  	0.000150 
2113.982336  	0.000082 
2115.911152  	0.000168 
2117.839968  	-0.000197 
2119.768784  	-0.000285 
2121.697600  	-0.000500 
2123.626416  	-0.000426 
2125.555232  	-0.000481 
2127.484048  	-0.000027 
2129.412864  	-0.000307 
2131.341680  	-0.000384 
2133.270496  	-0.000936 
2135.199312  	-0.000708 
2137.128128  	-0.000110 
2139.056944  	0.000667 
2140.985760  	-0.000000 
2142.914576  	0.000158 
2144.843392  	0.000295 
2146.772208  	0.000357 
2148.701024  	-0.000471 
2150.629840  	0.000334 
2152.558656  	0.000397 
2154.487472  	0.000802 
2156.416288  	0.000521 
2158.345104  	0.000798 
2160.273920  	0.002132 
2162.202736  	0.003532 
2164.131552  	0.002403 
2166.060368  	0.002231 
2167.989184  	0.002693 
2169.918000  	0.003481 
2171.846816  	0.002230 
2173.775632  	0.002314 
2175.704448  	0.002391 
2177.633264  	0.002589 
2179.562080  	0.001765 
2181.490896  	0.002055 
2183.419712  	0.000973 
2185.348528  	0.000756 
2187.277344  	0.000892 
2189.206160  	0.000673 
2191.134976  	0.000223 
2193.063792  	0.000459 
2194.992608  	0.000241 
2196.921424  	0.000568 
2198.850240  	0.000387 
2200.779056  	0.000337 
2202.707872  	0.000069 
2204.636688  	0.000109 
2206.565504  	0.000185 
2208.494320  	0.000089 
2210.423136  	-0.000493 
2212.351952  	-0.000076 
2214.280768  	0.000081 
2216.209584  	0.000538 
2218.138400  	-0.000255 
2220.067216  	-0.000434 
2221.996032  	-0.000508 
2223.924848  	-0.000551 
2225.853664  	-0.000041 
2227.782480  	0.000409 
2229.711296  	-0.000286 
2231.640112  	-0.000902 
2233.568928  	-0.001488 
2235.497744  	-0.001207 
2237.426560  	-0.001300 
2239.355376  	-0.000828 
2241.284192  	-0.000825 
2243.213008  	-0.000838 
2245.141824  	-0.000973 
2247.070640  	-0.000806 
2248.999456  	-0.001312 
2250.928272  	-0.001420 
2252.857088  	-0.002008 
2254.785904  	-0.002280 
2256.714720  	-0.002478 
2258.643536  	-0.002254 
2260.572352  	-0.002376 
2262.501168  	-0.002659 
2264.429984  	-0.002645 
2266.358800  	-0.002215 
2268.287616  	-0.002261 
2270.216432  	-0.002286 
2272.145248  	-0.002198 
2274.074064  	-0.002151 
2276.002880  	-0.002156 
2277.931696  	-0.001814 
2279.860512  	-0.001846 
2281.789328  	-0.001598 
2283.718144  	-0.001481 
2285.646960  	-0.001357 
2287.575776  	-0.001364 
2289.504592  	-0.001611 
2291.433408  	-0.001966 
2293.362224  	-0.001725 
2295.291040  	-0.001382 
2297.219856  	-0.001082 
2299.148672  	-0.001150 
2301.077488  	-0.000897 
2303.006304  	-0.000916 
2304.935120  	-0.000996 
2306.863936  	-0.001190 
2308.792752  	-0.001436 
2310.721568  	-0.002062 
2312.650384  	-0.003081 
2314.579200  	-0.004342 
2316.508016  	-0.005506 
2318.436832  	-0.007231 
2320.365648  	-0.009451 
2322.294464  	-0.011498 
2324.223280  	-0.013675 
2326.152096  	-0.016546 
2328.080912  	-0.018762 
2330.009728  	-0.021281 
2331.938544  	-0.024166 
2333.867360  	-0.026353 
2335.796176  	-0.027866 
2337.724992  	-0.029265 
2339.653808  	-0.029649 
2341.582624  	-0.029819 
2343.511440  	-0.028015 
2345.440256  	-0.024205 
2347.369072  	-0.017172 
2349.297888  	-0.013202 
2351.226704  	-0.017213 
2353.155520  	-0.025224 
2355.084336  	-0.031498 
2357.013152  	-0.036489 
2358.941968  	-0.039116 
2360.870784  	-0.040409 
2362.799600  	-0.039139 
2364.728416  	-0.037048 
2366.657232  	-0.033432 
2368.586048  	-0.028378 
2370.514864  	-0.022836 
2372.443680  	-0.017876 
2374.372496  	-0.012880 
2376.301312  	-0.008509 
2378.230128  	-0.005237 
2380.158944  	-0.003031 
2382.087760  	-0.001963 
2384.016576  	-0.001775 
2385.945392  	-0.001920 
2387.874208  	-0.002222 
2389.803024  	-0.002394 
2391.731840  	-0.002587 
2393.660656  	-0.002549 
2395.589472  	-0.002481 
2397.518288  	-0.002255 
2399.447104  	-0.002425 
2401.375920  	-0.002599 
2403.304736  	-0.002905 
2405.233552  	-0.002830 
2407.162368  	-0.002663 
2409.091184  	-0.002552 
2411.020000  	-0.002500 
2412.948816  	-0.002431 
2414.877632  	-0.002484 
2416.806448  	-0.002331 
2418.735264  	-0.002241 
2420.664080  	-0.002390 
2422.592896  	-0.002569 
2424.521712  	-0.002492 
2426.450528  	-0.002550 
2428.379344  	-0.002360 
2430.308160  	-0.002179 
2432.236976  	-0.002022 
2434.165792  	-0.002146 
2436.094608  	-0.002218 
2438.023424  	-0.002018 
2439.952240  	-0.001739 
2441.881056  	-0.001674 
2443.809872  	-0.001634 
2445.738688  	-0.001559 
2447.667504  	-0.001682 
2449.596320  	-0.001955 
2451.525136  	-0.001755 
2453.453952  	-0.001688 
2455.382768  	-0.001710 
2457.311584  	-0.001692 
2459.240400  	-0.001800 
2461.169216  	-0.001953 
2463.098032  	-0.002030 
2465.026848  	-0.002011 
2466.955664  	-0.002000 
2468.884480  	-0.002103 
2470.813296  	-0.002009 
2472.742112  	-0.002026 
2474.670928  	-0.001907 
2476.599744  	-0.001797 
2478.528560  	-0.001728 
2480.457376  	-0.001751 
2482.386192  	-0.001808 
2484.315008  	-0.001799 
2486.243824  	-0.001816 
2488.172640  	-0.001833 
2490.101456  	-0.001649 
2492.030272  	-0.001391 
2493.959088  	-0.001078 
2495.887904  	-0.001082 
2497.816720  	-0.001102 
2499.745536  	-0.000995 
2501.674352  	-0.000794 
2503.603168  	-0.000712 
2505.531984  	-0.000769 
2507.460800  	-0.000814 
2509.389616  	-0.000749 
2511.318432  	-0.000751 
2513.247248  	-0.000712 
2515.176064  	-0.000733 
2517.104880  	-0.000642 
2519.033696  	-0.000799 
2520.962512  	-0.000862 
2522.891328  	-0.000909 
2524.820144  	-0.000871 
2526.748960  	-0.000704 
2528.677776  	-0.000462 
2530.606592  	-0.000366 
2532.535408  	-0.000285 
2534.464224  	-0.000548 
2536.393040  	-0.000507 
2538.321856  	-0.000118 
2540.250672  	0.000044 
2542.179488  	-0.000016 
2544.108304  	-0.000116 
2546.037120  	-0.000103 
2547.965936  	0.000048 
2549.894752  	0.000088 
2551.823568  	0.000223 
2553.752384  	0.000432 
2555.681200  	0.000666 
2557.610016  	0.000534 
2559.538832  	0.000651 
2561.467648  	0.000944 
2563.396464  	0.001038 
2565.325280  	0.001192 
2567.254096  	0.001305 
2569.182912  	0.001308 
2571.111728  	0.001542 
2573.040544  	0.001600 
2574.969360  	0.001620 
2576.898176  	0.001844 
2578.826992  	0.001914 
2580.755808  	0.001792 
2582.684624  	0.001941 
2584.613440  	0.002073 
2586.542256  	0.002113 
2588.471072  	0.002230 
2590.399888  	0.002486 
2592.328704  	0.002469 
2594.257520  	0.002186 
2596.186336  	0.002146 
2598.115152  	0.002396 
2600.043968  	0.002551 
2601.972784  	0.002837 
2603.901600  	0.002962 
2605.830416  	0.003106 
2607.759232  	0.003180 
2609.688048  	0.003250 
2611.616864  	0.003492 
2613.545680  	0.003771 
2615.474496  	0.004004 
2617.403312  	0.004147 
2619.332128  	0.004216 
2621.260944  	0.004224 
2623.189760  	0.004271 
2625.118576  	0.004457 
2627.047392  	0.004518 
2628.976208  	0.004607 
2630.905024  	0.004774 
2632.833840  	0.004904 
2634.762656  	0.004963 
2636.691472  	0.005096 
2638.620288  	0.005264 
2640.549104  	0.005360 
2642.477920  	0.005408 
2644.406736  	0.005638 
2646.335552  	0.005864 
2648.264368  	0.006002 
2650.193184  	0.006036 
2652.122000  	0.006182 
2654.050816  	0.006365 
2655.979632  	0.006616 
2657.908448  	0.006863 
2659.837264  	0.007077 
2661.766080  	0.007107 
2663.694896  	0.007272 
2665.623712  	0.007391 
2667.552528  	0.007587 
2669.481344  	0.007784 
2671.410160  	0.007893 
2673.338976  	0.008008 
2675.267792  	0.008293 
2677.196608  	0.008571 
2679.125424  	0.008711 
2681.054240  	0.008830 
2682.983056  	0.009012 
2684.911872  	0.009098 
2686.840688  	0.009218 
2688.769504  	0.009245 
2690.698320  	0.009346 
2692.627136  	0.009440 
2694.555952  	0.009589 
2696.484768  	0.009650 
2698.413584  	0.009732 
2700.342400  	0.009920 
2702.271216  	0.010148 
2704.200032  	0.010395 
2706.128848  	0.010557 
2708.057664  	0.010619 
2709.986480  	0.010777 
2711.915296  	0.010984 
2713.844112  	0.011229 
2715.772928  	0.011348 
2717.701744  	0.011578 
2719.630560  	0.011980 
2721.559376  	0.012283 
2723.488192  	0.012491 
2725.417008  	0.012642 
2727.345824  	0.012832 
2729.274640  	0.013033 
2731.203456  	0.013254 
2733.132272  	0.013531 
2735.061088  	0.013797 
2736.989904  	0.014085 
2738.918720  	0.014272 
2740.847536  	0.014442 
2742.776352  	0.014516 
2744.705168  	0.014698 
2746.633984  	0.014867 
2748.562800  	0.014882 
2750.491616  	0.014967 
2752.420432  	0.015152 
2754.349248  	0.015042 
2756.278064  	0.015077 
2758.206880  	0.015195 
2760.135696  	0.015189 
2762.064512  	0.015193 
2763.993328  	0.015257 
2765.922144  	0.015252 
2767.850960  	0.015273 
2769.779776  	0.015387 
2771.708592  	0.015494 
2773.637408  	0.015425 
2775.566224  	0.015353 
2777.495040  	0.015339 
2779.423856  	0.015548 
2781.352672  	0.015741 
2783.281488  	0.015738 
2785.210304  	0.015749 
2787.139120  	0.015891 
2789.067936  	0.016057 
2790.996752  	0.016223 
2792.925568  	0.016233 
2794.854384  	0.016210 
2796.783200  	0.016204 
2798.712016  	0.016223 
2800.640832  	0.016354 
2802.569648  	0.016526 
2804.498464  	0.016627 
2806.427280  	0.016605 
2808.356096  	0.016607 
2810.284912  	0.016777 
2812.213728  	0.016850 
2814.142544  	0.016861 
2816.071360  	0.016931 
2818.000176  	0.017039 
2819.928992  	0.017167 
2821.857808  	0.017269 
2823.786624  	0.017415 
2825.715440  	0.017565 
2827.644256  	0.017573 
2829.573072  	0.017644 
2831.501888  	0.017774 
2833.430704  	0.017864 
2835.359520  	0.017988 
2837.288336  	0.018201 
2839.217152  	0.018401 
2841.145968  	0.018617 
2843.074784  	0.018870 
2845.003600  	0.019238 
2846.932416  	0.019762 
2848.861232  	0.020438 
2850.790048  	0.021029 
2852.718864  	0.021652 
2854.647680  	0.022225 
2856.576496  	0.022644 
2858.505312  	0.023279 
2860.434128  	0.024190 
2862.362944  	0.025140 
2864.291760  	0.026067 
2866.220576  	0.027021 
2868.149392  	0.027984 
2870.078208  	0.028829 
2872.007024  	0.029725 
2873.935840  	0.030568 
2875.864656  	0.031496 
2877.793472  	0.032831 
2879.722288  	0.034269 
2881.651104  	0.035858 
2883.579920  	0.037348 
2885.508736  	0.038177 
2887.437552  	0.038378 
2889.366368  	0.038805 
2891.295184  	0.039561 
2893.224000  	0.040195 
2895.152816  	0.040453 
2897.081632  	0.040745 
2899.010448  	0.042334 
2900.939264  	0.043946 
2902.868080  	0.043101 
2904.796896  	0.042163 
2906.725712  	0.042079 
2908.654528  	0.042280 
2910.583344  	0.042875 
2912.512160  	0.042923 
2914.440976  	0.042779 
2916.369792  	0.043053 
2918.298608  	0.043434 
2920.227424  	0.043825 
2922.156240  	0.044327 
2924.085056  	0.044725 
2926.013872  	0.045114 
2927.942688  	0.045627 
2929.871504  	0.046118 
2931.800320  	0.046606 
2933.729136  	0.047256 
2935.657952  	0.048071 
2937.586768  	0.048761 
2939.515584  	0.049628 
2941.444400  	0.050668 
2943.373216  	0.051406 
2945.302032  	0.051904 
2947.230848  	0.052253 
2949.159664  	0.052815 
2951.088480  	0.053691 
2953.017296  	0.054480 
2954.946112  	0.055034 
2956.874928  	0.055787 
2958.803744  	0.056382 
2960.732560  	0.056693 
2962.661376  	0.057075 
2964.590192  	0.057891 
2966.519008  	0.058863 
2968.447824  	0.059736 
2970.376640  	0.060317 
2972.305456  	0.060278 
2974.234272  	0.059799 
2976.163088  	0.059452 
2978.091904  	0.058990 
2980.020720  	0.058839 
2981.949536  	0.058759 
2983.878352  	0.059112 
2985.807168  	0.060046 
2987.735984  	0.060785 
2989.664800  	0.060101 
2991.593616  	0.057045 
2993.522432  	0.055335 
2995.451248  	0.055030 
2997.380064  	0.054439 
2999.308880  	0.053581 
3001.237696  	0.052586 
3003.166512  	0.051841 
3005.095328  	0.051166 
3007.024144  	0.050236 
3008.952960  	0.049187 
3010.881776  	0.048359 
3012.810592  	0.047545 
3014.739408  	0.046685 
3016.668224  	0.045928 
3018.597040  	0.045435 
3020.525856  	0.045003 
3022.454672  	0.044691 
3024.383488  	0.044409 
3026.312304  	0.044045 
3028.241120  	0.043905 
3030.169936  	0.043849 
3032.098752  	0.043715 
3034.027568  	0.043706 
3035.956384  	0.043834 
3037.885200  	0.044072 
3039.814016  	0.044308 
3041.742832  	0.044529 
3043.671648  	0.044717 
3045.600464  	0.045085 
3047.529280  	0.045385 
3049.458096  	0.045877 
3051.386912  	0.046601 
3053.315728  	0.047190 
3055.244544  	0.047780 
3057.173360  	0.048502 
3059.102176  	0.049128 
3061.030992  	0.049847 
3062.959808  	0.050856 
3064.888624  	0.051708 
3066.817440  	0.052492 
3068.746256  	0.053471 
3070.675072  	0.054429 
3072.603888  	0.055394 
3074.532704  	0.056351 
3076.461520  	0.057382 
3078.390336  	0.058409 
3080.319152  	0.059274 
3082.247968  	0.060198 
3084.176784  	0.061176 
3086.105600  	0.062206 
3088.034416  	0.063230 
3089.963232  	0.064188 
3091.892048  	0.064955 
3093.820864  	0.065892 
3095.749680  	0.066954 
3097.678496  	0.068169 
3099.607312  	0.069259 
3101.536128  	0.070233 
3103.464944  	0.071428 
3105.393760  	0.072436 
3107.322576  	0.073111 
3109.251392  	0.073914 
3111.180208  	0.074736 
3113.109024  	0.075616 
3115.037840  	0.076464 
3116.966656  	0.077406 
3118.895472  	0.078413 
3120.824288  	0.079176 
3122.753104  	0.079923 
3124.681920  	0.080660 
3126.610736  	0.081205 
3128.539552  	0.082070 
3130.468368  	0.083012 
3132.397184  	0.083639 
3134.326000  	0.084446 
3136.254816  	0.085213 
3138.183632  	0.085935 
3140.112448  	0.086705 
3142.041264  	0.087445 
3143.970080  	0.088169 
3145.898896  	0.088864 
3147.827712  	0.089689 
3149.756528  	0.090480 
3151.685344  	0.091187 
3153.614160  	0.092119 
3155.542976  	0.092986 
3157.471792  	0.093625 
3159.400608  	0.094381 
3161.329424  	0.095218 
3163.258240  	0.095883 
3165.187056  	0.096398 
3167.115872  	0.096894 
3169.044688  	0.097536 
3170.973504  	0.098155 
3172.902320  	0.098536 
3174.831136  	0.099006 
3176.759952  	0.099540 
3178.688768  	0.099920 
3180.617584  	0.100336 
3182.546400  	0.100713 
3184.475216  	0.101055 
3186.404032  	0.101167 
3188.332848  	0.101354 
3190.261664  	0.101662 
3192.190480  	0.102043 
3194.119296  	0.102063 
3196.048112  	0.102042 
3197.976928  	0.101954 
3199.905744  	0.102010 
3201.834560  	0.101974 
3203.763376  	0.101935 
3205.692192  	0.101870 
3207.621008  	0.101605 
3209.549824  	0.101559 
3211.478640  	0.101608 
3213.407456  	0.101484 
3215.336272  	0.101218 
3217.265088  	0.101053 
3219.193904  	0.100980 
3221.122720  	0.100858 
3223.051536  	0.100589 
3224.980352  	0.100437 
3226.909168  	0.100277 
3228.837984  	0.099779 
3230.766800  	0.099485 
3232.695616  	0.099684 
3234.624432  	0.099749 
3236.553248  	0.099520 
3238.482064  	0.099467 
3240.410880  	0.099622 
3242.339696  	0.099763 
3244.268512  	0.099497 
3246.197328  	0.099502 
3248.126144  	0.099876 
3250.054960  	0.100111 
3251.983776  	0.100304 
3253.912592  	0.100477 
3255.841408  	0.100746 
3257.770224  	0.101169 
3259.699040  	0.101410 
3261.627856  	0.101786 
3263.556672  	0.102101 
3265.485488  	0.102096 
3267.414304  	0.102280 
3269.343120  	0.102660 
3271.271936  	0.102827 
3273.200752  	0.102870 
3275.129568  	0.103100 
3277.058384  	0.103663 
3278.987200  	0.103696 
3280.916016  	0.103805 
3282.844832  	0.104268 
3284.773648  	0.104405 
3286.702464  	0.104538 
3288.631280  	0.104775 
3290.560096  	0.105188 
3292.488912  	0.105620 
3294.417728  	0.105948 
3296.346544  	0.106412 
3298.275360  	0.106618 
3300.204176  	0.106886 
3302.132992  	0.107273 
3304.061808  	0.107531 
3305.990624  	0.107865 
3307.919440  	0.108263 
3309.848256  	0.108569 
3311.777072  	0.108928 
3313.705888  	0.109263 
3315.634704  	0.109778 
3317.563520  	0.110193 
3319.492336  	0.110474 
3321.421152  	0.110545 
3323.349968  	0.110761 
3325.278784  	0.111081 
3327.207600  	0.111336 
3329.136416  	0.111255 
3331.065232  	0.111304 
3332.994048  	0.111566 
3334.922864  	0.111814 
3336.851680  	0.111652 
3338.780496  	0.111334 
3340.709312  	0.111143 
3342.638128  	0.111115 
3344.566944  	0.110700 
3346.495760  	0.110281 
3348.424576  	0.109756 
3350.353392  	0.109345 
3352.282208  	0.109141 
3354.211024  	0.108870 
3356.139840  	0.108495 
3358.068656  	0.108059 
3359.997472  	0.107631 
3361.926288  	0.107181 
3363.855104  	0.106719 
3365.783920  	0.106284 
3367.712736  	0.105917 
3369.641552  	0.105401 
3371.570368  	0.105019 
3373.499184  	0.104754 
3375.428000  	0.104170 
3377.356816  	0.103697 
3379.285632  	0.103510 
3381.214448  	0.103194 
3383.143264  	0.102702 
3385.072080  	0.102158 
3387.000896  	0.101686 
3388.929712  	0.101314 
3390.858528  	0.100905 
3392.787344  	0.100529 
3394.716160  	0.099997 
3396.644976  	0.099632 
3398.573792  	0.099156 
3400.502608  	0.098500 
3402.431424  	0.097768 
3404.360240  	0.097171 
3406.289056  	0.096547 
3408.217872  	0.095946 
3410.146688  	0.095380 
3412.075504  	0.094962 
3414.004320  	0.094422 
3415.933136  	0.093790 
3417.861952  	0.093089 
3419.790768  	0.092630 
3421.719584  	0.092056 
3423.648400  	0.091408 
3425.577216  	0.090535 
3427.506032  	0.089766 
3429.434848  	0.089028 
3431.363664  	0.088205 
3433.292480  	0.087652 
3435.221296  	0.087078 
3437.150112  	0.086395 
3439.078928  	0.085881 
3441.007744  	0.085226 
3442.936560  	0.084554 
3444.865376  	0.084110 
3446.794192  	0.083258 
3448.723008  	0.082206 
3450.651824  	0.081418 
3452.580640  	0.080678 
3454.509456  	0.080099 
3456.438272  	0.079361 
3458.367088  	0.078608 
3460.295904  	0.077897 
3462.224720  	0.076800 
3464.153536  	0.075737 
3466.082352  	0.074921 
3468.011168  	0.073920 
3469.939984  	0.072978 
3471.868800  	0.072218 
3473.797616  	0.071305 
3475.726432  	0.070406 
3477.655248  	0.069557 
3479.584064  	0.069015 
3481.512880  	0.068190 
3483.441696  	0.066952 
3485.370512  	0.066045 
3487.299328  	0.064868 
3489.228144  	0.063847 
3491.156960  	0.062970 
3493.085776  	0.061981 
3495.014592  	0.061244 
3496.943408  	0.060420 
3498.872224  	0.059692 
3500.801040  	0.059634 
3502.729856  	0.058908 
3504.658672  	0.057215 
3506.587488  	0.056153 
3508.516304  	0.055859 
3510.445120  	0.054884 
3512.373936  	0.053639 
3514.302752  	0.052876 
3516.231568  	0.052471 
3518.160384  	0.051824 
3520.089200  	0.050920 
3522.018016  	0.050828 
3523.946832  	0.050961 
3525.875648  	0.049909 
3527.804464  	0.048153 
3529.733280  	0.046709 
3531.662096  	0.045946 
3533.590912  	0.045365 
3535.519728  	0.045193 
3537.448544  	0.044493 
3539.377360  	0.043247 
3541.306176  	0.042576 
3543.234992  	0.042661 
3545.163808  	0.043348 
3547.092624  	0.042158 
3549.021440  	0.039916 
3550.950256  	0.039025 
3552.879072  	0.038470 
3554.807888  	0.037602 
3556.736704  	0.036783 
3558.665520  	0.036642 
3560.594336  	0.036188 
3562.523152  	0.035094 
3564.451968  	0.035516 
3566.380784  	0.036686 
3568.309600  	0.034115 
3570.238416  	0.031489 
3572.167232  	0.030542 
3574.096048  	0.029661 
3576.024864  	0.028735 
3577.953680  	0.028270 
3579.882496  	0.027522 
3581.811312  	0.026584 
3583.740128  	0.026312 
3585.668944  	0.027055 
3587.597760  	0.026158 
3589.526576  	0.023183 
3591.455392  	0.022042 
3593.384208  	0.021846 
3595.313024  	0.020849 
3597.241840  	0.019132 
3599.170656  	0.017483 
3601.099472  	0.016328 
3603.028288  	0.016097 
3604.957104  	0.016331 
3606.885920  	0.016278 
3608.814736  	0.014918 
3610.743552  	0.014154 
3612.672368  	0.013346 
3614.601184  	0.011984 
3616.530000  	0.011672 
3618.458816  	0.009850 
3620.387632  	0.007443 
3622.316448  	0.007293 
3624.245264  	0.007425 
3626.174080  	0.007547 
3628.102896  	0.005542 
3630.031712  	0.001931 
3631.960528  	0.003632 
3633.889344  	0.003793 
3635.818160  	0.003000 
3637.746976  	0.002581 
3639.675792  	0.002774 
3641.604608  	0.003350 
3643.533424  	0.003461 
3645.462240  	0.003635 
3647.391056  	0.001866 
3649.319872  	-0.002392 
3651.248688  	-0.003961 
3653.177504  	-0.000845 
3655.106320  	-0.000025 
3657.035136  	-0.001724 
3658.963952  	-0.001149 
3660.892768  	-0.000739 
3662.821584  	-0.000815 
3664.750400  	-0.001021 
3666.679216  	-0.001104 
3668.608032  	-0.003018 
3670.536848  	-0.007053 
3672.465664  	-0.005313 
3674.394480  	-0.004976 
3676.323296  	-0.009431 
3678.252112  	-0.007949 
3680.180928  	-0.007162 
3682.109744  	-0.006110 
3684.038560  	-0.005557 
3685.967376  	-0.005640 
3687.896192  	-0.008746 
3689.825008  	-0.012705 
3691.753824  	-0.012282 
3693.682640  	-0.010387 
3695.611456  	-0.009850 
3697.540272  	-0.010161 
3699.469088  	-0.010307 
3701.397904  	-0.012107 
3703.326720  	-0.013415 
3705.255536  	-0.012660 
3707.184352  	-0.012791 
3709.113168  	-0.014893 
3711.041984  	-0.017274 
3712.970800  	-0.016270 
3714.899616  	-0.013488 
3716.828432  	-0.013007 
3718.757248  	-0.013695 
3720.686064  	-0.014304 
3722.614880  	-0.014844 
3724.543696  	-0.014097 
3726.472512  	-0.014495 
3728.401328  	-0.015053 
3730.330144  	-0.015660 
3732.258960  	-0.017389 
3734.187776  	-0.015987 
3736.116592  	-0.016500 
3738.045408  	-0.016991 
3739.974224  	-0.014892 
3741.903040  	-0.013386 
3743.831856  	-0.015586 
3745.760672  	-0.018555 
3747.689488  	-0.016340 
3749.618304  	-0.018676 
3751.547120  	-0.020913 
3753.475936  	-0.018707 
3755.404752  	-0.015806 
3757.333568  	-0.014965 
3759.262384  	-0.015812 
3761.191200  	-0.016023 
3763.120016  	-0.014020 
3765.048832  	-0.014485 
3766.977648  	-0.014803 
3768.906464  	-0.015568 
3770.835280  	-0.016625 
3772.764096  	-0.014907 
3774.692912  	-0.013888 
3776.621728  	-0.013785 
3778.550544  	-0.015176 
3780.479360  	-0.016342 
3782.408176  	-0.014680 
3784.336992  	-0.014748 
3786.265808  	-0.014531 
3788.194624  	-0.014037 
3790.123440  	-0.014106 
3792.052256  	-0.014014 
3793.981072  	-0.013757 
3795.909888  	-0.015067 
3797.838704  	-0.015327 
3799.767520  	-0.015689 
3801.696336  	-0.020121 
3803.625152  	-0.018168 
3805.553968  	-0.016282 
3807.482784  	-0.018142 
3809.411600  	-0.015761 
3811.340416  	-0.013943 
3813.269232  	-0.013711 
3815.198048  	-0.016393 
3817.126864  	-0.018343 
3819.055680  	-0.016438 
3820.984496  	-0.019553 
3822.913312  	-0.018461 
3824.842128  	-0.015246 
3826.770944  	-0.015753 
3828.699760  	-0.015144 
3830.628576  	-0.015164 
3832.557392  	-0.016108 
3834.486208  	-0.015849 
3836.415024  	-0.016738 
3838.343840  	-0.018455 
3840.272656  	-0.017580 
3842.201472  	-0.015929 
3844.130288  	-0.015642 
3846.059104  	-0.014669 
3847.987920  	-0.013593 
3849.916736  	-0.013285 
3851.845552  	-0.015333 
3853.774368  	-0.021583 
3855.703184  	-0.018893 
3857.632000  	-0.015157 
3859.560816  	-0.013684 
3861.489632  	-0.013660 
3863.418448  	-0.014793 
3865.347264  	-0.015462 
3867.276080  	-0.013910 
3869.204896  	-0.014677 
3871.133712  	-0.015607 
3873.062528  	-0.014389 
3874.991344  	-0.015210 
3876.920160  	-0.013672 
3878.848976  	-0.012463 
3880.777792  	-0.013315 
3882.706608  	-0.012921 
3884.635424  	-0.012901 
3886.564240  	-0.014793 
3888.493056  	-0.013941 
3890.421872  	-0.014043 
3892.350688  	-0.015131 
3894.279504  	-0.014061 
3896.208320  	-0.012968 
3898.137136  	-0.012339 
3900.065952  	-0.012475 
3901.994768  	-0.012467 
3903.923584  	-0.013600 
3905.852400  	-0.014555 
3907.781216  	-0.014279 
3909.710032  	-0.013984 
3911.638848  	-0.013745 
3913.567664  	-0.013317 
3915.496480  	-0.012362 
3917.425296  	-0.012448 
3919.354112  	-0.013222 
3921.282928  	-0.013283 
3923.211744  	-0.012477 
3925.140560  	-0.012554 
3927.069376  	-0.013218 
3928.998192  	-0.012986 
3930.927008  	-0.012302 
3932.855824  	-0.012350 
3934.784640  	-0.013238 
3936.713456  	-0.013563 
3938.642272  	-0.013468 
3940.571088  	-0.012954 
3942.499904  	-0.012420 
3944.428720  	-0.012804 
3946.357536  	-0.012472 
3948.286352  	-0.011933 
3950.215168  	-0.012782 
3952.143984  	-0.013698 
3954.072800  	-0.013864 
3956.001616  	-0.013658 
3957.930432  	-0.013635 
3959.859248  	-0.013342 
3961.788064  	-0.013111 
3963.716880  	-0.013670 
3965.645696  	-0.014123 
3967.574512  	-0.013930 
3969.503328  	-0.013574 
3971.432144  	-0.013529 
3973.360960  	-0.013486 
3975.289776  	-0.013374 
3977.218592  	-0.013439 
3979.147408  	-0.013636 
3981.076224  	-0.013706 
3983.005040  	-0.013741 
3984.933856  	-0.013779 
3986.862672  	-0.013707 
3988.791488  	-0.013336 
3990.720304  	-0.012993 
3992.649120  	-0.013244 
3994.577936  	-0.013590 
3996.506752  	-0.013728 
3998.435568  	-0.013785 
4000.364384  	-0.013595 