##TITLE=No Description
##DATA TYPE=INFRARED SPECTRUM
##XUNITS=1/CM
##YUNITS=Abs
399.264912  	0.618511 
401.193728  	0.600786 
403.122544  	0.603200 
405.051360  	0.605362 
406.980176  	0.606248 
408.908992  	0.585951 
410.837808  	0.589654 
412.766624  	0.590288 
414.695440  	0.600363 
416.624256  	0.603636 
418.553072  	0.605660 
420.481888  	0.583694 
422.410704  	0.589433 
424.339520  	0.583366 
426.268336  	0.570373 
428.197152  	0.564470 
430.125968  	0.575705 
432.054784  	0.573188 
433.983600  	0.567030 
435.912416  	0.563093 
437.841232  	0.561164 
439.770048  	0.555697 
441.698864  	0.555497 
443.627680  	0.551457 
445.556496  	0.551911 
447.485312  	0.548662 
449.414128  	0.549050 
451.342944  	0.549794 
453.271760  	0.555246 
455.200576  	0.556951 
457.129392  	0.557407 
459.058208  	0.552436 
460.987024  	0.554237 
462.915840  	0.548633 
464.844656  	0.548479 
466.773472  	0.550686 
468.702288  	0.553304 
470.631104  	0.551794 
472.559920  	0.556567 
474.488736  	0.551557 
476.417552  	0.548522 
478.346368  	0.548809 
480.275184  	0.549436 
482.204000  	0.545922 
484.132816  	0.547136 
486.061632  	0.545522 
487.990448  	0.543142 
489.919264  	0.541422 
491.848080  	0.544013 
493.776896  	0.540085 
495.705712  	0.535414 
497.634528  	0.533631 
499.563344  	0.537974 
501.492160  	0.534439 
503.420976  	0.534625 
505.349792  	0.535340 
507.278608  	0.537009 
509.207424  	0.534428 
511.136240  	0.535851 
513.065056  	0.536438 
514.993872  	0.540398 
516.922688  	0.542376 
518.851504  	0.545723 
520.780320  	0.543637 
522.709136  	0.543316 
524.637952  	0.542159 
526.566768  	0.541503 
528.495584  	0.537799 
530.424400  	0.534334 
532.353216  	0.527870 
534.282032  	0.522759 
536.210848  	0.517873 
538.139664  	0.512000 
540.068480  	0.503944 
541.997296  	0.498176 
543.926112  	0.493333 
545.854928  	0.490562 
547.783744  	0.485059 
549.712560  	0.481556 
551.641376  	0.478638 
553.570192  	0.474532 
555.499008  	0.470501 
557.427824  	0.467759 
559.356640  	0.462959 
561.285456  	0.458509 
563.214272  	0.453684 
565.143088  	0.450412 
567.071904  	0.447970 
569.000720  	0.445552 
570.929536  	0.440686 
572.858352  	0.437050 
574.787168  	0.433987 
576.715984  	0.431881 
578.644800  	0.428043 
580.573616  	0.422637 
582.502432  	0.415704 
584.431248  	0.412040 
586.360064  	0.408738 
588.288880  	0.405872 
590.217696  	0.402969 
592.146512  	0.400856 
594.075328  	0.398463 
596.004144  	0.397436 
597.932960  	0.395891 
599.861776  	0.394541 
601.790592  	0.392014 
603.719408  	0.390116 
605.648224  	0.388971 
607.577040  	0.387619 
609.505856  	0.386378 
611.434672  	0.385813 
613.363488  	0.384252 
615.292304  	0.383228 
617.221120  	0.381455 
619.149936  	0.379986 
621.078752  	0.378739 
623.007568  	0.377735 
624.936384  	0.376831 
626.865200  	0.375917 
628.794016  	0.374422 
630.722832  	0.374130 
632.651648  	0.374576 
634.580464  	0.375318 
636.509280  	0.375804 
638.438096  	0.376365 
640.366912  	0.376032 
642.295728  	0.374394 
644.224544  	0.371227 
646.153360  	0.367126 
648.082176  	0.362241 
650.010992  	0.357661 
651.939808  	0.353002 
653.868624  	0.349113 
655.797440  	0.345009 
657.726256  	0.340855 
659.655072  	0.336766 
661.583888  	0.332359 
663.512704  	0.328245 
665.441520  	0.324391 
667.370336  	0.315515 
669.299152  	0.308679 
671.227968  	0.308382 
673.156784  	0.304835 
675.085600  	0.301508 
677.014416  	0.299499 
678.943232  	0.297754 
680.872048  	0.295834 
682.800864  	0.293433 
684.729680  	0.291908 
686.658496  	0.290854 
688.587312  	0.290650 
690.516128  	0.289638 
692.444944  	0.288392 
694.373760  	0.287785 
696.302576  	0.286566 
698.231392  	0.284375 
700.160208  	0.281356 
702.089024  	0.278845 
704.017840  	0.276620 
705.946656  	0.274119 
707.875472  	0.271373 
709.804288  	0.269120 
711.733104  	0.267844 
713.661920  	0.266290 
715.590736  	0.265005 
717.519552  	0.264828 
719.448368  	0.265894 
721.377184  	0.267119 
723.306000  	0.268452 
725.234816  	0.269117 
727.163632  	0.268746 
729.092448  	0.266603 
731.021264  	0.262819 
732.950080  	0.258884 
734.878896  	0.255474 
736.807712  	0.251932 
738.736528  	0.248799 
740.665344  	0.246577 
742.594160  	0.245166 
744.522976  	0.243778 
746.451792  	0.242204 
748.380608  	0.240540 
750.309424  	0.239357 
752.238240  	0.238488 
754.167056  	0.237930 
756.095872  	0.237397 
758.024688  	0.236786 
759.953504  	0.236822 
761.882320  	0.238389 
763.811136  	0.239876 
765.739952  	0.238901 
767.668768  	0.235517 
769.597584  	0.232408 
771.526400  	0.231880 
773.455216  	0.234527 
775.384032  	0.239949 
777.312848  	0.247435 
779.241664  	0.253446 
781.170480  	0.253849 
783.099296  	0.248922 
785.028112  	0.241593 
786.956928  	0.234504 
788.885744  	0.228704 
790.814560  	0.224350 
792.743376  	0.222106 
794.672192  	0.221353 
796.601008  	0.220585 
798.529824  	0.217654 
800.458640  	0.212776 
802.387456  	0.208598 
804.316272  	0.206461 
806.245088  	0.205528 
808.173904  	0.204897 
810.102720  	0.204848 
812.031536  	0.205318 
813.960352  	0.206461 
815.889168  	0.207908 
817.817984  	0.208997 
819.746800  	0.209769 
821.675616  	0.210853 
823.604432  	0.211391 
825.533248  	0.211812 
827.462064  	0.212203 
829.390880  	0.211741 
831.319696  	0.210487 
833.248512  	0.208629 
835.177328  	0.206278 
837.106144  	0.202822 
839.034960  	0.198560 
840.963776  	0.194382 
842.892592  	0.190150 
844.821408  	0.185740 
846.750224  	0.182186 
848.679040  	0.179615 
850.607856  	0.177466 
852.536672  	0.176087 
854.465488  	0.175469 
856.394304  	0.175425 
858.323120  	0.175325 
860.251936  	0.174321 
862.180752  	0.172649 
864.109568  	0.170667 
866.038384  	0.168720 
867.967200  	0.166692 
869.896016  	0.164841 
871.824832  	0.163814 
873.753648  	0.163869 
875.682464  	0.165156 
877.611280  	0.168127 
879.540096  	0.171463 
881.468912  	0.173333 
883.397728  	0.175367 
885.326544  	0.176876 
887.255360  	0.177773 
889.184176  	0.177884 
891.112992  	0.177531 
893.041808  	0.175097 
894.970624  	0.171009 
896.899440  	0.166550 
898.828256  	0.160992 
900.757072  	0.155076 
902.685888  	0.149998 
904.614704  	0.146990 
906.543520  	0.146589 
908.472336  	0.148118 
910.401152  	0.151049 
912.329968  	0.154128 
914.258784  	0.157385 
916.187600  	0.160503 
918.116416  	0.163100 
920.045232  	0.164988 
921.974048  	0.166314 
923.902864  	0.167155 
925.831680  	0.167620 
927.760496  	0.168313 
929.689312  	0.169327 
931.618128  	0.170844 
933.546944  	0.171980 
935.475760  	0.172453 
937.404576  	0.172300 
939.333392  	0.171913 
941.262208  	0.172207 
943.191024  	0.174315 
945.119840  	0.179515 
947.048656  	0.188144 
948.977472  	0.199730 
950.906288  	0.214113 
952.835104  	0.230512 
954.763920  	0.247724 
956.692736  	0.263884 
958.621552  	0.277443 
960.550368  	0.286144 
962.479184  	0.289703 
964.408000  	0.287508 
966.336816  	0.279841 
968.265632  	0.267362 
970.194448  	0.251370 
972.123264  	0.233234 
974.052080  	0.214674 
975.980896  	0.197005 
977.909712  	0.180692 
979.838528  	0.166426 
981.767344  	0.154634 
983.696160  	0.146014 
985.624976  	0.140827 
987.553792  	0.139295 
989.482608  	0.141595 
991.411424  	0.146995 
993.340240  	0.154711 
995.269056  	0.164141 
997.197872  	0.174296 
999.126688  	0.184612 
1001.055504  	0.195196 
1002.984320  	0.206393 
1004.913136  	0.217676 
1006.841952  	0.228290 
1008.770768  	0.237782 
1010.699584  	0.245582 
1012.628400  	0.251049 
1014.557216  	0.254404 
1016.486032  	0.255991 
1018.414848  	0.256441 
1020.343664  	0.256563 
1022.272480  	0.256306 
1024.201296  	0.256709 
1026.130112  	0.260217 
1028.058928  	0.263321 
1029.987744  	0.263013 
1031.916560  	0.267198 
1033.845376  	0.275633 
1035.774192  	0.287110 
1037.703008  	0.299823 
1039.631824  	0.313326 
1041.560640  	0.330632 
1043.489456  	0.352980 
1045.418272  	0.377567 
1047.347088  	0.401579 
1049.275904  	0.420555 
1051.204720  	0.432414 
1053.133536  	0.435999 
1055.062352  	0.435590 
1056.991168  	0.432842 
1058.919984  	0.426474 
1060.848800  	0.418287 
1062.777616  	0.415589 
1064.706432  	0.416089 
1066.635248  	0.412912 
1068.564064  	0.400550 
1070.492880  	0.389523 
1072.421696  	0.381944 
1074.350512  	0.377496 
1076.279328  	0.375544 
1078.208144  	0.378097 
1080.136960  	0.381526 
1082.065776  	0.383893 
1083.994592  	0.381371 
1085.923408  	0.374395 
1087.852224  	0.363149 
1089.781040  	0.349068 
1091.709856  	0.331482 
1093.638672  	0.314332 
1095.567488  	0.297318 
1097.496304  	0.279864 
1099.425120  	0.262091 
1101.353936  	0.244805 
1103.282752  	0.227771 
1105.211568  	0.211371 
1107.140384  	0.195448 
1109.069200  	0.180696 
1110.998016  	0.167042 
1112.926832  	0.154613 
1114.855648  	0.143440 
1116.784464  	0.132875 
1118.713280  	0.123052 
1120.642096  	0.114000 
1122.570912  	0.105702 
1124.499728  	0.097897 
1126.428544  	0.090958 
1128.357360  	0.084799 
1130.286176  	0.079806 
1132.214992  	0.075461 
1134.143808  	0.072224 
1136.072624  	0.069674 
1138.001440  	0.067175 
1139.930256  	0.064304 
1141.859072  	0.061491 
1143.787888  	0.058538 
1145.716704  	0.056001 
1147.645520  	0.053395 
1149.574336  	0.051202 
1151.503152  	0.049599 
1153.431968  	0.049077 
1155.360784  	0.049358 
1157.289600  	0.050668 
1159.218416  	0.052622 
1161.147232  	0.055324 
1163.076048  	0.058419 
1165.004864  	0.061722 
1166.933680  	0.064686 
1168.862496  	0.067907 
1170.791312  	0.071425 
1172.720128  	0.075651 
1174.648944  	0.079828 
1176.577760  	0.083915 
1178.506576  	0.087809 
1180.435392  	0.092019 
1182.364208  	0.096399 
1184.293024  	0.101268 
1186.221840  	0.106212 
1188.150656  	0.111651 
1190.079472  	0.118108 
1192.008288  	0.126029 
1193.937104  	0.135440 
1195.865920  	0.146347 
1197.794736  	0.158034 
1199.723552  	0.170551 
1201.652368  	0.183458 
1203.581184  	0.196131 
1205.510000  	0.208498 
1207.438816  	0.220123 
1209.367632  	0.231075 
1211.296448  	0.240385 
1213.225264  	0.248063 
1215.154080  	0.253694 
1217.082896  	0.258012 
1219.011712  	0.260873 
1220.940528  	0.262986 
1222.869344  	0.263779 
1224.798160  	0.263795 
1226.726976  	0.262291 
1228.655792  	0.260212 
1230.584608  	0.256817 
1232.513424  	0.252042 
1234.442240  	0.245801 
1236.371056  	0.239036 
1238.299872  	0.231636 
1240.228688  	0.225400 
1242.157504  	0.217381 
1244.086320  	0.207052 
1246.015136  	0.197730 
1247.943952  	0.189324 
1249.872768  	0.180706 
1251.801584  	0.171333 
1253.730400  	0.161912 
1255.659216  	0.152767 
1257.588032  	0.144239 
1259.516848  	0.135960 
1261.445664  	0.127860 
1263.374480  	0.120198 
1265.303296  	0.113611 
1267.232112  	0.107936 
1269.160928  	0.103501 
1271.089744  	0.099986 
1273.018560  	0.097871 
1274.947376  	0.096802 
1276.876192  	0.096508 
1278.805008  	0.096054 
1280.733824  	0.094483 
1282.662640  	0.091565 
1284.591456  	0.088419 
1286.520272  	0.085833 
1288.449088  	0.084164 
1290.377904  	0.083289 
1292.306720  	0.083608 
1294.235536  	0.083879 
1296.164352  	0.083095 
1298.093168  	0.080332 
1300.021984  	0.076722 
1301.950800  	0.072873 
1303.879616  	0.069275 
1305.808432  	0.065207 
1307.737248  	0.061074 
1309.666064  	0.057064 
1311.594880  	0.054346 
1313.523696  	0.052238 
1315.452512  	0.050704 
1317.381328  	0.049913 
1319.310144  	0.049728 
1321.238960  	0.049823 
1323.167776  	0.050654 
1325.096592  	0.051589 
1327.025408  	0.052345 
1328.954224  	0.052437 
1330.883040  	0.051974 
1332.811856  	0.050847 
1334.740672  	0.050298 
1336.669488  	0.050907 
1338.598304  	0.051917 
1340.527120  	0.050421 
1342.455936  	0.047995 
1344.384752  	0.047448 
1346.313568  	0.048017 
1348.242384  	0.049078 
1350.171200  	0.050855 
1352.100016  	0.053130 
1354.028832  	0.056056 
1355.957648  	0.058974 
1357.886464  	0.062260 
1359.815280  	0.066045 
1361.744096  	0.070381 
1363.672912  	0.073132 
1365.601728  	0.075143 
1367.530544  	0.078149 
1369.459360  	0.080665 
1371.388176  	0.082226 
1373.316992  	0.082766 
1375.245808  	0.080755 
1377.174624  	0.079057 
1379.103440  	0.076861 
1381.032256  	0.073865 
1382.961072  	0.071190 
1384.889888  	0.069708 
1386.818704  	0.068003 
1388.747520  	0.064420 
1390.676336  	0.063036 
1392.605152  	0.065519 
1394.533968  	0.065918 
1396.462784  	0.062119 
1398.391600  	0.061044 
1400.320416  	0.061411 
1402.249232  	0.063571 
1404.178048  	0.066239 
1406.106864  	0.067559 
1408.035680  	0.068868 
1409.964496  	0.070501 
1411.893312  	0.071700 
1413.822128  	0.072674 
1415.750944  	0.075011 
1417.679760  	0.076485 
1419.608576  	0.073557 
1421.537392  	0.071983 
1423.466208  	0.071367 
1425.395024  	0.068412 
1427.323840  	0.065759 
1429.252656  	0.062145 
1431.181472  	0.059520 
1433.110288  	0.059302 
1435.039104  	0.060286 
1436.967920  	0.060265 
1438.896736  	0.060962 
1440.825552  	0.062468 
1442.754368  	0.063436 
1444.683184  	0.063957 
1446.612000  	0.064306 
1448.540816  	0.064408 
1450.469632  	0.065547 
1452.398448  	0.066602 
1454.327264  	0.067502 
1456.256080  	0.065349 
1458.184896  	0.060481 
1460.113712  	0.061588 
1462.042528  	0.062963 
1463.971344  	0.062239 
1465.900160  	0.062383 
1467.828976  	0.065253 
1469.757792  	0.068792 
1471.686608  	0.072507 
1473.615424  	0.079646 
1475.544240  	0.087800 
1477.473056  	0.094680 
1479.401872  	0.099426 
1481.330688  	0.103555 
1483.259504  	0.106084 
1485.188320  	0.108002 
1487.117136  	0.108133 
1489.045952  	0.107730 
1490.974768  	0.103561 
1492.903584  	0.100095 
1494.832400  	0.095468 
1496.761216  	0.086363 
1498.690032  	0.078238 
1500.618848  	0.073133 
1502.547664  	0.068066 
1504.476480  	0.062319 
1506.405296  	0.055175 
1508.334112  	0.053534 
1510.262928  	0.053084 
1512.191744  	0.050179 
1514.120560  	0.048688 
1516.049376  	0.048069 
1517.978192  	0.046851 
1519.907008  	0.048361 
1521.835824  	0.049104 
1523.764640  	0.054565 
1525.693456  	0.060377 
1527.622272  	0.062957 
1529.551088  	0.063377 
1531.479904  	0.062634 
1533.408720  	0.056967 
1535.337536  	0.052583 
1537.266352  	0.049915 
1539.195168  	0.039917 
1541.123984  	0.031720 
1543.052800  	0.036030 
1544.981616  	0.037209 
1546.910432  	0.036231 
1548.839248  	0.036820 
1550.768064  	0.037198 
1552.696880  	0.036659 
1554.625696  	0.037081 
1556.554512  	0.036916 
1558.483328  	0.034041 
1560.412144  	0.040162 
1562.340960  	0.049005 
1564.269776  	0.053947 
1566.198592  	0.060622 
1568.127408  	0.065715 
1570.056224  	0.072114 
1571.985040  	0.081171 
1573.913856  	0.086976 
1575.842672  	0.088111 
1577.771488  	0.092237 
1579.700304  	0.095111 
1581.629120  	0.095213 
1583.557936  	0.094601 
1585.486752  	0.095672 
1587.415568  	0.098753 
1589.344384  	0.104587 
1591.273200  	0.112254 
1593.202016  	0.121426 
1595.130832  	0.131009 
1597.059648  	0.141283 
1598.988464  	0.149996 
1600.917280  	0.157589 
1602.846096  	0.162424 
1604.774912  	0.165516 
1606.703728  	0.165704 
1608.632544  	0.164372 
1610.561360  	0.161754 
1612.490176  	0.159757 
1614.418992  	0.156552 
1616.347808  	0.152426 
1618.276624  	0.154153 
1620.205440  	0.160254 
1622.134256  	0.163614 
1624.063072  	0.170268 
1625.991888  	0.179012 
1627.920704  	0.188700 
1629.849520  	0.200818 
1631.778336  	0.212369 
1633.707152  	0.219554 
1635.635968  	0.226787 
1637.564784  	0.238970 
1639.493600  	0.248500 
1641.422416  	0.253956 
1643.351232  	0.257313 
1645.280048  	0.256258 
1647.208864  	0.254095 
1649.137680  	0.255518 
1651.066496  	0.255246 
1652.995312  	0.244800 
1654.924128  	0.244551 
1656.852944  	0.246230 
1658.781760  	0.243798 
1660.710576  	0.238831 
1662.639392  	0.231378 
1664.568208  	0.226088 
1666.497024  	0.222888 
1668.425840  	0.215324 
1670.354656  	0.205813 
1672.283472  	0.201959 
1674.212288  	0.197867 
1676.141104  	0.191548 
1678.069920  	0.190737 
1679.998736  	0.189962 
1681.927552  	0.187418 
1683.856368  	0.180083 
1685.785184  	0.179060 
1687.714000  	0.182490 
1689.642816  	0.181845 
1691.571632  	0.179749 
1693.500448  	0.178509 
1695.429264  	0.173451 
1697.358080  	0.170052 
1699.286896  	0.167735 
1701.215712  	0.162358 
1703.144528  	0.162539 
1705.073344  	0.158111 
1707.002160  	0.151467 
1708.930976  	0.147025 
1710.859792  	0.140434 
1712.788608  	0.132758 
1714.717424  	0.122581 
1716.646240  	0.108859 
1718.575056  	0.092775 
1720.503872  	0.084125 
1722.432688  	0.076464 
1724.361504  	0.065560 
1726.290320  	0.056410 
1728.219136  	0.049024 
1730.147952  	0.042609 
1732.076768  	0.036740 
1734.005584  	0.028231 
1735.934400  	0.022540 
1737.863216  	0.022484 
1739.792032  	0.017897 
1741.720848  	0.016866 
1743.649664  	0.016860 
1745.578480  	0.015743 
1747.507296  	0.013752 
1749.436112  	0.012931 
1751.364928  	0.011675 
1753.293744  	0.010571 
1755.222560  	0.010192 
1757.151376  	0.009617 
1759.080192  	0.008895 
1761.009008  	0.008076 
1762.937824  	0.006312 
1764.866640  	0.006966 
1766.795456  	0.007667 
1768.724272  	0.007088 
1770.653088  	0.004045 
1772.581904  	0.000992 
1774.510720  	0.002768 
1776.439536  	0.004813 
1778.368352  	0.005054 
1780.297168  	0.004804 
1782.225984  	0.004132 
1784.154800  	0.004576 
1786.083616  	0.003840 
1788.012432  	0.003947 
1789.941248  	0.004312 
1791.870064  	0.002652 
1793.798880  	0.001086 
1795.727696  	0.002901 
1797.656512  	0.002464 
1799.585328  	0.002269 
1801.514144  	0.002847 
1803.442960  	0.002633 
1805.371776  	0.001836 
1807.300592  	0.002289 
1809.229408  	0.001657 
1811.158224  	0.001131 
1813.087040  	0.000857 
1815.015856  	0.001204 
1816.944672  	0.001323 
1818.873488  	0.001188 
1820.802304  	0.000940 
1822.731120  	0.001778 
1824.659936  	0.001259 
1826.588752  	0.000707 
1828.517568  	-0.000127 
1830.446384  	-0.000730 
1832.375200  	0.000153 
1834.304016  	0.001075 
1836.232832  	0.000866 
1838.161648  	0.000995 
1840.090464  	0.000909 
1842.019280  	0.001709 
1843.948096  	0.000394 
1845.876912  	0.000559 
1847.805728  	0.001450 
1849.734544  	0.001057 
1851.663360  	0.000300 
1853.592176  	0.000343 
1855.520992  	0.000250 
1857.449808  	0.000595 
1859.378624  	0.000494 
1861.307440  	0.000601 
1863.236256  	0.000177 
1865.165072  	0.000454 
1867.093888  	0.000238 
1869.022704  	-0.000078 
1870.951520  	-0.000317 
1872.880336  	0.000145 
1874.809152  	-0.000226 
1876.737968  	0.000008 
1878.666784  	-0.000016 
1880.595600  	0.000503 
1882.524416  	0.000080 
1884.453232  	0.000126 
1886.382048  	-0.000262 
1888.310864  	-0.000015 
1890.239680  	-0.000421 
1892.168496  	0.000113 
1894.097312  	0.000222 
1896.026128  	0.000510 
1897.954944  	0.000245 
1899.883760  	0.000468 
1901.812576  	0.000217 
1903.741392  	0.000079 
1905.670208  	0.000115 
1907.599024  	0.000779 
1909.527840  	0.000584 
1911.456656  	0.000913 
1913.385472  	0.000703 
1915.314288  	0.001296 
1917.243104  	0.000873 
1919.171920  	0.000495 
1921.100736  	0.000541 
1923.029552  	0.001043 
1924.958368  	0.000208 
1926.887184  	0.000592 
1928.816000  	0.000126 
1930.744816  	0.000123 
1932.673632  	0.000403 
1934.602448  	0.001107 
1936.531264  	0.000687 
1938.460080  	0.000964 
1940.388896  	0.000610 
1942.317712  	0.000851 
1944.246528  	0.000244 
1946.175344  	0.000791 
1948.104160  	0.000329 
1950.032976  	0.000484 
1951.961792  	0.000439 
1953.890608  	0.000798 
1955.819424  	-0.000345 
1957.748240  	-0.000126 
1959.677056  	-0.000583 
1961.605872  	0.000126 
1963.534688  	0.000222 
1965.463504  	0.001241 
1967.392320  	0.000390 
1969.321136  	0.000053 
1971.249952  	-0.000935 
1973.178768  	-0.000669 
1975.107584  	-0.001331 
1977.036400  	0.000498 
1978.965216  	0.001261 
1980.894032  	0.001220 
1982.822848  	0.000029 
1984.751664  	0.000256 
1986.680480  	-0.000446 
1988.609296  	-0.000007 
1990.538112  	-0.000793 
1992.466928  	-0.000058 
1994.395744  	-0.000341 
1996.324560  	-0.000463 
1998.253376  	-0.001282 
2000.182192  	-0.000935 
2002.111008  	-0.000220 
2004.039824  	0.000998 
2005.968640  	-0.000205 
2007.897456  	-0.000145 
2009.826272  	-0.000076 
2011.755088  	0.001127 
2013.683904  	0.000092 
2015.612720  	0.000053 
2017.541536  	0.000013 
2019.470352  	0.001323 
2021.399168  	-0.000129 
2023.327984  	-0.000598 
2025.256800  	0.000359 
2027.185616  	0.001512 
2029.114432  	0.000703 
2031.043248  	0.001488 
2032.972064  	0.000965 
2034.900880  	0.000954 
2036.829696  	-0.000157 
2038.758512  	0.000967 
2040.687328  	0.001124 
2042.616144  	0.001551 
2044.544960  	0.000568 
2046.473776  	0.001273 
2048.402592  	0.001112 
2050.331408  	0.001208 
2052.260224  	-0.000135 
2054.189040  	-0.000242 
2056.117856  	-0.000715 
2058.046672  	-0.000405 
2059.975488  	-0.000233 
2061.904304  	0.000203 
2063.833120  	-0.000187 
2065.761936  	-0.000099 
2067.690752  	-0.000374 
2069.619568  	0.000469 
2071.548384  	0.000569 
2073.477200  	0.000187 
2075.406016  	0.000455 
2077.334832  	0.001129 
2079.263648  	0.001064 
2081.192464  	0.001330 
2083.121280  	0.001130 
2085.050096  	0.000901 
2086.978912  	0.000656 
2088.907728  	0.000961 
2090.836544  	0.000673 
2092.765360  	0.000966 
2094.694176  	0.001379 
2096.622992  	0.001708 
2098.551808  	0.001462 
2100.480624  	0.001714 
2102.409440  	0.001538 
2104.338256  	0.001392 
2106.267072  	0.001556 
2108.195888  	0.001942 
2110.124704  	0.001464 
2112.053520  	0.001383 
2113.982336  	0.001272 
2115.911152  	0.001598 
2117.839968  	0.001522 
2119.768784  	0.001275 
2121.697600  	0.001054 
2123.626416  	0.001569 
2125.555232  	0.001467 
2127.484048  	0.001118 
2129.412864  	0.000471 
2131.341680  	0.000637 
2133.270496  	0.000555 
2135.199312  	0.001185 
2137.128128  	0.001444 
2139.056944  	0.001508 
2140.985760  	0.001173 
2142.914576  	0.001932 
2144.843392  	0.002541 
2146.772208  	0.002559 
2148.701024  	0.001572 
2150.629840  	0.002349 
2152.558656  	0.002243 
2154.487472  	0.002262 
2156.416288  	0.001627 
2158.345104  	0.003795 
2160.273920  	0.004837 
2162.202736  	0.005099 
2164.131552  	0.004041 
2166.060368  	0.003058 
2167.989184  	0.003670 
2169.918000  	0.004857 
2171.846816  	0.003058 
2173.775632  	0.003300 
2175.704448  	0.004360 
2177.633264  	0.004226 
2179.562080  	0.003325 
2181.490896  	0.003814 
2183.419712  	0.002670 
2185.348528  	0.002429 
2187.277344  	0.002336 
2189.206160  	0.002395 
2191.134976  	0.002365 
2193.063792  	0.002725 
2194.992608  	0.002273 
2196.921424  	0.001541 
2198.850240  	0.001346 
2200.779056  	0.002022 
2202.707872  	0.001568 
2204.636688  	0.001381 
2206.565504  	0.001610 
2208.494320  	0.002024 
2210.423136  	0.001045 
2212.351952  	0.000848 
2214.280768  	0.000556 
2216.209584  	0.000960 
2218.138400  	0.001033 
2220.067216  	0.001495 
2221.996032  	0.001240 
2223.924848  	0.001103 
2225.853664  	0.001134 
2227.782480  	0.001436 
2229.711296  	0.000791 
2231.640112  	0.000581 
2233.568928  	0.000575 
2235.497744  	0.000981 
2237.426560  	0.000589 
2239.355376  	0.000221 
2241.284192  	0.000180 
2243.213008  	0.000527 
2245.141824  	0.000276 
2247.070640  	0.000615 
2248.999456  	0.000641 
2250.928272  	0.000611 
2252.857088  	0.000431 
2254.785904  	0.000344 
2256.714720  	-0.000566 
2258.643536  	-0.000831 
2260.572352  	-0.000707 
2262.501168  	-0.000478 
2264.429984  	-0.000327 
2266.358800  	0.000013 
2268.287616  	-0.000147 
2270.216432  	-0.000332 
2272.145248  	-0.000662 
2274.074064  	-0.000692 
2276.002880  	-0.000334 
2277.931696  	0.000142 
2279.860512  	0.000196 
2281.789328  	0.000500 
2283.718144  	0.000677 
2285.646960  	0.000897 
2287.575776  	0.000868 
2289.504592  	0.000726 
2291.433408  	0.000276 
2293.362224  	0.000421 
2295.291040  	0.000799 
2297.219856  	0.001255 
2299.148672  	0.001553 
2301.077488  	0.001878 
2303.006304  	0.001849 
2304.935120  	0.002110 
2306.863936  	0.002244 
2308.792752  	0.001936 
2310.721568  	0.001528 
2312.650384  	0.001013 
2314.579200  	-0.000185 
2316.508016  	-0.001499 
2318.436832  	-0.002674 
2320.365648  	-0.004148 
2322.294464  	-0.005896 
2324.223280  	-0.008039 
2326.152096  	-0.010546 
2328.080912  	-0.012326 
2330.009728  	-0.014706 
2331.938544  	-0.017356 
2333.867360  	-0.019143 
2335.796176  	-0.020373 
2337.724992  	-0.021762 
2339.653808  	-0.022111 
2341.582624  	-0.022149 
2343.511440  	-0.020410 
2345.440256  	-0.017071 
2347.369072  	-0.011339 
2349.297888  	-0.008055 
2351.226704  	-0.011365 
2353.155520  	-0.018013 
2355.084336  	-0.023061 
2357.013152  	-0.027313 
2358.941968  	-0.029541 
2360.870784  	-0.030753 
2362.799600  	-0.030006 
2364.728416  	-0.028009 
2366.657232  	-0.024393 
2368.586048  	-0.019914 
2370.514864  	-0.015503 
2372.443680  	-0.011265 
2374.372496  	-0.007108 
2376.301312  	-0.003797 
2378.230128  	-0.001135 
2380.158944  	0.000482 
2382.087760  	0.000967 
2384.016576  	0.000734 
2385.945392  	0.000430 
2387.874208  	0.000047 
2389.803024  	-0.000389 
2391.731840  	-0.000791 
2393.660656  	-0.000759 
2395.589472  	-0.000635 
2397.518288  	-0.000546 
2399.447104  	-0.000666 
2401.375920  	-0.000756 
2403.304736  	-0.000870 
2405.233552  	-0.000720 
2407.162368  	-0.000726 
2409.091184  	-0.000711 
2411.020000  	-0.000728 
2412.948816  	-0.000615 
2414.877632  	-0.000487 
2416.806448  	-0.000357 
2418.735264  	-0.000570 
2420.664080  	-0.000733 
2422.592896  	-0.000738 
2424.521712  	-0.000590 
2426.450528  	-0.000830 
2428.379344  	-0.000687 
2430.308160  	-0.000294 
2432.236976  	0.000009 
2434.165792  	-0.000135 
2436.094608  	-0.000373 
2438.023424  	-0.000326 
2439.952240  	-0.000083 
2441.881056  	0.000019 
2443.809872  	0.000133 
2445.738688  	0.000256 
2447.667504  	0.000390 
2449.596320  	0.000159 
2451.525136  	0.000192 
2453.453952  	0.000280 
2455.382768  	0.000100 
2457.311584  	-0.000028 
2459.240400  	0.000017 
2461.169216  	-0.000184 
2463.098032  	-0.000207 
2465.026848  	-0.000063 
2466.955664  	0.000083 
2468.884480  	-0.000025 
2470.813296  	0.000025 
2472.742112  	0.000084 
2474.670928  	0.000058 
2476.599744  	-0.000141 
2478.528560  	-0.000072 
2480.457376  	0.000027 
2482.386192  	0.000060 
2484.315008  	0.000258 
2486.243824  	0.000367 
2488.172640  	0.000480 
2490.101456  	0.000757 
2492.030272  	0.000835 
2493.959088  	0.000844 
2495.887904  	0.000757 
2497.816720  	0.000844 
2499.745536  	0.000971 
2501.674352  	0.001238 
2503.603168  	0.001473 
2505.531984  	0.001440 
2507.460800  	0.001193 
2509.389616  	0.001374 
2511.318432  	0.001440 
2513.247248  	0.001475 
2515.176064  	0.001567 
2517.104880  	0.001537 
2519.033696  	0.001171 
2520.962512  	0.001384 
2522.891328  	0.001679 
2524.820144  	0.001592 
2526.748960  	0.001476 
2528.677776  	0.001717 
2530.606592  	0.001737 
2532.535408  	0.001768 
2534.464224  	0.001665 
2536.393040  	0.001691 
2538.321856  	0.001817 
2540.250672  	0.002143 
2542.179488  	0.002188 
2544.108304  	0.002124 
2546.037120  	0.002297 
2547.965936  	0.002504 
2549.894752  	0.002501 
2551.823568  	0.002475 
2553.752384  	0.002641 
2555.681200  	0.003152 
2557.610016  	0.003103 
2559.538832  	0.003021 
2561.467648  	0.003288 
2563.396464  	0.003404 
2565.325280  	0.003553 
2567.254096  	0.003692 
2569.182912  	0.003645 
2571.111728  	0.003708 
2573.040544  	0.003766 
2574.969360  	0.003967 
2576.898176  	0.004296 
2578.826992  	0.004397 
2580.755808  	0.004433 
2582.684624  	0.004580 
2584.613440  	0.004647 
2586.542256  	0.004621 
2588.471072  	0.004788 
2590.399888  	0.004979 
2592.328704  	0.005039 
2594.257520  	0.005109 
2596.186336  	0.005139 
2598.115152  	0.005222 
2600.043968  	0.005205 
2601.972784  	0.005577 
2603.901600  	0.005724 
2605.830416  	0.005781 
2607.759232  	0.005955 
2609.688048  	0.006185 
2611.616864  	0.006383 
2613.545680  	0.006544 
2615.474496  	0.006668 
2617.403312  	0.006809 
2619.332128  	0.006982 
2621.260944  	0.007194 
2623.189760  	0.007317 
2625.118576  	0.007423 
2627.047392  	0.007411 
2628.976208  	0.007477 
2630.905024  	0.007691 
2632.833840  	0.007960 
2634.762656  	0.008202 
2636.691472  	0.008356 
2638.620288  	0.008466 
2640.549104  	0.008642 
2642.477920  	0.008787 
2644.406736  	0.009022 
2646.335552  	0.009212 
2648.264368  	0.009334 
2650.193184  	0.009534 
2652.122000  	0.009758 
2654.050816  	0.009968 
2655.979632  	0.010181 
2657.908448  	0.010347 
2659.837264  	0.010509 
2661.766080  	0.010703 
2663.694896  	0.010951 
2665.623712  	0.011063 
2667.552528  	0.011237 
2669.481344  	0.011459 
2671.410160  	0.011643 
2673.338976  	0.011776 
2675.267792  	0.011934 
2677.196608  	0.012131 
2679.125424  	0.012295 
2681.054240  	0.012606 
2682.983056  	0.012907 
2684.911872  	0.012996 
2686.840688  	0.013127 
2688.769504  	0.013292 
2690.698320  	0.013368 
2692.627136  	0.013388 
2694.555952  	0.013494 
2696.484768  	0.013643 
2698.413584  	0.013839 
2700.342400  	0.014020 
2702.271216  	0.014280 
2704.200032  	0.014518 
2706.128848  	0.014640 
2708.057664  	0.014724 
2709.986480  	0.014952 
2711.915296  	0.015259 
2713.844112  	0.015507 
2715.772928  	0.015650 
2717.701744  	0.015857 
2719.630560  	0.016214 
2721.559376  	0.016517 
2723.488192  	0.016753 
2725.417008  	0.017083 
2727.345824  	0.017360 
2729.274640  	0.017647 
2731.203456  	0.017917 
2733.132272  	0.018149 
2735.061088  	0.018384 
2736.989904  	0.018696 
2738.918720  	0.018965 
2740.847536  	0.019158 
2742.776352  	0.019300 
2744.705168  	0.019535 
2746.633984  	0.019606 
2748.562800  	0.019679 
2750.491616  	0.019845 
2752.420432  	0.020033 
2754.349248  	0.020004 
2756.278064  	0.019939 
2758.206880  	0.019858 
2760.135696  	0.020009 
2762.064512  	0.020133 
2763.993328  	0.020158 
2765.922144  	0.020183 
2767.850960  	0.020239 
2769.779776  	0.020350 
2771.708592  	0.020383 
2773.637408  	0.020290 
2775.566224  	0.020308 
2777.495040  	0.020334 
2779.423856  	0.020382 
2781.352672  	0.020475 
2783.281488  	0.020583 
2785.210304  	0.020675 
2787.139120  	0.020790 
2789.067936  	0.020852 
2790.996752  	0.020923 
2792.925568  	0.020990 
2794.854384  	0.021093 
2796.783200  	0.021250 
2798.712016  	0.021326 
2800.640832  	0.021305 
2802.569648  	0.021429 
2804.498464  	0.021573 
2806.427280  	0.021626 
2808.356096  	0.021586 
2810.284912  	0.021626 
2812.213728  	0.021740 
2814.142544  	0.021787 
2816.071360  	0.021937 
2818.000176  	0.022073 
2819.928992  	0.022132 
2821.857808  	0.022268 
2823.786624  	0.022444 
2825.715440  	0.022628 
2827.644256  	0.022685 
2829.573072  	0.022798 
2831.501888  	0.022877 
2833.430704  	0.022984 
2835.359520  	0.023200 
2837.288336  	0.023487 
2839.217152  	0.023728 
2841.145968  	0.024024 
2843.074784  	0.024361 
2845.003600  	0.024773 
2846.932416  	0.025252 
2848.861232  	0.025986 
2850.790048  	0.026695 
2852.718864  	0.027399 
2854.647680  	0.028126 
2856.576496  	0.028936 
2858.505312  	0.029814 
2860.434128  	0.030863 
2862.362944  	0.032011 
2864.291760  	0.033176 
2866.220576  	0.034451 
2868.149392  	0.035620 
2870.078208  	0.036463 
2872.007024  	0.037304 
2873.935840  	0.038266 
2875.864656  	0.039457 
2877.793472  	0.041087 
2879.722288  	0.042862 
2881.651104  	0.044720 
2883.579920  	0.046452 
2885.508736  	0.047435 
2887.437552  	0.047769 
2889.366368  	0.048216 
2891.295184  	0.049113 
2893.224000  	0.049751 
2895.152816  	0.049989 
2897.081632  	0.050455 
2899.010448  	0.052535 
2900.939264  	0.054593 
2902.868080  	0.053512 
2904.796896  	0.052269 
2906.725712  	0.052099 
2908.654528  	0.052289 
2910.583344  	0.052901 
2912.512160  	0.052913 
2914.440976  	0.052577 
2916.369792  	0.052738 
2918.298608  	0.053236 
2920.227424  	0.053838 
2922.156240  	0.054506 
2924.085056  	0.054986 
2926.013872  	0.055452 
2927.942688  	0.056020 
2929.871504  	0.056558 
2931.800320  	0.057108 
2933.729136  	0.057894 
2935.657952  	0.058894 
2937.586768  	0.059722 
2939.515584  	0.060566 
2941.444400  	0.061665 
2943.373216  	0.062596 
2945.302032  	0.063264 
2947.230848  	0.063725 
2949.159664  	0.064388 
2951.088480  	0.065484 
2953.017296  	0.066479 
2954.946112  	0.067037 
2956.874928  	0.067732 
2958.803744  	0.068475 
2960.732560  	0.069004 
2962.661376  	0.069507 
2964.590192  	0.070406 
2966.519008  	0.071625 
2968.447824  	0.072845 
2970.376640  	0.073463 
2972.305456  	0.073498 
2974.234272  	0.072984 
2976.163088  	0.072672 
2978.091904  	0.072344 
2980.020720  	0.072156 
2981.949536  	0.071914 
2983.878352  	0.072045 
2985.807168  	0.073015 
2987.735984  	0.074096 
2989.664800  	0.073531 
2991.593616  	0.069798 
2993.522432  	0.067674 
2995.451248  	0.067324 
2997.380064  	0.066657 
2999.308880  	0.065673 
3001.237696  	0.064546 
3003.166512  	0.063555 
3005.095328  	0.062408 
3007.024144  	0.061066 
3008.952960  	0.059986 
3010.881776  	0.058992 
3012.810592  	0.058011 
3014.739408  	0.057051 
3016.668224  	0.056092 
3018.597040  	0.055436 
3020.525856  	0.054910 
3022.454672  	0.054416 
3024.383488  	0.053994 
3026.312304  	0.053564 
3028.241120  	0.053464 
3030.169936  	0.053492 
3032.098752  	0.053324 
3034.027568  	0.053252 
3035.956384  	0.053290 
3037.885200  	0.053565 
3039.814016  	0.053798 
3041.742832  	0.054054 
3043.671648  	0.054386 
3045.600464  	0.054920 
3047.529280  	0.055283 
3049.458096  	0.055822 
3051.386912  	0.056608 
3053.315728  	0.057325 
3055.244544  	0.058058 
3057.173360  	0.058962 
3059.102176  	0.059752 
3061.030992  	0.060592 
3062.959808  	0.061462 
3064.888624  	0.062495 
3066.817440  	0.063634 
3068.746256  	0.064988 
3070.675072  	0.066113 
3072.603888  	0.066964 
3074.532704  	0.068017 
3076.461520  	0.069186 
3078.390336  	0.070323 
3080.319152  	0.071291 
3082.247968  	0.072437 
3084.176784  	0.073594 
3086.105600  	0.074692 
3088.034416  	0.075818 
3089.963232  	0.076983 
3091.892048  	0.078037 
3093.820864  	0.079088 
3095.749680  	0.080135 
3097.678496  	0.081380 
3099.607312  	0.082741 
3101.536128  	0.084102 
3103.464944  	0.085360 
3105.393760  	0.086379 
3107.322576  	0.087440 
3109.251392  	0.088522 
3111.180208  	0.089388 
3113.109024  	0.090181 
3115.037840  	0.091136 
3116.966656  	0.092173 
3118.895472  	0.093149 
3120.824288  	0.094094 
3122.753104  	0.095003 
3124.681920  	0.095661 
3126.610736  	0.096372 
3128.539552  	0.097412 
3130.468368  	0.098324 
3132.397184  	0.099074 
3134.326000  	0.099917 
3136.254816  	0.100712 
3138.183632  	0.101565 
3140.112448  	0.102443 
3142.041264  	0.103344 
3143.970080  	0.104131 
3145.898896  	0.104869 
3147.827712  	0.105717 
3149.756528  	0.106467 
3151.685344  	0.107122 
3153.614160  	0.108026 
3155.542976  	0.109017 
3157.471792  	0.109834 
3159.400608  	0.110787 
3161.329424  	0.111744 
3163.258240  	0.112333 
3165.187056  	0.112948 
3167.115872  	0.113674 
3169.044688  	0.114134 
3170.973504  	0.114609 
3172.902320  	0.115270 
3174.831136  	0.115900 
3176.759952  	0.116333 
3178.688768  	0.116611 
3180.617584  	0.116921 
3182.546400  	0.117308 
3184.475216  	0.117729 
3186.404032  	0.117827 
3188.332848  	0.118011 
3190.261664  	0.118245 
3192.190480  	0.118301 
3194.119296  	0.118263 
3196.048112  	0.118469 
3197.976928  	0.118536 
3199.905744  	0.118419 
3201.834560  	0.118127 
3203.763376  	0.118048 
3205.692192  	0.118058 
3207.621008  	0.117662 
3209.549824  	0.117505 
3211.478640  	0.117634 
3213.407456  	0.117476 
3215.336272  	0.117209 
3217.265088  	0.116978 
3219.193904  	0.116778 
3221.122720  	0.116656 
3223.051536  	0.116380 
3224.980352  	0.116039 
3226.909168  	0.115710 
3228.837984  	0.115373 
3230.766800  	0.115214 
3232.695616  	0.115178 
3234.624432  	0.115071 
3236.553248  	0.114917 
3238.482064  	0.115025 
3240.410880  	0.114921 
3242.339696  	0.114976 
3244.268512  	0.114894 
3246.197328  	0.114940 
3248.126144  	0.115324 
3250.054960  	0.115487 
3251.983776  	0.115739 
3253.912592  	0.115963 
3255.841408  	0.116260 
3257.770224  	0.116625 
3259.699040  	0.116827 
3261.627856  	0.117069 
3263.556672  	0.117402 
3265.485488  	0.117667 
3267.414304  	0.117856 
3269.343120  	0.118230 
3271.271936  	0.118618 
3273.200752  	0.118694 
3275.129568  	0.118805 
3277.058384  	0.119202 
3278.987200  	0.119386 
3280.916016  	0.119453 
3282.844832  	0.119680 
3284.773648  	0.119870 
3286.702464  	0.120062 
3288.631280  	0.120329 
3290.560096  	0.120667 
3292.488912  	0.121244 
3294.417728  	0.121501 
3296.346544  	0.121825 
3298.275360  	0.122247 
3300.204176  	0.122616 
3302.132992  	0.122859 
3304.061808  	0.123092 
3305.990624  	0.123626 
3307.919440  	0.124128 
3309.848256  	0.124476 
3311.777072  	0.124810 
3313.705888  	0.125137 
3315.634704  	0.125696 
3317.563520  	0.126059 
3319.492336  	0.126275 
3321.421152  	0.126369 
3323.349968  	0.126755 
3325.278784  	0.127045 
3327.207600  	0.127189 
3329.136416  	0.127016 
3331.065232  	0.127023 
3332.994048  	0.127221 
3334.922864  	0.127338 
3336.851680  	0.127220 
3338.780496  	0.126971 
3340.709312  	0.126713 
3342.638128  	0.126434 
3344.566944  	0.126014 
3346.495760  	0.125669 
3348.424576  	0.125107 
3350.353392  	0.124497 
3352.282208  	0.124086 
3354.211024  	0.123866 
3356.139840  	0.123423 
3358.068656  	0.122890 
3359.997472  	0.122499 
3361.926288  	0.122024 
3363.855104  	0.121419 
3365.783920  	0.120966 
3367.712736  	0.120599 
3369.641552  	0.120149 
3371.570368  	0.119549 
3373.499184  	0.119076 
3375.428000  	0.118552 
3377.356816  	0.118062 
3379.285632  	0.117859 
3381.214448  	0.117465 
3383.143264  	0.116889 
3385.072080  	0.116412 
3387.000896  	0.115788 
3388.929712  	0.115329 
3390.858528  	0.114993 
3392.787344  	0.114480 
3394.716160  	0.113730 
3396.644976  	0.113304 
3398.573792  	0.112624 
3400.502608  	0.112023 
3402.431424  	0.111402 
3404.360240  	0.110550 
3406.289056  	0.109618 
3408.217872  	0.108980 
3410.146688  	0.108475 
3412.075504  	0.107942 
3414.004320  	0.107362 
3415.933136  	0.106816 
3417.861952  	0.105940 
3419.790768  	0.105359 
3421.719584  	0.104638 
3423.648400  	0.103860 
3425.577216  	0.102993 
3427.506032  	0.102138 
3429.434848  	0.101417 
3431.363664  	0.100731 
3433.292480  	0.100069 
3435.221296  	0.099397 
3437.150112  	0.098693 
3439.078928  	0.097882 
3441.007744  	0.097142 
3442.936560  	0.096649 
3444.865376  	0.095945 
3446.794192  	0.094977 
3448.723008  	0.093820 
3450.651824  	0.092759 
3452.580640  	0.091869 
3454.509456  	0.091146 
3456.438272  	0.090452 
3458.367088  	0.089792 
3460.295904  	0.088938 
3462.224720  	0.087800 
3464.153536  	0.086621 
3466.082352  	0.085618 
3468.011168  	0.084432 
3469.939984  	0.083490 
3471.868800  	0.082879 
3473.797616  	0.081860 
3475.726432  	0.080658 
3477.655248  	0.079589 
3479.584064  	0.078854 
3481.512880  	0.078003 
3483.441696  	0.076633 
3485.370512  	0.075573 
3487.299328  	0.074519 
3489.228144  	0.073444 
3491.156960  	0.072281 
3493.085776  	0.071242 
3495.014592  	0.070159 
3496.943408  	0.069300 
3498.872224  	0.068660 
3500.801040  	0.068504 
3502.729856  	0.067564 
3504.658672  	0.065959 
3506.587488  	0.065048 
3508.516304  	0.064630 
3510.445120  	0.063577 
3512.373936  	0.062135 
3514.302752  	0.061115 
3516.231568  	0.060576 
3518.160384  	0.059877 
3520.089200  	0.058921 
3522.018016  	0.058672 
3523.946832  	0.058695 
3525.875648  	0.057569 
3527.804464  	0.055771 
3529.733280  	0.054563 
3531.662096  	0.053682 
3533.590912  	0.052797 
3535.519728  	0.052540 
3537.448544  	0.051811 
3539.377360  	0.050322 
3541.306176  	0.049468 
3543.234992  	0.049473 
3545.163808  	0.050008 
3547.092624  	0.048831 
3549.021440  	0.046621 
3550.950256  	0.045688 
3552.879072  	0.044875 
3554.807888  	0.043850 
3556.736704  	0.042902 
3558.665520  	0.042731 
3560.594336  	0.042457 
3562.523152  	0.041170 
3564.451968  	0.040941 
3566.380784  	0.041770 
3568.309600  	0.039802 
3570.238416  	0.037501 
3572.167232  	0.036464 
3574.096048  	0.035358 
3576.024864  	0.034111 
3577.953680  	0.033594 
3579.882496  	0.033012 
3581.811312  	0.031898 
3583.740128  	0.031074 
3585.668944  	0.031349 
3587.597760  	0.030746 
3589.526576  	0.028378 
3591.455392  	0.027010 
3593.384208  	0.026516 
3595.313024  	0.025286 
3597.241840  	0.023454 
3599.170656  	0.021882 
3601.099472  	0.020850 
3603.028288  	0.020378 
3604.957104  	0.020220 
3606.885920  	0.019747 
3608.814736  	0.018495 
3610.743552  	0.017871 
3612.672368  	0.016911 
3614.601184  	0.015462 
3616.530000  	0.014818 
3618.458816  	0.013029 
3620.387632  	0.011268 
3622.316448  	0.010984 
3624.245264  	0.010700 
3626.174080  	0.010391 
3628.102896  	0.008443 
3630.031712  	0.006032 
3631.960528  	0.007097 
3633.889344  	0.007059 
3635.818160  	0.006396 
3637.746976  	0.005802 
3639.675792  	0.005942 
3641.604608  	0.006501 
3643.533424  	0.006204 
3645.462240  	0.005511 
3647.391056  	0.003270 
3649.319872  	-0.000088 
3651.248688  	-0.000385 
3653.177504  	0.002222 
3655.106320  	0.002462 
3657.035136  	0.001435 
3658.963952  	0.002355 
3660.892768  	0.002632 
3662.821584  	0.002313 
3664.750400  	0.001622 
3666.679216  	0.001047 
3668.608032  	-0.001306 
3670.536848  	-0.004325 
3672.465664  	-0.002875 
3674.394480  	-0.003293 
3676.323296  	-0.006389 
3678.252112  	-0.005412 
3680.180928  	-0.004894 
3682.109744  	-0.003800 
3684.038560  	-0.003493 
3685.967376  	-0.004449 
3687.896192  	-0.007809 
3689.825008  	-0.010739 
3691.753824  	-0.009608 
3693.682640  	-0.007810 
3695.611456  	-0.007617 
3697.540272  	-0.008231 
3699.469088  	-0.008959 
3701.397904  	-0.010935 
3703.326720  	-0.011890 
3705.255536  	-0.011221 
3707.184352  	-0.011882 
3709.113168  	-0.014231 
3711.041984  	-0.016621 
3712.970800  	-0.015508 
3714.899616  	-0.012604 
3716.828432  	-0.012174 
3718.757248  	-0.013007 
3720.686064  	-0.013753 
3722.614880  	-0.013810 
3724.543696  	-0.012950 
3726.472512  	-0.013149 
3728.401328  	-0.013893 
3730.330144  	-0.015272 
3732.258960  	-0.017157 
3734.187776  	-0.015816 
3736.116592  	-0.015555 
3738.045408  	-0.015910 
3739.974224  	-0.014471 
3741.903040  	-0.013726 
3743.831856  	-0.015419 
3745.760672  	-0.017310 
3747.689488  	-0.016421 
3749.618304  	-0.019148 
3751.547120  	-0.020334 
3753.475936  	-0.017367 
3755.404752  	-0.014861 
3757.333568  	-0.014297 
3759.262384  	-0.014996 
3761.191200  	-0.014797 
3763.120016  	-0.013296 
3765.048832  	-0.013741 
3766.977648  	-0.014020 
3768.906464  	-0.014831 
3770.835280  	-0.015431 
3772.764096  	-0.013862 
3774.692912  	-0.013082 
3776.621728  	-0.013115 
3778.550544  	-0.014497 
3780.479360  	-0.015376 
3782.408176  	-0.013801 
3784.336992  	-0.013607 
3786.265808  	-0.013511 
3788.194624  	-0.013101 
3790.123440  	-0.013087 
3792.052256  	-0.013202 
3793.981072  	-0.013517 
3795.909888  	-0.014871 
3797.838704  	-0.014963 
3799.767520  	-0.015692 
3801.696336  	-0.019399 
3803.625152  	-0.017388 
3805.553968  	-0.016031 
3807.482784  	-0.016957 
3809.411600  	-0.014604 
3811.340416  	-0.013229 
3813.269232  	-0.013355 
3815.198048  	-0.016041 
3817.126864  	-0.017591 
3819.055680  	-0.016569 
3820.984496  	-0.019312 
3822.913312  	-0.017462 
3824.842128  	-0.014784 
3826.770944  	-0.015031 
3828.699760  	-0.014392 
3830.628576  	-0.014651 
3832.557392  	-0.015587 
3834.486208  	-0.015922 
3836.415024  	-0.017278 
3838.343840  	-0.018327 
3840.272656  	-0.016958 
3842.201472  	-0.015387 
3844.130288  	-0.014900 
3846.059104  	-0.013736 
3847.987920  	-0.013090 
3849.916736  	-0.013525 
3851.845552  	-0.016179 
3853.774368  	-0.020636 
3855.703184  	-0.017419 
3857.632000  	-0.014246 
3859.560816  	-0.013194 
3861.489632  	-0.013326 
3863.418448  	-0.014067 
3865.347264  	-0.014210 
3867.276080  	-0.013272 
3869.204896  	-0.014112 
3871.133712  	-0.014439 
3873.062528  	-0.013577 
3874.991344  	-0.014059 
3876.920160  	-0.013017 
3878.848976  	-0.012268 
3880.777792  	-0.012800 
3882.706608  	-0.012445 
3884.635424  	-0.012342 
3886.564240  	-0.013448 
3888.493056  	-0.013151 
3890.421872  	-0.013382 
3892.350688  	-0.013889 
3894.279504  	-0.012929 
3896.208320  	-0.012293 
3898.137136  	-0.012198 
3900.065952  	-0.012349 
3901.994768  	-0.012207 
3903.923584  	-0.012931 
3905.852400  	-0.013387 
3907.781216  	-0.013185 
3909.710032  	-0.013044 
3911.638848  	-0.012994 
3913.567664  	-0.012765 
3915.496480  	-0.011951 
3917.425296  	-0.011807 
3919.354112  	-0.012391 
3921.282928  	-0.012474 
3923.211744  	-0.011966 
3925.140560  	-0.011960 
3927.069376  	-0.012535 
3928.998192  	-0.012510 
3930.927008  	-0.011683 
3932.855824  	-0.011407 
3934.784640  	-0.012295 
3936.713456  	-0.012644 
3938.642272  	-0.012456 
3940.571088  	-0.012035 
3942.499904  	-0.011408 
3944.428720  	-0.011704 
3946.357536  	-0.011621 
3948.286352  	-0.011214 
3950.215168  	-0.012047 
3952.143984  	-0.012948 
3954.072800  	-0.013193 
3956.001616  	-0.012876 
3957.930432  	-0.012829 
3959.859248  	-0.012687 
3961.788064  	-0.012371 
3963.716880  	-0.012723 
3965.645696  	-0.013236 
3967.574512  	-0.012929 
3969.503328  	-0.012609 
3971.432144  	-0.012734 
3973.360960  	-0.012574 
3975.289776  	-0.012311 
3977.218592  	-0.012412 
3979.147408  	-0.012700 
3981.076224  	-0.012891 
3983.005040  	-0.012954 
3984.933856  	-0.012882 
3986.862672  	-0.012759 
3988.791488  	-0.012505 
3990.720304  	-0.012273 
3992.649120  	-0.012568 
3994.577936  	-0.012702 
3996.506752  	-0.012755 
3998.435568  	-0.012900 
4000.364384  	-0.012857 