##TITLE=No Description
##DATA TYPE=INFRARED SPECTRUM
##XUNITS=1/CM
##YUNITS=Abs
399.264912  	0.633247 
401.193728  	0.615055 
403.122544  	0.622412 
405.051360  	0.624381 
406.980176  	0.625038 
408.908992  	0.611077 
410.837808  	0.605597 
412.766624  	0.608066 
414.695440  	0.616189 
416.624256  	0.603886 
418.553072  	0.601513 
420.481888  	0.596894 
422.410704  	0.593745 
424.339520  	0.584640 
426.268336  	0.585548 
428.197152  	0.582230 
430.125968  	0.585529 
432.054784  	0.586234 
433.983600  	0.585488 
435.912416  	0.575658 
437.841232  	0.571197 
439.770048  	0.567559 
441.698864  	0.571016 
443.627680  	0.566116 
445.556496  	0.565995 
447.485312  	0.562082 
449.414128  	0.562478 
451.342944  	0.559613 
453.271760  	0.558180 
455.200576  	0.553938 
457.129392  	0.565229 
459.058208  	0.566633 
460.987024  	0.565313 
462.915840  	0.560932 
464.844656  	0.558948 
466.773472  	0.552763 
468.702288  	0.555317 
470.631104  	0.556014 
472.559920  	0.555143 
474.488736  	0.552364 
476.417552  	0.554586 
478.346368  	0.554193 
480.275184  	0.555755 
482.204000  	0.547456 
484.132816  	0.546296 
486.061632  	0.547412 
487.990448  	0.547242 
489.919264  	0.545215 
491.848080  	0.545495 
493.776896  	0.540735 
495.705712  	0.539962 
497.634528  	0.539633 
499.563344  	0.539874 
501.492160  	0.538034 
503.420976  	0.537439 
505.349792  	0.535975 
507.278608  	0.538981 
509.207424  	0.538877 
511.136240  	0.539177 
513.065056  	0.539137 
514.993872  	0.542887 
516.922688  	0.543246 
518.851504  	0.546256 
520.780320  	0.545442 
522.709136  	0.543515 
524.637952  	0.544359 
526.566768  	0.544029 
528.495584  	0.538598 
530.424400  	0.536108 
532.353216  	0.532028 
534.282032  	0.527399 
536.210848  	0.520003 
538.139664  	0.515501 
540.068480  	0.510234 
541.997296  	0.504366 
543.926112  	0.499943 
545.854928  	0.497178 
547.783744  	0.491452 
549.712560  	0.487769 
551.641376  	0.485373 
553.570192  	0.481487 
555.499008  	0.476486 
557.427824  	0.473052 
559.356640  	0.469164 
561.285456  	0.465816 
563.214272  	0.461187 
565.143088  	0.458258 
567.071904  	0.454920 
569.000720  	0.451362 
570.929536  	0.447320 
572.858352  	0.444358 
574.787168  	0.441443 
576.715984  	0.439203 
578.644800  	0.435577 
580.573616  	0.431322 
582.502432  	0.425782 
584.431248  	0.422532 
586.360064  	0.418478 
588.288880  	0.415659 
590.217696  	0.413450 
592.146512  	0.411442 
594.075328  	0.408249 
596.004144  	0.406113 
597.932960  	0.404487 
599.861776  	0.403518 
601.790592  	0.400498 
603.719408  	0.399223 
605.648224  	0.397772 
607.577040  	0.396434 
609.505856  	0.394594 
611.434672  	0.393318 
613.363488  	0.391881 
615.292304  	0.390782 
617.221120  	0.388421 
619.149936  	0.387386 
621.078752  	0.386461 
623.007568  	0.385671 
624.936384  	0.383922 
626.865200  	0.381772 
628.794016  	0.380628 
630.722832  	0.380826 
632.651648  	0.380886 
634.580464  	0.381222 
636.509280  	0.380883 
638.438096  	0.380972 
640.366912  	0.379734 
642.295728  	0.377226 
644.224544  	0.374479 
646.153360  	0.371571 
648.082176  	0.366497 
650.010992  	0.361717 
651.939808  	0.357541 
653.868624  	0.353504 
655.797440  	0.349452 
657.726256  	0.345245 
659.655072  	0.341411 
661.583888  	0.337624 
663.512704  	0.333537 
665.441520  	0.329500 
667.370336  	0.319783 
669.299152  	0.312632 
671.227968  	0.313375 
673.156784  	0.310734 
675.085600  	0.307807 
677.014416  	0.304849 
678.943232  	0.302424 
680.872048  	0.301131 
682.800864  	0.299662 
684.729680  	0.298261 
686.658496  	0.296992 
688.587312  	0.296248 
690.516128  	0.294891 
692.444944  	0.293866 
694.373760  	0.293038 
696.302576  	0.291478 
698.231392  	0.289035 
700.160208  	0.286663 
702.089024  	0.284620 
704.017840  	0.282702 
705.946656  	0.280067 
707.875472  	0.277202 
709.804288  	0.274672 
711.733104  	0.272942 
713.661920  	0.271111 
715.590736  	0.269705 
717.519552  	0.269146 
719.448368  	0.269279 
721.377184  	0.269965 
723.306000  	0.271349 
725.234816  	0.272070 
727.163632  	0.271322 
729.092448  	0.268496 
731.021264  	0.264802 
732.950080  	0.261026 
734.878896  	0.257774 
736.807712  	0.254882 
738.736528  	0.252375 
740.665344  	0.249871 
742.594160  	0.248199 
744.522976  	0.246844 
746.451792  	0.245332 
748.380608  	0.243970 
750.309424  	0.242782 
752.238240  	0.241763 
754.167056  	0.240796 
756.095872  	0.239741 
758.024688  	0.238631 
759.953504  	0.238197 
761.882320  	0.239404 
763.811136  	0.240585 
765.739952  	0.239427 
767.668768  	0.236175 
769.597584  	0.233346 
771.526400  	0.232458 
773.455216  	0.234391 
775.384032  	0.238818 
777.312848  	0.244804 
779.241664  	0.249818 
781.170480  	0.250099 
783.099296  	0.245634 
785.028112  	0.239324 
786.956928  	0.232685 
788.885744  	0.227140 
790.814560  	0.223025 
792.743376  	0.220307 
794.672192  	0.219213 
796.601008  	0.218292 
798.529824  	0.215276 
800.458640  	0.210719 
802.387456  	0.206863 
804.316272  	0.204369 
806.245088  	0.202767 
808.173904  	0.202324 
810.102720  	0.202260 
812.031536  	0.202414 
813.960352  	0.202796 
815.889168  	0.203146 
817.817984  	0.203622 
819.746800  	0.204409 
821.675616  	0.204801 
823.604432  	0.204684 
825.533248  	0.204754 
827.462064  	0.204642 
829.390880  	0.203877 
831.319696  	0.202428 
833.248512  	0.200517 
835.177328  	0.198156 
837.106144  	0.195241 
839.034960  	0.191661 
840.963776  	0.187455 
842.892592  	0.183204 
844.821408  	0.179502 
846.750224  	0.176275 
848.679040  	0.173459 
850.607856  	0.171406 
852.536672  	0.169794 
854.465488  	0.168733 
856.394304  	0.168094 
858.323120  	0.167283 
860.251936  	0.165856 
862.180752  	0.164048 
864.109568  	0.161886 
866.038384  	0.159756 
867.967200  	0.157981 
869.896016  	0.156332 
871.824832  	0.155190 
873.753648  	0.154766 
875.682464  	0.155330 
877.611280  	0.157300 
879.540096  	0.159725 
881.468912  	0.161451 
883.397728  	0.162934 
885.326544  	0.164000 
887.255360  	0.164526 
889.184176  	0.164287 
891.112992  	0.163308 
893.041808  	0.160886 
894.970624  	0.157477 
896.899440  	0.153625 
898.828256  	0.148810 
900.757072  	0.143595 
902.685888  	0.139211 
904.614704  	0.136545 
906.543520  	0.136001 
908.472336  	0.136994 
910.401152  	0.139202 
912.329968  	0.141988 
914.258784  	0.145144 
916.187600  	0.147765 
918.116416  	0.150049 
920.045232  	0.151729 
921.974048  	0.152699 
923.902864  	0.153012 
925.831680  	0.152835 
927.760496  	0.153003 
929.689312  	0.153843 
931.618128  	0.155002 
933.546944  	0.155715 
935.475760  	0.156003 
937.404576  	0.155859 
939.333392  	0.155454 
941.262208  	0.155638 
943.191024  	0.157281 
945.119840  	0.161390 
947.048656  	0.168143 
948.977472  	0.177462 
950.906288  	0.188948 
952.835104  	0.202044 
954.763920  	0.215978 
956.692736  	0.229120 
958.621552  	0.240522 
960.550368  	0.248559 
962.479184  	0.252464 
964.408000  	0.251281 
966.336816  	0.245412 
968.265632  	0.235441 
970.194448  	0.222270 
972.123264  	0.207027 
974.052080  	0.191093 
975.980896  	0.175647 
977.909712  	0.161217 
979.838528  	0.148386 
981.767344  	0.137905 
983.696160  	0.129942 
985.624976  	0.124940 
987.553792  	0.123146 
989.482608  	0.124667 
991.411424  	0.128980 
993.340240  	0.135154 
995.269056  	0.142792 
997.197872  	0.151163 
999.126688  	0.159695 
1001.055504  	0.168608 
1002.984320  	0.177788 
1004.913136  	0.186904 
1006.841952  	0.195780 
1008.770768  	0.203568 
1010.699584  	0.209751 
1012.628400  	0.214241 
1014.557216  	0.217071 
1016.486032  	0.218298 
1018.414848  	0.218628 
1020.343664  	0.218512 
1022.272480  	0.218189 
1024.201296  	0.218402 
1026.130112  	0.220215 
1028.058928  	0.221867 
1029.987744  	0.222022 
1031.916560  	0.225052 
1033.845376  	0.230730 
1035.774192  	0.238710 
1037.703008  	0.247918 
1039.631824  	0.258376 
1041.560640  	0.272141 
1043.489456  	0.289922 
1045.418272  	0.310189 
1047.347088  	0.331480 
1049.275904  	0.349815 
1051.204720  	0.363411 
1053.133536  	0.370337 
1055.062352  	0.372825 
1056.991168  	0.372563 
1058.919984  	0.369828 
1060.848800  	0.365621 
1062.777616  	0.363558 
1064.706432  	0.362655 
1066.635248  	0.359475 
1068.564064  	0.350420 
1070.492880  	0.341671 
1072.421696  	0.334414 
1074.350512  	0.329291 
1076.279328  	0.327506 
1078.208144  	0.329716 
1080.136960  	0.333111 
1082.065776  	0.336402 
1083.994592  	0.336848 
1085.923408  	0.333823 
1087.852224  	0.326258 
1089.781040  	0.316171 
1091.709856  	0.303346 
1093.638672  	0.289695 
1095.567488  	0.275112 
1097.496304  	0.260114 
1099.425120  	0.244513 
1101.353936  	0.228801 
1103.282752  	0.213097 
1105.211568  	0.197988 
1107.140384  	0.183092 
1109.069200  	0.169369 
1110.998016  	0.156447 
1112.926832  	0.144603 
1114.855648  	0.134232 
1116.784464  	0.124374 
1118.713280  	0.115074 
1120.642096  	0.106452 
1122.570912  	0.098501 
1124.499728  	0.091083 
1126.428544  	0.084347 
1128.357360  	0.078512 
1130.286176  	0.073765 
1132.214992  	0.069666 
1134.143808  	0.066449 
1136.072624  	0.063813 
1138.001440  	0.061405 
1139.930256  	0.058809 
1141.859072  	0.056264 
1143.787888  	0.053310 
1145.716704  	0.050732 
1147.645520  	0.048332 
1149.574336  	0.046168 
1151.503152  	0.044456 
1153.431968  	0.043751 
1155.360784  	0.043748 
1157.289600  	0.044732 
1159.218416  	0.046480 
1161.147232  	0.048935 
1163.076048  	0.051359 
1165.004864  	0.054039 
1166.933680  	0.056739 
1168.862496  	0.059709 
1170.791312  	0.062590 
1172.720128  	0.065865 
1174.648944  	0.069260 
1176.577760  	0.072828 
1178.506576  	0.076261 
1180.435392  	0.079883 
1182.364208  	0.083276 
1184.293024  	0.087113 
1186.221840  	0.091390 
1188.150656  	0.096182 
1190.079472  	0.101607 
1192.008288  	0.108377 
1193.937104  	0.116455 
1195.865920  	0.125601 
1197.794736  	0.135527 
1199.723552  	0.146521 
1201.652368  	0.157780 
1203.581184  	0.169006 
1205.510000  	0.180275 
1207.438816  	0.190932 
1209.367632  	0.200987 
1211.296448  	0.210031 
1213.225264  	0.217618 
1215.154080  	0.223377 
1217.082896  	0.227901 
1219.011712  	0.230905 
1220.940528  	0.233488 
1222.869344  	0.235170 
1224.798160  	0.235867 
1226.726976  	0.235194 
1228.655792  	0.234105 
1230.584608  	0.231980 
1232.513424  	0.228509 
1234.442240  	0.223720 
1236.371056  	0.218167 
1238.299872  	0.211873 
1240.228688  	0.205738 
1242.157504  	0.198341 
1244.086320  	0.189465 
1246.015136  	0.180721 
1247.943952  	0.172495 
1249.872768  	0.164222 
1251.801584  	0.155454 
1253.730400  	0.146754 
1255.659216  	0.138309 
1257.588032  	0.130333 
1259.516848  	0.122605 
1261.445664  	0.115072 
1263.374480  	0.108079 
1265.303296  	0.102123 
1267.232112  	0.096950 
1269.160928  	0.092912 
1271.089744  	0.089725 
1273.018560  	0.087672 
1274.947376  	0.086664 
1276.876192  	0.086463 
1278.805008  	0.085893 
1280.733824  	0.084385 
1282.662640  	0.081764 
1284.591456  	0.078800 
1286.520272  	0.076347 
1288.449088  	0.074810 
1290.377904  	0.073937 
1292.306720  	0.074071 
1294.235536  	0.074086 
1296.164352  	0.073164 
1298.093168  	0.070468 
1300.021984  	0.067066 
1301.950800  	0.063499 
1303.879616  	0.060208 
1305.808432  	0.056632 
1307.737248  	0.052985 
1309.666064  	0.049431 
1311.594880  	0.047139 
1313.523696  	0.045255 
1315.452512  	0.043855 
1317.381328  	0.043172 
1319.310144  	0.042941 
1321.238960  	0.042881 
1323.167776  	0.043572 
1325.096592  	0.044502 
1327.025408  	0.045181 
1328.954224  	0.045128 
1330.883040  	0.044626 
1332.811856  	0.043598 
1334.740672  	0.043227 
1336.669488  	0.043876 
1338.598304  	0.044988 
1340.527120  	0.043404 
1342.455936  	0.040756 
1344.384752  	0.040112 
1346.313568  	0.040581 
1348.242384  	0.041412 
1350.171200  	0.042920 
1352.100016  	0.044981 
1354.028832  	0.047721 
1355.957648  	0.050212 
1357.886464  	0.052973 
1359.815280  	0.056471 
1361.744096  	0.060620 
1363.672912  	0.062706 
1365.601728  	0.063894 
1367.530544  	0.066365 
1369.459360  	0.068304 
1371.388176  	0.069331 
1373.316992  	0.069682 
1375.245808  	0.067449 
1377.174624  	0.065474 
1379.103440  	0.063183 
1381.032256  	0.060147 
1382.961072  	0.057629 
1384.889888  	0.056561 
1386.818704  	0.055421 
1388.747520  	0.052126 
1390.676336  	0.050426 
1392.605152  	0.051653 
1394.533968  	0.051675 
1396.462784  	0.049604 
1398.391600  	0.049101 
1400.320416  	0.048808 
1402.249232  	0.050265 
1404.178048  	0.052513 
1406.106864  	0.053668 
1408.035680  	0.054964 
1409.964496  	0.056782 
1411.893312  	0.058371 
1413.822128  	0.059863 
1415.750944  	0.062904 
1417.679760  	0.064977 
1419.608576  	0.062279 
1421.537392  	0.060860 
1423.466208  	0.060643 
1425.395024  	0.058025 
1427.323840  	0.055778 
1429.252656  	0.052680 
1431.181472  	0.050299 
1433.110288  	0.050279 
1435.039104  	0.051437 
1436.967920  	0.050959 
1438.896736  	0.051156 
1440.825552  	0.052543 
1442.754368  	0.053290 
1444.683184  	0.053624 
1446.612000  	0.054036 
1448.540816  	0.053800 
1450.469632  	0.054641 
1452.398448  	0.055710 
1454.327264  	0.056921 
1456.256080  	0.055617 
1458.184896  	0.050991 
1460.113712  	0.051780 
1462.042528  	0.053096 
1463.971344  	0.052567 
1465.900160  	0.052827 
1467.828976  	0.055723 
1469.757792  	0.059341 
1471.686608  	0.063050 
1473.615424  	0.069345 
1475.544240  	0.076710 
1477.473056  	0.082729 
1479.401872  	0.087020 
1481.330688  	0.090806 
1483.259504  	0.093051 
1485.188320  	0.094988 
1487.117136  	0.095220 
1489.045952  	0.095018 
1490.974768  	0.091019 
1492.903584  	0.087716 
1494.832400  	0.083910 
1496.761216  	0.075972 
1498.690032  	0.068614 
1500.618848  	0.064096 
1502.547664  	0.059693 
1504.476480  	0.054619 
1506.405296  	0.048267 
1508.334112  	0.047052 
1510.262928  	0.046457 
1512.191744  	0.043417 
1514.120560  	0.042152 
1516.049376  	0.041954 
1517.978192  	0.040424 
1519.907008  	0.041634 
1521.835824  	0.041970 
1523.764640  	0.046721 
1525.693456  	0.051999 
1527.622272  	0.054315 
1529.551088  	0.054767 
1531.479904  	0.054516 
1533.408720  	0.049651 
1535.337536  	0.045814 
1537.266352  	0.043572 
1539.195168  	0.034164 
1541.123984  	0.026476 
1543.052800  	0.030915 
1544.981616  	0.031911 
1546.910432  	0.030549 
1548.839248  	0.031317 
1550.768064  	0.031458 
1552.696880  	0.030722 
1554.625696  	0.031050 
1556.554512  	0.030882 
1558.483328  	0.027905 
1560.412144  	0.032693 
1562.340960  	0.041019 
1564.269776  	0.045526 
1566.198592  	0.051397 
1568.127408  	0.055947 
1570.056224  	0.061373 
1571.985040  	0.069760 
1573.913856  	0.075320 
1575.842672  	0.076067 
1577.771488  	0.079667 
1579.700304  	0.082552 
1581.629120  	0.082593 
1583.557936  	0.081926 
1585.486752  	0.082786 
1587.415568  	0.085443 
1589.344384  	0.090534 
1591.273200  	0.097204 
1593.202016  	0.105359 
1595.130832  	0.114057 
1597.059648  	0.123308 
1598.988464  	0.131223 
1600.917280  	0.138269 
1602.846096  	0.142912 
1604.774912  	0.145940 
1606.703728  	0.146527 
1608.632544  	0.145525 
1610.561360  	0.143161 
1612.490176  	0.141560 
1614.418992  	0.138959 
1616.347808  	0.134725 
1618.276624  	0.135752 
1620.205440  	0.141763 
1622.134256  	0.144949 
1624.063072  	0.150678 
1625.991888  	0.159021 
1627.920704  	0.168231 
1629.849520  	0.179397 
1631.778336  	0.190670 
1633.707152  	0.198290 
1635.635968  	0.205585 
1637.564784  	0.217541 
1639.493600  	0.227608 
1641.422416  	0.233907 
1643.351232  	0.238626 
1645.280048  	0.239040 
1647.208864  	0.237230 
1649.137680  	0.239250 
1651.066496  	0.240780 
1652.995312  	0.231567 
1654.924128  	0.230260 
1656.852944  	0.232348 
1658.781760  	0.230591 
1660.710576  	0.226457 
1662.639392  	0.219604 
1664.568208  	0.214661 
1666.497024  	0.212414 
1668.425840  	0.205706 
1670.354656  	0.196471 
1672.283472  	0.192984 
1674.212288  	0.189585 
1676.141104  	0.183479 
1678.069920  	0.183083 
1679.998736  	0.182664 
1681.927552  	0.180719 
1683.856368  	0.173706 
1685.785184  	0.171686 
1687.714000  	0.175480 
1689.642816  	0.175110 
1691.571632  	0.173101 
1693.500448  	0.172268 
1695.429264  	0.167391 
1697.358080  	0.163984 
1699.286896  	0.161945 
1701.215712  	0.155765 
1703.144528  	0.156024 
1705.073344  	0.151722 
1707.002160  	0.145078 
1708.930976  	0.140909 
1710.859792  	0.134539 
1712.788608  	0.127242 
1714.717424  	0.117817 
1716.646240  	0.104920 
1718.575056  	0.088842 
1720.503872  	0.080373 
1722.432688  	0.073278 
1724.361504  	0.062707 
1726.290320  	0.053745 
1728.219136  	0.046841 
1730.147952  	0.040992 
1732.076768  	0.035490 
1734.005584  	0.027126 
1735.934400  	0.021036 
1737.863216  	0.020893 
1739.792032  	0.016504 
1741.720848  	0.015572 
1743.649664  	0.015631 
1745.578480  	0.014476 
1747.507296  	0.012536 
1749.436112  	0.011728 
1751.364928  	0.010389 
1753.293744  	0.009026 
1755.222560  	0.008625 
1757.151376  	0.008155 
1759.080192  	0.007322 
1761.009008  	0.006493 
1762.937824  	0.004742 
1764.866640  	0.005208 
1766.795456  	0.005969 
1768.724272  	0.005617 
1770.653088  	0.002858 
1772.581904  	-0.000160 
1774.510720  	0.001432 
1776.439536  	0.003360 
1778.368352  	0.003550 
1780.297168  	0.003259 
1782.225984  	0.002564 
1784.154800  	0.003112 
1786.083616  	0.002332 
1788.012432  	0.002413 
1789.941248  	0.003025 
1791.870064  	0.001561 
1793.798880  	-0.000029 
1795.727696  	0.001868 
1797.656512  	0.001387 
1799.585328  	0.001040 
1801.514144  	0.001605 
1803.442960  	0.001247 
1805.371776  	0.000359 
1807.300592  	0.000885 
1809.229408  	0.000288 
1811.158224  	-0.000087 
1813.087040  	-0.000344 
1815.015856  	-0.000177 
1816.944672  	-0.000056 
1818.873488  	-0.000162 
1820.802304  	-0.000474 
1822.731120  	0.000387 
1824.659936  	0.000146 
1826.588752  	-0.000441 
1828.517568  	-0.001313 
1830.446384  	-0.001838 
1832.375200  	-0.001069 
1834.304016  	-0.000223 
1836.232832  	-0.000349 
1838.161648  	-0.000330 
1840.090464  	-0.000603 
1842.019280  	0.000409 
1843.948096  	-0.000863 
1845.876912  	-0.000866 
1847.805728  	0.000065 
1849.734544  	-0.000396 
1851.663360  	-0.001113 
1853.592176  	-0.000928 
1855.520992  	-0.001026 
1857.449808  	-0.000752 
1859.378624  	-0.000886 
1861.307440  	-0.000865 
1863.236256  	-0.001203 
1865.165072  	-0.000874 
1867.093888  	-0.001031 
1869.022704  	-0.001262 
1870.951520  	-0.001628 
1872.880336  	-0.001281 
1874.809152  	-0.001650 
1876.737968  	-0.001607 
1878.666784  	-0.001749 
1880.595600  	-0.001118 
1882.524416  	-0.001530 
1884.453232  	-0.001363 
1886.382048  	-0.001396 
1888.310864  	-0.000910 
1890.239680  	-0.001478 
1892.168496  	-0.001387 
1894.097312  	-0.001164 
1896.026128  	-0.000755 
1897.954944  	-0.001084 
1899.883760  	-0.000901 
1901.812576  	-0.001355 
1903.741392  	-0.001610 
1905.670208  	-0.001477 
1907.599024  	-0.000467 
1909.527840  	-0.000475 
1911.456656  	-0.000493 
1913.385472  	-0.000737 
1915.314288  	-0.000039 
1917.243104  	-0.000530 
1919.171920  	-0.000910 
1921.100736  	-0.000444 
1923.029552  	0.000247 
1924.958368  	-0.000754 
1926.887184  	-0.000720 
1928.816000  	-0.000943 
1930.744816  	-0.000713 
1932.673632  	-0.000961 
1934.602448  	-0.000756 
1936.531264  	-0.001118 
1938.460080  	-0.000732 
1940.388896  	-0.000856 
1942.317712  	-0.000181 
1944.246528  	-0.001039 
1946.175344  	-0.000922 
1948.104160  	-0.001311 
1950.032976  	-0.000687 
1951.961792  	-0.000984 
1953.890608  	-0.001143 
1955.819424  	-0.001517 
1957.748240  	-0.000206 
1959.677056  	-0.000527 
1961.605872  	-0.000349 
1963.534688  	-0.001675 
1965.463504  	-0.000838 
1967.392320  	-0.001088 
1969.321136  	-0.001120 
1971.249952  	-0.001316 
1973.178768  	-0.000613 
1975.107584  	-0.001193 
1977.036400  	0.000045 
1978.965216  	0.000738 
1980.894032  	0.000331 
1982.822848  	-0.000954 
1984.751664  	-0.000459 
1986.680480  	-0.001683 
1988.609296  	-0.001083 
1990.538112  	-0.001417 
1992.466928  	-0.000879 
1994.395744  	-0.001850 
1996.324560  	-0.001881 
1998.253376  	-0.002396 
2000.182192  	-0.002754 
2002.111008  	-0.002371 
2004.039824  	-0.000942 
2005.968640  	-0.001582 
2007.897456  	-0.000531 
2009.826272  	-0.001034 
2011.755088  	-0.000941 
2013.683904  	-0.001451 
2015.612720  	-0.000344 
2017.541536  	-0.000607 
2019.470352  	0.000484 
2021.399168  	-0.000179 
2023.327984  	-0.000580 
2025.256800  	-0.000690 
2027.185616  	-0.000013 
2029.114432  	-0.000029 
2031.043248  	0.000074 
2032.972064  	-0.000838 
2034.900880  	0.000007 
2036.829696  	-0.000511 
2038.758512  	-0.000077 
2040.687328  	-0.000452 
2042.616144  	-0.000065 
2044.544960  	-0.000536 
2046.473776  	-0.000161 
2048.402592  	-0.000550 
2050.331408  	-0.000357 
2052.260224  	-0.000967 
2054.189040  	-0.001087 
2056.117856  	-0.001895 
2058.046672  	-0.001736 
2059.975488  	-0.002138 
2061.904304  	-0.002117 
2063.833120  	-0.001851 
2065.761936  	-0.001293 
2067.690752  	-0.001942 
2069.619568  	-0.001677 
2071.548384  	-0.001375 
2073.477200  	-0.001506 
2075.406016  	-0.001775 
2077.334832  	-0.001123 
2079.263648  	-0.000849 
2081.192464  	-0.000461 
2083.121280  	-0.001010 
2085.050096  	-0.001502 
2086.978912  	-0.001415 
2088.907728  	-0.000906 
2090.836544  	-0.001021 
2092.765360  	-0.001194 
2094.694176  	-0.000981 
2096.622992  	-0.000179 
2098.551808  	-0.000468 
2100.480624  	-0.000422 
2102.409440  	-0.000485 
2104.338256  	-0.000384 
2106.267072  	-0.000150 
2108.195888  	0.000194 
2110.124704  	-0.000180 
2112.053520  	-0.000268 
2113.982336  	-0.000468 
2115.911152  	-0.000314 
2117.839968  	-0.000612 
2119.768784  	-0.000529 
2121.697600  	-0.000800 
2123.626416  	-0.000610 
2125.555232  	-0.000678 
2127.484048  	-0.000662 
2129.412864  	-0.001450 
2131.341680  	-0.001717 
2133.270496  	-0.001629 
2135.199312  	-0.000898 
2137.128128  	-0.000363 
2139.056944  	0.000346 
2140.985760  	-0.000143 
2142.914576  	-0.000421 
2144.843392  	0.000193 
2146.772208  	0.000497 
2148.701024  	-0.001005 
2150.629840  	0.000052 
2152.558656  	0.000461 
2154.487472  	0.000306 
2156.416288  	-0.000485 
2158.345104  	0.000180 
2160.273920  	0.001841 
2162.202736  	0.002113 
2164.131552  	0.001509 
2166.060368  	0.001572 
2167.989184  	0.001625 
2169.918000  	0.003163 
2171.846816  	0.002486 
2173.775632  	0.001800 
2175.704448  	0.001260 
2177.633264  	0.001389 
2179.562080  	0.000962 
2181.490896  	0.001178 
2183.419712  	0.000018 
2185.348528  	0.000101 
2187.277344  	-0.000017 
2189.206160  	-0.000077 
2191.134976  	-0.000190 
2193.063792  	0.000516 
2194.992608  	0.000002 
2196.921424  	-0.000173 
2198.850240  	-0.000003 
2200.779056  	0.000062 
2202.707872  	-0.000705 
2204.636688  	-0.000382 
2206.565504  	0.000040 
2208.494320  	-0.000146 
2210.423136  	-0.000822 
2212.351952  	-0.000427 
2214.280768  	-0.000870 
2216.209584  	-0.001279 
2218.138400  	-0.001609 
2220.067216  	-0.001061 
2221.996032  	-0.001151 
2223.924848  	-0.001140 
2225.853664  	-0.000835 
2227.782480  	-0.000178 
2229.711296  	-0.000714 
2231.640112  	-0.001405 
2233.568928  	-0.001430 
2235.497744  	-0.001003 
2237.426560  	-0.001602 
2239.355376  	-0.001545 
2241.284192  	-0.001254 
2243.213008  	-0.001407 
2245.141824  	-0.001914 
2247.070640  	-0.001783 
2248.999456  	-0.001933 
2250.928272  	-0.002098 
2252.857088  	-0.002335 
2254.785904  	-0.002333 
2256.714720  	-0.002725 
2258.643536  	-0.002953 
2260.572352  	-0.003291 
2262.501168  	-0.003178 
2264.429984  	-0.003247 
2266.358800  	-0.003059 
2268.287616  	-0.002856 
2270.216432  	-0.002580 
2272.145248  	-0.002481 
2274.074064  	-0.002577 
2276.002880  	-0.002862 
2277.931696  	-0.002531 
2279.860512  	-0.002170 
2281.789328  	-0.001756 
2283.718144  	-0.001748 
2285.646960  	-0.001666 
2287.575776  	-0.001598 
2289.504592  	-0.001705 
2291.433408  	-0.002297 
2293.362224  	-0.002510 
2295.291040  	-0.002198 
2297.219856  	-0.001610 
2299.148672  	-0.001693 
2301.077488  	-0.001918 
2303.006304  	-0.002123 
2304.935120  	-0.002029 
2306.863936  	-0.002202 
2308.792752  	-0.002579 
2310.721568  	-0.003541 
2312.650384  	-0.004734 
2314.579200  	-0.005895 
2316.508016  	-0.007188 
2318.436832  	-0.009226 
2320.365648  	-0.011646 
2322.294464  	-0.013827 
2324.223280  	-0.016349 
2326.152096  	-0.019401 
2328.080912  	-0.021976 
2330.009728  	-0.024806 
2331.938544  	-0.027440 
2333.867360  	-0.029553 
2335.796176  	-0.031487 
2337.724992  	-0.032910 
2339.653808  	-0.033332 
2341.582624  	-0.033629 
2343.511440  	-0.031727 
2345.440256  	-0.027574 
2347.369072  	-0.019823 
2349.297888  	-0.015690 
2351.226704  	-0.020337 
2353.155520  	-0.028818 
2355.084336  	-0.035386 
2357.013152  	-0.040466 
2358.941968  	-0.043183 
2360.870784  	-0.045069 
2362.799600  	-0.043929 
2364.728416  	-0.041142 
2366.657232  	-0.036920 
2368.586048  	-0.031409 
2370.514864  	-0.025441 
2372.443680  	-0.019857 
2374.372496  	-0.014763 
2376.301312  	-0.010221 
2378.230128  	-0.006420 
2380.158944  	-0.004005 
2382.087760  	-0.002674 
2384.016576  	-0.002308 
2385.945392  	-0.002467 
2387.874208  	-0.002670 
2389.803024  	-0.002787 
2391.731840  	-0.003011 
2393.660656  	-0.003019 
2395.589472  	-0.003112 
2397.518288  	-0.003024 
2399.447104  	-0.003100 
2401.375920  	-0.003191 
2403.304736  	-0.003257 
2405.233552  	-0.003073 
2407.162368  	-0.003272 
2409.091184  	-0.003265 
2411.020000  	-0.003160 
2412.948816  	-0.002990 
2414.877632  	-0.002922 
2416.806448  	-0.002803 
2418.735264  	-0.002982 
2420.664080  	-0.003173 
2422.592896  	-0.003308 
2424.521712  	-0.003202 
2426.450528  	-0.003244 
2428.379344  	-0.002972 
2430.308160  	-0.002680 
2432.236976  	-0.002619 
2434.165792  	-0.002797 
2436.094608  	-0.002869 
2438.023424  	-0.002765 
2439.952240  	-0.002424 
2441.881056  	-0.002421 
2443.809872  	-0.002510 
2445.738688  	-0.002410 
2447.667504  	-0.002172 
2449.596320  	-0.002311 
2451.525136  	-0.002274 
2453.453952  	-0.002260 
2455.382768  	-0.002285 
2457.311584  	-0.002300 
2459.240400  	-0.002411 
2461.169216  	-0.002622 
2463.098032  	-0.002662 
2465.026848  	-0.002569 
2466.955664  	-0.002411 
2468.884480  	-0.002554 
2470.813296  	-0.002597 
2472.742112  	-0.002626 
2474.670928  	-0.002674 
2476.599744  	-0.002656 
2478.528560  	-0.002419 
2480.457376  	-0.002451 
2482.386192  	-0.002497 
2484.315008  	-0.002309 
2486.243824  	-0.002351 
2488.172640  	-0.002404 
2490.101456  	-0.002076 
2492.030272  	-0.001757 
2493.959088  	-0.001620 
2495.887904  	-0.001743 
2497.816720  	-0.001859 
2499.745536  	-0.001705 
2501.674352  	-0.001458 
2503.603168  	-0.001164 
2505.531984  	-0.001228 
2507.460800  	-0.001457 
2509.389616  	-0.001373 
2511.318432  	-0.001314 
2513.247248  	-0.001303 
2515.176064  	-0.001324 
2517.104880  	-0.001337 
2519.033696  	-0.001514 
2520.962512  	-0.001415 
2522.891328  	-0.001278 
2524.820144  	-0.001245 
2526.748960  	-0.001119 
2528.677776  	-0.001021 
2530.606592  	-0.001121 
2532.535408  	-0.001066 
2534.464224  	-0.001007 
2536.393040  	-0.000974 
2538.321856  	-0.001008 
2540.250672  	-0.000710 
2542.179488  	-0.000592 
2544.108304  	-0.000610 
2546.037120  	-0.000382 
2547.965936  	-0.000188 
2549.894752  	-0.000244 
2551.823568  	-0.000342 
2553.752384  	-0.000159 
2555.681200  	0.000340 
2557.610016  	0.000463 
2559.538832  	0.000418 
2561.467648  	0.000578 
2563.396464  	0.000762 
2565.325280  	0.000711 
2567.254096  	0.000556 
2569.182912  	0.000615 
2571.111728  	0.000884 
2573.040544  	0.000934 
2574.969360  	0.001000 
2576.898176  	0.001206 
2578.826992  	0.001200 
2580.755808  	0.001116 
2582.684624  	0.001317 
2584.613440  	0.001441 
2586.542256  	0.001533 
2588.471072  	0.001695 
2590.399888  	0.001859 
2592.328704  	0.002004 
2594.257520  	0.001922 
2596.186336  	0.001929 
2598.115152  	0.002103 
2600.043968  	0.002201 
2601.972784  	0.002499 
2603.901600  	0.002594 
2605.830416  	0.002692 
2607.759232  	0.002799 
2609.688048  	0.002874 
2611.616864  	0.003055 
2613.545680  	0.003270 
2615.474496  	0.003414 
2617.403312  	0.003616 
2619.332128  	0.003713 
2621.260944  	0.003718 
2623.189760  	0.003878 
2625.118576  	0.004063 
2627.047392  	0.004132 
2628.976208  	0.004320 
2630.905024  	0.004450 
2632.833840  	0.004588 
2634.762656  	0.004787 
2636.691472  	0.004906 
2638.620288  	0.004965 
2640.549104  	0.005111 
2642.477920  	0.005173 
2644.406736  	0.005368 
2646.335552  	0.005577 
2648.264368  	0.005719 
2650.193184  	0.005774 
2652.122000  	0.006011 
2654.050816  	0.006319 
2655.979632  	0.006475 
2657.908448  	0.006578 
2659.837264  	0.006740 
2661.766080  	0.006857 
2663.694896  	0.007042 
2665.623712  	0.007161 
2667.552528  	0.007427 
2669.481344  	0.007620 
2671.410160  	0.007678 
2673.338976  	0.007771 
2675.267792  	0.008015 
2677.196608  	0.008242 
2679.125424  	0.008417 
2681.054240  	0.008609 
2682.983056  	0.008721 
2684.911872  	0.008787 
2686.840688  	0.009003 
2688.769504  	0.009179 
2690.698320  	0.009261 
2692.627136  	0.009285 
2694.555952  	0.009368 
2696.484768  	0.009499 
2698.413584  	0.009614 
2700.342400  	0.009753 
2702.271216  	0.010001 
2704.200032  	0.010195 
2706.128848  	0.010229 
2708.057664  	0.010365 
2709.986480  	0.010610 
2711.915296  	0.010768 
2713.844112  	0.010994 
2715.772928  	0.011144 
2717.701744  	0.011348 
2719.630560  	0.011711 
2721.559376  	0.011952 
2723.488192  	0.012063 
2725.417008  	0.012338 
2727.345824  	0.012666 
2729.274640  	0.012902 
2731.203456  	0.013089 
2733.132272  	0.013346 
2735.061088  	0.013612 
2736.989904  	0.013886 
2738.918720  	0.014089 
2740.847536  	0.014253 
2742.776352  	0.014321 
2744.705168  	0.014498 
2746.633984  	0.014610 
2748.562800  	0.014603 
2750.491616  	0.014708 
2752.420432  	0.014985 
2754.349248  	0.015009 
2756.278064  	0.014903 
2758.206880  	0.014861 
2760.135696  	0.014958 
2762.064512  	0.015055 
2763.993328  	0.015089 
2765.922144  	0.015071 
2767.850960  	0.015106 
2769.779776  	0.015138 
2771.708592  	0.015254 
2773.637408  	0.015282 
2775.566224  	0.015267 
2777.495040  	0.015235 
2779.423856  	0.015358 
2781.352672  	0.015436 
2783.281488  	0.015458 
2785.210304  	0.015463 
2787.139120  	0.015512 
2789.067936  	0.015730 
2790.996752  	0.015932 
2792.925568  	0.015965 
2794.854384  	0.016020 
2796.783200  	0.016043 
2798.712016  	0.015965 
2800.640832  	0.015967 
2802.569648  	0.016149 
2804.498464  	0.016324 
2806.427280  	0.016323 
2808.356096  	0.016278 
2810.284912  	0.016323 
2812.213728  	0.016414 
2814.142544  	0.016519 
2816.071360  	0.016604 
2818.000176  	0.016704 
2819.928992  	0.016810 
2821.857808  	0.016785 
2823.786624  	0.016714 
2825.715440  	0.016845 
2827.644256  	0.016935 
2829.573072  	0.016997 
2831.501888  	0.017040 
2833.430704  	0.017075 
2835.359520  	0.017121 
2837.288336  	0.017105 
2839.217152  	0.017215 
2841.145968  	0.017334 
2843.074784  	0.017532 
2845.003600  	0.017780 
2846.932416  	0.018111 
2848.861232  	0.018714 
2850.790048  	0.019245 
2852.718864  	0.019562 
2854.647680  	0.019876 
2856.576496  	0.020153 
2858.505312  	0.020523 
2860.434128  	0.021158 
2862.362944  	0.021855 
2864.291760  	0.022470 
2866.220576  	0.023197 
2868.149392  	0.024010 
2870.078208  	0.024687 
2872.007024  	0.025253 
2873.935840  	0.025953 
2875.864656  	0.026888 
2877.793472  	0.027926 
2879.722288  	0.029100 
2881.651104  	0.030403 
2883.579920  	0.031605 
2885.508736  	0.032418 
2887.437552  	0.032772 
2889.366368  	0.033140 
2891.295184  	0.033686 
2893.224000  	0.034061 
2895.152816  	0.034245 
2897.081632  	0.034478 
2899.010448  	0.035575 
2900.939264  	0.036706 
2902.868080  	0.036311 
2904.796896  	0.035793 
2906.725712  	0.035800 
2908.654528  	0.036161 
2910.583344  	0.036788 
2912.512160  	0.036988 
2914.440976  	0.037048 
2916.369792  	0.037415 
2918.298608  	0.038021 
2920.227424  	0.038653 
2922.156240  	0.039214 
2924.085056  	0.039585 
2926.013872  	0.040025 
2927.942688  	0.040625 
2929.871504  	0.041256 
2931.800320  	0.041934 
2933.729136  	0.042699 
2935.657952  	0.043531 
2937.586768  	0.044334 
2939.515584  	0.045158 
2941.444400  	0.045892 
2943.373216  	0.046498 
2945.302032  	0.047129 
2947.230848  	0.047450 
2949.159664  	0.047757 
2951.088480  	0.048429 
2953.017296  	0.049065 
2954.946112  	0.049464 
2956.874928  	0.049793 
2958.803744  	0.049982 
2960.732560  	0.050267 
2962.661376  	0.050657 
2964.590192  	0.051028 
2966.519008  	0.051525 
2968.447824  	0.052094 
2970.376640  	0.052396 
2972.305456  	0.052146 
2974.234272  	0.051740 
2976.163088  	0.051704 
2978.091904  	0.051508 
2980.020720  	0.051289 
2981.949536  	0.051004 
2983.878352  	0.051230 
2985.807168  	0.051830 
2987.735984  	0.052120 
2989.664800  	0.051654 
2991.593616  	0.049820 
2993.522432  	0.048897 
2995.451248  	0.048814 
2997.380064  	0.048511 
2999.308880  	0.047936 
3001.237696  	0.047395 
3003.166512  	0.046973 
3005.095328  	0.046560 
3007.024144  	0.046124 
3008.952960  	0.045767 
3010.881776  	0.045479 
3012.810592  	0.045149 
3014.739408  	0.044744 
3016.668224  	0.044290 
3018.597040  	0.044166 
3020.525856  	0.044071 
3022.454672  	0.043884 
3024.383488  	0.043886 
3026.312304  	0.043894 
3028.241120  	0.043909 
3030.169936  	0.044013 
3032.098752  	0.044109 
3034.027568  	0.044267 
3035.956384  	0.044616 
3037.885200  	0.045004 
3039.814016  	0.045244 
3041.742832  	0.045671 
3043.671648  	0.046087 
3045.600464  	0.046446 
3047.529280  	0.046817 
3049.458096  	0.047363 
3051.386912  	0.048115 
3053.315728  	0.048744 
3055.244544  	0.049371 
3057.173360  	0.050105 
3059.102176  	0.050791 
3061.030992  	0.051680 
3062.959808  	0.052620 
3064.888624  	0.053447 
3066.817440  	0.054314 
3068.746256  	0.055429 
3070.675072  	0.056504 
3072.603888  	0.057469 
3074.532704  	0.058438 
3076.461520  	0.059482 
3078.390336  	0.060528 
3080.319152  	0.061465 
3082.247968  	0.062448 
3084.176784  	0.063428 
3086.105600  	0.064584 
3088.034416  	0.065715 
3089.963232  	0.066701 
3091.892048  	0.067546 
3093.820864  	0.068584 
3095.749680  	0.069570 
3097.678496  	0.070617 
3099.607312  	0.071829 
3101.536128  	0.072996 
3103.464944  	0.074138 
3105.393760  	0.075108 
3107.322576  	0.075900 
3109.251392  	0.076835 
3111.180208  	0.077815 
3113.109024  	0.078773 
3115.037840  	0.079728 
3116.966656  	0.080618 
3118.895472  	0.081512 
3120.824288  	0.082384 
3122.753104  	0.083280 
3124.681920  	0.084075 
3126.610736  	0.084775 
3128.539552  	0.085676 
3130.468368  	0.086469 
3132.397184  	0.087141 
3134.326000  	0.087939 
3136.254816  	0.088731 
3138.183632  	0.089519 
3140.112448  	0.090458 
3142.041264  	0.091313 
3143.970080  	0.091995 
3145.898896  	0.092826 
3147.827712  	0.093755 
3149.756528  	0.094405 
3151.685344  	0.094964 
3153.614160  	0.095892 
3155.542976  	0.096957 
3157.471792  	0.097787 
3159.400608  	0.098526 
3161.329424  	0.099389 
3163.258240  	0.099966 
3165.187056  	0.100595 
3167.115872  	0.101445 
3169.044688  	0.102040 
3170.973504  	0.102584 
3172.902320  	0.103139 
3174.831136  	0.103859 
3176.759952  	0.104510 
3178.688768  	0.105021 
3180.617584  	0.105358 
3182.546400  	0.105646 
3184.475216  	0.105976 
3186.404032  	0.106044 
3188.332848  	0.106304 
3190.261664  	0.106738 
3192.190480  	0.107103 
3194.119296  	0.107097 
3196.048112  	0.107187 
3197.976928  	0.107240 
3199.905744  	0.107211 
3201.834560  	0.107002 
3203.763376  	0.106922 
3205.692192  	0.106931 
3207.621008  	0.106724 
3209.549824  	0.106534 
3211.478640  	0.106461 
3213.407456  	0.106337 
3215.336272  	0.106274 
3217.265088  	0.106288 
3219.193904  	0.106092 
3221.122720  	0.105758 
3223.051536  	0.105421 
3224.980352  	0.105255 
3226.909168  	0.105126 
3228.837984  	0.104823 
3230.766800  	0.104566 
3232.695616  	0.104510 
3234.624432  	0.104511 
3236.553248  	0.104467 
3238.482064  	0.104384 
3240.410880  	0.104445 
3242.339696  	0.104613 
3244.268512  	0.104426 
3246.197328  	0.104531 
3248.126144  	0.104813 
3250.054960  	0.104894 
3251.983776  	0.105071 
3253.912592  	0.105526 
3255.841408  	0.105955 
3257.770224  	0.106234 
3259.699040  	0.106514 
3261.627856  	0.106754 
3263.556672  	0.106900 
3265.485488  	0.107050 
3267.414304  	0.107275 
3269.343120  	0.107756 
3271.271936  	0.108189 
3273.200752  	0.108265 
3275.129568  	0.108470 
3277.058384  	0.108920 
3278.987200  	0.109320 
3280.916016  	0.109559 
3282.844832  	0.109554 
3284.773648  	0.109486 
3286.702464  	0.109829 
3288.631280  	0.110334 
3290.560096  	0.110595 
3292.488912  	0.111090 
3294.417728  	0.111481 
3296.346544  	0.111930 
3298.275360  	0.112196 
3300.204176  	0.112582 
3302.132992  	0.113059 
3304.061808  	0.113423 
3305.990624  	0.113856 
3307.919440  	0.114355 
3309.848256  	0.114819 
3311.777072  	0.115108 
3313.705888  	0.115433 
3315.634704  	0.116190 
3317.563520  	0.116551 
3319.492336  	0.116669 
3321.421152  	0.116871 
3323.349968  	0.117218 
3325.278784  	0.117670 
3327.207600  	0.117874 
3329.136416  	0.117740 
3331.065232  	0.117816 
3332.994048  	0.118061 
3334.922864  	0.118187 
3336.851680  	0.118148 
3338.780496  	0.117916 
3340.709312  	0.117724 
3342.638128  	0.117438 
3344.566944  	0.116889 
3346.495760  	0.116566 
3348.424576  	0.116310 
3350.353392  	0.115883 
3352.282208  	0.115706 
3354.211024  	0.115593 
3356.139840  	0.115221 
3358.068656  	0.114704 
3359.997472  	0.114330 
3361.926288  	0.113856 
3363.855104  	0.113263 
3365.783920  	0.112772 
3367.712736  	0.112304 
3369.641552  	0.111865 
3371.570368  	0.111383 
3373.499184  	0.111059 
3375.428000  	0.110556 
3377.356816  	0.110022 
3379.285632  	0.109709 
3381.214448  	0.109301 
3383.143264  	0.108841 
3385.072080  	0.108311 
3387.000896  	0.107579 
3388.929712  	0.107122 
3390.858528  	0.106794 
3392.787344  	0.106337 
3394.716160  	0.105718 
3396.644976  	0.105363 
3398.573792  	0.104904 
3400.502608  	0.104282 
3402.431424  	0.103485 
3404.360240  	0.102784 
3406.289056  	0.102148 
3408.217872  	0.101582 
3410.146688  	0.101145 
3412.075504  	0.100546 
3414.004320  	0.099773 
3415.933136  	0.099227 
3417.861952  	0.098611 
3419.790768  	0.098220 
3421.719584  	0.097530 
3423.648400  	0.096586 
3425.577216  	0.095634 
3427.506032  	0.095071 
3429.434848  	0.094543 
3431.363664  	0.093883 
3433.292480  	0.093125 
3435.221296  	0.092344 
3437.150112  	0.091627 
3439.078928  	0.090970 
3441.007744  	0.090087 
3442.936560  	0.089412 
3444.865376  	0.088974 
3446.794192  	0.088176 
3448.723008  	0.087018 
3450.651824  	0.086127 
3452.580640  	0.085432 
3454.509456  	0.084733 
3456.438272  	0.083931 
3458.367088  	0.083092 
3460.295904  	0.082332 
3462.224720  	0.081295 
3464.153536  	0.080138 
3466.082352  	0.079215 
3468.011168  	0.078178 
3469.939984  	0.077076 
3471.868800  	0.076168 
3473.797616  	0.075351 
3475.726432  	0.074399 
3477.655248  	0.073399 
3479.584064  	0.072762 
3481.512880  	0.071991 
3483.441696  	0.070494 
3485.370512  	0.069508 
3487.299328  	0.068472 
3489.228144  	0.067384 
3491.156960  	0.066276 
3493.085776  	0.065288 
3495.014592  	0.064588 
3496.943408  	0.063794 
3498.872224  	0.062992 
3500.801040  	0.062871 
3502.729856  	0.062180 
3504.658672  	0.060496 
3506.587488  	0.059402 
3508.516304  	0.059047 
3510.445120  	0.058053 
3512.373936  	0.056743 
3514.302752  	0.055863 
3516.231568  	0.055288 
3518.160384  	0.054583 
3520.089200  	0.053742 
3522.018016  	0.053597 
3523.946832  	0.053771 
3525.875648  	0.052688 
3527.804464  	0.051048 
3529.733280  	0.049665 
3531.662096  	0.048567 
3533.590912  	0.047812 
3535.519728  	0.047684 
3537.448544  	0.047022 
3539.377360  	0.045694 
3541.306176  	0.045088 
3543.234992  	0.045177 
3545.163808  	0.045882 
3547.092624  	0.044828 
3549.021440  	0.042394 
3550.950256  	0.041242 
3552.879072  	0.040605 
3554.807888  	0.039649 
3556.736704  	0.038590 
3558.665520  	0.038284 
3560.594336  	0.038105 
3562.523152  	0.036964 
3564.451968  	0.037233 
3566.380784  	0.038684 
3568.309600  	0.036491 
3570.238416  	0.033663 
3572.167232  	0.032460 
3574.096048  	0.031362 
3576.024864  	0.030289 
3577.953680  	0.029631 
3579.882496  	0.028908 
3581.811312  	0.027957 
3583.740128  	0.027214 
3585.668944  	0.027541 
3587.597760  	0.027005 
3589.526576  	0.024613 
3591.455392  	0.022983 
3593.384208  	0.022512 
3595.313024  	0.021656 
3597.241840  	0.019945 
3599.170656  	0.018066 
3601.099472  	0.017085 
3603.028288  	0.017030 
3604.957104  	0.016822 
3606.885920  	0.016441 
3608.814736  	0.015357 
3610.743552  	0.014601 
3612.672368  	0.013673 
3614.601184  	0.012360 
3616.530000  	0.011761 
3618.458816  	0.009914 
3620.387632  	0.008086 
3622.316448  	0.007683 
3624.245264  	0.007346 
3626.174080  	0.006927 
3628.102896  	0.004706 
3630.031712  	0.002122 
3631.960528  	0.003424 
3633.889344  	0.003401 
3635.818160  	0.002562 
3637.746976  	0.001769 
3639.675792  	0.001679 
3641.604608  	0.002023 
3643.533424  	0.001869 
3645.462240  	0.001391 
3647.391056  	-0.000793 
3649.319872  	-0.004206 
3651.248688  	-0.004732 
3653.177504  	-0.002363 
3655.106320  	-0.002275 
3657.035136  	-0.003621 
3658.963952  	-0.003268 
3660.892768  	-0.003258 
3662.821584  	-0.003704 
3664.750400  	-0.004145 
3666.679216  	-0.004454 
3668.608032  	-0.006512 
3670.536848  	-0.009657 
3672.465664  	-0.008374 
3674.394480  	-0.008961 
3676.323296  	-0.011857 
3678.252112  	-0.010275 
3680.180928  	-0.009818 
3682.109744  	-0.008969 
3684.038560  	-0.008724 
3685.967376  	-0.009440 
3687.896192  	-0.012580 
3689.825008  	-0.015555 
3691.753824  	-0.014394 
3693.682640  	-0.012434 
3695.611456  	-0.012192 
3697.540272  	-0.012331 
3699.469088  	-0.012716 
3701.397904  	-0.014473 
3703.326720  	-0.015137 
3705.255536  	-0.014216 
3707.184352  	-0.014456 
3709.113168  	-0.016499 
3711.041984  	-0.018759 
3712.970800  	-0.017569 
3714.899616  	-0.014716 
3716.828432  	-0.014403 
3718.757248  	-0.015046 
3720.686064  	-0.015752 
3722.614880  	-0.016101 
3724.543696  	-0.015364 
3726.472512  	-0.015678 
3728.401328  	-0.016314 
3730.330144  	-0.017543 
3732.258960  	-0.019282 
3734.187776  	-0.017586 
3736.116592  	-0.017324 
3738.045408  	-0.017641 
3739.974224  	-0.016022 
3741.903040  	-0.015108 
3743.831856  	-0.017151 
3745.760672  	-0.018662 
3747.689488  	-0.017625 
3749.618304  	-0.020320 
3751.547120  	-0.021551 
3753.475936  	-0.018609 
3755.404752  	-0.016420 
3757.333568  	-0.016005 
3759.262384  	-0.016597 
3761.191200  	-0.016470 
3763.120016  	-0.014918 
3765.048832  	-0.015312 
3766.977648  	-0.015548 
3768.906464  	-0.016579 
3770.835280  	-0.017142 
3772.764096  	-0.015596 
3774.692912  	-0.014871 
3776.621728  	-0.014880 
3778.550544  	-0.016226 
3780.479360  	-0.016881 
3782.408176  	-0.015473 
3784.336992  	-0.015542 
3786.265808  	-0.015264 
3788.194624  	-0.014886 
3790.123440  	-0.015108 
3792.052256  	-0.015333 
3793.981072  	-0.015424 
3795.909888  	-0.016592 
3797.838704  	-0.016565 
3799.767520  	-0.017419 
3801.696336  	-0.021078 
3803.625152  	-0.018663 
3805.553968  	-0.017515 
3807.482784  	-0.018823 
3809.411600  	-0.016480 
3811.340416  	-0.014885 
3813.269232  	-0.014946 
3815.198048  	-0.017798 
3817.126864  	-0.019210 
3819.055680  	-0.018025 
3820.984496  	-0.020674 
3822.913312  	-0.018775 
3824.842128  	-0.016178 
3826.770944  	-0.016527 
3828.699760  	-0.015955 
3830.628576  	-0.016345 
3832.557392  	-0.017175 
3834.486208  	-0.017149 
3836.415024  	-0.018359 
3838.343840  	-0.019624 
3840.272656  	-0.018204 
3842.201472  	-0.016614 
3844.130288  	-0.016297 
3846.059104  	-0.015408 
3847.987920  	-0.014855 
3849.916736  	-0.015228 
3851.845552  	-0.017828 
3853.774368  	-0.021927 
3855.703184  	-0.018565 
3857.632000  	-0.015663 
3859.560816  	-0.014683 
3861.489632  	-0.014872 
3863.418448  	-0.015778 
3865.347264  	-0.015957 
3867.276080  	-0.014818 
3869.204896  	-0.015780 
3871.133712  	-0.015964 
3873.062528  	-0.015383 
3874.991344  	-0.015891 
3876.920160  	-0.014716 
3878.848976  	-0.014180 
3880.777792  	-0.014374 
3882.706608  	-0.013755 
3884.635424  	-0.014157 
3886.564240  	-0.015331 
3888.493056  	-0.014836 
3890.421872  	-0.015191 
3892.350688  	-0.015606 
3894.279504  	-0.014657 
3896.208320  	-0.014101 
3898.137136  	-0.013824 
3900.065952  	-0.013618 
3901.994768  	-0.013344 
3903.923584  	-0.014283 
3905.852400  	-0.014988 
3907.781216  	-0.014942 
3909.710032  	-0.014888 
3911.638848  	-0.014761 
3913.567664  	-0.014468 
3915.496480  	-0.013824 
3917.425296  	-0.013759 
3919.354112  	-0.014220 
3921.282928  	-0.014129 
3923.211744  	-0.013530 
3925.140560  	-0.013443 
3927.069376  	-0.014113 
3928.998192  	-0.014199 
3930.927008  	-0.013347 
3932.855824  	-0.012964 
3934.784640  	-0.014028 
3936.713456  	-0.014593 
3938.642272  	-0.014337 
3940.571088  	-0.013780 
3942.499904  	-0.013056 
3944.428720  	-0.013342 
3946.357536  	-0.013304 
3948.286352  	-0.012811 
3950.215168  	-0.013568 
3952.143984  	-0.014601 
3954.072800  	-0.014854 
3956.001616  	-0.014440 
3957.930432  	-0.014401 
3959.859248  	-0.014351 
3961.788064  	-0.014139 
3963.716880  	-0.014484 
3965.645696  	-0.015003 
3967.574512  	-0.014836 
3969.503328  	-0.014430 
3971.432144  	-0.014461 
3973.360960  	-0.014442 
3975.289776  	-0.014208 
3977.218592  	-0.014114 
3979.147408  	-0.014303 
3981.076224  	-0.014479 
3983.005040  	-0.014603 
3984.933856  	-0.014724 
3986.862672  	-0.014823 
3988.791488  	-0.014460 
3990.720304  	-0.014095 
3992.649120  	-0.014314 
3994.577936  	-0.014586 
3996.506752  	-0.014776 
3998.435568  	-0.014907 
4000.364384  	-0.014833 