##TITLE=No Description
##DATA TYPE=INFRARED SPECTRUM
##XUNITS=1/CM
##YUNITS=Abs
399.264912  	0.615775 
401.193728  	0.611325 
403.122544  	0.608865 
405.051360  	0.605409 
406.980176  	0.608300 
408.908992  	0.593543 
410.837808  	0.591540 
412.766624  	0.579989 
414.695440  	0.581109 
416.624256  	0.583799 
418.553072  	0.597372 
420.481888  	0.591116 
422.410704  	0.587635 
424.339520  	0.572589 
426.268336  	0.567661 
428.197152  	0.564030 
430.125968  	0.567708 
432.054784  	0.562591 
433.983600  	0.562369 
435.912416  	0.560143 
437.841232  	0.550976 
439.770048  	0.539680 
441.698864  	0.541698 
443.627680  	0.538501 
445.556496  	0.539623 
447.485312  	0.541969 
449.414128  	0.542741 
451.342944  	0.541108 
453.271760  	0.542238 
455.200576  	0.541105 
457.129392  	0.545606 
459.058208  	0.539886 
460.987024  	0.541663 
462.915840  	0.539094 
464.844656  	0.538890 
466.773472  	0.540045 
468.702288  	0.538708 
470.631104  	0.538435 
472.559920  	0.540747 
474.488736  	0.532051 
476.417552  	0.532913 
478.346368  	0.531026 
480.275184  	0.533300 
482.204000  	0.531812 
484.132816  	0.529307 
486.061632  	0.525809 
487.990448  	0.528127 
489.919264  	0.526905 
491.848080  	0.525004 
493.776896  	0.520994 
495.705712  	0.518905 
497.634528  	0.514506 
499.563344  	0.514601 
501.492160  	0.515594 
503.420976  	0.516288 
505.349792  	0.515716 
507.278608  	0.519430 
509.207424  	0.521148 
511.136240  	0.522032 
513.065056  	0.519089 
514.993872  	0.520274 
516.922688  	0.520635 
518.851504  	0.521913 
520.780320  	0.520160 
522.709136  	0.521273 
524.637952  	0.521721 
526.566768  	0.521057 
528.495584  	0.516662 
530.424400  	0.513641 
532.353216  	0.508820 
534.282032  	0.503492 
536.210848  	0.496511 
538.139664  	0.491255 
540.068480  	0.485314 
541.997296  	0.481593 
543.926112  	0.479106 
545.854928  	0.475802 
547.783744  	0.470117 
549.712560  	0.467070 
551.641376  	0.463361 
553.570192  	0.459339 
555.499008  	0.455556 
557.427824  	0.453345 
559.356640  	0.450366 
561.285456  	0.446641 
563.214272  	0.441636 
565.143088  	0.438872 
567.071904  	0.435083 
569.000720  	0.431250 
570.929536  	0.427319 
572.858352  	0.424782 
574.787168  	0.422348 
576.715984  	0.420504 
578.644800  	0.416711 
580.573616  	0.412463 
582.502432  	0.407001 
584.431248  	0.402565 
586.360064  	0.398760 
588.288880  	0.396467 
590.217696  	0.394235 
592.146512  	0.391783 
594.075328  	0.388710 
596.004144  	0.387281 
597.932960  	0.385638 
599.861776  	0.384571 
601.790592  	0.382322 
603.719408  	0.380689 
605.648224  	0.379658 
607.577040  	0.378701 
609.505856  	0.376719 
611.434672  	0.375337 
613.363488  	0.373488 
615.292304  	0.371852 
617.221120  	0.370664 
619.149936  	0.370422 
621.078752  	0.368752 
623.007568  	0.367352 
624.936384  	0.365662 
626.865200  	0.364206 
628.794016  	0.363071 
630.722832  	0.363007 
632.651648  	0.362851 
634.580464  	0.362909 
636.509280  	0.362879 
638.438096  	0.362932 
640.366912  	0.361938 
642.295728  	0.360468 
644.224544  	0.357162 
646.153360  	0.353053 
648.082176  	0.348586 
650.010992  	0.344521 
651.939808  	0.340347 
653.868624  	0.336626 
655.797440  	0.332837 
657.726256  	0.328724 
659.655072  	0.324757 
661.583888  	0.320910 
663.512704  	0.317136 
665.441520  	0.314070 
667.370336  	0.304184 
669.299152  	0.296446 
671.227968  	0.298173 
673.156784  	0.295756 
675.085600  	0.292254 
677.014416  	0.289464 
678.943232  	0.287593 
680.872048  	0.285780 
682.800864  	0.283968 
684.729680  	0.282153 
686.658496  	0.280966 
688.587312  	0.280845 
690.516128  	0.279983 
692.444944  	0.278835 
694.373760  	0.278368 
696.302576  	0.276931 
698.231392  	0.274392 
700.160208  	0.271899 
702.089024  	0.269763 
704.017840  	0.267753 
705.946656  	0.264964 
707.875472  	0.262375 
709.804288  	0.260387 
711.733104  	0.258744 
713.661920  	0.257263 
715.590736  	0.256073 
717.519552  	0.255151 
719.448368  	0.254925 
721.377184  	0.255380 
723.306000  	0.256359 
725.234816  	0.257084 
727.163632  	0.256706 
729.092448  	0.254500 
731.021264  	0.250871 
732.950080  	0.247383 
734.878896  	0.244144 
736.807712  	0.241022 
738.736528  	0.238354 
740.665344  	0.236399 
742.594160  	0.234877 
744.522976  	0.233688 
746.451792  	0.232156 
748.380608  	0.230300 
750.309424  	0.228774 
752.238240  	0.227606 
754.167056  	0.227054 
756.095872  	0.226546 
758.024688  	0.225464 
759.953504  	0.224833 
761.882320  	0.225952 
763.811136  	0.227030 
765.739952  	0.225703 
767.668768  	0.222515 
769.597584  	0.219757 
771.526400  	0.218857 
773.455216  	0.220647 
775.384032  	0.224723 
777.312848  	0.230491 
779.241664  	0.235331 
781.170480  	0.235487 
783.099296  	0.231145 
785.028112  	0.224628 
786.956928  	0.217988 
788.885744  	0.212561 
790.814560  	0.209043 
792.743376  	0.206898 
794.672192  	0.205788 
796.601008  	0.204843 
798.529824  	0.201833 
800.458640  	0.197403 
802.387456  	0.193840 
804.316272  	0.191977 
806.245088  	0.190619 
808.173904  	0.189754 
810.102720  	0.189448 
812.031536  	0.189544 
813.960352  	0.190055 
815.889168  	0.190452 
817.817984  	0.190767 
819.746800  	0.191227 
821.675616  	0.192050 
823.604432  	0.192419 
825.533248  	0.192394 
827.462064  	0.192312 
829.390880  	0.191874 
831.319696  	0.190726 
833.248512  	0.188914 
835.177328  	0.186451 
837.106144  	0.183408 
839.034960  	0.180095 
840.963776  	0.176247 
842.892592  	0.171907 
844.821408  	0.168262 
846.750224  	0.165114 
848.679040  	0.162500 
850.607856  	0.160839 
852.536672  	0.159597 
854.465488  	0.158638 
856.394304  	0.158083 
858.323120  	0.157717 
860.251936  	0.156769 
862.180752  	0.155431 
864.109568  	0.153524 
866.038384  	0.151399 
867.967200  	0.149615 
869.896016  	0.147810 
871.824832  	0.146552 
873.753648  	0.146218 
875.682464  	0.147228 
877.611280  	0.149486 
879.540096  	0.151920 
881.468912  	0.153668 
883.397728  	0.155501 
885.326544  	0.156802 
887.255360  	0.157445 
889.184176  	0.157273 
891.112992  	0.156648 
893.041808  	0.154538 
894.970624  	0.151110 
896.899440  	0.147125 
898.828256  	0.142257 
900.757072  	0.137284 
902.685888  	0.132883 
904.614704  	0.129806 
906.543520  	0.128983 
908.472336  	0.129926 
910.401152  	0.132158 
912.329968  	0.134546 
914.258784  	0.137085 
916.187600  	0.139512 
918.116416  	0.141752 
920.045232  	0.143372 
921.974048  	0.144390 
923.902864  	0.144852 
925.831680  	0.144767 
927.760496  	0.145202 
929.689312  	0.146136 
931.618128  	0.147269 
933.546944  	0.148070 
935.475760  	0.148411 
937.404576  	0.148277 
939.333392  	0.147600 
941.262208  	0.147351 
943.191024  	0.148742 
945.119840  	0.152776 
947.048656  	0.159519 
948.977472  	0.168678 
950.906288  	0.180037 
952.835104  	0.193199 
954.763920  	0.207199 
956.692736  	0.220342 
958.621552  	0.231618 
960.550368  	0.239248 
962.479184  	0.242713 
964.408000  	0.241264 
966.336816  	0.235476 
968.265632  	0.225561 
970.194448  	0.212726 
972.123264  	0.197878 
974.052080  	0.182276 
975.980896  	0.167251 
977.909712  	0.153374 
979.838528  	0.141060 
981.767344  	0.130848 
983.696160  	0.123027 
985.624976  	0.118075 
987.553792  	0.116271 
989.482608  	0.117592 
991.411424  	0.121563 
993.340240  	0.127518 
995.269056  	0.135060 
997.197872  	0.143067 
999.126688  	0.151177 
1001.055504  	0.159388 
1002.984320  	0.168321 
1004.913136  	0.177413 
1006.841952  	0.186142 
1008.770768  	0.193859 
1010.699584  	0.200205 
1012.628400  	0.204719 
1014.557216  	0.207453 
1016.486032  	0.208976 
1018.414848  	0.209417 
1020.343664  	0.209469 
1022.272480  	0.209245 
1024.201296  	0.209731 
1026.130112  	0.212429 
1028.058928  	0.214590 
1029.987744  	0.214430 
1031.916560  	0.217893 
1033.845376  	0.224311 
1035.774192  	0.233048 
1037.703008  	0.243212 
1039.631824  	0.253903 
1041.560640  	0.268118 
1043.489456  	0.286344 
1045.418272  	0.306475 
1047.347088  	0.326840 
1049.275904  	0.343653 
1051.204720  	0.355563 
1053.133536  	0.360899 
1055.062352  	0.361799 
1056.991168  	0.360096 
1058.919984  	0.355883 
1060.848800  	0.350518 
1062.777616  	0.349066 
1064.706432  	0.350210 
1066.635248  	0.348291 
1068.564064  	0.338716 
1070.492880  	0.329929 
1072.421696  	0.323790 
1074.350512  	0.320069 
1076.279328  	0.318756 
1078.208144  	0.320906 
1080.136960  	0.324585 
1082.065776  	0.327970 
1083.994592  	0.327747 
1085.923408  	0.323652 
1087.852224  	0.315126 
1089.781040  	0.304305 
1091.709856  	0.290489 
1093.638672  	0.276491 
1095.567488  	0.261709 
1097.496304  	0.246596 
1099.425120  	0.231116 
1101.353936  	0.215659 
1103.282752  	0.200458 
1105.211568  	0.185730 
1107.140384  	0.171695 
1109.069200  	0.158283 
1110.998016  	0.145599 
1112.926832  	0.134469 
1114.855648  	0.124624 
1116.784464  	0.115196 
1118.713280  	0.106352 
1120.642096  	0.098334 
1122.570912  	0.090896 
1124.499728  	0.083751 
1126.428544  	0.077429 
1128.357360  	0.071906 
1130.286176  	0.067576 
1132.214992  	0.063761 
1134.143808  	0.060821 
1136.072624  	0.058397 
1138.001440  	0.056228 
1139.930256  	0.053862 
1141.859072  	0.051539 
1143.787888  	0.048892 
1145.716704  	0.046447 
1147.645520  	0.044049 
1149.574336  	0.042150 
1151.503152  	0.040717 
1153.431968  	0.040165 
1155.360784  	0.040201 
1157.289600  	0.041013 
1159.218416  	0.042689 
1161.147232  	0.045008 
1163.076048  	0.047404 
1165.004864  	0.050093 
1166.933680  	0.052552 
1168.862496  	0.055316 
1170.791312  	0.058039 
1172.720128  	0.061380 
1174.648944  	0.064845 
1176.577760  	0.068355 
1178.506576  	0.071602 
1180.435392  	0.075033 
1182.364208  	0.078351 
1184.293024  	0.082212 
1186.221840  	0.086381 
1188.150656  	0.090964 
1190.079472  	0.096100 
1192.008288  	0.102490 
1193.937104  	0.110233 
1195.865920  	0.119191 
1197.794736  	0.128759 
1199.723552  	0.139166 
1201.652368  	0.149924 
1203.581184  	0.160732 
1205.510000  	0.171300 
1207.438816  	0.181485 
1209.367632  	0.190711 
1211.296448  	0.198659 
1213.225264  	0.205571 
1215.154080  	0.210883 
1217.082896  	0.215309 
1219.011712  	0.218385 
1220.940528  	0.220640 
1222.869344  	0.221905 
1224.798160  	0.222343 
1226.726976  	0.221701 
1228.655792  	0.220589 
1230.584608  	0.218198 
1232.513424  	0.214632 
1234.442240  	0.209664 
1236.371056  	0.204087 
1238.299872  	0.198198 
1240.228688  	0.192830 
1242.157504  	0.185917 
1244.086320  	0.177181 
1246.015136  	0.169230 
1247.943952  	0.161936 
1249.872768  	0.154444 
1251.801584  	0.146055 
1253.730400  	0.137762 
1255.659216  	0.129691 
1257.588032  	0.122221 
1259.516848  	0.114970 
1261.445664  	0.107804 
1263.374480  	0.100998 
1265.303296  	0.095311 
1267.232112  	0.090379 
1269.160928  	0.086400 
1271.089744  	0.083358 
1273.018560  	0.081362 
1274.947376  	0.080309 
1276.876192  	0.080042 
1278.805008  	0.079614 
1280.733824  	0.078343 
1282.662640  	0.075862 
1284.591456  	0.073067 
1286.520272  	0.070691 
1288.449088  	0.069164 
1290.377904  	0.068328 
1292.306720  	0.068697 
1294.235536  	0.069032 
1296.164352  	0.068434 
1298.093168  	0.065900 
1300.021984  	0.062690 
1301.950800  	0.059404 
1303.879616  	0.056387 
1305.808432  	0.052904 
1307.737248  	0.049350 
1309.666064  	0.045835 
1311.594880  	0.043535 
1313.523696  	0.041717 
1315.452512  	0.040372 
1317.381328  	0.039721 
1319.310144  	0.039465 
1321.238960  	0.039306 
1323.167776  	0.039942 
1325.096592  	0.040760 
1327.025408  	0.041386 
1328.954224  	0.041386 
1330.883040  	0.040941 
1332.811856  	0.039981 
1334.740672  	0.039749 
1336.669488  	0.040482 
1338.598304  	0.041532 
1340.527120  	0.039802 
1342.455936  	0.037267 
1344.384752  	0.036747 
1346.313568  	0.037243 
1348.242384  	0.038110 
1350.171200  	0.039628 
1352.100016  	0.041658 
1354.028832  	0.044213 
1355.957648  	0.046517 
1357.886464  	0.049278 
1359.815280  	0.052738 
1361.744096  	0.056673 
1363.672912  	0.058506 
1365.601728  	0.059927 
1367.530544  	0.062761 
1369.459360  	0.064891 
1371.388176  	0.066219 
1373.316992  	0.066846 
1375.245808  	0.064734 
1377.174624  	0.063129 
1379.103440  	0.061215 
1381.032256  	0.058563 
1382.961072  	0.056237 
1384.889888  	0.055461 
1386.818704  	0.054111 
1388.747520  	0.050538 
1390.676336  	0.049366 
1392.605152  	0.051684 
1394.533968  	0.051859 
1396.462784  	0.048739 
1398.391600  	0.047908 
1400.320416  	0.047581 
1402.249232  	0.049472 
1404.178048  	0.051896 
1406.106864  	0.052798 
1408.035680  	0.053859 
1409.964496  	0.055393 
1411.893312  	0.056432 
1413.822128  	0.057472 
1415.750944  	0.060245 
1417.679760  	0.061967 
1419.608576  	0.058316 
1421.537392  	0.057001 
1423.466208  	0.056905 
1425.395024  	0.054047 
1427.323840  	0.052114 
1429.252656  	0.049054 
1431.181472  	0.046605 
1433.110288  	0.046814 
1435.039104  	0.048160 
1436.967920  	0.047124 
1438.896736  	0.047440 
1440.825552  	0.049024 
1442.754368  	0.049728 
1444.683184  	0.050197 
1446.612000  	0.050779 
1448.540816  	0.050601 
1450.469632  	0.051724 
1452.398448  	0.052959 
1454.327264  	0.054344 
1456.256080  	0.052555 
1458.184896  	0.046438 
1460.113712  	0.047497 
1462.042528  	0.049269 
1463.971344  	0.048605 
1465.900160  	0.048217 
1467.828976  	0.051085 
1469.757792  	0.054690 
1471.686608  	0.057930 
1473.615424  	0.063068 
1475.544240  	0.069963 
1477.473056  	0.075581 
1479.401872  	0.079864 
1481.330688  	0.083503 
1483.259504  	0.085723 
1485.188320  	0.087800 
1487.117136  	0.088315 
1489.045952  	0.088082 
1490.974768  	0.083868 
1492.903584  	0.081215 
1494.832400  	0.077914 
1496.761216  	0.069613 
1498.690032  	0.062289 
1500.618848  	0.058309 
1502.547664  	0.054675 
1504.476480  	0.050393 
1506.405296  	0.043794 
1508.334112  	0.041846 
1510.262928  	0.041898 
1512.191744  	0.039233 
1514.120560  	0.038356 
1516.049376  	0.038067 
1517.978192  	0.036274 
1519.907008  	0.037997 
1521.835824  	0.037455 
1523.764640  	0.042173 
1525.693456  	0.047547 
1527.622272  	0.049479 
1529.551088  	0.049937 
1531.479904  	0.049837 
1533.408720  	0.044552 
1535.337536  	0.040665 
1537.266352  	0.039393 
1539.195168  	0.030050 
1541.123984  	0.021531 
1543.052800  	0.026296 
1544.981616  	0.027572 
1546.910432  	0.026693 
1548.839248  	0.027773 
1550.768064  	0.027771 
1552.696880  	0.027365 
1554.625696  	0.027580 
1556.554512  	0.027789 
1558.483328  	0.023662 
1560.412144  	0.026650 
1562.340960  	0.036052 
1564.269776  	0.040627 
1566.198592  	0.046082 
1568.127408  	0.050540 
1570.056224  	0.054803 
1571.985040  	0.062669 
1573.913856  	0.068283 
1575.842672  	0.068206 
1577.771488  	0.071155 
1579.700304  	0.074560 
1581.629120  	0.074784 
1583.557936  	0.074159 
1585.486752  	0.074891 
1587.415568  	0.077466 
1589.344384  	0.082182 
1591.273200  	0.088453 
1593.202016  	0.096112 
1595.130832  	0.104165 
1597.059648  	0.112667 
1598.988464  	0.120133 
1600.917280  	0.126677 
1602.846096  	0.131095 
1604.774912  	0.134039 
1606.703728  	0.134525 
1608.632544  	0.133425 
1610.561360  	0.131201 
1612.490176  	0.129753 
1614.418992  	0.127456 
1616.347808  	0.122838 
1618.276624  	0.123527 
1620.205440  	0.129591 
1622.134256  	0.132424 
1624.063072  	0.136984 
1625.991888  	0.144683 
1627.920704  	0.152874 
1629.849520  	0.163063 
1631.778336  	0.173507 
1633.707152  	0.180223 
1635.635968  	0.185569 
1637.564784  	0.196020 
1639.493600  	0.205657 
1641.422416  	0.211347 
1643.351232  	0.215645 
1645.280048  	0.215705 
1647.208864  	0.213161 
1649.137680  	0.215315 
1651.066496  	0.217196 
1652.995312  	0.207228 
1654.924128  	0.206583 
1656.852944  	0.209655 
1658.781760  	0.208404 
1660.710576  	0.204675 
1662.639392  	0.198087 
1664.568208  	0.193691 
1666.497024  	0.192078 
1668.425840  	0.185590 
1670.354656  	0.176288 
1672.283472  	0.173416 
1674.212288  	0.170478 
1676.141104  	0.164222 
1678.069920  	0.164212 
1679.998736  	0.163960 
1681.927552  	0.162172 
1683.856368  	0.154545 
1685.785184  	0.152329 
1687.714000  	0.156821 
1689.642816  	0.156611 
1691.571632  	0.154880 
1693.500448  	0.154714 
1695.429264  	0.150153 
1697.358080  	0.147029 
1699.286896  	0.145447 
1701.215712  	0.139580 
1703.144528  	0.141075 
1705.073344  	0.137413 
1707.002160  	0.131507 
1708.930976  	0.128266 
1710.859792  	0.122848 
1712.788608  	0.116515 
1714.717424  	0.107692 
1716.646240  	0.095171 
1718.575056  	0.079425 
1720.503872  	0.072104 
1722.432688  	0.065772 
1724.361504  	0.055647 
1726.290320  	0.047199 
1728.219136  	0.040858 
1730.147952  	0.035339 
1732.076768  	0.030547 
1734.005584  	0.021945 
1735.934400  	0.016092 
1737.863216  	0.017073 
1739.792032  	0.012756 
1741.720848  	0.011895 
1743.649664  	0.012171 
1745.578480  	0.011357 
1747.507296  	0.009632 
1749.436112  	0.008665 
1751.364928  	0.007019 
1753.293744  	0.005938 
1755.222560  	0.006172 
1757.151376  	0.005429 
1759.080192  	0.004721 
1761.009008  	0.003975 
1762.937824  	0.001932 
1764.866640  	0.002785 
1766.795456  	0.003866 
1768.724272  	0.003256 
1770.653088  	0.000585 
1772.581904  	-0.003204 
1774.510720  	-0.001607 
1776.439536  	0.000721 
1778.368352  	0.001284 
1780.297168  	0.000922 
1782.225984  	0.000221 
1784.154800  	0.000960 
1786.083616  	0.000017 
1788.012432  	0.000199 
1789.941248  	0.001105 
1791.870064  	-0.000481 
1793.798880  	-0.002566 
1795.727696  	-0.000608 
1797.656512  	-0.000989 
1799.585328  	-0.001214 
1801.514144  	-0.000725 
1803.442960  	-0.001066 
1805.371776  	-0.001914 
1807.300592  	-0.001445 
1809.229408  	-0.001906 
1811.158224  	-0.002355 
1813.087040  	-0.002587 
1815.015856  	-0.002124 
1816.944672  	-0.001976 
1818.873488  	-0.002117 
1820.802304  	-0.002398 
1822.731120  	-0.001535 
1824.659936  	-0.002208 
1826.588752  	-0.002800 
1828.517568  	-0.003260 
1830.446384  	-0.004247 
1832.375200  	-0.003374 
1834.304016  	-0.002309 
1836.232832  	-0.002606 
1838.161648  	-0.002476 
1840.090464  	-0.002596 
1842.019280  	-0.001477 
1843.948096  	-0.002987 
1845.876912  	-0.003179 
1847.805728  	-0.002121 
1849.734544  	-0.002343 
1851.663360  	-0.002842 
1853.592176  	-0.002915 
1855.520992  	-0.003142 
1857.449808  	-0.002870 
1859.378624  	-0.003058 
1861.307440  	-0.002922 
1863.236256  	-0.003042 
1865.165072  	-0.002662 
1867.093888  	-0.002679 
1869.022704  	-0.003208 
1870.951520  	-0.003822 
1872.880336  	-0.003473 
1874.809152  	-0.003675 
1876.737968  	-0.003522 
1878.666784  	-0.003709 
1880.595600  	-0.003162 
1882.524416  	-0.003566 
1884.453232  	-0.003505 
1886.382048  	-0.003489 
1888.310864  	-0.002908 
1890.239680  	-0.003734 
1892.168496  	-0.003460 
1894.097312  	-0.003185 
1896.026128  	-0.002904 
1897.954944  	-0.003204 
1899.883760  	-0.003185 
1901.812576  	-0.003389 
1903.741392  	-0.003286 
1905.670208  	-0.003218 
1907.599024  	-0.002446 
1909.527840  	-0.002760 
1911.456656  	-0.002732 
1913.385472  	-0.002878 
1915.314288  	-0.002103 
1917.243104  	-0.002427 
1919.171920  	-0.002974 
1921.100736  	-0.002415 
1923.029552  	-0.001613 
1924.958368  	-0.002450 
1926.887184  	-0.002569 
1928.816000  	-0.003128 
1930.744816  	-0.002835 
1932.673632  	-0.002910 
1934.602448  	-0.002748 
1936.531264  	-0.002965 
1938.460080  	-0.002463 
1940.388896  	-0.002286 
1942.317712  	-0.001667 
1944.246528  	-0.002560 
1946.175344  	-0.002604 
1948.104160  	-0.003080 
1950.032976  	-0.002527 
1951.961792  	-0.002926 
1953.890608  	-0.002693 
1955.819424  	-0.003464 
1957.748240  	-0.003128 
1959.677056  	-0.003993 
1961.605872  	-0.003224 
1963.534688  	-0.003315 
1965.463504  	-0.002181 
1967.392320  	-0.002504 
1969.321136  	-0.002679 
1971.249952  	-0.003109 
1973.178768  	-0.002520 
1975.107584  	-0.003751 
1977.036400  	-0.002470 
1978.965216  	-0.002124 
1980.894032  	-0.002273 
1982.822848  	-0.002334 
1984.751664  	-0.001609 
1986.680480  	-0.003449 
1988.609296  	-0.003450 
1990.538112  	-0.003706 
1992.466928  	-0.002748 
1994.395744  	-0.004390 
1996.324560  	-0.004730 
1998.253376  	-0.004548 
2000.182192  	-0.003642 
2002.111008  	-0.003692 
2004.039824  	-0.003480 
2005.968640  	-0.004181 
2007.897456  	-0.003433 
2009.826272  	-0.003795 
2011.755088  	-0.002954 
2013.683904  	-0.002982 
2015.612720  	-0.002089 
2017.541536  	-0.002844 
2019.470352  	-0.003270 
2021.399168  	-0.004195 
2023.327984  	-0.002776 
2025.256800  	-0.002457 
2027.185616  	-0.002647 
2029.114432  	-0.002444 
2031.043248  	-0.000760 
2032.972064  	-0.000971 
2034.900880  	-0.000959 
2036.829696  	-0.002541 
2038.758512  	-0.002109 
2040.687328  	-0.002467 
2042.616144  	-0.002502 
2044.544960  	-0.003546 
2046.473776  	-0.002867 
2048.402592  	-0.002849 
2050.331408  	-0.003377 
2052.260224  	-0.004751 
2054.189040  	-0.004426 
2056.117856  	-0.004025 
2058.046672  	-0.003487 
2059.975488  	-0.003692 
2061.904304  	-0.003370 
2063.833120  	-0.003259 
2065.761936  	-0.002839 
2067.690752  	-0.003219 
2069.619568  	-0.002816 
2071.548384  	-0.002963 
2073.477200  	-0.003326 
2075.406016  	-0.003409 
2077.334832  	-0.002937 
2079.263648  	-0.002838 
2081.192464  	-0.002968 
2083.121280  	-0.003402 
2085.050096  	-0.003350 
2086.978912  	-0.003062 
2088.907728  	-0.002422 
2090.836544  	-0.002819 
2092.765360  	-0.002677 
2094.694176  	-0.002379 
2096.622992  	-0.002303 
2098.551808  	-0.002688 
2100.480624  	-0.002431 
2102.409440  	-0.002699 
2104.338256  	-0.002778 
2106.267072  	-0.002566 
2108.195888  	-0.001973 
2110.124704  	-0.002009 
2112.053520  	-0.001967 
2113.982336  	-0.002283 
2115.911152  	-0.002162 
2117.839968  	-0.002324 
2119.768784  	-0.002404 
2121.697600  	-0.002876 
2123.626416  	-0.002510 
2125.555232  	-0.002833 
2127.484048  	-0.002741 
2129.412864  	-0.003204 
2131.341680  	-0.003069 
2133.270496  	-0.002710 
2135.199312  	-0.001972 
2137.128128  	-0.001901 
2139.056944  	-0.001812 
2140.985760  	-0.002346 
2142.914576  	-0.002010 
2144.843392  	-0.001674 
2146.772208  	-0.001833 
2148.701024  	-0.002588 
2150.629840  	-0.002339 
2152.558656  	-0.002934 
2154.487472  	-0.001283 
2156.416288  	-0.000701 
2158.345104  	-0.001475 
2160.273920  	-0.000610 
2162.202736  	0.000837 
2164.131552  	-0.000048 
2166.060368  	0.000056 
2167.989184  	0.000166 
2169.918000  	0.001161 
2171.846816  	-0.000202 
2173.775632  	-0.000670 
2175.704448  	-0.000095 
2177.633264  	-0.000135 
2179.562080  	-0.001195 
2181.490896  	-0.000556 
2183.419712  	-0.001352 
2185.348528  	-0.001827 
2187.277344  	-0.001877 
2189.206160  	-0.001982 
2191.134976  	-0.002524 
2193.063792  	-0.001978 
2194.992608  	-0.001956 
2196.921424  	-0.002092 
2198.850240  	-0.002338 
2200.779056  	-0.002249 
2202.707872  	-0.001991 
2204.636688  	-0.002235 
2206.565504  	-0.002754 
2208.494320  	-0.002563 
2210.423136  	-0.003087 
2212.351952  	-0.002914 
2214.280768  	-0.003136 
2216.209584  	-0.003409 
2218.138400  	-0.003837 
2220.067216  	-0.003283 
2221.996032  	-0.003061 
2223.924848  	-0.002864 
2225.853664  	-0.002995 
2227.782480  	-0.002647 
2229.711296  	-0.003356 
2231.640112  	-0.003785 
2233.568928  	-0.003573 
2235.497744  	-0.003138 
2237.426560  	-0.003341 
2239.355376  	-0.003504 
2241.284192  	-0.003672 
2243.213008  	-0.003371 
2245.141824  	-0.003600 
2247.070640  	-0.003630 
2248.999456  	-0.003779 
2250.928272  	-0.003842 
2252.857088  	-0.004210 
2254.785904  	-0.004364 
2256.714720  	-0.004814 
2258.643536  	-0.004855 
2260.572352  	-0.005001 
2262.501168  	-0.004916 
2264.429984  	-0.005142 
2266.358800  	-0.005155 
2268.287616  	-0.005275 
2270.216432  	-0.005075 
2272.145248  	-0.005068 
2274.074064  	-0.005094 
2276.002880  	-0.004808 
2277.931696  	-0.004418 
2279.860512  	-0.004486 
2281.789328  	-0.004227 
2283.718144  	-0.004080 
2285.646960  	-0.003938 
2287.575776  	-0.003967 
2289.504592  	-0.004212 
2291.433408  	-0.004566 
2293.362224  	-0.004379 
2295.291040  	-0.004250 
2297.219856  	-0.004075 
2299.148672  	-0.004105 
2301.077488  	-0.004030 
2303.006304  	-0.004040 
2304.935120  	-0.003981 
2306.863936  	-0.004272 
2308.792752  	-0.004682 
2310.721568  	-0.005326 
2312.650384  	-0.006566 
2314.579200  	-0.008033 
2316.508016  	-0.009331 
2318.436832  	-0.011107 
2320.365648  	-0.013462 
2322.294464  	-0.015786 
2324.223280  	-0.018250 
2326.152096  	-0.021047 
2328.080912  	-0.023363 
2330.009728  	-0.026235 
2331.938544  	-0.028852 
2333.867360  	-0.030871 
2335.796176  	-0.032634 
2337.724992  	-0.033935 
2339.653808  	-0.034077 
2341.582624  	-0.034465 
2343.511440  	-0.033316 
2345.440256  	-0.029439 
2347.369072  	-0.021710 
2349.297888  	-0.017163 
2351.226704  	-0.021386 
2353.155520  	-0.030022 
2355.084336  	-0.036733 
2357.013152  	-0.042046 
2358.941968  	-0.045017 
2360.870784  	-0.046492 
2362.799600  	-0.045495 
2364.728416  	-0.042986 
2366.657232  	-0.038606 
2368.586048  	-0.033225 
2370.514864  	-0.027506 
2372.443680  	-0.022101 
2374.372496  	-0.016865 
2376.301312  	-0.012347 
2378.230128  	-0.008479 
2380.158944  	-0.006017 
2382.087760  	-0.004800 
2384.016576  	-0.004351 
2385.945392  	-0.004376 
2387.874208  	-0.004677 
2389.803024  	-0.004855 
2391.731840  	-0.005148 
2393.660656  	-0.005109 
2395.589472  	-0.004926 
2397.518288  	-0.004781 
2399.447104  	-0.005045 
2401.375920  	-0.005067 
2403.304736  	-0.005231 
2405.233552  	-0.005248 
2407.162368  	-0.005264 
2409.091184  	-0.005149 
2411.020000  	-0.005048 
2412.948816  	-0.005118 
2414.877632  	-0.005005 
2416.806448  	-0.004842 
2418.735264  	-0.005033 
2420.664080  	-0.005062 
2422.592896  	-0.005095 
2424.521712  	-0.004878 
2426.450528  	-0.004946 
2428.379344  	-0.004978 
2430.308160  	-0.004871 
2432.236976  	-0.004613 
2434.165792  	-0.004620 
2436.094608  	-0.004691 
2438.023424  	-0.004606 
2439.952240  	-0.004433 
2441.881056  	-0.004548 
2443.809872  	-0.004587 
2445.738688  	-0.004507 
2447.667504  	-0.004282 
2449.596320  	-0.004291 
2451.525136  	-0.004267 
2453.453952  	-0.004354 
2455.382768  	-0.004474 
2457.311584  	-0.004469 
2459.240400  	-0.004507 
2461.169216  	-0.004655 
2463.098032  	-0.004770 
2465.026848  	-0.004768 
2466.955664  	-0.004704 
2468.884480  	-0.004759 
2470.813296  	-0.004718 
2472.742112  	-0.004777 
2474.670928  	-0.004902 
2476.599744  	-0.004960 
2478.528560  	-0.004732 
2480.457376  	-0.004679 
2482.386192  	-0.004518 
2484.315008  	-0.004374 
2486.243824  	-0.004389 
2488.172640  	-0.004275 
2490.101456  	-0.003923 
2492.030272  	-0.003898 
2493.959088  	-0.004017 
2495.887904  	-0.004001 
2497.816720  	-0.003786 
2499.745536  	-0.003797 
2501.674352  	-0.003887 
2503.603168  	-0.003755 
2505.531984  	-0.003611 
2507.460800  	-0.003692 
2509.389616  	-0.003607 
2511.318432  	-0.003522 
2513.247248  	-0.003582 
2515.176064  	-0.003557 
2517.104880  	-0.003459 
2519.033696  	-0.003646 
2520.962512  	-0.003697 
2522.891328  	-0.003700 
2524.820144  	-0.003723 
2526.748960  	-0.003610 
2528.677776  	-0.003313 
2530.606592  	-0.003350 
2532.535408  	-0.003315 
2534.464224  	-0.003365 
2536.393040  	-0.003426 
2538.321856  	-0.003307 
2540.250672  	-0.003033 
2542.179488  	-0.002780 
2544.108304  	-0.002626 
2546.037120  	-0.002859 
2547.965936  	-0.002944 
2549.894752  	-0.002739 
2551.823568  	-0.002710 
2553.752384  	-0.002522 
2555.681200  	-0.002187 
2557.610016  	-0.002206 
2559.538832  	-0.002176 
2561.467648  	-0.002030 
2563.396464  	-0.001907 
2565.325280  	-0.001722 
2567.254096  	-0.001700 
2569.182912  	-0.001859 
2571.111728  	-0.001892 
2573.040544  	-0.001784 
2574.969360  	-0.001528 
2576.898176  	-0.001219 
2578.826992  	-0.001170 
2580.755808  	-0.001390 
2582.684624  	-0.001247 
2584.613440  	-0.000993 
2586.542256  	-0.000953 
2588.471072  	-0.000910 
2590.399888  	-0.000703 
2592.328704  	-0.000627 
2594.257520  	-0.000717 
2596.186336  	-0.000692 
2598.115152  	-0.000577 
2600.043968  	-0.000497 
2601.972784  	-0.000114 
2603.901600  	0.000019 
2605.830416  	-0.000032 
2607.759232  	0.000042 
2609.688048  	0.000310 
2611.616864  	0.000563 
2613.545680  	0.000674 
2615.474496  	0.000807 
2617.403312  	0.000894 
2619.332128  	0.000979 
2621.260944  	0.001212 
2623.189760  	0.001280 
2625.118576  	0.001276 
2627.047392  	0.001286 
2628.976208  	0.001378 
2630.905024  	0.001551 
2632.833840  	0.001636 
2634.762656  	0.001764 
2636.691472  	0.001934 
2638.620288  	0.002074 
2640.549104  	0.002178 
2642.477920  	0.002268 
2644.406736  	0.002514 
2646.335552  	0.002692 
2648.264368  	0.002790 
2650.193184  	0.002886 
2652.122000  	0.003090 
2654.050816  	0.003394 
2655.979632  	0.003584 
2657.908448  	0.003718 
2659.837264  	0.003885 
2661.766080  	0.003951 
2663.694896  	0.004156 
2665.623712  	0.004299 
2667.552528  	0.004521 
2669.481344  	0.004785 
2671.410160  	0.004933 
2673.338976  	0.005003 
2675.267792  	0.005173 
2677.196608  	0.005409 
2679.125424  	0.005557 
2681.054240  	0.005687 
2682.983056  	0.005852 
2684.911872  	0.005938 
2686.840688  	0.006027 
2688.769504  	0.006132 
2690.698320  	0.006239 
2692.627136  	0.006324 
2694.555952  	0.006430 
2696.484768  	0.006521 
2698.413584  	0.006582 
2700.342400  	0.006696 
2702.271216  	0.006976 
2704.200032  	0.007219 
2706.128848  	0.007253 
2708.057664  	0.007244 
2709.986480  	0.007451 
2711.915296  	0.007702 
2713.844112  	0.007972 
2715.772928  	0.008115 
2717.701744  	0.008319 
2719.630560  	0.008553 
2721.559376  	0.008822 
2723.488192  	0.009050 
2725.417008  	0.009218 
2727.345824  	0.009457 
2729.274640  	0.009685 
2731.203456  	0.009907 
2733.132272  	0.010172 
2735.061088  	0.010378 
2736.989904  	0.010621 
2738.918720  	0.010830 
2740.847536  	0.011033 
2742.776352  	0.011092 
2744.705168  	0.011247 
2746.633984  	0.011394 
2748.562800  	0.011476 
2750.491616  	0.011555 
2752.420432  	0.011758 
2754.349248  	0.011784 
2756.278064  	0.011696 
2758.206880  	0.011504 
2760.135696  	0.011506 
2762.064512  	0.011722 
2763.993328  	0.011837 
2765.922144  	0.011768 
2767.850960  	0.011797 
2769.779776  	0.011921 
2771.708592  	0.012002 
2773.637408  	0.011860 
2775.566224  	0.011881 
2777.495040  	0.011935 
2779.423856  	0.012070 
2781.352672  	0.012114 
2783.281488  	0.012079 
2785.210304  	0.012105 
2787.139120  	0.012191 
2789.067936  	0.012321 
2790.996752  	0.012425 
2792.925568  	0.012509 
2794.854384  	0.012614 
2796.783200  	0.012679 
2798.712016  	0.012606 
2800.640832  	0.012629 
2802.569648  	0.012832 
2804.498464  	0.012911 
2806.427280  	0.012804 
2808.356096  	0.012771 
2810.284912  	0.012929 
2812.213728  	0.013014 
2814.142544  	0.013041 
2816.071360  	0.013138 
2818.000176  	0.013235 
2819.928992  	0.013401 
2821.857808  	0.013429 
2823.786624  	0.013427 
2825.715440  	0.013619 
2827.644256  	0.013715 
2829.573072  	0.013809 
2831.501888  	0.013879 
2833.430704  	0.013965 
2835.359520  	0.014082 
2837.288336  	0.014309 
2839.217152  	0.014516 
2841.145968  	0.014668 
2843.074784  	0.014881 
2845.003600  	0.015230 
2846.932416  	0.015700 
2848.861232  	0.016383 
2850.790048  	0.017003 
2852.718864  	0.017389 
2854.647680  	0.017932 
2856.576496  	0.018586 
2858.505312  	0.019180 
2860.434128  	0.019960 
2862.362944  	0.020850 
2864.291760  	0.021788 
2866.220576  	0.022756 
2868.149392  	0.023714 
2870.078208  	0.024418 
2872.007024  	0.025073 
2873.935840  	0.025826 
2875.864656  	0.026777 
2877.793472  	0.028036 
2879.722288  	0.029559 
2881.651104  	0.031032 
2883.579920  	0.032343 
2885.508736  	0.033186 
2887.437552  	0.033363 
2889.366368  	0.033656 
2891.295184  	0.034419 
2893.224000  	0.034956 
2895.152816  	0.035178 
2897.081632  	0.035634 
2899.010448  	0.037233 
2900.939264  	0.038718 
2902.868080  	0.037886 
2904.796896  	0.036946 
2906.725712  	0.036827 
2908.654528  	0.037073 
2910.583344  	0.037657 
2912.512160  	0.037654 
2914.440976  	0.037429 
2916.369792  	0.037593 
2918.298608  	0.037982 
2920.227424  	0.038475 
2922.156240  	0.038916 
2924.085056  	0.039214 
2926.013872  	0.039737 
2927.942688  	0.040345 
2929.871504  	0.040765 
2931.800320  	0.041221 
2933.729136  	0.041981 
2935.657952  	0.042749 
2937.586768  	0.043392 
2939.515584  	0.044131 
2941.444400  	0.044968 
2943.373216  	0.045747 
2945.302032  	0.046374 
2947.230848  	0.046735 
2949.159664  	0.047172 
2951.088480  	0.047938 
2953.017296  	0.048744 
2954.946112  	0.049384 
2956.874928  	0.049961 
2958.803744  	0.050448 
2960.732560  	0.050955 
2962.661376  	0.051293 
2964.590192  	0.051918 
2966.519008  	0.052909 
2968.447824  	0.053822 
2970.376640  	0.054319 
2972.305456  	0.054240 
2974.234272  	0.053679 
2976.163088  	0.053373 
2978.091904  	0.053067 
2980.020720  	0.052868 
2981.949536  	0.052787 
2983.878352  	0.053163 
2985.807168  	0.053931 
2987.735984  	0.054572 
2989.664800  	0.054051 
2991.593616  	0.051214 
2993.522432  	0.049673 
2995.451248  	0.049318 
2997.380064  	0.048751 
2999.308880  	0.047858 
3001.237696  	0.046819 
3003.166512  	0.046118 
3005.095328  	0.045345 
3007.024144  	0.044479 
3008.952960  	0.043701 
3010.881776  	0.042849 
3012.810592  	0.042046 
3014.739408  	0.041419 
3016.668224  	0.040672 
3018.597040  	0.040153 
3020.525856  	0.039724 
3022.454672  	0.039337 
3024.383488  	0.039154 
3026.312304  	0.038820 
3028.241120  	0.038659 
3030.169936  	0.038656 
3032.098752  	0.038422 
3034.027568  	0.038290 
3035.956384  	0.038389 
3037.885200  	0.038768 
3039.814016  	0.039075 
3041.742832  	0.039309 
3043.671648  	0.039588 
3045.600464  	0.039930 
3047.529280  	0.040259 
3049.458096  	0.040695 
3051.386912  	0.041332 
3053.315728  	0.041977 
3055.244544  	0.042672 
3057.173360  	0.043254 
3059.102176  	0.043884 
3061.030992  	0.044677 
3062.959808  	0.045501 
3064.888624  	0.046261 
3066.817440  	0.047047 
3068.746256  	0.048078 
3070.675072  	0.049018 
3072.603888  	0.049741 
3074.532704  	0.050621 
3076.461520  	0.051703 
3078.390336  	0.052808 
3080.319152  	0.053677 
3082.247968  	0.054540 
3084.176784  	0.055459 
3086.105600  	0.056485 
3088.034416  	0.057385 
3089.963232  	0.058382 
3091.892048  	0.059215 
3093.820864  	0.059893 
3095.749680  	0.060796 
3097.678496  	0.062033 
3099.607312  	0.063180 
3101.536128  	0.064118 
3103.464944  	0.065166 
3105.393760  	0.066032 
3107.322576  	0.066803 
3109.251392  	0.067637 
3111.180208  	0.068474 
3113.109024  	0.069465 
3115.037840  	0.070282 
3116.966656  	0.071177 
3118.895472  	0.072037 
3120.824288  	0.072657 
3122.753104  	0.073268 
3124.681920  	0.073926 
3126.610736  	0.074695 
3128.539552  	0.075555 
3130.468368  	0.076382 
3132.397184  	0.077070 
3134.326000  	0.077656 
3136.254816  	0.078281 
3138.183632  	0.079093 
3140.112448  	0.079981 
3142.041264  	0.080650 
3143.970080  	0.081337 
3145.898896  	0.081969 
3147.827712  	0.082693 
3149.756528  	0.083400 
3151.685344  	0.084124 
3153.614160  	0.084878 
3155.542976  	0.085729 
3157.471792  	0.086564 
3159.400608  	0.087249 
3161.329424  	0.087941 
3163.258240  	0.088490 
3165.187056  	0.089068 
3167.115872  	0.089759 
3169.044688  	0.090313 
3170.973504  	0.090694 
3172.902320  	0.091256 
3174.831136  	0.091859 
3176.759952  	0.092219 
3178.688768  	0.092514 
3180.617584  	0.092943 
3182.546400  	0.093304 
3184.475216  	0.093516 
3186.404032  	0.093654 
3188.332848  	0.093885 
3190.261664  	0.094097 
3192.190480  	0.094392 
3194.119296  	0.094453 
3196.048112  	0.094537 
3197.976928  	0.094396 
3199.905744  	0.094201 
3201.834560  	0.094186 
3203.763376  	0.094279 
3205.692192  	0.094186 
3207.621008  	0.093894 
3209.549824  	0.093739 
3211.478640  	0.093784 
3213.407456  	0.093569 
3215.336272  	0.093406 
3217.265088  	0.093358 
3219.193904  	0.093094 
3221.122720  	0.092790 
3223.051536  	0.092573 
3224.980352  	0.092429 
3226.909168  	0.092314 
3228.837984  	0.092028 
3230.766800  	0.091795 
3232.695616  	0.091847 
3234.624432  	0.091739 
3236.553248  	0.091620 
3238.482064  	0.091822 
3240.410880  	0.091917 
3242.339696  	0.091950 
3244.268512  	0.091684 
3246.197328  	0.091755 
3248.126144  	0.092037 
3250.054960  	0.092109 
3251.983776  	0.092349 
3253.912592  	0.092694 
3255.841408  	0.092845 
3257.770224  	0.093018 
3259.699040  	0.093406 
3261.627856  	0.093794 
3263.556672  	0.093998 
3265.485488  	0.094074 
3267.414304  	0.094344 
3269.343120  	0.094658 
3271.271936  	0.095032 
3273.200752  	0.094991 
3275.129568  	0.094941 
3277.058384  	0.095388 
3278.987200  	0.095675 
3280.916016  	0.095830 
3282.844832  	0.096025 
3284.773648  	0.096272 
3286.702464  	0.096354 
3288.631280  	0.096518 
3290.560096  	0.096875 
3292.488912  	0.097231 
3294.417728  	0.097477 
3296.346544  	0.097948 
3298.275360  	0.098261 
3300.204176  	0.098660 
3302.132992  	0.099061 
3304.061808  	0.099234 
3305.990624  	0.099542 
3307.919440  	0.099957 
3309.848256  	0.100256 
3311.777072  	0.100469 
3313.705888  	0.100715 
3315.634704  	0.101157 
3317.563520  	0.101550 
3319.492336  	0.101780 
3321.421152  	0.102022 
3323.349968  	0.102288 
3325.278784  	0.102277 
3327.207600  	0.102256 
3329.136416  	0.102231 
3331.065232  	0.102382 
3332.994048  	0.102549 
3334.922864  	0.102631 
3336.851680  	0.102673 
3338.780496  	0.102724 
3340.709312  	0.102499 
3342.638128  	0.102250 
3344.566944  	0.101873 
3346.495760  	0.101479 
3348.424576  	0.101096 
3350.353392  	0.100725 
3352.282208  	0.100357 
3354.211024  	0.100053 
3356.139840  	0.099965 
3358.068656  	0.099697 
3359.997472  	0.099356 
3361.926288  	0.098877 
3363.855104  	0.098463 
3365.783920  	0.098018 
3367.712736  	0.097525 
3369.641552  	0.097183 
3371.570368  	0.096501 
3373.499184  	0.096015 
3375.428000  	0.095756 
3377.356816  	0.095461 
3379.285632  	0.095193 
3381.214448  	0.094783 
3383.143264  	0.094321 
3385.072080  	0.093848 
3387.000896  	0.093318 
3388.929712  	0.093007 
3390.858528  	0.092801 
3392.787344  	0.092366 
3394.716160  	0.091802 
3396.644976  	0.091502 
3398.573792  	0.091014 
3400.502608  	0.090399 
3402.431424  	0.089654 
3404.360240  	0.089034 
3406.289056  	0.088364 
3408.217872  	0.087905 
3410.146688  	0.087434 
3412.075504  	0.087036 
3414.004320  	0.086533 
3415.933136  	0.086007 
3417.861952  	0.085178 
3419.790768  	0.084656 
3421.719584  	0.084091 
3423.648400  	0.083408 
3425.577216  	0.082675 
3427.506032  	0.081942 
3429.434848  	0.081342 
3431.363664  	0.080685 
3433.292480  	0.080000 
3435.221296  	0.079408 
3437.150112  	0.078756 
3439.078928  	0.078177 
3441.007744  	0.077554 
3442.936560  	0.076962 
3444.865376  	0.076677 
3446.794192  	0.075810 
3448.723008  	0.074496 
3450.651824  	0.073642 
3452.580640  	0.073013 
3454.509456  	0.072664 
3456.438272  	0.072091 
3458.367088  	0.071197 
3460.295904  	0.070394 
3462.224720  	0.069324 
3464.153536  	0.068498 
3466.082352  	0.067855 
3468.011168  	0.066774 
3469.939984  	0.065884 
3471.868800  	0.065310 
3473.797616  	0.064495 
3475.726432  	0.063451 
3477.655248  	0.062564 
3479.584064  	0.062065 
3481.512880  	0.061367 
3483.441696  	0.060150 
3485.370512  	0.059213 
3487.299328  	0.058108 
3489.228144  	0.057225 
3491.156960  	0.056433 
3493.085776  	0.055645 
3495.014592  	0.054810 
3496.943408  	0.053903 
3498.872224  	0.053356 
3500.801040  	0.053554 
3502.729856  	0.052801 
3504.658672  	0.051169 
3506.587488  	0.050397 
3508.516304  	0.049944 
3510.445120  	0.048820 
3512.373936  	0.047472 
3514.302752  	0.046781 
3516.231568  	0.046577 
3518.160384  	0.045907 
3520.089200  	0.045193 
3522.018016  	0.045152 
3523.946832  	0.045282 
3525.875648  	0.044319 
3527.804464  	0.042487 
3529.733280  	0.041093 
3531.662096  	0.040336 
3533.590912  	0.039724 
3535.519728  	0.039616 
3537.448544  	0.038935 
3539.377360  	0.037605 
3541.306176  	0.037231 
3543.234992  	0.037644 
3545.163808  	0.038191 
3547.092624  	0.036702 
3549.021440  	0.034492 
3550.950256  	0.033750 
3552.879072  	0.032981 
3554.807888  	0.032043 
3556.736704  	0.031187 
3558.665520  	0.031077 
3560.594336  	0.030951 
3562.523152  	0.030165 
3564.451968  	0.030771 
3566.380784  	0.031492 
3568.309600  	0.028572 
3570.238416  	0.026415 
3572.167232  	0.025790 
3574.096048  	0.024805 
3576.024864  	0.023649 
3577.953680  	0.023106 
3579.882496  	0.022410 
3581.811312  	0.021723 
3583.740128  	0.021623 
3585.668944  	0.022123 
3587.597760  	0.020525 
3589.526576  	0.017829 
3591.455392  	0.017158 
3593.384208  	0.016969 
3595.313024  	0.015979 
3597.241840  	0.014440 
3599.170656  	0.012819 
3601.099472  	0.011535 
3603.028288  	0.011545 
3604.957104  	0.012058 
3606.885920  	0.011778 
3608.814736  	0.010000 
3610.743552  	0.009502 
3612.672368  	0.008824 
3614.601184  	0.007463 
3616.530000  	0.007435 
3618.458816  	0.005527 
3620.387632  	0.002884 
3622.316448  	0.002998 
3624.245264  	0.003438 
3626.174080  	0.003934 
3628.102896  	0.001397 
3630.031712  	-0.003078 
3631.960528  	-0.000889 
3633.889344  	-0.000458 
3635.818160  	-0.000777 
3637.746976  	-0.001089 
3639.675792  	-0.001149 
3641.604608  	-0.000547 
3643.533424  	-0.000200 
3645.462240  	0.000243 
3647.391056  	-0.001986 
3649.319872  	-0.007205 
3651.248688  	-0.008880 
3653.177504  	-0.004780 
3655.106320  	-0.003912 
3657.035136  	-0.005986 
3658.963952  	-0.005098 
3660.892768  	-0.004516 
3662.821584  	-0.004558 
3664.750400  	-0.004636 
3666.679216  	-0.004416 
3668.608032  	-0.006428 
3670.536848  	-0.011019 
3672.465664  	-0.008669 
3674.394480  	-0.008535 
3676.323296  	-0.014141 
3678.252112  	-0.012193 
3680.180928  	-0.011176 
3682.109744  	-0.009886 
3684.038560  	-0.009164 
3685.967376  	-0.009158 
3687.896192  	-0.012496 
3689.825008  	-0.016885 
3691.753824  	-0.016261 
3693.682640  	-0.013892 
3695.611456  	-0.013264 
3697.540272  	-0.013462 
3699.469088  	-0.013638 
3701.397904  	-0.016010 
3703.326720  	-0.017382 
3705.255536  	-0.016041 
3707.184352  	-0.015891 
3709.113168  	-0.017933 
3711.041984  	-0.020841 
3712.970800  	-0.020541 
3714.899616  	-0.017267 
3716.828432  	-0.016151 
3718.757248  	-0.016778 
3720.686064  	-0.017500 
3722.614880  	-0.018131 
3724.543696  	-0.017397 
3726.472512  	-0.017922 
3728.401328  	-0.018325 
3730.330144  	-0.018722 
3732.258960  	-0.020884 
3734.187776  	-0.019688 
3736.116592  	-0.020559 
3738.045408  	-0.020812 
3739.974224  	-0.018362 
3741.903040  	-0.016492 
3743.831856  	-0.018976 
3745.760672  	-0.022143 
3747.689488  	-0.019258 
3749.618304  	-0.022073 
3751.547120  	-0.025142 
3753.475936  	-0.022394 
3755.404752  	-0.018868 
3757.333568  	-0.018305 
3759.262384  	-0.019453 
3761.191200  	-0.019444 
3763.120016  	-0.017012 
3765.048832  	-0.017465 
3766.977648  	-0.017936 
3768.906464  	-0.018896 
3770.835280  	-0.020152 
3772.764096  	-0.018262 
3774.692912  	-0.017064 
3776.621728  	-0.016841 
3778.550544  	-0.018463 
3780.479360  	-0.019885 
3782.408176  	-0.017967 
3784.336992  	-0.017850 
3786.265808  	-0.017780 
3788.194624  	-0.017392 
3790.123440  	-0.017484 
3792.052256  	-0.017506 
3793.981072  	-0.017276 
3795.909888  	-0.018744 
3797.838704  	-0.018761 
3799.767520  	-0.018920 
3801.696336  	-0.024244 
3803.625152  	-0.021860 
3805.553968  	-0.019694 
3807.482784  	-0.022031 
3809.411600  	-0.019374 
3811.340416  	-0.017298 
3813.269232  	-0.016744 
3815.198048  	-0.019642 
3817.126864  	-0.021706 
3819.055680  	-0.019327 
3820.984496  	-0.023298 
3822.913312  	-0.022580 
3824.842128  	-0.018857 
3826.770944  	-0.019233 
3828.699760  	-0.018351 
3830.628576  	-0.018326 
3832.557392  	-0.019415 
3834.486208  	-0.019132 
3836.415024  	-0.020280 
3838.343840  	-0.022309 
3840.272656  	-0.021488 
3842.201472  	-0.019685 
3844.130288  	-0.019236 
3846.059104  	-0.018050 
3847.987920  	-0.016751 
3849.916736  	-0.016338 
3851.845552  	-0.018710 
3853.774368  	-0.026082 
3855.703184  	-0.023172 
3857.632000  	-0.018952 
3859.560816  	-0.016942 
3861.489632  	-0.016816 
3863.418448  	-0.018015 
3865.347264  	-0.018969 
3867.276080  	-0.017077 
3869.204896  	-0.018220 
3871.133712  	-0.019602 
3873.062528  	-0.018080 
3874.991344  	-0.019118 
3876.920160  	-0.017175 
3878.848976  	-0.015921 
3880.777792  	-0.017260 
3882.706608  	-0.016602 
3884.635424  	-0.016432 
3886.564240  	-0.018630 
3888.493056  	-0.017336 
3890.421872  	-0.017490 
3892.350688  	-0.018925 
3894.279504  	-0.017539 
3896.208320  	-0.015929 
3898.137136  	-0.015447 
3900.065952  	-0.015923 
3901.994768  	-0.015998 
3903.923584  	-0.017477 
3905.852400  	-0.018356 
3907.781216  	-0.017838 
3909.710032  	-0.017459 
3911.638848  	-0.017238 
3913.567664  	-0.016641 
3915.496480  	-0.015766 
3917.425296  	-0.016119 
3919.354112  	-0.016734 
3921.282928  	-0.016633 
3923.211744  	-0.015926 
3925.140560  	-0.016299 
3927.069376  	-0.016795 
3928.998192  	-0.016386 
3930.927008  	-0.015574 
3932.855824  	-0.015805 
3934.784640  	-0.016775 
3936.713456  	-0.017024 
3938.642272  	-0.016730 
3940.571088  	-0.016085 
3942.499904  	-0.015728 
3944.428720  	-0.016209 
3946.357536  	-0.015973 
3948.286352  	-0.015622 
3950.215168  	-0.016472 
3952.143984  	-0.017436 
3954.072800  	-0.017584 
3956.001616  	-0.017240 
3957.930432  	-0.017170 
3959.859248  	-0.017015 
3961.788064  	-0.016829 
3963.716880  	-0.017220 
3965.645696  	-0.017627 
3967.574512  	-0.017414 
3969.503328  	-0.017073 
3971.432144  	-0.017159 
3973.360960  	-0.017173 
3975.289776  	-0.016931 
3977.218592  	-0.017032 
3979.147408  	-0.017210 
3981.076224  	-0.017198 
3983.005040  	-0.017264 
3984.933856  	-0.017302 
3986.862672  	-0.017316 
3988.791488  	-0.016973 
3990.720304  	-0.016666 
3992.649120  	-0.016917 
3994.577936  	-0.017207 
3996.506752  	-0.017246 
3998.435568  	-0.017207 
4000.364384  	-0.017177 