##TITLE=No Description
##DATA TYPE=INFRARED SPECTRUM
##XUNITS=1/CM
##YUNITS=Abs
399.264912  	0.582589 
401.193728  	0.607353 
403.122544  	0.621428 
405.051360  	0.609612 
406.980176  	0.605269 
408.908992  	0.599206 
410.837808  	0.603600 
412.766624  	0.598191 
414.695440  	0.595567 
416.624256  	0.585025 
418.553072  	0.586789 
420.481888  	0.579800 
422.410704  	0.578616 
424.339520  	0.573619 
426.268336  	0.576560 
428.197152  	0.565152 
430.125968  	0.557462 
432.054784  	0.551909 
433.983600  	0.555978 
435.912416  	0.558430 
437.841232  	0.560858 
439.770048  	0.556732 
441.698864  	0.555521 
443.627680  	0.551201 
445.556496  	0.549920 
447.485312  	0.545008 
449.414128  	0.540874 
451.342944  	0.540732 
453.271760  	0.541867 
455.200576  	0.540819 
457.129392  	0.543174 
459.058208  	0.536666 
460.987024  	0.539219 
462.915840  	0.539782 
464.844656  	0.544478 
466.773472  	0.542290 
468.702288  	0.541601 
470.631104  	0.533216 
472.559920  	0.533267 
474.488736  	0.535125 
476.417552  	0.536114 
478.346368  	0.534390 
480.275184  	0.536502 
482.204000  	0.532655 
484.132816  	0.529676 
486.061632  	0.526260 
487.990448  	0.527923 
489.919264  	0.526791 
491.848080  	0.526881 
493.776896  	0.523888 
495.705712  	0.525238 
497.634528  	0.524578 
499.563344  	0.521527 
501.492160  	0.516530 
503.420976  	0.519724 
505.349792  	0.518411 
507.278608  	0.519204 
509.207424  	0.521485 
511.136240  	0.524886 
513.065056  	0.525344 
514.993872  	0.527636 
516.922688  	0.527332 
518.851504  	0.530402 
520.780320  	0.527876 
522.709136  	0.524612 
524.637952  	0.522915 
526.566768  	0.524003 
528.495584  	0.520875 
530.424400  	0.519158 
532.353216  	0.513736 
534.282032  	0.508784 
536.210848  	0.502548 
538.139664  	0.496938 
540.068480  	0.491951 
541.997296  	0.488466 
543.926112  	0.482122 
545.854928  	0.479044 
547.783744  	0.475390 
549.712560  	0.471894 
551.641376  	0.467723 
553.570192  	0.464714 
555.499008  	0.459940 
557.427824  	0.456755 
559.356640  	0.452949 
561.285456  	0.449697 
563.214272  	0.445368 
565.143088  	0.442213 
567.071904  	0.437722 
569.000720  	0.434379 
570.929536  	0.432621 
572.858352  	0.430661 
574.787168  	0.427393 
576.715984  	0.424400 
578.644800  	0.420464 
580.573616  	0.416407 
582.502432  	0.411337 
584.431248  	0.408205 
586.360064  	0.405150 
588.288880  	0.403217 
590.217696  	0.399961 
592.146512  	0.397546 
594.075328  	0.394864 
596.004144  	0.392940 
597.932960  	0.390991 
599.861776  	0.388972 
601.790592  	0.386376 
603.719408  	0.385178 
605.648224  	0.384472 
607.577040  	0.384044 
609.505856  	0.382379 
611.434672  	0.380177 
613.363488  	0.377498 
615.292304  	0.376613 
617.221120  	0.375325 
619.149936  	0.373507 
621.078752  	0.371270 
623.007568  	0.370504 
624.936384  	0.369205 
626.865200  	0.367887 
628.794016  	0.366303 
630.722832  	0.365286 
632.651648  	0.364971 
634.580464  	0.365372 
636.509280  	0.365817 
638.438096  	0.365813 
640.366912  	0.364529 
642.295728  	0.362617 
644.224544  	0.359608 
646.153360  	0.356861 
648.082176  	0.353157 
650.010992  	0.349072 
651.939808  	0.345040 
653.868624  	0.341928 
655.797440  	0.337715 
657.726256  	0.333895 
659.655072  	0.330014 
661.583888  	0.325408 
663.512704  	0.321369 
665.441520  	0.318475 
667.370336  	0.312286 
669.299152  	0.305675 
671.227968  	0.304338 
673.156784  	0.301569 
675.085600  	0.298395 
677.014416  	0.295622 
678.943232  	0.293419 
680.872048  	0.292117 
682.800864  	0.290408 
684.729680  	0.288712 
686.658496  	0.287405 
688.587312  	0.285971 
690.516128  	0.284457 
692.444944  	0.283984 
694.373760  	0.282903 
696.302576  	0.280891 
698.231392  	0.278824 
700.160208  	0.276315 
702.089024  	0.273717 
704.017840  	0.271243 
705.946656  	0.268774 
707.875472  	0.266497 
709.804288  	0.264065 
711.733104  	0.262236 
713.661920  	0.260529 
715.590736  	0.259021 
717.519552  	0.258274 
719.448368  	0.258095 
721.377184  	0.258212 
723.306000  	0.259260 
725.234816  	0.259972 
727.163632  	0.259593 
729.092448  	0.257180 
731.021264  	0.253750 
732.950080  	0.250218 
734.878896  	0.247192 
736.807712  	0.244324 
738.736528  	0.241606 
740.665344  	0.238967 
742.594160  	0.237468 
744.522976  	0.236297 
746.451792  	0.234680 
748.380608  	0.232862 
750.309424  	0.231902 
752.238240  	0.230922 
754.167056  	0.229882 
756.095872  	0.228437 
758.024688  	0.227353 
759.953504  	0.227150 
761.882320  	0.228038 
763.811136  	0.228817 
765.739952  	0.227839 
767.668768  	0.225098 
769.597584  	0.222622 
771.526400  	0.221429 
773.455216  	0.222573 
775.384032  	0.226192 
777.312848  	0.231292 
779.241664  	0.235473 
781.170480  	0.235912 
783.099296  	0.232355 
785.028112  	0.226795 
786.956928  	0.220669 
788.885744  	0.215418 
790.814560  	0.211535 
792.743376  	0.209046 
794.672192  	0.208072 
796.601008  	0.207428 
798.529824  	0.204400 
800.458640  	0.199538 
802.387456  	0.195732 
804.316272  	0.193775 
806.245088  	0.192618 
808.173904  	0.191830 
810.102720  	0.191516 
812.031536  	0.191387 
813.960352  	0.191667 
815.889168  	0.192118 
817.817984  	0.192293 
819.746800  	0.192405 
821.675616  	0.192639 
823.604432  	0.192716 
825.533248  	0.192360 
827.462064  	0.192006 
829.390880  	0.191324 
831.319696  	0.190300 
833.248512  	0.188232 
835.177328  	0.185792 
837.106144  	0.183107 
839.034960  	0.180004 
840.963776  	0.176314 
842.892592  	0.172456 
844.821408  	0.169180 
846.750224  	0.166134 
848.679040  	0.163412 
850.607856  	0.161289 
852.536672  	0.159675 
854.465488  	0.158105 
856.394304  	0.156869 
858.323120  	0.155585 
860.251936  	0.153715 
862.180752  	0.151463 
864.109568  	0.148870 
866.038384  	0.146459 
867.967200  	0.144353 
869.896016  	0.142447 
871.824832  	0.141314 
873.753648  	0.141106 
875.682464  	0.141878 
877.611280  	0.142649 
879.540096  	0.143470 
881.468912  	0.145558 
883.397728  	0.147242 
885.326544  	0.148404 
887.255360  	0.148688 
889.184176  	0.147480 
891.112992  	0.145477 
893.041808  	0.143826 
894.970624  	0.141432 
896.899440  	0.137921 
898.828256  	0.133568 
900.757072  	0.129311 
902.685888  	0.125919 
904.614704  	0.124121 
906.543520  	0.123956 
908.472336  	0.125176 
910.401152  	0.127658 
912.329968  	0.130735 
914.258784  	0.133795 
916.187600  	0.136590 
918.116416  	0.139141 
920.045232  	0.140874 
921.974048  	0.141800 
923.902864  	0.142319 
925.831680  	0.142202 
927.760496  	0.142017 
929.689312  	0.142252 
931.618128  	0.143109 
933.546944  	0.143641 
935.475760  	0.143807 
937.404576  	0.143635 
939.333392  	0.143197 
941.262208  	0.143180 
943.191024  	0.144726 
945.119840  	0.148462 
947.048656  	0.154435 
948.977472  	0.162469 
950.906288  	0.172261 
952.835104  	0.183359 
954.763920  	0.195095 
956.692736  	0.206189 
958.621552  	0.215629 
960.550368  	0.222072 
962.479184  	0.225276 
964.408000  	0.224350 
966.336816  	0.219425 
968.265632  	0.210713 
970.194448  	0.199129 
972.123264  	0.185746 
974.052080  	0.171734 
975.980896  	0.158013 
977.909712  	0.145237 
979.838528  	0.133768 
981.767344  	0.124204 
983.696160  	0.117042 
985.624976  	0.112424 
987.553792  	0.110586 
989.482608  	0.111513 
991.411424  	0.114789 
993.340240  	0.119783 
995.269056  	0.126008 
997.197872  	0.132798 
999.126688  	0.139853 
1001.055504  	0.147046 
1002.984320  	0.154264 
1004.913136  	0.161110 
1006.841952  	0.167645 
1008.770768  	0.173593 
1010.699584  	0.177806 
1012.628400  	0.180292 
1014.557216  	0.181214 
1016.486032  	0.181419 
1018.414848  	0.181227 
1020.343664  	0.180938 
1022.272480  	0.180196 
1024.201296  	0.178906 
1026.130112  	0.175957 
1028.058928  	0.174964 
1029.987744  	0.178070 
1031.916560  	0.180322 
1033.845376  	0.181883 
1035.774192  	0.183553 
1037.703008  	0.186760 
1039.631824  	0.193683 
1041.560640  	0.203207 
1043.489456  	0.215853 
1045.418272  	0.231399 
1047.347088  	0.248642 
1049.275904  	0.264456 
1051.204720  	0.276918 
1053.133536  	0.284393 
1055.062352  	0.287773 
1056.991168  	0.287379 
1058.919984  	0.288030 
1060.848800  	0.288587 
1062.777616  	0.286084 
1064.706432  	0.279985 
1066.635248  	0.274979 
1068.564064  	0.272892 
1070.492880  	0.267813 
1072.421696  	0.259818 
1074.350512  	0.254034 
1076.279328  	0.252126 
1078.208144  	0.254808 
1080.136960  	0.260697 
1082.065776  	0.267092 
1083.994592  	0.271212 
1085.923408  	0.272151 
1087.852224  	0.269485 
1089.781040  	0.264482 
1091.709856  	0.257841 
1093.638672  	0.249030 
1095.567488  	0.237110 
1097.496304  	0.223872 
1099.425120  	0.210073 
1101.353936  	0.196380 
1103.282752  	0.182765 
1105.211568  	0.169938 
1107.140384  	0.157662 
1109.069200  	0.146122 
1110.998016  	0.135478 
1112.926832  	0.125807 
1114.855648  	0.116971 
1116.784464  	0.108767 
1118.713280  	0.101199 
1120.642096  	0.093918 
1122.570912  	0.087057 
1124.499728  	0.080658 
1126.428544  	0.075069 
1128.357360  	0.070030 
1130.286176  	0.065853 
1132.214992  	0.062484 
1134.143808  	0.059700 
1136.072624  	0.057267 
1138.001440  	0.055213 
1139.930256  	0.053030 
1141.859072  	0.050559 
1143.787888  	0.047942 
1145.716704  	0.045694 
1147.645520  	0.043551 
1149.574336  	0.041756 
1151.503152  	0.040280 
1153.431968  	0.039732 
1155.360784  	0.039929 
1157.289600  	0.040816 
1159.218416  	0.042342 
1161.147232  	0.044504 
1163.076048  	0.046713 
1165.004864  	0.049030 
1166.933680  	0.051222 
1168.862496  	0.053816 
1170.791312  	0.056488 
1172.720128  	0.059494 
1174.648944  	0.062225 
1176.577760  	0.065166 
1178.506576  	0.068067 
1180.435392  	0.071047 
1182.364208  	0.073948 
1184.293024  	0.077317 
1186.221840  	0.080845 
1188.150656  	0.084583 
1190.079472  	0.088978 
1192.008288  	0.094750 
1193.937104  	0.101596 
1195.865920  	0.109451 
1197.794736  	0.118233 
1199.723552  	0.127817 
1201.652368  	0.137556 
1203.581184  	0.147286 
1205.510000  	0.156914 
1207.438816  	0.166338 
1209.367632  	0.175204 
1211.296448  	0.182757 
1213.225264  	0.189163 
1215.154080  	0.194199 
1217.082896  	0.197770 
1219.011712  	0.200020 
1220.940528  	0.201877 
1222.869344  	0.202804 
1224.798160  	0.203043 
1226.726976  	0.202374 
1228.655792  	0.201367 
1230.584608  	0.199539 
1232.513424  	0.197250 
1234.442240  	0.194309 
1236.371056  	0.190371 
1238.299872  	0.185301 
1240.228688  	0.178016 
1242.157504  	0.170405 
1244.086320  	0.164020 
1246.015136  	0.156204 
1247.943952  	0.147354 
1249.872768  	0.138628 
1251.801584  	0.131108 
1253.730400  	0.123646 
1255.659216  	0.116219 
1257.588032  	0.109158 
1259.516848  	0.102540 
1261.445664  	0.096354 
1263.374480  	0.090811 
1265.303296  	0.086138 
1267.232112  	0.082287 
1269.160928  	0.079354 
1271.089744  	0.077210 
1273.018560  	0.075926 
1274.947376  	0.075490 
1276.876192  	0.075650 
1278.805008  	0.075441 
1280.733824  	0.074228 
1282.662640  	0.072095 
1284.591456  	0.069651 
1286.520272  	0.067535 
1288.449088  	0.066066 
1290.377904  	0.065367 
1292.306720  	0.065537 
1294.235536  	0.065664 
1296.164352  	0.064806 
1298.093168  	0.062480 
1300.021984  	0.059478 
1301.950800  	0.056259 
1303.879616  	0.053141 
1305.808432  	0.049822 
1307.737248  	0.046523 
1309.666064  	0.043277 
1311.594880  	0.040786 
1313.523696  	0.038911 
1315.452512  	0.037672 
1317.381328  	0.036912 
1319.310144  	0.036753 
1321.238960  	0.036884 
1323.167776  	0.037569 
1325.096592  	0.038461 
1327.025408  	0.039118 
1328.954224  	0.039204 
1330.883040  	0.038785 
1332.811856  	0.037900 
1334.740672  	0.037307 
1336.669488  	0.037068 
1338.598304  	0.037065 
1340.527120  	0.035982 
1342.455936  	0.034525 
1344.384752  	0.034024 
1346.313568  	0.034212 
1348.242384  	0.034819 
1350.171200  	0.036075 
1352.100016  	0.037667 
1354.028832  	0.039516 
1355.957648  	0.041419 
1357.886464  	0.043507 
1359.815280  	0.045789 
1361.744096  	0.048112 
1363.672912  	0.049773 
1365.601728  	0.051052 
1367.530544  	0.052368 
1369.459360  	0.053003 
1371.388176  	0.052851 
1373.316992  	0.051674 
1375.245808  	0.048614 
1377.174624  	0.045876 
1379.103440  	0.042882 
1381.032256  	0.039747 
1382.961072  	0.037559 
1384.889888  	0.036772 
1386.818704  	0.036139 
1388.747520  	0.034343 
1390.676336  	0.031821 
1392.605152  	0.028383 
1394.533968  	0.026602 
1396.462784  	0.029378 
1398.391600  	0.030488 
1400.320416  	0.030055 
1402.249232  	0.030125 
1404.178048  	0.030668 
1406.106864  	0.031417 
1408.035680  	0.033157 
1409.964496  	0.035585 
1411.893312  	0.038539 
1413.822128  	0.041512 
1415.750944  	0.045012 
1417.679760  	0.047467 
1419.608576  	0.047821 
1421.537392  	0.048169 
1423.466208  	0.048084 
1425.395024  	0.046484 
1427.323840  	0.045000 
1429.252656  	0.042550 
1431.181472  	0.040772 
1433.110288  	0.040597 
1435.039104  	0.041144 
1436.967920  	0.041060 
1438.896736  	0.041833 
1440.825552  	0.042752 
1442.754368  	0.043361 
1444.683184  	0.043547 
1446.612000  	0.043449 
1448.540816  	0.042645 
1450.469632  	0.043050 
1452.398448  	0.043836 
1454.327264  	0.044560 
1456.256080  	0.043945 
1458.184896  	0.042373 
1460.113712  	0.043519 
1462.042528  	0.044624 
1463.971344  	0.044224 
1465.900160  	0.044877 
1467.828976  	0.047388 
1469.757792  	0.050425 
1471.686608  	0.053516 
1473.615424  	0.059790 
1475.544240  	0.066416 
1477.473056  	0.072298 
1479.401872  	0.076472 
1481.330688  	0.079945 
1483.259504  	0.082145 
1485.188320  	0.083655 
1487.117136  	0.083710 
1489.045952  	0.083156 
1490.974768  	0.080332 
1492.903584  	0.078031 
1494.832400  	0.074454 
1496.761216  	0.067962 
1498.690032  	0.061840 
1500.618848  	0.057558 
1502.547664  	0.053422 
1504.476480  	0.048938 
1506.405296  	0.042440 
1508.334112  	0.040198 
1510.262928  	0.040029 
1512.191744  	0.038141 
1514.120560  	0.036961 
1516.049376  	0.036318 
1517.978192  	0.035854 
1519.907008  	0.037040 
1521.835824  	0.038206 
1523.764640  	0.042469 
1525.693456  	0.046562 
1527.622272  	0.048904 
1529.551088  	0.049622 
1531.479904  	0.049051 
1533.408720  	0.045283 
1535.337536  	0.042163 
1537.266352  	0.039884 
1539.195168  	0.032978 
1541.123984  	0.026845 
1543.052800  	0.028499 
1544.981616  	0.028571 
1546.910432  	0.027956 
1548.839248  	0.028036 
1550.768064  	0.028256 
1552.696880  	0.028064 
1554.625696  	0.028496 
1556.554512  	0.028498 
1558.483328  	0.027250 
1560.412144  	0.032379 
1562.340960  	0.038546 
1564.269776  	0.042322 
1566.198592  	0.047707 
1568.127408  	0.051852 
1570.056224  	0.057594 
1571.985040  	0.064714 
1573.913856  	0.069287 
1575.842672  	0.070688 
1577.771488  	0.073992 
1579.700304  	0.075741 
1581.629120  	0.075493 
1583.557936  	0.074886 
1585.486752  	0.075740 
1587.415568  	0.078016 
1589.344384  	0.082473 
1591.273200  	0.088415 
1593.202016  	0.095834 
1595.130832  	0.103846 
1597.059648  	0.112318 
1598.988464  	0.119375 
1600.917280  	0.125638 
1602.846096  	0.129755 
1604.774912  	0.132468 
1606.703728  	0.132752 
1608.632544  	0.131894 
1610.561360  	0.129837 
1612.490176  	0.128288 
1614.418992  	0.125850 
1616.347808  	0.123076 
1618.276624  	0.124182 
1620.205440  	0.128329 
1622.134256  	0.131034 
1624.063072  	0.137013 
1625.991888  	0.144175 
1627.920704  	0.152556 
1629.849520  	0.162663 
1631.778336  	0.172422 
1633.707152  	0.179246 
1635.635968  	0.187321 
1637.564784  	0.198413 
1639.493600  	0.206765 
1641.422416  	0.212243 
1643.351232  	0.216265 
1645.280048  	0.216694 
1647.208864  	0.216435 
1649.137680  	0.218091 
1651.066496  	0.218412 
1652.995312  	0.211456 
1654.924128  	0.210747 
1656.852944  	0.211158 
1658.781760  	0.209005 
1660.710576  	0.205093 
1662.639392  	0.199532 
1664.568208  	0.195264 
1666.497024  	0.192530 
1668.425840  	0.186695 
1670.354656  	0.179429 
1672.283472  	0.175994 
1674.212288  	0.172787 
1676.141104  	0.168005 
1678.069920  	0.166812 
1679.998736  	0.165584 
1681.927552  	0.163794 
1683.856368  	0.159001 
1685.785184  	0.158510 
1687.714000  	0.160332 
1689.642816  	0.159894 
1691.571632  	0.158265 
1693.500448  	0.156804 
1695.429264  	0.152660 
1697.358080  	0.149708 
1699.286896  	0.147219 
1701.215712  	0.142606 
1703.144528  	0.141936 
1705.073344  	0.137698 
1707.002160  	0.131852 
1708.930976  	0.127448 
1710.859792  	0.121266 
1712.788608  	0.114054 
1714.717424  	0.105217 
1716.646240  	0.093989 
1718.575056  	0.080470 
1720.503872  	0.072477 
1722.432688  	0.065541 
1724.361504  	0.056125 
1726.290320  	0.048229 
1728.219136  	0.041574 
1730.147952  	0.035667 
1732.076768  	0.030646 
1734.005584  	0.024389 
1735.934400  	0.019652 
1737.863216  	0.018912 
1739.792032  	0.015471 
1741.720848  	0.014281 
1743.649664  	0.013541 
1745.578480  	0.012575 
1747.507296  	0.010938 
1749.436112  	0.010122 
1751.364928  	0.009106 
1753.293744  	0.008563 
1755.222560  	0.008004 
1757.151376  	0.007426 
1759.080192  	0.006896 
1761.009008  	0.006392 
1762.937824  	0.005266 
1764.866640  	0.005479 
1766.795456  	0.005542 
1768.724272  	0.005151 
1770.653088  	0.003297 
1772.581904  	0.001482 
1774.510720  	0.002317 
1776.439536  	0.003424 
1778.368352  	0.003500 
1780.297168  	0.003186 
1782.225984  	0.002707 
1784.154800  	0.003007 
1786.083616  	0.002515 
1788.012432  	0.002530 
1789.941248  	0.002562 
1791.870064  	0.001771 
1793.798880  	0.000908 
1795.727696  	0.001862 
1797.656512  	0.001464 
1799.585328  	0.001329 
1801.514144  	0.001647 
1803.442960  	0.001622 
1805.371776  	0.001064 
1807.300592  	0.001203 
1809.229408  	0.000627 
1811.158224  	0.000406 
1813.087040  	0.000346 
1815.015856  	0.000636 
1816.944672  	0.000728 
1818.873488  	0.000878 
1820.802304  	0.000676 
1822.731120  	0.001055 
1824.659936  	0.000408 
1826.588752  	-0.000109 
1828.517568  	-0.000775 
1830.446384  	-0.000790 
1832.375200  	-0.000157 
1834.304016  	0.000247 
1836.232832  	0.000098 
1838.161648  	0.000212 
1840.090464  	-0.000046 
1842.019280  	0.000241 
1843.948096  	-0.000564 
1845.876912  	-0.000252 
1847.805728  	0.000254 
1849.734544  	0.000187 
1851.663360  	-0.000276 
1853.592176  	-0.000219 
1855.520992  	-0.000275 
1857.449808  	0.000054 
1859.378624  	-0.000163 
1861.307440  	-0.000284 
1863.236256  	-0.000569 
1865.165072  	-0.000289 
1867.093888  	-0.000522 
1869.022704  	-0.000559 
1870.951520  	-0.000578 
1872.880336  	-0.000380 
1874.809152  	-0.000905 
1876.737968  	-0.001023 
1878.666784  	-0.001203 
1880.595600  	-0.000488 
1882.524416  	-0.000562 
1884.453232  	-0.000538 
1886.382048  	-0.000761 
1888.310864  	-0.000598 
1890.239680  	-0.000845 
1892.168496  	-0.000463 
1894.097312  	-0.000650 
1896.026128  	-0.000491 
1897.954944  	-0.000796 
1899.883760  	-0.000788 
1901.812576  	-0.001137 
1903.741392  	-0.001170 
1905.670208  	-0.001067 
1907.599024  	-0.000524 
1909.527840  	-0.000781 
1911.456656  	-0.000773 
1913.385472  	-0.001086 
1915.314288  	-0.000496 
1917.243104  	-0.000634 
1919.171920  	-0.000713 
1921.100736  	-0.001130 
1923.029552  	-0.000735 
1924.958368  	-0.000952 
1926.887184  	-0.000985 
1928.816000  	-0.001215 
1930.744816  	-0.001137 
1932.673632  	-0.001627 
1934.602448  	-0.001370 
1936.531264  	-0.001308 
1938.460080  	-0.000824 
1940.388896  	-0.001221 
1942.317712  	-0.001049 
1944.246528  	-0.001658 
1946.175344  	-0.000945 
1948.104160  	-0.000768 
1950.032976  	-0.000737 
1951.961792  	-0.001388 
1953.890608  	-0.000943 
1955.819424  	-0.000950 
1957.748240  	-0.000298 
1959.677056  	-0.001460 
1961.605872  	-0.001675 
1963.534688  	-0.001762 
1965.463504  	-0.000625 
1967.392320  	-0.001220 
1969.321136  	-0.001306 
1971.249952  	-0.000842 
1973.178768  	0.000784 
1975.107584  	-0.000269 
1977.036400  	-0.000145 
1978.965216  	0.001461 
1980.894032  	0.001367 
1982.822848  	0.000002 
1984.751664  	0.000171 
1986.680480  	-0.001191 
1988.609296  	-0.000637 
1990.538112  	-0.000747 
1992.466928  	0.000058 
1994.395744  	-0.000973 
1996.324560  	-0.001311 
1998.253376  	-0.002023 
2000.182192  	-0.001712 
2002.111008  	-0.001192 
2004.039824  	-0.000397 
2005.968640  	-0.000851 
2007.897456  	-0.000055 
2009.826272  	-0.000310 
2011.755088  	-0.000372 
2013.683904  	-0.001290 
2015.612720  	-0.001267 
2017.541536  	-0.001365 
2019.470352  	-0.000288 
2021.399168  	-0.001108 
2023.327984  	-0.000515 
2025.256800  	0.000262 
2027.185616  	0.001440 
2029.114432  	0.001020 
2031.043248  	0.000858 
2032.972064  	0.000207 
2034.900880  	0.000657 
2036.829696  	-0.000541 
2038.758512  	0.000546 
2040.687328  	0.000072 
2042.616144  	0.000285 
2044.544960  	0.000962 
2046.473776  	0.001574 
2048.402592  	0.000927 
2050.331408  	0.000521 
2052.260224  	-0.000537 
2054.189040  	-0.000853 
2056.117856  	-0.001153 
2058.046672  	-0.000637 
2059.975488  	-0.000617 
2061.904304  	-0.000731 
2063.833120  	-0.000774 
2065.761936  	-0.000279 
2067.690752  	-0.000501 
2069.619568  	-0.000376 
2071.548384  	-0.000283 
2073.477200  	0.000002 
2075.406016  	-0.000042 
2077.334832  	0.000041 
2079.263648  	0.000088 
2081.192464  	0.000524 
2083.121280  	0.000300 
2085.050096  	0.000193 
2086.978912  	0.000069 
2088.907728  	0.000100 
2090.836544  	-0.000339 
2092.765360  	-0.000056 
2094.694176  	0.000052 
2096.622992  	0.000117 
2098.551808  	0.000009 
2100.480624  	0.000356 
2102.409440  	0.000183 
2104.338256  	-0.000074 
2106.267072  	0.000103 
2108.195888  	0.000727 
2110.124704  	0.000552 
2112.053520  	0.000588 
2113.982336  	0.000504 
2115.911152  	0.000591 
2117.839968  	0.000503 
2119.768784  	0.000244 
2121.697600  	-0.000414 
2123.626416  	-0.000332 
2125.555232  	-0.000386 
2127.484048  	-0.000395 
2129.412864  	-0.000651 
2131.341680  	-0.000578 
2133.270496  	-0.000816 
2135.199312  	-0.000373 
2137.128128  	0.000351 
2139.056944  	0.001201 
2140.985760  	0.000578 
2142.914576  	0.000433 
2144.843392  	0.000660 
2146.772208  	0.001083 
2148.701024  	-0.000078 
2150.629840  	0.000470 
2152.558656  	0.000945 
2154.487472  	0.000383 
2156.416288  	-0.000358 
2158.345104  	0.000886 
2160.273920  	0.003285 
2162.202736  	0.004177 
2164.131552  	0.003381 
2166.060368  	0.003055 
2167.989184  	0.003249 
2169.918000  	0.004015 
2171.846816  	0.002469 
2173.775632  	0.002412 
2175.704448  	0.002829 
2177.633264  	0.002806 
2179.562080  	0.001755 
2181.490896  	0.001390 
2183.419712  	0.001028 
2185.348528  	0.001192 
2187.277344  	0.001339 
2189.206160  	0.001167 
2191.134976  	0.000721 
2193.063792  	0.001314 
2194.992608  	0.001471 
2196.921424  	0.001451 
2198.850240  	0.001136 
2200.779056  	0.001330 
2202.707872  	0.000860 
2204.636688  	0.000647 
2206.565504  	0.000905 
2208.494320  	0.001071 
2210.423136  	0.000878 
2212.351952  	0.000598 
2214.280768  	0.000146 
2216.209584  	0.000224 
2218.138400  	-0.000205 
2220.067216  	0.000467 
2221.996032  	0.000698 
2223.924848  	0.001186 
2225.853664  	0.001370 
2227.782480  	0.001183 
2229.711296  	0.000377 
2231.640112  	0.000126 
2233.568928  	-0.000267 
2235.497744  	-0.000060 
2237.426560  	-0.000309 
2239.355376  	-0.000308 
2241.284192  	-0.000076 
2243.213008  	0.000154 
2245.141824  	-0.000288 
2247.070640  	-0.000246 
2248.999456  	-0.000382 
2250.928272  	-0.000617 
2252.857088  	-0.000706 
2254.785904  	-0.000869 
2256.714720  	-0.001438 
2258.643536  	-0.001270 
2260.572352  	-0.001121 
2262.501168  	-0.001019 
2264.429984  	-0.001124 
2266.358800  	-0.000845 
2268.287616  	-0.000626 
2270.216432  	-0.000588 
2272.145248  	-0.000697 
2274.074064  	-0.000755 
2276.002880  	-0.000749 
2277.931696  	-0.000521 
2279.860512  	-0.000352 
2281.789328  	-0.000170 
2283.718144  	-0.000290 
2285.646960  	-0.000268 
2287.575776  	-0.000242 
2289.504592  	-0.000331 
2291.433408  	-0.000590 
2293.362224  	-0.000339 
2295.291040  	-0.000080 
2297.219856  	0.000187 
2299.148672  	-0.000127 
2301.077488  	-0.000212 
2303.006304  	-0.000063 
2304.935120  	0.000239 
2306.863936  	0.000149 
2308.792752  	-0.000176 
2310.721568  	-0.000642 
2312.650384  	-0.001075 
2314.579200  	-0.001757 
2316.508016  	-0.002758 
2318.436832  	-0.003756 
2320.365648  	-0.004828 
2322.294464  	-0.005995 
2324.223280  	-0.007047 
2326.152096  	-0.008729 
2328.080912  	-0.010225 
2330.009728  	-0.011770 
2331.938544  	-0.013486 
2333.867360  	-0.014552 
2335.796176  	-0.015080 
2337.724992  	-0.016334 
2339.653808  	-0.016821 
2341.582624  	-0.016797 
2343.511440  	-0.015660 
2345.440256  	-0.013220 
2347.369072  	-0.009109 
2349.297888  	-0.007105 
2351.226704  	-0.009477 
2353.155520  	-0.013954 
2355.084336  	-0.017577 
2357.013152  	-0.020506 
2358.941968  	-0.022096 
2360.870784  	-0.022956 
2362.799600  	-0.022471 
2364.728416  	-0.021301 
2366.657232  	-0.018738 
2368.586048  	-0.015654 
2370.514864  	-0.012574 
2372.443680  	-0.009806 
2374.372496  	-0.007106 
2376.301312  	-0.004532 
2378.230128  	-0.002448 
2380.158944  	-0.001363 
2382.087760  	-0.000861 
2384.016576  	-0.000804 
2385.945392  	-0.000931 
2387.874208  	-0.001127 
2389.803024  	-0.001373 
2391.731840  	-0.001565 
2393.660656  	-0.001526 
2395.589472  	-0.001582 
2397.518288  	-0.001359 
2399.447104  	-0.001389 
2401.375920  	-0.001485 
2403.304736  	-0.001659 
2405.233552  	-0.001586 
2407.162368  	-0.001598 
2409.091184  	-0.001391 
2411.020000  	-0.001410 
2412.948816  	-0.001445 
2414.877632  	-0.001438 
2416.806448  	-0.001247 
2418.735264  	-0.001254 
2420.664080  	-0.001279 
2422.592896  	-0.001300 
2424.521712  	-0.001307 
2426.450528  	-0.001443 
2428.379344  	-0.001356 
2430.308160  	-0.001194 
2432.236976  	-0.001015 
2434.165792  	-0.001103 
2436.094608  	-0.001200 
2438.023424  	-0.001113 
2439.952240  	-0.000865 
2441.881056  	-0.000962 
2443.809872  	-0.001121 
2445.738688  	-0.000868 
2447.667504  	-0.000572 
2449.596320  	-0.000661 
2451.525136  	-0.000428 
2453.453952  	-0.000445 
2455.382768  	-0.000715 
2457.311584  	-0.000835 
2459.240400  	-0.000857 
2461.169216  	-0.000863 
2463.098032  	-0.000994 
2465.026848  	-0.001008 
2466.955664  	-0.000954 
2468.884480  	-0.001159 
2470.813296  	-0.001090 
2472.742112  	-0.001102 
2474.670928  	-0.000920 
2476.599744  	-0.000886 
2478.528560  	-0.000846 
2480.457376  	-0.000909 
2482.386192  	-0.001007 
2484.315008  	-0.000886 
2486.243824  	-0.000793 
2488.172640  	-0.000728 
2490.101456  	-0.000472 
2492.030272  	-0.000304 
2493.959088  	-0.000307 
2495.887904  	-0.000323 
2497.816720  	-0.000295 
2499.745536  	-0.000212 
2501.674352  	-0.000030 
2503.603168  	0.000245 
2505.531984  	0.000313 
2507.460800  	0.000077 
2509.389616  	0.000074 
2511.318432  	0.000027 
2513.247248  	-0.000001 
2515.176064  	0.000094 
2517.104880  	0.000184 
2519.033696  	0.000068 
2520.962512  	0.000173 
2522.891328  	0.000438 
2524.820144  	0.000478 
2526.748960  	0.000386 
2528.677776  	0.000645 
2530.606592  	0.000629 
2532.535408  	0.000624 
2534.464224  	0.000607 
2536.393040  	0.000663 
2538.321856  	0.000664 
2540.250672  	0.000733 
2542.179488  	0.000714 
2544.108304  	0.000783 
2546.037120  	0.000805 
2547.965936  	0.000786 
2549.894752  	0.000861 
2551.823568  	0.000874 
2553.752384  	0.001036 
2555.681200  	0.001458 
2557.610016  	0.001486 
2559.538832  	0.001476 
2561.467648  	0.001741 
2563.396464  	0.001846 
2565.325280  	0.001843 
2567.254096  	0.001935 
2569.182912  	0.001942 
2571.111728  	0.001878 
2573.040544  	0.001806 
2574.969360  	0.001925 
2576.898176  	0.002210 
2578.826992  	0.002259 
2580.755808  	0.002348 
2582.684624  	0.002517 
2584.613440  	0.002630 
2586.542256  	0.002617 
2588.471072  	0.002515 
2590.399888  	0.002582 
2592.328704  	0.002706 
2594.257520  	0.002785 
2596.186336  	0.002988 
2598.115152  	0.003169 
2600.043968  	0.003097 
2601.972784  	0.003096 
2603.901600  	0.003210 
2605.830416  	0.003444 
2607.759232  	0.003581 
2609.688048  	0.003591 
2611.616864  	0.003691 
2613.545680  	0.003868 
2615.474496  	0.004057 
2617.403312  	0.004078 
2619.332128  	0.004169 
2621.260944  	0.004206 
2623.189760  	0.004168 
2625.118576  	0.004267 
2627.047392  	0.004399 
2628.976208  	0.004549 
2630.905024  	0.004640 
2632.833840  	0.004781 
2634.762656  	0.004853 
2636.691472  	0.004922 
2638.620288  	0.005008 
2640.549104  	0.005161 
2642.477920  	0.005301 
2644.406736  	0.005451 
2646.335552  	0.005640 
2648.264368  	0.005712 
2650.193184  	0.005746 
2652.122000  	0.005927 
2654.050816  	0.006184 
2655.979632  	0.006356 
2657.908448  	0.006468 
2659.837264  	0.006496 
2661.766080  	0.006476 
2663.694896  	0.006603 
2665.623712  	0.006744 
2667.552528  	0.006831 
2669.481344  	0.006902 
2671.410160  	0.007007 
2673.338976  	0.007193 
2675.267792  	0.007404 
2677.196608  	0.007573 
2679.125424  	0.007727 
2681.054240  	0.007900 
2682.983056  	0.008017 
2684.911872  	0.007959 
2686.840688  	0.008096 
2688.769504  	0.008245 
2690.698320  	0.008281 
2692.627136  	0.008338 
2694.555952  	0.008476 
2696.484768  	0.008639 
2698.413584  	0.008670 
2700.342400  	0.008664 
2702.271216  	0.008750 
2704.200032  	0.008985 
2706.128848  	0.009171 
2708.057664  	0.009278 
2709.986480  	0.009455 
2711.915296  	0.009494 
2713.844112  	0.009544 
2715.772928  	0.009661 
2717.701744  	0.009829 
2719.630560  	0.010026 
2721.559376  	0.010156 
2723.488192  	0.010288 
2725.417008  	0.010529 
2727.345824  	0.010674 
2729.274640  	0.010720 
2731.203456  	0.010820 
2733.132272  	0.011085 
2735.061088  	0.011248 
2736.989904  	0.011362 
2738.918720  	0.011476 
2740.847536  	0.011580 
2742.776352  	0.011590 
2744.705168  	0.011623 
2746.633984  	0.011698 
2748.562800  	0.011786 
2750.491616  	0.011835 
2752.420432  	0.011879 
2754.349248  	0.011856 
2756.278064  	0.011911 
2758.206880  	0.011825 
2760.135696  	0.011816 
2762.064512  	0.011872 
2763.993328  	0.011894 
2765.922144  	0.011868 
2767.850960  	0.011905 
2769.779776  	0.011932 
2771.708592  	0.011957 
2773.637408  	0.011888 
2775.566224  	0.011857 
2777.495040  	0.011805 
2779.423856  	0.011847 
2781.352672  	0.011800 
2783.281488  	0.011702 
2785.210304  	0.011708 
2787.139120  	0.011826 
2789.067936  	0.011859 
2790.996752  	0.011852 
2792.925568  	0.011726 
2794.854384  	0.011666 
2796.783200  	0.011653 
2798.712016  	0.011631 
2800.640832  	0.011560 
2802.569648  	0.011659 
2804.498464  	0.011711 
2806.427280  	0.011582 
2808.356096  	0.011582 
2810.284912  	0.011730 
2812.213728  	0.011780 
2814.142544  	0.011715 
2816.071360  	0.011674 
2818.000176  	0.011558 
2819.928992  	0.011455 
2821.857808  	0.011316 
2823.786624  	0.011195 
2825.715440  	0.011136 
2827.644256  	0.010954 
2829.573072  	0.010808 
2831.501888  	0.010551 
2833.430704  	0.010175 
2835.359520  	0.009827 
2837.288336  	0.009462 
2839.217152  	0.009172 
2841.145968  	0.008858 
2843.074784  	0.008387 
2845.003600  	0.007974 
2846.932416  	0.007606 
2848.861232  	0.007269 
2850.790048  	0.006837 
2852.718864  	0.006391 
2854.647680  	0.005937 
2856.576496  	0.005334 
2858.505312  	0.004749 
2860.434128  	0.004273 
2862.362944  	0.003591 
2864.291760  	0.002865 
2866.220576  	0.002312 
2868.149392  	0.001987 
2870.078208  	0.001790 
2872.007024  	0.001664 
2873.935840  	0.001738 
2875.864656  	0.001789 
2877.793472  	0.001727 
2879.722288  	0.001594 
2881.651104  	0.001215 
2883.579920  	0.001075 
2885.508736  	0.001309 
2887.437552  	0.001598 
2889.366368  	0.001688 
2891.295184  	0.001422 
2893.224000  	0.001245 
2895.152816  	0.001349 
2897.081632  	0.001020 
2899.010448  	-0.000658 
2900.939264  	-0.002164 
2902.868080  	-0.001073 
2904.796896  	0.000309 
2906.725712  	0.001050 
2908.654528  	0.001680 
2910.583344  	0.001972 
2912.512160  	0.002441 
2914.440976  	0.003529 
2916.369792  	0.004390 
2918.298608  	0.004961 
2920.227424  	0.005467 
2922.156240  	0.006161 
2924.085056  	0.007034 
2926.013872  	0.008149 
2927.942688  	0.009238 
2929.871504  	0.010146 
2931.800320  	0.011079 
2933.729136  	0.012046 
2935.657952  	0.012792 
2937.586768  	0.013499 
2939.515584  	0.014160 
2941.444400  	0.014372 
2943.373216  	0.014483 
2945.302032  	0.014920 
2947.230848  	0.015232 
2949.159664  	0.014969 
2951.088480  	0.014395 
2953.017296  	0.013864 
2954.946112  	0.013216 
2956.874928  	0.012534 
2958.803744  	0.011777 
2960.732560  	0.011137 
2962.661376  	0.010487 
2964.590192  	0.009545 
2966.519008  	0.008375 
2968.447824  	0.007490 
2970.376640  	0.006692 
2972.305456  	0.006146 
2974.234272  	0.006457 
2976.163088  	0.006717 
2978.091904  	0.006683 
2980.020720  	0.006677 
2981.949536  	0.006852 
2983.878352  	0.006630 
2985.807168  	0.005737 
2987.735984  	0.004887 
2989.664800  	0.005249 
2991.593616  	0.008271 
2993.522432  	0.010329 
2995.451248  	0.010843 
2997.380064  	0.011635 
2999.308880  	0.012758 
3001.237696  	0.014111 
3003.166512  	0.015606 
3005.095328  	0.017052 
3007.024144  	0.018464 
3008.952960  	0.019974 
3010.881776  	0.021509 
3012.810592  	0.022895 
3014.739408  	0.024127 
3016.668224  	0.025269 
3018.597040  	0.026594 
3020.525856  	0.027929 
3022.454672  	0.029057 
3024.383488  	0.030173 
3026.312304  	0.031209 
3028.241120  	0.032249 
3030.169936  	0.033263 
3032.098752  	0.034073 
3034.027568  	0.034822 
3035.956384  	0.035656 
3037.885200  	0.036694 
3039.814016  	0.037505 
3041.742832  	0.038125 
3043.671648  	0.038739 
3045.600464  	0.039509 
3047.529280  	0.040215 
3049.458096  	0.040919 
3051.386912  	0.041601 
3053.315728  	0.042158 
3055.244544  	0.042696 
3057.173360  	0.043500 
3059.102176  	0.044212 
3061.030992  	0.044864 
3062.959808  	0.045632 
3064.888624  	0.046376 
3066.817440  	0.047171 
3068.746256  	0.048232 
3070.675072  	0.049176 
3072.603888  	0.049942 
3074.532704  	0.050787 
3076.461520  	0.051660 
3078.390336  	0.052442 
3080.319152  	0.053128 
3082.247968  	0.053984 
3084.176784  	0.055012 
3086.105600  	0.055982 
3088.034416  	0.056813 
3089.963232  	0.057573 
3091.892048  	0.058310 
3093.820864  	0.059082 
3095.749680  	0.059815 
3097.678496  	0.060803 
3099.607312  	0.061826 
3101.536128  	0.062920 
3103.464944  	0.064079 
3105.393760  	0.064897 
3107.322576  	0.065646 
3109.251392  	0.066413 
3111.180208  	0.067030 
3113.109024  	0.067849 
3115.037840  	0.068803 
3116.966656  	0.069669 
3118.895472  	0.070470 
3120.824288  	0.071189 
3122.753104  	0.071750 
3124.681920  	0.072236 
3126.610736  	0.072993 
3128.539552  	0.073969 
3130.468368  	0.074641 
3132.397184  	0.075179 
3134.326000  	0.075890 
3136.254816  	0.076592 
3138.183632  	0.077311 
3140.112448  	0.078079 
3142.041264  	0.078742 
3143.970080  	0.079208 
3145.898896  	0.079882 
3147.827712  	0.080898 
3149.756528  	0.081575 
3151.685344  	0.081967 
3153.614160  	0.082715 
3155.542976  	0.083440 
3157.471792  	0.084075 
3159.400608  	0.084935 
3161.329424  	0.085666 
3163.258240  	0.086161 
3165.187056  	0.086744 
3167.115872  	0.087265 
3169.044688  	0.087698 
3170.973504  	0.088314 
3172.902320  	0.088984 
3174.831136  	0.089395 
3176.759952  	0.089760 
3178.688768  	0.090131 
3180.617584  	0.090602 
3182.546400  	0.091070 
3184.475216  	0.091188 
3186.404032  	0.091219 
3188.332848  	0.091561 
3190.261664  	0.091934 
3192.190480  	0.092020 
3194.119296  	0.091861 
3196.048112  	0.091972 
3197.976928  	0.092077 
3199.905744  	0.092011 
3201.834560  	0.091851 
3203.763376  	0.091723 
3205.692192  	0.091756 
3207.621008  	0.091657 
3209.549824  	0.091439 
3211.478640  	0.091517 
3213.407456  	0.091463 
3215.336272  	0.091250 
3217.265088  	0.091074 
3219.193904  	0.090888 
3221.122720  	0.090651 
3223.051536  	0.090452 
3224.980352  	0.090366 
3226.909168  	0.090159 
3228.837984  	0.089771 
3230.766800  	0.089651 
3232.695616  	0.089728 
3234.624432  	0.089694 
3236.553248  	0.089660 
3238.482064  	0.089699 
3240.410880  	0.089684 
3242.339696  	0.089703 
3244.268512  	0.089639 
3246.197328  	0.089753 
3248.126144  	0.090008 
3250.054960  	0.090209 
3251.983776  	0.090580 
3253.912592  	0.090766 
3255.841408  	0.090949 
3257.770224  	0.091303 
3259.699040  	0.091626 
3261.627856  	0.091929 
3263.556672  	0.092032 
3265.485488  	0.092077 
3267.414304  	0.092334 
3269.343120  	0.092795 
3271.271936  	0.092991 
3273.200752  	0.092963 
3275.129568  	0.092944 
3277.058384  	0.093363 
3278.987200  	0.093774 
3280.916016  	0.094027 
3282.844832  	0.094197 
3284.773648  	0.094480 
3286.702464  	0.094875 
3288.631280  	0.095110 
3290.560096  	0.095326 
3292.488912  	0.095685 
3294.417728  	0.095874 
3296.346544  	0.096204 
3298.275360  	0.096561 
3300.204176  	0.096983 
3302.132992  	0.097423 
3304.061808  	0.097661 
3305.990624  	0.098071 
3307.919440  	0.098358 
3309.848256  	0.098596 
3311.777072  	0.099143 
3313.705888  	0.099644 
3315.634704  	0.100077 
3317.563520  	0.100434 
3319.492336  	0.100637 
3321.421152  	0.100817 
3323.349968  	0.100963 
3325.278784  	0.101111 
3327.207600  	0.101209 
3329.136416  	0.101146 
3331.065232  	0.101356 
3332.994048  	0.101571 
3334.922864  	0.101642 
3336.851680  	0.101720 
3338.780496  	0.101546 
3340.709312  	0.101376 
3342.638128  	0.101235 
3344.566944  	0.100846 
3346.495760  	0.100606 
3348.424576  	0.100255 
3350.353392  	0.099821 
3352.282208  	0.099540 
3354.211024  	0.099433 
3356.139840  	0.098996 
3358.068656  	0.098637 
3359.997472  	0.098376 
3361.926288  	0.097971 
3363.855104  	0.097539 
3365.783920  	0.097113 
3367.712736  	0.096764 
3369.641552  	0.096403 
3371.570368  	0.095863 
3373.499184  	0.095463 
3375.428000  	0.094989 
3377.356816  	0.094685 
3379.285632  	0.094463 
3381.214448  	0.093903 
3383.143264  	0.093261 
3385.072080  	0.092806 
3387.000896  	0.092503 
3388.929712  	0.092149 
3390.858528  	0.091811 
3392.787344  	0.091336 
3394.716160  	0.090739 
3396.644976  	0.090232 
3398.573792  	0.089821 
3400.502608  	0.089417 
3402.431424  	0.088726 
3404.360240  	0.088173 
3406.289056  	0.087713 
3408.217872  	0.087247 
3410.146688  	0.086787 
3412.075504  	0.086300 
3414.004320  	0.085735 
3415.933136  	0.085378 
3417.861952  	0.084755 
3419.790768  	0.084148 
3421.719584  	0.083541 
3423.648400  	0.082970 
3425.577216  	0.082331 
3427.506032  	0.081741 
3429.434848  	0.081282 
3431.363664  	0.080809 
3433.292480  	0.080097 
3435.221296  	0.079465 
3437.150112  	0.078895 
3439.078928  	0.078344 
3441.007744  	0.077586 
3442.936560  	0.077119 
3444.865376  	0.076688 
3446.794192  	0.075807 
3448.723008  	0.074957 
3450.651824  	0.074149 
3452.580640  	0.073290 
3454.509456  	0.072702 
3456.438272  	0.072130 
3458.367088  	0.071526 
3460.295904  	0.070767 
3462.224720  	0.069756 
3464.153536  	0.068894 
3466.082352  	0.068278 
3468.011168  	0.067335 
3469.939984  	0.066406 
3471.868800  	0.065738 
3473.797616  	0.065050 
3475.726432  	0.064079 
3477.655248  	0.063205 
3479.584064  	0.062615 
3481.512880  	0.061921 
3483.441696  	0.060923 
3485.370512  	0.060131 
3487.299328  	0.059149 
3489.228144  	0.058203 
3491.156960  	0.057276 
3493.085776  	0.056463 
3495.014592  	0.055642 
3496.943408  	0.054991 
3498.872224  	0.054429 
3500.801040  	0.053874 
3502.729856  	0.053000 
3504.658672  	0.051996 
3506.587488  	0.051530 
3508.516304  	0.050812 
3510.445120  	0.049764 
3512.373936  	0.048978 
3514.302752  	0.048404 
3516.231568  	0.047882 
3518.160384  	0.047392 
3520.089200  	0.046688 
3522.018016  	0.046106 
3523.946832  	0.045916 
3525.875648  	0.045053 
3527.804464  	0.043797 
3529.733280  	0.043044 
3531.662096  	0.042464 
3533.590912  	0.041876 
3535.519728  	0.041610 
3537.448544  	0.040998 
3539.377360  	0.040025 
3541.306176  	0.039243 
3543.234992  	0.039069 
3545.163808  	0.039213 
3547.092624  	0.038362 
3549.021440  	0.036834 
3550.950256  	0.035982 
3552.879072  	0.035395 
3554.807888  	0.034765 
3556.736704  	0.034035 
3558.665520  	0.033593 
3560.594336  	0.032960 
3562.523152  	0.031834 
3564.451968  	0.031516 
3566.380784  	0.031789 
3568.309600  	0.030632 
3570.238416  	0.029468 
3572.167232  	0.028739 
3574.096048  	0.027845 
3576.024864  	0.026983 
3577.953680  	0.026455 
3579.882496  	0.025622 
3581.811312  	0.024833 
3583.740128  	0.024208 
3585.668944  	0.024011 
3587.597760  	0.023043 
3589.526576  	0.021549 
3591.455392  	0.020699 
3593.384208  	0.020167 
3595.313024  	0.019427 
3597.241840  	0.018109 
3599.170656  	0.016833 
3601.099472  	0.016018 
3603.028288  	0.015667 
3604.957104  	0.015343 
3606.885920  	0.014499 
3608.814736  	0.013417 
3610.743552  	0.012907 
3612.672368  	0.011881 
3614.601184  	0.010560 
3616.530000  	0.009849 
3618.458816  	0.008321 
3620.387632  	0.007131 
3622.316448  	0.006766 
3624.245264  	0.006265 
3626.174080  	0.005512 
3628.102896  	0.003187 
3630.031712  	0.001042 
3631.960528  	0.001962 
3633.889344  	0.001658 
3635.818160  	0.000886 
3637.746976  	-0.000020 
3639.675792  	-0.000687 
3641.604608  	-0.001238 
3643.533424  	-0.002032 
3645.462240  	-0.003282 
3647.391056  	-0.005847 
3649.319872  	-0.008958 
3651.248688  	-0.009502 
3653.177504  	-0.007967 
3655.106320  	-0.008632 
3657.035136  	-0.010503 
3658.963952  	-0.010580 
3660.892768  	-0.010821 
3662.821584  	-0.011027 
3664.750400  	-0.011058 
3666.679216  	-0.011459 
3668.608032  	-0.013284 
3670.536848  	-0.015567 
3672.465664  	-0.014539 
3674.394480  	-0.015501 
3676.323296  	-0.018159 
3678.252112  	-0.015522 
3680.180928  	-0.013986 
3682.109744  	-0.013703 
3684.038560  	-0.014244 
3685.967376  	-0.014573 
3687.896192  	-0.016459 
3689.825008  	-0.018163 
3691.753824  	-0.017013 
3693.682640  	-0.015285 
3695.611456  	-0.014568 
3697.540272  	-0.013919 
3699.469088  	-0.013381 
3701.397904  	-0.013800 
3703.326720  	-0.013474 
3705.255536  	-0.012395 
3707.184352  	-0.012287 
3709.113168  	-0.013545 
3711.041984  	-0.014933 
3712.970800  	-0.013552 
3714.899616  	-0.011415 
3716.828432  	-0.011111 
3718.757248  	-0.011595 
3720.686064  	-0.012017 
3722.614880  	-0.012374 
3724.543696  	-0.012015 
3726.472512  	-0.011823 
3728.401328  	-0.011930 
3730.330144  	-0.012801 
3732.258960  	-0.014165 
3734.187776  	-0.013467 
3736.116592  	-0.013233 
3738.045408  	-0.012967 
3739.974224  	-0.011993 
3741.903040  	-0.011621 
3743.831856  	-0.013004 
3745.760672  	-0.013970 
3747.689488  	-0.013164 
3749.618304  	-0.015045 
3751.547120  	-0.015824 
3753.475936  	-0.013966 
3755.404752  	-0.012217 
3757.333568  	-0.011892 
3759.262384  	-0.012539 
3761.191200  	-0.012257 
3763.120016  	-0.011103 
3765.048832  	-0.011629 
3766.977648  	-0.011619 
3768.906464  	-0.012044 
3770.835280  	-0.012352 
3772.764096  	-0.011382 
3774.692912  	-0.011012 
3776.621728  	-0.010965 
3778.550544  	-0.011902 
3780.479360  	-0.012417 
3782.408176  	-0.011427 
3784.336992  	-0.011486 
3786.265808  	-0.011328 
3788.194624  	-0.011089 
3790.123440  	-0.011134 
3792.052256  	-0.011157 
3793.981072  	-0.011337 
3795.909888  	-0.012319 
3797.838704  	-0.012310 
3799.767520  	-0.012743 
3801.696336  	-0.014938 
3803.625152  	-0.013464 
3805.553968  	-0.012768 
3807.482784  	-0.013579 
3809.411600  	-0.011915 
3811.340416  	-0.011066 
3813.269232  	-0.011150 
3815.198048  	-0.013022 
3817.126864  	-0.013953 
3819.055680  	-0.013242 
3820.984496  	-0.015086 
3822.913312  	-0.013733 
3824.842128  	-0.011960 
3826.770944  	-0.012240 
3828.699760  	-0.011909 
3830.628576  	-0.012114 
3832.557392  	-0.012611 
3834.486208  	-0.012690 
3836.415024  	-0.013594 
3838.343840  	-0.014523 
3840.272656  	-0.013713 
3842.201472  	-0.012562 
3844.130288  	-0.012361 
3846.059104  	-0.011634 
3847.987920  	-0.011141 
3849.916736  	-0.011576 
3851.845552  	-0.013550 
3853.774368  	-0.016372 
3855.703184  	-0.014132 
3857.632000  	-0.012278 
3859.560816  	-0.011459 
3861.489632  	-0.011579 
3863.418448  	-0.012222 
3865.347264  	-0.012322 
3867.276080  	-0.011581 
3869.204896  	-0.012333 
3871.133712  	-0.012306 
3873.062528  	-0.011853 
3874.991344  	-0.012252 
3876.920160  	-0.011181 
3878.848976  	-0.010934 
3880.777792  	-0.011420 
3882.706608  	-0.010770 
3884.635424  	-0.010834 
3886.564240  	-0.011593 
3888.493056  	-0.011188 
3890.421872  	-0.011531 
3892.350688  	-0.012076 
3894.279504  	-0.011244 
3896.208320  	-0.010716 
3898.137136  	-0.010810 
3900.065952  	-0.011031 
3901.994768  	-0.010937 
3903.923584  	-0.011481 
3905.852400  	-0.011608 
3907.781216  	-0.011114 
3909.710032  	-0.010915 
3911.638848  	-0.010899 
3913.567664  	-0.010724 
3915.496480  	-0.010423 
3917.425296  	-0.010625 
3919.354112  	-0.010926 
3921.282928  	-0.010812 
3923.211744  	-0.010552 
3925.140560  	-0.010611 
3927.069376  	-0.010687 
3928.998192  	-0.010740 
3930.927008  	-0.010448 
3932.855824  	-0.010298 
3934.784640  	-0.010566 
3936.713456  	-0.010679 
3938.642272  	-0.010519 
3940.571088  	-0.010212 
3942.499904  	-0.010099 
3944.428720  	-0.010369 
3946.357536  	-0.010196 
3948.286352  	-0.009993 
3950.215168  	-0.010315 
3952.143984  	-0.010690 
3954.072800  	-0.010740 
3956.001616  	-0.010579 
3957.930432  	-0.010664 
3959.859248  	-0.010654 
3961.788064  	-0.010540 
3963.716880  	-0.010898 
3965.645696  	-0.011219 
3967.574512  	-0.011024 
3969.503328  	-0.010763 
3971.432144  	-0.010796 
3973.360960  	-0.010669 
3975.289776  	-0.010658 
3977.218592  	-0.010764 
3979.147408  	-0.010808 
3981.076224  	-0.010855 
3983.005040  	-0.010845 
3984.933856  	-0.010928 
3986.862672  	-0.011031 
3988.791488  	-0.010855 
3990.720304  	-0.010547 
3992.649120  	-0.010651 
3994.577936  	-0.010852 
3996.506752  	-0.010825 
3998.435568  	-0.010812 
4000.364384  	-0.010763 