##TITLE=No Description
##DATA TYPE=INFRARED SPECTRUM
##XUNITS=1/CM
##YUNITS=Abs
399.264912  	0.580490 
401.193728  	0.595320 
403.122544  	0.590043 
405.051360  	0.562133 
406.980176  	0.552580 
408.908992  	0.546536 
410.837808  	0.556157 
412.766624  	0.550629 
414.695440  	0.544962 
416.624256  	0.546811 
418.553072  	0.562467 
420.481888  	0.551176 
422.410704  	0.544859 
424.339520  	0.541021 
426.268336  	0.542387 
428.197152  	0.536491 
430.125968  	0.537412 
432.054784  	0.523214 
433.983600  	0.524975 
435.912416  	0.528353 
437.841232  	0.529513 
439.770048  	0.523860 
441.698864  	0.521132 
443.627680  	0.516015 
445.556496  	0.518775 
447.485312  	0.515444 
449.414128  	0.513038 
451.342944  	0.509567 
453.271760  	0.509042 
455.200576  	0.510738 
457.129392  	0.518291 
459.058208  	0.513494 
460.987024  	0.514962 
462.915840  	0.514125 
464.844656  	0.516039 
466.773472  	0.510648 
468.702288  	0.504321 
470.631104  	0.503712 
472.559920  	0.506194 
474.488736  	0.504029 
476.417552  	0.508821 
478.346368  	0.503524 
480.275184  	0.500433 
482.204000  	0.498264 
484.132816  	0.501670 
486.061632  	0.501018 
487.990448  	0.497980 
489.919264  	0.495518 
491.848080  	0.496941 
493.776896  	0.495978 
495.705712  	0.497044 
497.634528  	0.491869 
499.563344  	0.488909 
501.492160  	0.486823 
503.420976  	0.489435 
505.349792  	0.488380 
507.278608  	0.487513 
509.207424  	0.484815 
511.136240  	0.487314 
513.065056  	0.488552 
514.993872  	0.490564 
516.922688  	0.492409 
518.851504  	0.494742 
520.780320  	0.491326 
522.709136  	0.488708 
524.637952  	0.488236 
526.566768  	0.488169 
528.495584  	0.484788 
530.424400  	0.483581 
532.353216  	0.480303 
534.282032  	0.476684 
536.210848  	0.470604 
538.139664  	0.465068 
540.068480  	0.459793 
541.997296  	0.456109 
543.926112  	0.452892 
545.854928  	0.450126 
547.783744  	0.445803 
549.712560  	0.441887 
551.641376  	0.438421 
553.570192  	0.435805 
555.499008  	0.431806 
557.427824  	0.428242 
559.356640  	0.423094 
561.285456  	0.420677 
563.214272  	0.417200 
565.143088  	0.413987 
567.071904  	0.410507 
569.000720  	0.408241 
570.929536  	0.405575 
572.858352  	0.403009 
574.787168  	0.400033 
576.715984  	0.397119 
578.644800  	0.393369 
580.573616  	0.390500 
582.502432  	0.385623 
584.431248  	0.382455 
586.360064  	0.379215 
588.288880  	0.376531 
590.217696  	0.373712 
592.146512  	0.372298 
594.075328  	0.369412 
596.004144  	0.366996 
597.932960  	0.365015 
599.861776  	0.363463 
601.790592  	0.361596 
603.719408  	0.359978 
605.648224  	0.358902 
607.577040  	0.357901 
609.505856  	0.355931 
611.434672  	0.354531 
613.363488  	0.352729 
615.292304  	0.351187 
617.221120  	0.349331 
619.149936  	0.348353 
621.078752  	0.347006 
623.007568  	0.345896 
624.936384  	0.344460 
626.865200  	0.343386 
628.794016  	0.342107 
630.722832  	0.340940 
632.651648  	0.340474 
634.580464  	0.341129 
636.509280  	0.341495 
638.438096  	0.341061 
640.366912  	0.339575 
642.295728  	0.338074 
644.224544  	0.335454 
646.153360  	0.332094 
648.082176  	0.328112 
650.010992  	0.325134 
651.939808  	0.321637 
653.868624  	0.318104 
655.797440  	0.313985 
657.726256  	0.310278 
659.655072  	0.306529 
661.583888  	0.302970 
663.512704  	0.299391 
665.441520  	0.296419 
667.370336  	0.289566 
669.299152  	0.283456 
671.227968  	0.283307 
673.156784  	0.280762 
675.085600  	0.277708 
677.014416  	0.275245 
678.943232  	0.272990 
680.872048  	0.271211 
682.800864  	0.269687 
684.729680  	0.268163 
686.658496  	0.267137 
688.587312  	0.266562 
690.516128  	0.265324 
692.444944  	0.264298 
694.373760  	0.262987 
696.302576  	0.260843 
698.231392  	0.258625 
700.160208  	0.256532 
702.089024  	0.254255 
704.017840  	0.252038 
705.946656  	0.249903 
707.875472  	0.247529 
709.804288  	0.245272 
711.733104  	0.243712 
713.661920  	0.242045 
715.590736  	0.240086 
717.519552  	0.239011 
719.448368  	0.239120 
721.377184  	0.239269 
723.306000  	0.240101 
725.234816  	0.240689 
727.163632  	0.240336 
729.092448  	0.238622 
731.021264  	0.235869 
732.950080  	0.232359 
734.878896  	0.228913 
736.807712  	0.225890 
738.736528  	0.224013 
740.665344  	0.222531 
742.594160  	0.220599 
744.522976  	0.218957 
746.451792  	0.217529 
748.380608  	0.215865 
750.309424  	0.214472 
752.238240  	0.213581 
754.167056  	0.212778 
756.095872  	0.211519 
758.024688  	0.210506 
759.953504  	0.209684 
761.882320  	0.210127 
763.811136  	0.210919 
765.739952  	0.210138 
767.668768  	0.207650 
769.597584  	0.205095 
771.526400  	0.203916 
773.455216  	0.205005 
775.384032  	0.208289 
777.312848  	0.213011 
779.241664  	0.216881 
781.170480  	0.217222 
783.099296  	0.214032 
785.028112  	0.208892 
786.956928  	0.202967 
788.885744  	0.198195 
790.814560  	0.194904 
792.743376  	0.192578 
794.672192  	0.191291 
796.601008  	0.190428 
798.529824  	0.187944 
800.458640  	0.183658 
802.387456  	0.180128 
804.316272  	0.178264 
806.245088  	0.177014 
808.173904  	0.176229 
810.102720  	0.175933 
812.031536  	0.175605 
813.960352  	0.175592 
815.889168  	0.175746 
817.817984  	0.175933 
819.746800  	0.176057 
821.675616  	0.175960 
823.604432  	0.175835 
825.533248  	0.175610 
827.462064  	0.175072 
829.390880  	0.174132 
831.319696  	0.172809 
833.248512  	0.170902 
835.177328  	0.168809 
837.106144  	0.166189 
839.034960  	0.162942 
840.963776  	0.159734 
842.892592  	0.156431 
844.821408  	0.153161 
846.750224  	0.150160 
848.679040  	0.147701 
850.607856  	0.145840 
852.536672  	0.144107 
854.465488  	0.142457 
856.394304  	0.140884 
858.323120  	0.139434 
860.251936  	0.137601 
862.180752  	0.135472 
864.109568  	0.133070 
866.038384  	0.130578 
867.967200  	0.128385 
869.896016  	0.126425 
871.824832  	0.125260 
873.753648  	0.124891 
875.682464  	0.125617 
877.611280  	0.126049 
879.540096  	0.126518 
881.468912  	0.128230 
883.397728  	0.129626 
885.326544  	0.130589 
887.255360  	0.130752 
889.184176  	0.129557 
891.112992  	0.127677 
893.041808  	0.126258 
894.970624  	0.124156 
896.899440  	0.120946 
898.828256  	0.117142 
900.757072  	0.113591 
902.685888  	0.110800 
904.614704  	0.109200 
906.543520  	0.109256 
908.472336  	0.110550 
910.401152  	0.112853 
912.329968  	0.115559 
914.258784  	0.118451 
916.187600  	0.121138 
918.116416  	0.123378 
920.045232  	0.124981 
921.974048  	0.125917 
923.902864  	0.126147 
925.831680  	0.125825 
927.760496  	0.125809 
929.689312  	0.126396 
931.618128  	0.127047 
933.546944  	0.127435 
935.475760  	0.127565 
937.404576  	0.127426 
939.333392  	0.127091 
941.262208  	0.127158 
943.191024  	0.128598 
945.119840  	0.132109 
947.048656  	0.137737 
948.977472  	0.145138 
950.906288  	0.153810 
952.835104  	0.163688 
954.763920  	0.174226 
956.692736  	0.183983 
958.621552  	0.192347 
960.550368  	0.198322 
962.479184  	0.201330 
964.408000  	0.200455 
966.336816  	0.195824 
968.265632  	0.188119 
970.194448  	0.177824 
972.123264  	0.165686 
974.052080  	0.152917 
975.980896  	0.140540 
977.909712  	0.128956 
979.838528  	0.118564 
981.767344  	0.109929 
983.696160  	0.103202 
985.624976  	0.098967 
987.553792  	0.097329 
989.482608  	0.098112 
991.411424  	0.101025 
993.340240  	0.105498 
995.269056  	0.111090 
997.197872  	0.116950 
999.126688  	0.122975 
1001.055504  	0.129257 
1002.984320  	0.135651 
1004.913136  	0.141711 
1006.841952  	0.147579 
1008.770768  	0.152596 
1010.699584  	0.156198 
1012.628400  	0.158390 
1014.557216  	0.159213 
1016.486032  	0.159363 
1018.414848  	0.159278 
1020.343664  	0.158947 
1022.272480  	0.158469 
1024.201296  	0.157348 
1026.130112  	0.154097 
1028.058928  	0.152868 
1029.987744  	0.155941 
1031.916560  	0.157922 
1033.845376  	0.158940 
1035.774192  	0.159900 
1037.703008  	0.162310 
1039.631824  	0.168119 
1041.560640  	0.176145 
1043.489456  	0.186968 
1045.418272  	0.200131 
1047.347088  	0.214694 
1049.275904  	0.228800 
1051.204720  	0.239784 
1053.133536  	0.246265 
1055.062352  	0.249342 
1056.991168  	0.249461 
1058.919984  	0.250740 
1060.848800  	0.252075 
1062.777616  	0.250206 
1064.706432  	0.244417 
1066.635248  	0.239532 
1068.564064  	0.238318 
1070.492880  	0.233985 
1072.421696  	0.226724 
1074.350512  	0.221470 
1076.279328  	0.219815 
1078.208144  	0.222145 
1080.136960  	0.226959 
1082.065776  	0.232971 
1083.994592  	0.237102 
1085.923408  	0.238524 
1087.852224  	0.236425 
1089.781040  	0.232309 
1091.709856  	0.227456 
1093.638672  	0.219963 
1095.567488  	0.209616 
1097.496304  	0.198335 
1099.425120  	0.186318 
1101.353936  	0.173928 
1103.282752  	0.161916 
1105.211568  	0.150500 
1107.140384  	0.139556 
1109.069200  	0.129095 
1110.998016  	0.119466 
1112.926832  	0.110874 
1114.855648  	0.103153 
1116.784464  	0.095587 
1118.713280  	0.088330 
1120.642096  	0.081722 
1122.570912  	0.075715 
1124.499728  	0.069946 
1126.428544  	0.064836 
1128.357360  	0.060372 
1130.286176  	0.056722 
1132.214992  	0.053491 
1134.143808  	0.050858 
1136.072624  	0.048558 
1138.001440  	0.046705 
1139.930256  	0.044513 
1141.859072  	0.042335 
1143.787888  	0.040152 
1145.716704  	0.038003 
1147.645520  	0.035925 
1149.574336  	0.034316 
1151.503152  	0.033040 
1153.431968  	0.032561 
1155.360784  	0.032619 
1157.289600  	0.033227 
1159.218416  	0.034523 
1161.147232  	0.036489 
1163.076048  	0.038525 
1165.004864  	0.040614 
1166.933680  	0.042576 
1168.862496  	0.044828 
1170.791312  	0.047075 
1172.720128  	0.049859 
1174.648944  	0.052395 
1176.577760  	0.054919 
1178.506576  	0.057317 
1180.435392  	0.059892 
1182.364208  	0.062510 
1184.293024  	0.065486 
1186.221840  	0.068465 
1188.150656  	0.071885 
1190.079472  	0.075835 
1192.008288  	0.080839 
1193.937104  	0.086860 
1195.865920  	0.093886 
1197.794736  	0.101655 
1199.723552  	0.110309 
1201.652368  	0.118932 
1203.581184  	0.127571 
1205.510000  	0.136142 
1207.438816  	0.144396 
1209.367632  	0.152192 
1211.296448  	0.158866 
1213.225264  	0.164396 
1215.154080  	0.168752 
1217.082896  	0.172028 
1219.011712  	0.174203 
1220.940528  	0.175792 
1222.869344  	0.176573 
1224.798160  	0.176803 
1226.726976  	0.176445 
1228.655792  	0.175544 
1230.584608  	0.173930 
1232.513424  	0.172105 
1234.442240  	0.169832 
1236.371056  	0.166754 
1238.299872  	0.162314 
1240.228688  	0.155647 
1242.157504  	0.149015 
1244.086320  	0.143452 
1246.015136  	0.136499 
1247.943952  	0.128603 
1249.872768  	0.120770 
1251.801584  	0.114194 
1253.730400  	0.107633 
1255.659216  	0.100902 
1257.588032  	0.094560 
1259.516848  	0.088597 
1261.445664  	0.083140 
1263.374480  	0.078156 
1265.303296  	0.073950 
1267.232112  	0.070429 
1269.160928  	0.067777 
1271.089744  	0.065808 
1273.018560  	0.064630 
1274.947376  	0.064235 
1276.876192  	0.064268 
1278.805008  	0.064034 
1280.733824  	0.063034 
1282.662640  	0.061235 
1284.591456  	0.058992 
1286.520272  	0.056986 
1288.449088  	0.055738 
1290.377904  	0.055161 
1292.306720  	0.055310 
1294.235536  	0.055356 
1296.164352  	0.054501 
1298.093168  	0.052369 
1300.021984  	0.049747 
1301.950800  	0.046894 
1303.879616  	0.044149 
1305.808432  	0.041204 
1307.737248  	0.038196 
1309.666064  	0.035278 
1311.594880  	0.033147 
1313.523696  	0.031398 
1315.452512  	0.030259 
1317.381328  	0.029602 
1319.310144  	0.029369 
1321.238960  	0.029396 
1323.167776  	0.030095 
1325.096592  	0.030849 
1327.025408  	0.031487 
1328.954224  	0.031522 
1330.883040  	0.031103 
1332.811856  	0.030278 
1334.740672  	0.029797 
1336.669488  	0.029688 
1338.598304  	0.029667 
1340.527120  	0.028307 
1342.455936  	0.027036 
1344.384752  	0.026780 
1346.313568  	0.027013 
1348.242384  	0.027495 
1350.171200  	0.028608 
1352.100016  	0.030033 
1354.028832  	0.031864 
1355.957648  	0.033503 
1357.886464  	0.035543 
1359.815280  	0.037843 
1361.744096  	0.039894 
1363.672912  	0.040733 
1365.601728  	0.041906 
1367.530544  	0.043257 
1369.459360  	0.043505 
1371.388176  	0.043377 
1373.316992  	0.042209 
1375.245808  	0.038937 
1377.174624  	0.036564 
1379.103440  	0.033789 
1381.032256  	0.031006 
1382.961072  	0.029028 
1384.889888  	0.028491 
1386.818704  	0.027647 
1388.747520  	0.025665 
1390.676336  	0.023715 
1392.605152  	0.020940 
1394.533968  	0.018845 
1396.462784  	0.021373 
1398.391600  	0.022582 
1400.320416  	0.021632 
1402.249232  	0.022155 
1404.178048  	0.022694 
1406.106864  	0.023060 
1408.035680  	0.024868 
1409.964496  	0.027222 
1411.893312  	0.029887 
1413.822128  	0.032801 
1415.750944  	0.036454 
1417.679760  	0.038815 
1419.608576  	0.037969 
1421.537392  	0.038609 
1423.466208  	0.039012 
1425.395024  	0.037357 
1427.323840  	0.036475 
1429.252656  	0.034142 
1431.181472  	0.032354 
1433.110288  	0.032565 
1435.039104  	0.033508 
1436.967920  	0.032053 
1438.896736  	0.032601 
1440.825552  	0.034041 
1442.754368  	0.034677 
1444.683184  	0.034978 
1446.612000  	0.034921 
1448.540816  	0.033467 
1450.469632  	0.033977 
1452.398448  	0.035007 
1454.327264  	0.036318 
1456.256080  	0.035519 
1458.184896  	0.031931 
1460.113712  	0.033760 
1462.042528  	0.035916 
1463.971344  	0.035554 
1465.900160  	0.035329 
1467.828976  	0.038287 
1469.757792  	0.041847 
1471.686608  	0.044303 
1473.615424  	0.048533 
1475.544240  	0.054806 
1477.473056  	0.060100 
1479.401872  	0.064059 
1481.330688  	0.067114 
1483.259504  	0.069248 
1485.188320  	0.070981 
1487.117136  	0.070875 
1489.045952  	0.069808 
1490.974768  	0.066503 
1492.903584  	0.065222 
1494.832400  	0.062800 
1496.761216  	0.056074 
1498.690032  	0.050083 
1500.618848  	0.046636 
1502.547664  	0.043950 
1504.476480  	0.041001 
1506.405296  	0.033625 
1508.334112  	0.029794 
1510.262928  	0.031012 
1512.191744  	0.029815 
1514.120560  	0.029399 
1516.049376  	0.028781 
1517.978192  	0.027586 
1519.907008  	0.029297 
1521.835824  	0.028561 
1523.764640  	0.032825 
1525.693456  	0.037054 
1527.622272  	0.038930 
1529.551088  	0.040060 
1531.479904  	0.040303 
1533.408720  	0.035815 
1535.337536  	0.033088 
1537.266352  	0.032828 
1539.195168  	0.025811 
1541.123984  	0.017603 
1543.052800  	0.019780 
1544.981616  	0.020330 
1546.910432  	0.020547 
1548.839248  	0.021205 
1550.768064  	0.020864 
1552.696880  	0.021307 
1554.625696  	0.021683 
1556.554512  	0.022559 
1558.483328  	0.019603 
1560.412144  	0.020949 
1562.340960  	0.029231 
1564.269776  	0.033396 
1566.198592  	0.038213 
1568.127408  	0.042169 
1570.056224  	0.045865 
1571.985040  	0.052681 
1573.913856  	0.057796 
1575.842672  	0.058070 
1577.771488  	0.060180 
1579.700304  	0.062751 
1581.629120  	0.062859 
1583.557936  	0.062430 
1585.486752  	0.063112 
1587.415568  	0.065202 
1589.344384  	0.069169 
1591.273200  	0.074543 
1593.202016  	0.081049 
1595.130832  	0.087874 
1597.059648  	0.095177 
1598.988464  	0.101487 
1600.917280  	0.107026 
1602.846096  	0.110636 
1604.774912  	0.112980 
1606.703728  	0.113203 
1608.632544  	0.112292 
1610.561360  	0.110422 
1612.490176  	0.109222 
1614.418992  	0.107490 
1616.347808  	0.104134 
1618.276624  	0.104627 
1620.205440  	0.109419 
1622.134256  	0.111931 
1624.063072  	0.116364 
1625.991888  	0.122964 
1627.920704  	0.130123 
1629.849520  	0.139105 
1631.778336  	0.148151 
1633.707152  	0.154240 
1635.635968  	0.160246 
1637.564784  	0.169784 
1639.493600  	0.177825 
1641.422416  	0.183024 
1643.351232  	0.186849 
1645.280048  	0.187031 
1647.208864  	0.185913 
1649.137680  	0.187924 
1651.066496  	0.188837 
1652.995312  	0.181228 
1654.924128  	0.181047 
1656.852944  	0.182484 
1658.781760  	0.180918 
1660.710576  	0.177642 
1662.639392  	0.172493 
1664.568208  	0.168975 
1666.497024  	0.167256 
1668.425840  	0.161908 
1670.354656  	0.154840 
1672.283472  	0.152507 
1674.212288  	0.149917 
1676.141104  	0.145152 
1678.069920  	0.144903 
1679.998736  	0.144231 
1681.927552  	0.142966 
1683.856368  	0.137216 
1685.785184  	0.136253 
1687.714000  	0.139116 
1689.642816  	0.138747 
1691.571632  	0.137635 
1693.500448  	0.137183 
1695.429264  	0.132711 
1697.358080  	0.129677 
1699.286896  	0.127613 
1701.215712  	0.122083 
1703.144528  	0.122743 
1705.073344  	0.119018 
1707.002160  	0.113488 
1708.930976  	0.110099 
1710.859792  	0.104907 
1712.788608  	0.098910 
1714.717424  	0.091026 
1716.646240  	0.080407 
1718.575056  	0.067000 
1720.503872  	0.060797 
1722.432688  	0.055222 
1724.361504  	0.046705 
1726.290320  	0.039882 
1728.219136  	0.034197 
1730.147952  	0.028834 
1732.076768  	0.024823 
1734.005584  	0.017189 
1735.934400  	0.012291 
1737.863216  	0.013448 
1739.792032  	0.009831 
1741.720848  	0.008812 
1743.649664  	0.008412 
1745.578480  	0.007960 
1747.507296  	0.006490 
1749.436112  	0.005179 
1751.364928  	0.003653 
1753.293744  	0.003559 
1755.222560  	0.004022 
1757.151376  	0.002863 
1759.080192  	0.002582 
1761.009008  	0.002225 
1762.937824  	0.000404 
1764.866640  	0.001308 
1766.795456  	0.001957 
1768.724272  	0.001318 
1770.653088  	-0.000217 
1772.581904  	-0.003598 
1774.510720  	-0.002673 
1776.439536  	-0.000638 
1778.368352  	-0.000109 
1780.297168  	-0.000655 
1782.225984  	-0.001178 
1784.154800  	-0.000691 
1786.083616  	-0.001513 
1788.012432  	-0.000919 
1789.941248  	-0.000287 
1791.870064  	-0.002040 
1793.798880  	-0.003752 
1795.727696  	-0.001907 
1797.656512  	-0.001908 
1799.585328  	-0.002148 
1801.514144  	-0.002306 
1803.442960  	-0.002147 
1805.371776  	-0.002351 
1807.300592  	-0.001954 
1809.229408  	-0.002468 
1811.158224  	-0.003102 
1813.087040  	-0.003430 
1815.015856  	-0.002739 
1816.944672  	-0.002656 
1818.873488  	-0.002790 
1820.802304  	-0.002887 
1822.731120  	-0.002067 
1824.659936  	-0.003004 
1826.588752  	-0.003591 
1828.517568  	-0.003764 
1830.446384  	-0.004879 
1832.375200  	-0.004183 
1834.304016  	-0.003097 
1836.232832  	-0.003209 
1838.161648  	-0.003049 
1840.090464  	-0.003017 
1842.019280  	-0.002174 
1843.948096  	-0.003880 
1845.876912  	-0.004400 
1847.805728  	-0.003520 
1849.734544  	-0.003350 
1851.663360  	-0.003530 
1853.592176  	-0.003472 
1855.520992  	-0.003498 
1857.449808  	-0.003436 
1859.378624  	-0.003662 
1861.307440  	-0.003743 
1863.236256  	-0.003785 
1865.165072  	-0.003174 
1867.093888  	-0.003461 
1869.022704  	-0.004456 
1870.951520  	-0.004685 
1872.880336  	-0.003764 
1874.809152  	-0.003945 
1876.737968  	-0.003940 
1878.666784  	-0.004261 
1880.595600  	-0.003770 
1882.524416  	-0.003874 
1884.453232  	-0.003843 
1886.382048  	-0.004099 
1888.310864  	-0.003888 
1890.239680  	-0.004730 
1892.168496  	-0.004303 
1894.097312  	-0.003960 
1896.026128  	-0.003956 
1897.954944  	-0.004132 
1899.883760  	-0.003972 
1901.812576  	-0.004423 
1903.741392  	-0.004581 
1905.670208  	-0.004662 
1907.599024  	-0.003826 
1909.527840  	-0.003990 
1911.456656  	-0.003695 
1913.385472  	-0.003576 
1915.314288  	-0.002729 
1917.243104  	-0.003375 
1919.171920  	-0.004093 
1921.100736  	-0.003708 
1923.029552  	-0.003802 
1924.958368  	-0.004404 
1926.887184  	-0.003737 
1928.816000  	-0.003760 
1930.744816  	-0.003851 
1932.673632  	-0.004047 
1934.602448  	-0.003788 
1936.531264  	-0.003924 
1938.460080  	-0.003060 
1940.388896  	-0.003220 
1942.317712  	-0.004239 
1944.246528  	-0.004709 
1946.175344  	-0.003128 
1948.104160  	-0.003414 
1950.032976  	-0.003395 
1951.961792  	-0.003680 
1953.890608  	-0.003777 
1955.819424  	-0.004619 
1957.748240  	-0.003863 
1959.677056  	-0.003991 
1961.605872  	-0.002866 
1963.534688  	-0.003290 
1965.463504  	-0.003406 
1967.392320  	-0.004404 
1969.321136  	-0.003717 
1971.249952  	-0.002790 
1973.178768  	-0.001720 
1975.107584  	-0.003095 
1977.036400  	-0.002741 
1978.965216  	-0.002590 
1980.894032  	-0.002499 
1982.822848  	-0.002961 
1984.751664  	-0.002345 
1986.680480  	-0.003293 
1988.609296  	-0.002534 
1990.538112  	-0.002685 
1992.466928  	-0.002679 
1994.395744  	-0.004027 
1996.324560  	-0.004269 
1998.253376  	-0.004798 
2000.182192  	-0.004487 
2002.111008  	-0.004341 
2004.039824  	-0.003573 
2005.968640  	-0.003773 
2007.897456  	-0.002616 
2009.826272  	-0.003267 
2011.755088  	-0.003294 
2013.683904  	-0.003507 
2015.612720  	-0.001742 
2017.541536  	-0.002069 
2019.470352  	-0.002306 
2021.399168  	-0.003891 
2023.327984  	-0.003802 
2025.256800  	-0.003067 
2027.185616  	-0.002564 
2029.114432  	-0.002213 
2031.043248  	-0.001219 
2032.972064  	-0.001800 
2034.900880  	-0.001965 
2036.829696  	-0.002930 
2038.758512  	-0.001370 
2040.687328  	-0.001830 
2042.616144  	-0.001978 
2044.544960  	-0.001860 
2046.473776  	-0.001124 
2048.402592  	-0.002209 
2050.331408  	-0.002905 
2052.260224  	-0.004223 
2054.189040  	-0.004433 
2056.117856  	-0.004300 
2058.046672  	-0.003559 
2059.975488  	-0.003973 
2061.904304  	-0.004279 
2063.833120  	-0.004204 
2065.761936  	-0.003803 
2067.690752  	-0.004104 
2069.619568  	-0.003633 
2071.548384  	-0.003571 
2073.477200  	-0.003720 
2075.406016  	-0.003831 
2077.334832  	-0.003446 
2079.263648  	-0.003202 
2081.192464  	-0.002906 
2083.121280  	-0.003267 
2085.050096  	-0.003626 
2086.978912  	-0.003785 
2088.907728  	-0.003380 
2090.836544  	-0.003382 
2092.765360  	-0.003313 
2094.694176  	-0.003559 
2096.622992  	-0.003577 
2098.551808  	-0.003722 
2100.480624  	-0.003286 
2102.409440  	-0.003274 
2104.338256  	-0.003259 
2106.267072  	-0.002960 
2108.195888  	-0.002797 
2110.124704  	-0.003171 
2112.053520  	-0.002946 
2113.982336  	-0.003125 
2115.911152  	-0.003146 
2117.839968  	-0.002987 
2119.768784  	-0.003185 
2121.697600  	-0.003757 
2123.626416  	-0.003530 
2125.555232  	-0.003397 
2127.484048  	-0.003113 
2129.412864  	-0.003210 
2131.341680  	-0.003064 
2133.270496  	-0.003438 
2135.199312  	-0.003381 
2137.128128  	-0.002954 
2139.056944  	-0.002015 
2140.985760  	-0.002334 
2142.914576  	-0.002071 
2144.843392  	-0.001794 
2146.772208  	-0.001707 
2148.701024  	-0.002643 
2150.629840  	-0.001963 
2152.558656  	-0.001997 
2154.487472  	-0.001713 
2156.416288  	-0.001088 
2158.345104  	-0.000474 
2160.273920  	-0.000346 
2162.202736  	0.000446 
2164.131552  	-0.000456 
2166.060368  	0.000138 
2167.989184  	0.000978 
2169.918000  	0.001530 
2171.846816  	-0.000069 
2173.775632  	-0.000385 
2175.704448  	-0.000110 
2177.633264  	0.000477 
2179.562080  	-0.001096 
2181.490896  	-0.001691 
2183.419712  	-0.002969 
2185.348528  	-0.002632 
2187.277344  	-0.002047 
2189.206160  	-0.002358 
2191.134976  	-0.003044 
2193.063792  	-0.002382 
2194.992608  	-0.002077 
2196.921424  	-0.002037 
2198.850240  	-0.002034 
2200.779056  	-0.001971 
2202.707872  	-0.002160 
2204.636688  	-0.002135 
2206.565504  	-0.002412 
2208.494320  	-0.002035 
2210.423136  	-0.002475 
2212.351952  	-0.002606 
2214.280768  	-0.002537 
2216.209584  	-0.002540 
2218.138400  	-0.002879 
2220.067216  	-0.002381 
2221.996032  	-0.002688 
2223.924848  	-0.002514 
2225.853664  	-0.002456 
2227.782480  	-0.002410 
2229.711296  	-0.003211 
2231.640112  	-0.003550 
2233.568928  	-0.003487 
2235.497744  	-0.002952 
2237.426560  	-0.003416 
2239.355376  	-0.003501 
2241.284192  	-0.003417 
2243.213008  	-0.003604 
2245.141824  	-0.003796 
2247.070640  	-0.003561 
2248.999456  	-0.003881 
2250.928272  	-0.004012 
2252.857088  	-0.003992 
2254.785904  	-0.003854 
2256.714720  	-0.004491 
2258.643536  	-0.004747 
2260.572352  	-0.005040 
2262.501168  	-0.004979 
2264.429984  	-0.004925 
2266.358800  	-0.004893 
2268.287616  	-0.005152 
2270.216432  	-0.004806 
2272.145248  	-0.004484 
2274.074064  	-0.004514 
2276.002880  	-0.004674 
2277.931696  	-0.004537 
2279.860512  	-0.004470 
2281.789328  	-0.004354 
2283.718144  	-0.004313 
2285.646960  	-0.003975 
2287.575776  	-0.003984 
2289.504592  	-0.004458 
2291.433408  	-0.004927 
2293.362224  	-0.004735 
2295.291040  	-0.004529 
2297.219856  	-0.004157 
2299.148672  	-0.004233 
2301.077488  	-0.004228 
2303.006304  	-0.004116 
2304.935120  	-0.003917 
2306.863936  	-0.003987 
2308.792752  	-0.004117 
2310.721568  	-0.004497 
2312.650384  	-0.005098 
2314.579200  	-0.005912 
2316.508016  	-0.006753 
2318.436832  	-0.007754 
2320.365648  	-0.009135 
2322.294464  	-0.010469 
2324.223280  	-0.011822 
2326.152096  	-0.013644 
2328.080912  	-0.015044 
2330.009728  	-0.016579 
2331.938544  	-0.018084 
2333.867360  	-0.019224 
2335.796176  	-0.020326 
2337.724992  	-0.021302 
2339.653808  	-0.021594 
2341.582624  	-0.022107 
2343.511440  	-0.021455 
2345.440256  	-0.019557 
2347.369072  	-0.014958 
2349.297888  	-0.011375 
2351.226704  	-0.013106 
2353.155520  	-0.018053 
2355.084336  	-0.021942 
2357.013152  	-0.025239 
2358.941968  	-0.027575 
2360.870784  	-0.029211 
2362.799600  	-0.028485 
2364.728416  	-0.027037 
2366.657232  	-0.024592 
2368.586048  	-0.021700 
2370.514864  	-0.018694 
2372.443680  	-0.015595 
2374.372496  	-0.012544 
2376.301312  	-0.009875 
2378.230128  	-0.007578 
2380.158944  	-0.005996 
2382.087760  	-0.005047 
2384.016576  	-0.004727 
2385.945392  	-0.004774 
2387.874208  	-0.004984 
2389.803024  	-0.005004 
2391.731840  	-0.005184 
2393.660656  	-0.005376 
2395.589472  	-0.005451 
2397.518288  	-0.005120 
2399.447104  	-0.005209 
2401.375920  	-0.005296 
2403.304736  	-0.005388 
2405.233552  	-0.005326 
2407.162368  	-0.005383 
2409.091184  	-0.005438 
2411.020000  	-0.005352 
2412.948816  	-0.005205 
2414.877632  	-0.005131 
2416.806448  	-0.004957 
2418.735264  	-0.005164 
2420.664080  	-0.005352 
2422.592896  	-0.005255 
2424.521712  	-0.005103 
2426.450528  	-0.005160 
2428.379344  	-0.005089 
2430.308160  	-0.005044 
2432.236976  	-0.004840 
2434.165792  	-0.005035 
2436.094608  	-0.005159 
2438.023424  	-0.004948 
2439.952240  	-0.004783 
2441.881056  	-0.004811 
2443.809872  	-0.004776 
2445.738688  	-0.004687 
2447.667504  	-0.004473 
2449.596320  	-0.004430 
2451.525136  	-0.004421 
2453.453952  	-0.004461 
2455.382768  	-0.004469 
2457.311584  	-0.004646 
2459.240400  	-0.004876 
2461.169216  	-0.004885 
2463.098032  	-0.004829 
2465.026848  	-0.004820 
2466.955664  	-0.004757 
2468.884480  	-0.004913 
2470.813296  	-0.004993 
2472.742112  	-0.004924 
2474.670928  	-0.004635 
2476.599744  	-0.004704 
2478.528560  	-0.004741 
2480.457376  	-0.004673 
2482.386192  	-0.004689 
2484.315008  	-0.004536 
2486.243824  	-0.004498 
2488.172640  	-0.004673 
2490.101456  	-0.004476 
2492.030272  	-0.004233 
2493.959088  	-0.004184 
2495.887904  	-0.004233 
2497.816720  	-0.004293 
2499.745536  	-0.004259 
2501.674352  	-0.004133 
2503.603168  	-0.003854 
2505.531984  	-0.003804 
2507.460800  	-0.004203 
2509.389616  	-0.004196 
2511.318432  	-0.004018 
2513.247248  	-0.003966 
2515.176064  	-0.004077 
2517.104880  	-0.004001 
2519.033696  	-0.003952 
2520.962512  	-0.003846 
2522.891328  	-0.003761 
2524.820144  	-0.003877 
2526.748960  	-0.003876 
2528.677776  	-0.003501 
2530.606592  	-0.003415 
2532.535408  	-0.003492 
2534.464224  	-0.003575 
2536.393040  	-0.003634 
2538.321856  	-0.003484 
2540.250672  	-0.003227 
2542.179488  	-0.003243 
2544.108304  	-0.003316 
2546.037120  	-0.003257 
2547.965936  	-0.003116 
2549.894752  	-0.003160 
2551.823568  	-0.003178 
2553.752384  	-0.002971 
2555.681200  	-0.002519 
2557.610016  	-0.002595 
2559.538832  	-0.002699 
2561.467648  	-0.002601 
2563.396464  	-0.002443 
2565.325280  	-0.002336 
2567.254096  	-0.002426 
2569.182912  	-0.002518 
2571.111728  	-0.002342 
2573.040544  	-0.002186 
2574.969360  	-0.002107 
2576.898176  	-0.001933 
2578.826992  	-0.001873 
2580.755808  	-0.001959 
2582.684624  	-0.001936 
2584.613440  	-0.001914 
2586.542256  	-0.001890 
2588.471072  	-0.001766 
2590.399888  	-0.001678 
2592.328704  	-0.001733 
2594.257520  	-0.001787 
2596.186336  	-0.001744 
2598.115152  	-0.001599 
2600.043968  	-0.001623 
2601.972784  	-0.001510 
2603.901600  	-0.001418 
2605.830416  	-0.001168 
2607.759232  	-0.001036 
2609.688048  	-0.000982 
2611.616864  	-0.000927 
2613.545680  	-0.000792 
2615.474496  	-0.000786 
2617.403312  	-0.000740 
2619.332128  	-0.000612 
2621.260944  	-0.000612 
2623.189760  	-0.000598 
2625.118576  	-0.000534 
2627.047392  	-0.000481 
2628.976208  	-0.000368 
2630.905024  	-0.000340 
2632.833840  	-0.000283 
2634.762656  	-0.000175 
2636.691472  	-0.000053 
2638.620288  	0.000042 
2640.549104  	0.000147 
2642.477920  	0.000189 
2644.406736  	0.000299 
2646.335552  	0.000511 
2648.264368  	0.000660 
2650.193184  	0.000623 
2652.122000  	0.000638 
2654.050816  	0.000759 
2655.979632  	0.000932 
2657.908448  	0.001112 
2659.837264  	0.001314 
2661.766080  	0.001367 
2663.694896  	0.001446 
2665.623712  	0.001561 
2667.552528  	0.001762 
2669.481344  	0.001867 
2671.410160  	0.001981 
2673.338976  	0.002095 
2675.267792  	0.002248 
2677.196608  	0.002447 
2679.125424  	0.002531 
2681.054240  	0.002573 
2682.983056  	0.002657 
2684.911872  	0.002655 
2686.840688  	0.002795 
2688.769504  	0.002911 
2690.698320  	0.002957 
2692.627136  	0.003041 
2694.555952  	0.003150 
2696.484768  	0.003169 
2698.413584  	0.003227 
2700.342400  	0.003262 
2702.271216  	0.003412 
2704.200032  	0.003596 
2706.128848  	0.003641 
2708.057664  	0.003615 
2709.986480  	0.003732 
2711.915296  	0.003884 
2713.844112  	0.004065 
2715.772928  	0.004150 
2717.701744  	0.004279 
2719.630560  	0.004456 
2721.559376  	0.004565 
2723.488192  	0.004691 
2725.417008  	0.004859 
2727.345824  	0.004962 
2729.274640  	0.005085 
2731.203456  	0.005161 
2733.132272  	0.005306 
2735.061088  	0.005539 
2736.989904  	0.005659 
2738.918720  	0.005629 
2740.847536  	0.005710 
2742.776352  	0.005674 
2744.705168  	0.005749 
2746.633984  	0.005864 
2748.562800  	0.005910 
2750.491616  	0.006043 
2752.420432  	0.006259 
2754.349248  	0.006273 
2756.278064  	0.006202 
2758.206880  	0.006003 
2760.135696  	0.005956 
2762.064512  	0.005941 
2763.993328  	0.005949 
2765.922144  	0.006015 
2767.850960  	0.006091 
2769.779776  	0.006142 
2771.708592  	0.006169 
2773.637408  	0.006054 
2775.566224  	0.005946 
2777.495040  	0.005886 
2779.423856  	0.005911 
2781.352672  	0.005916 
2783.281488  	0.005927 
2785.210304  	0.005885 
2787.139120  	0.005924 
2789.067936  	0.006014 
2790.996752  	0.006043 
2792.925568  	0.005927 
2794.854384  	0.005884 
2796.783200  	0.005820 
2798.712016  	0.005832 
2800.640832  	0.005808 
2802.569648  	0.005861 
2804.498464  	0.005931 
2806.427280  	0.005854 
2808.356096  	0.005782 
2810.284912  	0.005810 
2812.213728  	0.005770 
2814.142544  	0.005692 
2816.071360  	0.005695 
2818.000176  	0.005606 
2819.928992  	0.005504 
2821.857808  	0.005392 
2823.786624  	0.005254 
2825.715440  	0.005095 
2827.644256  	0.004887 
2829.573072  	0.004814 
2831.501888  	0.004576 
2833.430704  	0.004288 
2835.359520  	0.003986 
2837.288336  	0.003692 
2839.217152  	0.003370 
2841.145968  	0.003075 
2843.074784  	0.002699 
2845.003600  	0.002227 
2846.932416  	0.001773 
2848.861232  	0.001360 
2850.790048  	0.000947 
2852.718864  	0.000577 
2854.647680  	0.000064 
2856.576496  	-0.000620 
2858.505312  	-0.001261 
2860.434128  	-0.001818 
2862.362944  	-0.002537 
2864.291760  	-0.003342 
2866.220576  	-0.003951 
2868.149392  	-0.004180 
2870.078208  	-0.004405 
2872.007024  	-0.004560 
2873.935840  	-0.004472 
2875.864656  	-0.004445 
2877.793472  	-0.004669 
2879.722288  	-0.004911 
2881.651104  	-0.005223 
2883.579920  	-0.005428 
2885.508736  	-0.005299 
2887.437552  	-0.005133 
2889.366368  	-0.005127 
2891.295184  	-0.005405 
2893.224000  	-0.005563 
2895.152816  	-0.005514 
2897.081632  	-0.005858 
2899.010448  	-0.007583 
2900.939264  	-0.009094 
2902.868080  	-0.007791 
2904.796896  	-0.006455 
2906.725712  	-0.005986 
2908.654528  	-0.005526 
2910.583344  	-0.005154 
2912.512160  	-0.004541 
2914.440976  	-0.003406 
2916.369792  	-0.002609 
2918.298608  	-0.002164 
2920.227424  	-0.001707 
2922.156240  	-0.001041 
2924.085056  	-0.000196 
2926.013872  	0.000815 
2927.942688  	0.001838 
2929.871504  	0.002644 
2931.800320  	0.003430 
2933.729136  	0.004304 
2935.657952  	0.004827 
2937.586768  	0.005310 
2939.515584  	0.006027 
2941.444400  	0.006361 
2943.373216  	0.006336 
2945.302032  	0.006567 
2947.230848  	0.006867 
2949.159664  	0.006547 
2951.088480  	0.005941 
2953.017296  	0.005527 
2954.946112  	0.004954 
2956.874928  	0.004152 
2958.803744  	0.003298 
2960.732560  	0.002721 
2962.661376  	0.002054 
2964.590192  	0.001226 
2966.519008  	0.000150 
2968.447824  	-0.000882 
2970.376640  	-0.001678 
2972.305456  	-0.002273 
2974.234272  	-0.002073 
2976.163088  	-0.001664 
2978.091904  	-0.001579 
2980.020720  	-0.001580 
2981.949536  	-0.001439 
2983.878352  	-0.001711 
2985.807168  	-0.002715 
2987.735984  	-0.003585 
2989.664800  	-0.003109 
2991.593616  	-0.000122 
2993.522432  	0.001881 
2995.451248  	0.002455 
2997.380064  	0.003272 
2999.308880  	0.004483 
3001.237696  	0.005799 
3003.166512  	0.007227 
3005.095328  	0.008607 
3007.024144  	0.009984 
3008.952960  	0.011408 
3010.881776  	0.012777 
3012.810592  	0.014173 
3014.739408  	0.015576 
3016.668224  	0.016709 
3018.597040  	0.017904 
3020.525856  	0.019167 
3022.454672  	0.020239 
3024.383488  	0.021295 
3026.312304  	0.022239 
3028.241120  	0.023215 
3030.169936  	0.024170 
3032.098752  	0.024990 
3034.027568  	0.025851 
3035.956384  	0.026577 
3037.885200  	0.027448 
3039.814016  	0.028176 
3041.742832  	0.028778 
3043.671648  	0.029273 
3045.600464  	0.029807 
3047.529280  	0.030296 
3049.458096  	0.030821 
3051.386912  	0.031635 
3053.315728  	0.032349 
3055.244544  	0.032865 
3057.173360  	0.033472 
3059.102176  	0.033965 
3061.030992  	0.034560 
3062.959808  	0.035286 
3064.888624  	0.035862 
3066.817440  	0.036466 
3068.746256  	0.037357 
3070.675072  	0.038230 
3072.603888  	0.038928 
3074.532704  	0.039579 
3076.461520  	0.040326 
3078.390336  	0.041100 
3080.319152  	0.041805 
3082.247968  	0.042572 
3084.176784  	0.043295 
3086.105600  	0.044011 
3088.034416  	0.044726 
3089.963232  	0.045498 
3091.892048  	0.046141 
3093.820864  	0.046776 
3095.749680  	0.047509 
3097.678496  	0.048336 
3099.607312  	0.049285 
3101.536128  	0.050159 
3103.464944  	0.050929 
3105.393760  	0.051522 
3107.322576  	0.052207 
3109.251392  	0.053149 
3111.180208  	0.053783 
3113.109024  	0.054353 
3115.037840  	0.055191 
3116.966656  	0.055927 
3118.895472  	0.056434 
3120.824288  	0.056965 
3122.753104  	0.057572 
3124.681920  	0.058120 
3126.610736  	0.058668 
3128.539552  	0.059440 
3130.468368  	0.060203 
3132.397184  	0.060573 
3134.326000  	0.061190 
3136.254816  	0.061904 
3138.183632  	0.062477 
3140.112448  	0.063006 
3142.041264  	0.063483 
3143.970080  	0.064031 
3145.898896  	0.064675 
3147.827712  	0.065351 
3149.756528  	0.065751 
3151.685344  	0.066174 
3153.614160  	0.066892 
3155.542976  	0.067646 
3157.471792  	0.068427 
3159.400608  	0.069069 
3161.329424  	0.069561 
3163.258240  	0.069814 
3165.187056  	0.070410 
3167.115872  	0.071095 
3169.044688  	0.071488 
3170.973504  	0.071799 
3172.902320  	0.072223 
3174.831136  	0.072775 
3176.759952  	0.073146 
3178.688768  	0.073255 
3180.617584  	0.073658 
3182.546400  	0.074187 
3184.475216  	0.074347 
3186.404032  	0.074378 
3188.332848  	0.074576 
3190.261664  	0.074915 
3192.190480  	0.075183 
3194.119296  	0.075176 
3196.048112  	0.075277 
3197.976928  	0.075116 
3199.905744  	0.074908 
3201.834560  	0.074825 
3203.763376  	0.074859 
3205.692192  	0.074909 
3207.621008  	0.074727 
3209.549824  	0.074491 
3211.478640  	0.074557 
3213.407456  	0.074522 
3215.336272  	0.074310 
3217.265088  	0.074167 
3219.193904  	0.074050 
3221.122720  	0.073906 
3223.051536  	0.073727 
3224.980352  	0.073583 
3226.909168  	0.073495 
3228.837984  	0.073263 
3230.766800  	0.073176 
3232.695616  	0.073200 
3234.624432  	0.072953 
3236.553248  	0.072898 
3238.482064  	0.072975 
3240.410880  	0.072815 
3242.339696  	0.072930 
3244.268512  	0.072907 
3246.197328  	0.073112 
3248.126144  	0.073354 
3250.054960  	0.073491 
3251.983776  	0.073729 
3253.912592  	0.073841 
3255.841408  	0.073970 
3257.770224  	0.074211 
3259.699040  	0.074425 
3261.627856  	0.074709 
3263.556672  	0.074885 
3265.485488  	0.074958 
3267.414304  	0.075178 
3269.343120  	0.075562 
3271.271936  	0.075893 
3273.200752  	0.075806 
3275.129568  	0.075881 
3277.058384  	0.076326 
3278.987200  	0.076657 
3280.916016  	0.076903 
3282.844832  	0.076960 
3284.773648  	0.077052 
3286.702464  	0.077399 
3288.631280  	0.077719 
3290.560096  	0.077999 
3292.488912  	0.078274 
3294.417728  	0.078378 
3296.346544  	0.078694 
3298.275360  	0.079031 
3300.204176  	0.079427 
3302.132992  	0.079720 
3304.061808  	0.079798 
3305.990624  	0.080186 
3307.919440  	0.080612 
3309.848256  	0.080997 
3311.777072  	0.081316 
3313.705888  	0.081450 
3315.634704  	0.081978 
3317.563520  	0.082452 
3319.492336  	0.082579 
3321.421152  	0.082735 
3323.349968  	0.083034 
3325.278784  	0.083136 
3327.207600  	0.083185 
3329.136416  	0.083119 
3331.065232  	0.083325 
3332.994048  	0.083641 
3334.922864  	0.083749 
3336.851680  	0.083639 
3338.780496  	0.083593 
3340.709312  	0.083515 
3342.638128  	0.083322 
3344.566944  	0.082972 
3346.495760  	0.082680 
3348.424576  	0.082582 
3350.353392  	0.082407 
3352.282208  	0.082077 
3354.211024  	0.081766 
3356.139840  	0.081487 
3358.068656  	0.081140 
3359.997472  	0.080765 
3361.926288  	0.080386 
3363.855104  	0.080019 
3365.783920  	0.079644 
3367.712736  	0.079311 
3369.641552  	0.079072 
3371.570368  	0.078705 
3373.499184  	0.078325 
3375.428000  	0.077961 
3377.356816  	0.077633 
3379.285632  	0.077335 
3381.214448  	0.076764 
3383.143264  	0.076315 
3385.072080  	0.075981 
3387.000896  	0.075480 
3388.929712  	0.075292 
3390.858528  	0.075176 
3392.787344  	0.074747 
3394.716160  	0.074329 
3396.644976  	0.074066 
3398.573792  	0.073722 
3400.502608  	0.073312 
3402.431424  	0.072696 
3404.360240  	0.072055 
3406.289056  	0.071677 
3408.217872  	0.071345 
3410.146688  	0.070846 
3412.075504  	0.070405 
3414.004320  	0.069971 
3415.933136  	0.069693 
3417.861952  	0.069134 
3419.790768  	0.068352 
3421.719584  	0.067803 
3423.648400  	0.067626 
3425.577216  	0.067082 
3427.506032  	0.066408 
3429.434848  	0.066018 
3431.363664  	0.065502 
3433.292480  	0.064922 
3435.221296  	0.064431 
3437.150112  	0.063936 
3439.078928  	0.063558 
3441.007744  	0.063035 
3442.936560  	0.062559 
3444.865376  	0.062151 
3446.794192  	0.061119 
3448.723008  	0.060241 
3450.651824  	0.059885 
3452.580640  	0.059376 
3454.509456  	0.058920 
3456.438272  	0.058369 
3458.367088  	0.057789 
3460.295904  	0.057064 
3462.224720  	0.056153 
3464.153536  	0.055415 
3466.082352  	0.054892 
3468.011168  	0.054076 
3469.939984  	0.053294 
3471.868800  	0.052760 
3473.797616  	0.052176 
3475.726432  	0.051231 
3477.655248  	0.050553 
3479.584064  	0.050248 
3481.512880  	0.049304 
3483.441696  	0.048180 
3485.370512  	0.047686 
3487.299328  	0.046691 
3489.228144  	0.045768 
3491.156960  	0.045228 
3493.085776  	0.044697 
3495.014592  	0.044031 
3496.943408  	0.043301 
3498.872224  	0.042774 
3500.801040  	0.042678 
3502.729856  	0.041728 
3504.658672  	0.040512 
3506.587488  	0.040392 
3508.516304  	0.039878 
3510.445120  	0.038740 
3512.373936  	0.038046 
3514.302752  	0.037608 
3516.231568  	0.037452 
3518.160384  	0.036937 
3520.089200  	0.036251 
3522.018016  	0.035673 
3523.946832  	0.035397 
3525.875648  	0.035066 
3527.804464  	0.033831 
3529.733280  	0.032806 
3531.662096  	0.032277 
3533.590912  	0.031943 
3535.519728  	0.031569 
3537.448544  	0.030717 
3539.377360  	0.030069 
3541.306176  	0.029920 
3543.234992  	0.029920 
3545.163808  	0.029743 
3547.092624  	0.028560 
3549.021440  	0.027609 
3550.950256  	0.027198 
3552.879072  	0.026048 
3554.807888  	0.025470 
3556.736704  	0.025187 
3558.665520  	0.025034 
3560.594336  	0.024588 
3562.523152  	0.023872 
3564.451968  	0.024034 
3566.380784  	0.023192 
3568.309600  	0.020486 
3570.238416  	0.020386 
3572.167232  	0.020631 
3574.096048  	0.019730 
3576.024864  	0.018647 
3577.953680  	0.018257 
3579.882496  	0.017722 
3581.811312  	0.017213 
3583.740128  	0.017146 
3585.668944  	0.017209 
3587.597760  	0.014725 
3589.526576  	0.013102 
3591.455392  	0.013779 
3593.384208  	0.013652 
3595.313024  	0.012178 
3597.241840  	0.010750 
3599.170656  	0.009779 
3601.099472  	0.008717 
3603.028288  	0.008825 
3604.957104  	0.009445 
3606.885920  	0.008801 
3608.814736  	0.006908 
3610.743552  	0.006814 
3612.672368  	0.005837 
3614.601184  	0.004275 
3616.530000  	0.004708 
3618.458816  	0.002348 
3620.387632  	-0.000394 
3622.316448  	0.000310 
3624.245264  	0.001077 
3626.174080  	0.001587 
3628.102896  	-0.001532 
3630.031712  	-0.007195 
3631.960528  	-0.004516 
3633.889344  	-0.004366 
3635.818160  	-0.005137 
3637.746976  	-0.005527 
3639.675792  	-0.005813 
3641.604608  	-0.005857 
3643.533424  	-0.005740 
3645.462240  	-0.005376 
3647.391056  	-0.008253 
3649.319872  	-0.014341 
3651.248688  	-0.017164 
3653.177504  	-0.013041 
3655.106320  	-0.012232 
3657.035136  	-0.015996 
3658.963952  	-0.015635 
3660.892768  	-0.015176 
3662.821584  	-0.015191 
3664.750400  	-0.014847 
3666.679216  	-0.014012 
3668.608032  	-0.015646 
3670.536848  	-0.020580 
3672.465664  	-0.017816 
3674.394480  	-0.017740 
3676.323296  	-0.025105 
3678.252112  	-0.020953 
3680.180928  	-0.018809 
3682.109744  	-0.017859 
3684.038560  	-0.017419 
3685.967376  	-0.016266 
3687.896192  	-0.018538 
3689.825008  	-0.023193 
3691.753824  	-0.022735 
3693.682640  	-0.019848 
3695.611456  	-0.018099 
3697.540272  	-0.017186 
3699.469088  	-0.016024 
3701.397904  	-0.017431 
3703.326720  	-0.017947 
3705.255536  	-0.015775 
3707.184352  	-0.014503 
3709.113168  	-0.015390 
3711.041984  	-0.018603 
3712.970800  	-0.019106 
3714.899616  	-0.015753 
3716.828432  	-0.014252 
3718.757248  	-0.014796 
3720.686064  	-0.015015 
3722.614880  	-0.015679 
3724.543696  	-0.015471 
3726.472512  	-0.016242 
3728.401328  	-0.015676 
3730.330144  	-0.014425 
3732.258960  	-0.016014 
3734.187776  	-0.016173 
3736.116592  	-0.018888 
3738.045408  	-0.018482 
3739.974224  	-0.015521 
3741.903040  	-0.012743 
3743.831856  	-0.015316 
3745.760672  	-0.020001 
3747.689488  	-0.015728 
3749.618304  	-0.017915 
3751.547120  	-0.021767 
3753.475936  	-0.020043 
3755.404752  	-0.015935 
3757.333568  	-0.015136 
3759.262384  	-0.016558 
3761.191200  	-0.016831 
3763.120016  	-0.013924 
3765.048832  	-0.014549 
3766.977648  	-0.014850 
3768.906464  	-0.015300 
3770.835280  	-0.017191 
3772.764096  	-0.015446 
3774.692912  	-0.014115 
3776.621728  	-0.013493 
3778.550544  	-0.014843 
3780.479360  	-0.016887 
3782.408176  	-0.014985 
3784.336992  	-0.015153 
3786.265808  	-0.015485 
3788.194624  	-0.014935 
3790.123440  	-0.014750 
3792.052256  	-0.014437 
3793.981072  	-0.013611 
3795.909888  	-0.015012 
3797.838704  	-0.015418 
3799.767520  	-0.014489 
3801.696336  	-0.020072 
3803.625152  	-0.018688 
3805.553968  	-0.015755 
3807.482784  	-0.018830 
3809.411600  	-0.016840 
3811.340416  	-0.014458 
3813.269232  	-0.012965 
3815.198048  	-0.015354 
3817.126864  	-0.018145 
3819.055680  	-0.015198 
3820.984496  	-0.019398 
3822.913312  	-0.019643 
3824.842128  	-0.015506 
3826.770944  	-0.016154 
3828.699760  	-0.015315 
3830.628576  	-0.014944 
3832.557392  	-0.015947 
3834.486208  	-0.015237 
3836.415024  	-0.015918 
3838.343840  	-0.018806 
3840.272656  	-0.018872 
3842.201472  	-0.016961 
3844.130288  	-0.016906 
3846.059104  	-0.015622 
3847.987920  	-0.013768 
3849.916736  	-0.012607 
3851.845552  	-0.013903 
3853.774368  	-0.023036 
3855.703184  	-0.021408 
3857.632000  	-0.016860 
3859.560816  	-0.014419 
3861.489632  	-0.014027 
3863.418448  	-0.015038 
3865.347264  	-0.016608 
3867.276080  	-0.014247 
3869.204896  	-0.015462 
3871.133712  	-0.017958 
3873.062528  	-0.016024 
3874.991344  	-0.017111 
3876.920160  	-0.014347 
3878.848976  	-0.012899 
3880.777792  	-0.015400 
3882.706608  	-0.014516 
3884.635424  	-0.014137 
3886.564240  	-0.016979 
3888.493056  	-0.014481 
3890.421872  	-0.014361 
3892.350688  	-0.016724 
3894.279504  	-0.015433 
3896.208320  	-0.013424 
3898.137136  	-0.012869 
3900.065952  	-0.013718 
3901.994768  	-0.013946 
3903.923584  	-0.015910 
3905.852400  	-0.016972 
3907.781216  	-0.015572 
3909.710032  	-0.014533 
3911.638848  	-0.014327 
3913.567664  	-0.013745 
3915.496480  	-0.013198 
3917.425296  	-0.014158 
3919.354112  	-0.014719 
3921.282928  	-0.014369 
3923.211744  	-0.013695 
3925.140560  	-0.014436 
3927.069376  	-0.014132 
3928.998192  	-0.013605 
3930.927008  	-0.013813 
3932.855824  	-0.014480 
3934.784640  	-0.014618 
3936.713456  	-0.014134 
3938.642272  	-0.013827 
3940.571088  	-0.013198 
3942.499904  	-0.013681 
3944.428720  	-0.014295 
3946.357536  	-0.013423 
3948.286352  	-0.013497 
3950.215168  	-0.014266 
3952.143984  	-0.014657 
3954.072800  	-0.014469 
3956.001616  	-0.014263 
3957.930432  	-0.014384 
3959.859248  	-0.014174 
3961.788064  	-0.014165 
3963.716880  	-0.014529 
3965.645696  	-0.014613 
3967.574512  	-0.014462 
3969.503328  	-0.014326 
3971.432144  	-0.014341 
3973.360960  	-0.014366 
3975.289776  	-0.014477 
3977.218592  	-0.014418 
3979.147408  	-0.014385 
3981.076224  	-0.014382 
3983.005040  	-0.014440 
3984.933856  	-0.014430 
3986.862672  	-0.014390 
3988.791488  	-0.014155 
3990.720304  	-0.014103 
3992.649120  	-0.014220 
3994.577936  	-0.014354 
3996.506752  	-0.014351 
3998.435568  	-0.014384 
4000.364384  	-0.014404 