##TITLE=No Description
##DATA TYPE=INFRARED SPECTRUM
##XUNITS=1/CM
##YUNITS=Abs
399.264912  	0.602813 
401.193728  	0.588035 
403.122544  	0.592140 
405.051360  	0.595190 
406.980176  	0.592514 
408.908992  	0.571955 
410.837808  	0.573559 
412.766624  	0.569652 
414.695440  	0.563546 
416.624256  	0.562600 
418.553072  	0.577845 
420.481888  	0.571484 
422.410704  	0.563672 
424.339520  	0.557474 
426.268336  	0.551514 
428.197152  	0.537045 
430.125968  	0.541003 
432.054784  	0.542238 
433.983600  	0.541613 
435.912416  	0.535844 
437.841232  	0.531311 
439.770048  	0.524869 
441.698864  	0.527559 
443.627680  	0.529818 
445.556496  	0.531853 
447.485312  	0.530080 
449.414128  	0.527737 
451.342944  	0.525808 
453.271760  	0.528770 
455.200576  	0.527363 
457.129392  	0.528808 
459.058208  	0.528886 
460.987024  	0.533012 
462.915840  	0.531375 
464.844656  	0.526453 
466.773472  	0.522260 
468.702288  	0.524571 
470.631104  	0.520311 
472.559920  	0.518373 
474.488736  	0.519525 
476.417552  	0.525419 
478.346368  	0.520781 
480.275184  	0.517174 
482.204000  	0.510379 
484.132816  	0.514858 
486.061632  	0.513517 
487.990448  	0.513621 
489.919264  	0.513008 
491.848080  	0.514018 
493.776896  	0.514100 
495.705712  	0.516334 
497.634528  	0.512367 
499.563344  	0.509096 
501.492160  	0.505700 
503.420976  	0.506874 
505.349792  	0.505717 
507.278608  	0.505610 
509.207424  	0.505101 
511.136240  	0.507965 
513.065056  	0.509894 
514.993872  	0.509584 
516.922688  	0.510820 
518.851504  	0.514483 
520.780320  	0.512753 
522.709136  	0.511777 
524.637952  	0.510471 
526.566768  	0.510776 
528.495584  	0.508174 
530.424400  	0.506401 
532.353216  	0.501516 
534.282032  	0.495560 
536.210848  	0.488555 
538.139664  	0.484386 
540.068480  	0.479702 
541.997296  	0.475363 
543.926112  	0.469445 
545.854928  	0.465099 
547.783744  	0.461570 
549.712560  	0.459972 
551.641376  	0.456706 
553.570192  	0.452658 
555.499008  	0.447644 
557.427824  	0.443837 
559.356640  	0.439796 
561.285456  	0.436735 
563.214272  	0.432682 
565.143088  	0.429858 
567.071904  	0.425162 
569.000720  	0.422131 
570.929536  	0.420025 
572.858352  	0.417137 
574.787168  	0.413803 
576.715984  	0.412153 
578.644800  	0.407871 
580.573616  	0.403383 
582.502432  	0.397789 
584.431248  	0.394862 
586.360064  	0.392508 
588.288880  	0.390139 
590.217696  	0.387078 
592.146512  	0.384628 
594.075328  	0.381742 
596.004144  	0.380163 
597.932960  	0.378011 
599.861776  	0.376323 
601.790592  	0.374120 
603.719408  	0.372965 
605.648224  	0.372188 
607.577040  	0.370851 
609.505856  	0.368625 
611.434672  	0.366895 
613.363488  	0.365216 
615.292304  	0.364361 
617.221120  	0.362997 
619.149936  	0.361373 
621.078752  	0.360058 
623.007568  	0.359341 
624.936384  	0.358295 
626.865200  	0.356985 
628.794016  	0.354810 
630.722832  	0.353794 
632.651648  	0.353982 
634.580464  	0.354675 
636.509280  	0.354804 
638.438096  	0.354586 
640.366912  	0.354017 
642.295728  	0.352443 
644.224544  	0.349440 
646.153360  	0.346219 
648.082176  	0.342014 
650.010992  	0.338910 
651.939808  	0.335417 
653.868624  	0.331192 
655.797440  	0.326920 
657.726256  	0.323353 
659.655072  	0.319511 
661.583888  	0.315366 
663.512704  	0.311246 
665.441520  	0.308122 
667.370336  	0.301380 
669.299152  	0.294459 
671.227968  	0.293740 
673.156784  	0.291421 
675.085600  	0.288795 
677.014416  	0.286223 
678.943232  	0.284208 
680.872048  	0.282408 
682.800864  	0.280767 
684.729680  	0.279155 
686.658496  	0.277968 
688.587312  	0.277071 
690.516128  	0.275242 
692.444944  	0.273787 
694.373760  	0.272904 
696.302576  	0.271172 
698.231392  	0.268735 
700.160208  	0.266303 
702.089024  	0.263889 
704.017840  	0.261811 
705.946656  	0.259573 
707.875472  	0.257278 
709.804288  	0.255048 
711.733104  	0.253480 
713.661920  	0.251581 
715.590736  	0.249795 
717.519552  	0.249397 
719.448368  	0.249875 
721.377184  	0.250286 
723.306000  	0.250822 
725.234816  	0.251156 
727.163632  	0.250590 
729.092448  	0.248714 
731.021264  	0.245779 
732.950080  	0.242508 
734.878896  	0.239217 
736.807712  	0.236091 
738.736528  	0.233356 
740.665344  	0.231234 
742.594160  	0.229666 
744.522976  	0.228187 
746.451792  	0.226640 
748.380608  	0.224934 
750.309424  	0.223698 
752.238240  	0.222686 
754.167056  	0.222018 
756.095872  	0.221157 
758.024688  	0.220351 
759.953504  	0.219764 
761.882320  	0.220598 
763.811136  	0.221580 
765.739952  	0.220920 
767.668768  	0.218625 
769.597584  	0.215873 
771.526400  	0.214623 
773.455216  	0.216104 
775.384032  	0.219910 
777.312848  	0.225372 
779.241664  	0.230208 
781.170480  	0.230886 
783.099296  	0.226944 
785.028112  	0.220929 
786.956928  	0.214818 
788.885744  	0.210059 
790.814560  	0.206452 
792.743376  	0.203876 
794.672192  	0.202669 
796.601008  	0.202105 
798.529824  	0.199369 
800.458640  	0.194725 
802.387456  	0.190982 
804.316272  	0.189038 
806.245088  	0.188100 
808.173904  	0.187352 
810.102720  	0.186646 
812.031536  	0.186789 
813.960352  	0.187359 
815.889168  	0.187538 
817.817984  	0.187836 
819.746800  	0.188236 
821.675616  	0.188431 
823.604432  	0.188535 
825.533248  	0.188392 
827.462064  	0.187997 
829.390880  	0.187180 
831.319696  	0.185986 
833.248512  	0.184077 
835.177328  	0.181670 
837.106144  	0.178908 
839.034960  	0.175670 
840.963776  	0.172183 
842.892592  	0.168448 
844.821408  	0.164954 
846.750224  	0.161986 
848.679040  	0.159205 
850.607856  	0.157086 
852.536672  	0.155589 
854.465488  	0.154315 
856.394304  	0.153057 
858.323120  	0.151769 
860.251936  	0.149893 
862.180752  	0.147592 
864.109568  	0.144898 
866.038384  	0.142323 
867.967200  	0.140202 
869.896016  	0.138394 
871.824832  	0.137406 
873.753648  	0.136898 
875.682464  	0.137418 
877.611280  	0.138277 
879.540096  	0.139290 
881.468912  	0.141325 
883.397728  	0.142957 
885.326544  	0.143906 
887.255360  	0.144135 
889.184176  	0.143155 
891.112992  	0.141281 
893.041808  	0.139546 
894.970624  	0.137062 
896.899440  	0.133406 
898.828256  	0.129217 
900.757072  	0.125106 
902.685888  	0.121652 
904.614704  	0.119694 
906.543520  	0.119744 
908.472336  	0.121154 
910.401152  	0.123735 
912.329968  	0.126522 
914.258784  	0.129577 
916.187600  	0.132614 
918.116416  	0.135330 
920.045232  	0.137122 
921.974048  	0.138256 
923.902864  	0.138771 
925.831680  	0.138639 
927.760496  	0.138824 
929.689312  	0.139410 
931.618128  	0.140283 
933.546944  	0.141005 
935.475760  	0.141470 
937.404576  	0.141413 
939.333392  	0.141027 
941.262208  	0.141262 
943.191024  	0.143172 
945.119840  	0.147404 
947.048656  	0.153858 
948.977472  	0.162317 
950.906288  	0.172699 
952.835104  	0.184363 
954.763920  	0.196607 
956.692736  	0.208097 
958.621552  	0.217758 
960.550368  	0.224375 
962.479184  	0.227350 
964.408000  	0.226189 
966.336816  	0.221241 
968.265632  	0.212305 
970.194448  	0.200299 
972.123264  	0.186762 
974.052080  	0.172588 
975.980896  	0.158696 
977.909712  	0.145769 
979.838528  	0.134251 
981.767344  	0.124707 
983.696160  	0.117396 
985.624976  	0.112592 
987.553792  	0.110517 
989.482608  	0.111443 
991.411424  	0.114915 
993.340240  	0.119992 
995.269056  	0.126517 
997.197872  	0.133624 
999.126688  	0.140839 
1001.055504  	0.148323 
1002.984320  	0.155689 
1004.913136  	0.162770 
1006.841952  	0.169772 
1008.770768  	0.175710 
1010.699584  	0.179819 
1012.628400  	0.182380 
1014.557216  	0.183420 
1016.486032  	0.183512 
1018.414848  	0.183120 
1020.343664  	0.182653 
1022.272480  	0.182121 
1024.201296  	0.181163 
1026.130112  	0.178126 
1028.058928  	0.177005 
1029.987744  	0.180352 
1031.916560  	0.182913 
1033.845376  	0.184618 
1035.774192  	0.186485 
1037.703008  	0.189975 
1039.631824  	0.197264 
1041.560640  	0.207173 
1043.489456  	0.219995 
1045.418272  	0.235765 
1047.347088  	0.253086 
1049.275904  	0.268617 
1051.204720  	0.280401 
1053.133536  	0.287586 
1055.062352  	0.290407 
1056.991168  	0.289512 
1058.919984  	0.290006 
1060.848800  	0.290438 
1062.777616  	0.287693 
1064.706432  	0.281246 
1066.635248  	0.275784 
1068.564064  	0.273586 
1070.492880  	0.268435 
1072.421696  	0.260498 
1074.350512  	0.255098 
1076.279328  	0.253446 
1078.208144  	0.256026 
1080.136960  	0.261742 
1082.065776  	0.268042 
1083.994592  	0.271584 
1085.923408  	0.271990 
1087.852224  	0.268899 
1089.781040  	0.263303 
1091.709856  	0.256125 
1093.638672  	0.246901 
1095.567488  	0.234770 
1097.496304  	0.221327 
1099.425120  	0.207323 
1101.353936  	0.193759 
1103.282752  	0.180491 
1105.211568  	0.167749 
1107.140384  	0.155428 
1109.069200  	0.143690 
1110.998016  	0.133113 
1112.926832  	0.123642 
1114.855648  	0.114962 
1116.784464  	0.106784 
1118.713280  	0.099082 
1120.642096  	0.091934 
1122.570912  	0.085202 
1124.499728  	0.078816 
1126.428544  	0.073233 
1128.357360  	0.068081 
1130.286176  	0.063827 
1132.214992  	0.060226 
1134.143808  	0.057491 
1136.072624  	0.055095 
1138.001440  	0.052922 
1139.930256  	0.050441 
1141.859072  	0.048063 
1143.787888  	0.045509 
1145.716704  	0.043238 
1147.645520  	0.041073 
1149.574336  	0.039423 
1151.503152  	0.037974 
1153.431968  	0.037362 
1155.360784  	0.037488 
1157.289600  	0.038346 
1159.218416  	0.039895 
1161.147232  	0.041989 
1163.076048  	0.044313 
1165.004864  	0.046876 
1166.933680  	0.049305 
1168.862496  	0.051960 
1170.791312  	0.054507 
1172.720128  	0.057665 
1174.648944  	0.060857 
1176.577760  	0.064122 
1178.506576  	0.067154 
1180.435392  	0.070211 
1182.364208  	0.073121 
1184.293024  	0.076501 
1186.221840  	0.079955 
1188.150656  	0.083937 
1190.079472  	0.088583 
1192.008288  	0.094116 
1193.937104  	0.100861 
1195.865920  	0.108989 
1197.794736  	0.117983 
1199.723552  	0.127899 
1201.652368  	0.137834 
1203.581184  	0.147817 
1205.510000  	0.157524 
1207.438816  	0.166746 
1209.367632  	0.175549 
1211.296448  	0.183055 
1213.225264  	0.189334 
1215.154080  	0.194115 
1217.082896  	0.197557 
1219.011712  	0.199721 
1220.940528  	0.201441 
1222.869344  	0.202448 
1224.798160  	0.202440 
1226.726976  	0.201634 
1228.655792  	0.200624 
1230.584608  	0.198939 
1232.513424  	0.196530 
1234.442240  	0.193354 
1236.371056  	0.189437 
1238.299872  	0.184256 
1240.228688  	0.176760 
1242.157504  	0.169277 
1244.086320  	0.162942 
1246.015136  	0.155036 
1247.943952  	0.146281 
1249.872768  	0.137489 
1251.801584  	0.129799 
1253.730400  	0.122219 
1255.659216  	0.114711 
1257.588032  	0.107778 
1259.516848  	0.101147 
1261.445664  	0.094942 
1263.374480  	0.089350 
1265.303296  	0.084686 
1267.232112  	0.080907 
1269.160928  	0.077979 
1271.089744  	0.075796 
1273.018560  	0.074566 
1274.947376  	0.074098 
1276.876192  	0.074194 
1278.805008  	0.073849 
1280.733824  	0.072526 
1282.662640  	0.070452 
1284.591456  	0.068025 
1286.520272  	0.065828 
1288.449088  	0.064389 
1290.377904  	0.063706 
1292.306720  	0.063854 
1294.235536  	0.063925 
1296.164352  	0.063031 
1298.093168  	0.060611 
1300.021984  	0.057561 
1301.950800  	0.054377 
1303.879616  	0.051318 
1305.808432  	0.047882 
1307.737248  	0.044562 
1309.666064  	0.041365 
1311.594880  	0.039002 
1313.523696  	0.037092 
1315.452512  	0.035828 
1317.381328  	0.035031 
1319.310144  	0.034781 
1321.238960  	0.034959 
1323.167776  	0.035803 
1325.096592  	0.036712 
1327.025408  	0.037323 
1328.954224  	0.037369 
1330.883040  	0.036960 
1332.811856  	0.036227 
1334.740672  	0.035741 
1336.669488  	0.035484 
1338.598304  	0.035329 
1340.527120  	0.033814 
1342.455936  	0.032526 
1344.384752  	0.032265 
1346.313568  	0.032516 
1348.242384  	0.033132 
1350.171200  	0.034415 
1352.100016  	0.036092 
1354.028832  	0.038167 
1355.957648  	0.039967 
1357.886464  	0.042119 
1359.815280  	0.044649 
1361.744096  	0.046991 
1363.672912  	0.048068 
1365.601728  	0.049580 
1367.530544  	0.051162 
1369.459360  	0.051516 
1371.388176  	0.051533 
1373.316992  	0.050349 
1375.245808  	0.046740 
1377.174624  	0.044080 
1379.103440  	0.041106 
1381.032256  	0.038067 
1382.961072  	0.035763 
1384.889888  	0.035150 
1386.818704  	0.034238 
1388.747520  	0.032115 
1390.676336  	0.030023 
1392.605152  	0.027157 
1394.533968  	0.025080 
1396.462784  	0.027581 
1398.391600  	0.028713 
1400.320416  	0.027816 
1402.249232  	0.028612 
1404.178048  	0.029325 
1406.106864  	0.029668 
1408.035680  	0.031641 
1409.964496  	0.034157 
1411.893312  	0.036968 
1413.822128  	0.040164 
1415.750944  	0.044108 
1417.679760  	0.046671 
1419.608576  	0.045648 
1421.537392  	0.046192 
1423.466208  	0.046527 
1425.395024  	0.044481 
1427.323840  	0.043416 
1429.252656  	0.040934 
1431.181472  	0.038977 
1433.110288  	0.039068 
1435.039104  	0.040089 
1436.967920  	0.038656 
1438.896736  	0.039418 
1440.825552  	0.040992 
1442.754368  	0.041751 
1444.683184  	0.042163 
1446.612000  	0.042249 
1448.540816  	0.040777 
1450.469632  	0.041335 
1452.398448  	0.042463 
1454.327264  	0.044098 
1456.256080  	0.043440 
1458.184896  	0.039439 
1460.113712  	0.041073 
1462.042528  	0.043341 
1463.971344  	0.043245 
1465.900160  	0.043012 
1467.828976  	0.046088 
1469.757792  	0.050223 
1471.686608  	0.053550 
1473.615424  	0.058305 
1475.544240  	0.064994 
1477.473056  	0.071034 
1479.401872  	0.075610 
1481.330688  	0.078928 
1483.259504  	0.081177 
1485.188320  	0.083329 
1487.117136  	0.083486 
1489.045952  	0.082187 
1490.974768  	0.078062 
1492.903584  	0.076339 
1494.832400  	0.073680 
1496.761216  	0.066243 
1498.690032  	0.059387 
1500.618848  	0.055296 
1502.547664  	0.052153 
1504.476480  	0.049113 
1506.405296  	0.041577 
1508.334112  	0.036569 
1510.262928  	0.037456 
1512.191744  	0.036120 
1514.120560  	0.035590 
1516.049376  	0.035005 
1517.978192  	0.033942 
1519.907008  	0.036082 
1521.835824  	0.035725 
1523.764640  	0.040153 
1525.693456  	0.044699 
1527.622272  	0.046680 
1529.551088  	0.047950 
1531.479904  	0.048324 
1533.408720  	0.043515 
1535.337536  	0.040019 
1537.266352  	0.039693 
1539.195168  	0.032503 
1541.123984  	0.023631 
1543.052800  	0.025480 
1544.981616  	0.025537 
1546.910432  	0.025515 
1548.839248  	0.026388 
1550.768064  	0.026204 
1552.696880  	0.026662 
1554.625696  	0.027194 
1556.554512  	0.028568 
1558.483328  	0.026339 
1560.412144  	0.027721 
1562.340960  	0.036361 
1564.269776  	0.041075 
1566.198592  	0.046638 
1568.127408  	0.051453 
1570.056224  	0.056092 
1571.985040  	0.063543 
1573.913856  	0.069514 
1575.842672  	0.070171 
1577.771488  	0.072071 
1579.700304  	0.074740 
1581.629120  	0.074800 
1583.557936  	0.074231 
1585.486752  	0.075039 
1587.415568  	0.077558 
1589.344384  	0.082261 
1591.273200  	0.088446 
1593.202016  	0.095953 
1595.130832  	0.103834 
1597.059648  	0.112271 
1598.988464  	0.119555 
1600.917280  	0.125805 
1602.846096  	0.129706 
1604.774912  	0.132241 
1606.703728  	0.132541 
1608.632544  	0.131377 
1610.561360  	0.129057 
1612.490176  	0.127706 
1614.418992  	0.126195 
1616.347808  	0.122705 
1618.276624  	0.122742 
1620.205440  	0.128150 
1622.134256  	0.131465 
1624.063072  	0.136606 
1625.991888  	0.144195 
1627.920704  	0.152545 
1629.849520  	0.162698 
1631.778336  	0.173261 
1633.707152  	0.180673 
1635.635968  	0.187047 
1637.564784  	0.196582 
1639.493600  	0.205620 
1641.422416  	0.211261 
1643.351232  	0.215740 
1645.280048  	0.216176 
1647.208864  	0.213833 
1649.137680  	0.215300 
1651.066496  	0.217364 
1652.995312  	0.208439 
1654.924128  	0.205222 
1656.852944  	0.207151 
1658.781760  	0.205689 
1660.710576  	0.202115 
1662.639392  	0.195885 
1664.568208  	0.191247 
1666.497024  	0.189518 
1668.425840  	0.183605 
1670.354656  	0.175242 
1672.283472  	0.172242 
1674.212288  	0.169507 
1676.141104  	0.163669 
1678.069920  	0.163355 
1679.998736  	0.162658 
1681.927552  	0.161792 
1683.856368  	0.155726 
1685.785184  	0.153381 
1687.714000  	0.156680 
1689.642816  	0.156188 
1691.571632  	0.154693 
1693.500448  	0.154538 
1695.429264  	0.150034 
1697.358080  	0.146507 
1699.286896  	0.144796 
1701.215712  	0.137308 
1703.144528  	0.137842 
1705.073344  	0.134018 
1707.002160  	0.127531 
1708.930976  	0.123367 
1710.859792  	0.117421 
1712.788608  	0.110765 
1714.717424  	0.102227 
1716.646240  	0.090700 
1718.575056  	0.075616 
1720.503872  	0.068443 
1722.432688  	0.062376 
1724.361504  	0.052868 
1726.290320  	0.045271 
1728.219136  	0.039166 
1730.147952  	0.033540 
1732.076768  	0.029312 
1734.005584  	0.021314 
1735.934400  	0.015695 
1737.863216  	0.016830 
1739.792032  	0.013010 
1741.720848  	0.011812 
1743.649664  	0.011192 
1745.578480  	0.010523 
1747.507296  	0.009007 
1749.436112  	0.007809 
1751.364928  	0.006078 
1753.293744  	0.005825 
1755.222560  	0.006276 
1757.151376  	0.005158 
1759.080192  	0.004756 
1761.009008  	0.004240 
1762.937824  	0.002265 
1764.866640  	0.003211 
1766.795456  	0.003962 
1768.724272  	0.003413 
1770.653088  	0.001941 
1772.581904  	-0.001423 
1774.510720  	-0.000741 
1776.439536  	0.001191 
1778.368352  	0.001647 
1780.297168  	0.001017 
1782.225984  	0.000469 
1784.154800  	0.001096 
1786.083616  	0.000285 
1788.012432  	0.000850 
1789.941248  	0.001481 
1791.870064  	-0.000185 
1793.798880  	-0.002065 
1795.727696  	-0.000383 
1797.656512  	-0.000306 
1799.585328  	-0.000374 
1801.514144  	-0.000678 
1803.442960  	-0.000639 
1805.371776  	-0.001028 
1807.300592  	-0.000622 
1809.229408  	-0.001018 
1811.158224  	-0.001616 
1813.087040  	-0.002016 
1815.015856  	-0.001365 
1816.944672  	-0.001338 
1818.873488  	-0.001309 
1820.802304  	-0.001352 
1822.731120  	-0.000403 
1824.659936  	-0.001292 
1826.588752  	-0.001940 
1828.517568  	-0.002053 
1830.446384  	-0.003136 
1832.375200  	-0.002481 
1834.304016  	-0.001550 
1836.232832  	-0.001865 
1838.161648  	-0.001638 
1840.090464  	-0.001450 
1842.019280  	-0.000310 
1843.948096  	-0.001995 
1845.876912  	-0.002605 
1847.805728  	-0.001896 
1849.734544  	-0.001930 
1851.663360  	-0.002018 
1853.592176  	-0.001852 
1855.520992  	-0.002054 
1857.449808  	-0.001888 
1859.378624  	-0.002089 
1861.307440  	-0.002214 
1863.236256  	-0.002339 
1865.165072  	-0.001682 
1867.093888  	-0.001889 
1869.022704  	-0.002785 
1870.951520  	-0.003075 
1872.880336  	-0.002107 
1874.809152  	-0.002313 
1876.737968  	-0.002300 
1878.666784  	-0.002575 
1880.595600  	-0.001975 
1882.524416  	-0.002303 
1884.453232  	-0.002216 
1886.382048  	-0.002378 
1888.310864  	-0.002082 
1890.239680  	-0.002923 
1892.168496  	-0.002370 
1894.097312  	-0.002230 
1896.026128  	-0.002358 
1897.954944  	-0.002789 
1899.883760  	-0.002434 
1901.812576  	-0.002536 
1903.741392  	-0.002781 
1905.670208  	-0.002722 
1907.599024  	-0.002068 
1909.527840  	-0.002289 
1911.456656  	-0.002002 
1913.385472  	-0.002234 
1915.314288  	-0.001756 
1917.243104  	-0.001905 
1919.171920  	-0.002224 
1921.100736  	-0.002255 
1923.029552  	-0.001985 
1924.958368  	-0.002431 
1926.887184  	-0.002234 
1928.816000  	-0.002631 
1930.744816  	-0.002590 
1932.673632  	-0.002639 
1934.602448  	-0.002180 
1936.531264  	-0.002196 
1938.460080  	-0.001605 
1940.388896  	-0.001872 
1942.317712  	-0.002176 
1944.246528  	-0.002808 
1946.175344  	-0.001898 
1948.104160  	-0.002184 
1950.032976  	-0.002218 
1951.961792  	-0.002836 
1953.890608  	-0.002121 
1955.819424  	-0.002597 
1957.748240  	-0.001645 
1959.677056  	-0.001630 
1961.605872  	-0.001400 
1963.534688  	-0.002220 
1965.463504  	-0.001571 
1967.392320  	-0.001716 
1969.321136  	-0.001177 
1971.249952  	-0.001989 
1973.178768  	-0.000538 
1975.107584  	-0.000240 
1977.036400  	-0.000375 
1978.965216  	0.000280 
1980.894032  	0.000526 
1982.822848  	-0.000963 
1984.751664  	-0.000695 
1986.680480  	-0.001929 
1988.609296  	-0.001531 
1990.538112  	-0.001759 
1992.466928  	-0.001210 
1994.395744  	-0.002100 
1996.324560  	-0.001453 
1998.253376  	-0.001760 
2000.182192  	-0.001638 
2002.111008  	-0.001885 
2004.039824  	-0.001376 
2005.968640  	-0.001983 
2007.897456  	-0.001220 
2009.826272  	-0.001286 
2011.755088  	-0.000703 
2013.683904  	-0.001298 
2015.612720  	-0.000747 
2017.541536  	-0.001523 
2019.470352  	-0.001013 
2021.399168  	-0.002073 
2023.327984  	-0.002020 
2025.256800  	-0.001457 
2027.185616  	-0.000585 
2029.114432  	-0.001145 
2031.043248  	-0.000262 
2032.972064  	-0.000131 
2034.900880  	-0.000259 
2036.829696  	-0.001300 
2038.758512  	-0.000950 
2040.687328  	-0.001458 
2042.616144  	-0.000481 
2044.544960  	-0.001408 
2046.473776  	-0.001814 
2048.402592  	-0.002266 
2050.331408  	-0.001987 
2052.260224  	-0.002553 
2054.189040  	-0.002587 
2056.117856  	-0.002820 
2058.046672  	-0.002360 
2059.975488  	-0.002759 
2061.904304  	-0.002776 
2063.833120  	-0.002952 
2065.761936  	-0.002663 
2067.690752  	-0.002997 
2069.619568  	-0.002502 
2071.548384  	-0.002697 
2073.477200  	-0.002821 
2075.406016  	-0.002697 
2077.334832  	-0.002115 
2079.263648  	-0.002129 
2081.192464  	-0.001828 
2083.121280  	-0.002228 
2085.050096  	-0.002713 
2086.978912  	-0.002650 
2088.907728  	-0.002264 
2090.836544  	-0.002573 
2092.765360  	-0.002209 
2094.694176  	-0.001755 
2096.622992  	-0.001905 
2098.551808  	-0.002495 
2100.480624  	-0.001889 
2102.409440  	-0.001521 
2104.338256  	-0.001798 
2106.267072  	-0.001769 
2108.195888  	-0.001099 
2110.124704  	-0.001575 
2112.053520  	-0.001876 
2113.982336  	-0.001983 
2115.911152  	-0.001992 
2117.839968  	-0.002099 
2119.768784  	-0.002193 
2121.697600  	-0.002624 
2123.626416  	-0.002645 
2125.555232  	-0.002996 
2127.484048  	-0.002365 
2129.412864  	-0.002373 
2131.341680  	-0.002681 
2133.270496  	-0.002888 
2135.199312  	-0.002157 
2137.128128  	-0.001995 
2139.056944  	-0.001437 
2140.985760  	-0.001219 
2142.914576  	-0.001517 
2144.843392  	-0.001564 
2146.772208  	-0.000613 
2148.701024  	-0.001423 
2150.629840  	-0.001197 
2152.558656  	-0.001277 
2154.487472  	-0.001094 
2156.416288  	-0.001519 
2158.345104  	0.000011 
2160.273920  	0.001585 
2162.202736  	0.001924 
2164.131552  	0.000730 
2166.060368  	0.000475 
2167.989184  	0.000559 
2169.918000  	0.001486 
2171.846816  	0.000447 
2173.775632  	0.000669 
2175.704448  	0.000981 
2177.633264  	0.000852 
2179.562080  	-0.000299 
2181.490896  	0.000481 
2183.419712  	-0.000171 
2185.348528  	0.000180 
2187.277344  	-0.000276 
2189.206160  	-0.000625 
2191.134976  	-0.000744 
2193.063792  	-0.000846 
2194.992608  	-0.001029 
2196.921424  	-0.000672 
2198.850240  	-0.000602 
2200.779056  	-0.000896 
2202.707872  	-0.001294 
2204.636688  	-0.001109 
2206.565504  	-0.001293 
2208.494320  	-0.001209 
2210.423136  	-0.002001 
2212.351952  	-0.002178 
2214.280768  	-0.001689 
2216.209584  	-0.001043 
2218.138400  	-0.001950 
2220.067216  	-0.001776 
2221.996032  	-0.001790 
2223.924848  	-0.001250 
2225.853664  	-0.000976 
2227.782480  	-0.001147 
2229.711296  	-0.002055 
2231.640112  	-0.002592 
2233.568928  	-0.003022 
2235.497744  	-0.002678 
2237.426560  	-0.002713 
2239.355376  	-0.002277 
2241.284192  	-0.002484 
2243.213008  	-0.002533 
2245.141824  	-0.002721 
2247.070640  	-0.002434 
2248.999456  	-0.002719 
2250.928272  	-0.003382 
2252.857088  	-0.003864 
2254.785904  	-0.003485 
2256.714720  	-0.003872 
2258.643536  	-0.003627 
2260.572352  	-0.003502 
2262.501168  	-0.003728 
2264.429984  	-0.004012 
2266.358800  	-0.003636 
2268.287616  	-0.003942 
2270.216432  	-0.003823 
2272.145248  	-0.003507 
2274.074064  	-0.003397 
2276.002880  	-0.003451 
2277.931696  	-0.003237 
2279.860512  	-0.003422 
2281.789328  	-0.003202 
2283.718144  	-0.003023 
2285.646960  	-0.002797 
2287.575776  	-0.002788 
2289.504592  	-0.002888 
2291.433408  	-0.003213 
2293.362224  	-0.003138 
2295.291040  	-0.003054 
2297.219856  	-0.002703 
2299.148672  	-0.002665 
2301.077488  	-0.002539 
2303.006304  	-0.002384 
2304.935120  	-0.002114 
2306.863936  	-0.002128 
2308.792752  	-0.002301 
2310.721568  	-0.002744 
2312.650384  	-0.003208 
2314.579200  	-0.003772 
2316.508016  	-0.004373 
2318.436832  	-0.005083 
2320.365648  	-0.006148 
2322.294464  	-0.007736 
2324.223280  	-0.009182 
2326.152096  	-0.010645 
2328.080912  	-0.011778 
2330.009728  	-0.013403 
2331.938544  	-0.015303 
2333.867360  	-0.016534 
2335.796176  	-0.017362 
2337.724992  	-0.018241 
2339.653808  	-0.018182 
2341.582624  	-0.018451 
2343.511440  	-0.018184 
2345.440256  	-0.016647 
2347.369072  	-0.012273 
2349.297888  	-0.008663 
2351.226704  	-0.010132 
2353.155520  	-0.014885 
2355.084336  	-0.018516 
2357.013152  	-0.021543 
2358.941968  	-0.023304 
2360.870784  	-0.024234 
2362.799600  	-0.023994 
2364.728416  	-0.023245 
2366.657232  	-0.021392 
2368.586048  	-0.018824 
2370.514864  	-0.015733 
2372.443680  	-0.012831 
2374.372496  	-0.010048 
2376.301312  	-0.007723 
2378.230128  	-0.005744 
2380.158944  	-0.004481 
2382.087760  	-0.003862 
2384.016576  	-0.003763 
2385.945392  	-0.003741 
2387.874208  	-0.003898 
2389.803024  	-0.003987 
2391.731840  	-0.004248 
2393.660656  	-0.004413 
2395.589472  	-0.004360 
2397.518288  	-0.004027 
2399.447104  	-0.004124 
2401.375920  	-0.004232 
2403.304736  	-0.004410 
2405.233552  	-0.004317 
2407.162368  	-0.004414 
2409.091184  	-0.004395 
2411.020000  	-0.004363 
2412.948816  	-0.004217 
2414.877632  	-0.004106 
2416.806448  	-0.003941 
2418.735264  	-0.004042 
2420.664080  	-0.004274 
2422.592896  	-0.004340 
2424.521712  	-0.004215 
2426.450528  	-0.004365 
2428.379344  	-0.004250 
2430.308160  	-0.003982 
2432.236976  	-0.003980 
2434.165792  	-0.004081 
2436.094608  	-0.003912 
2438.023424  	-0.003855 
2439.952240  	-0.003638 
2441.881056  	-0.003655 
2443.809872  	-0.003781 
2445.738688  	-0.003665 
2447.667504  	-0.003391 
2449.596320  	-0.003244 
2451.525136  	-0.003120 
2453.453952  	-0.003333 
2455.382768  	-0.003556 
2457.311584  	-0.003667 
2459.240400  	-0.003672 
2461.169216  	-0.003716 
2463.098032  	-0.003710 
2465.026848  	-0.003538 
2466.955664  	-0.003462 
2468.884480  	-0.003712 
2470.813296  	-0.003943 
2472.742112  	-0.003913 
2474.670928  	-0.003710 
2476.599744  	-0.003682 
2478.528560  	-0.003649 
2480.457376  	-0.003700 
2482.386192  	-0.003667 
2484.315008  	-0.003520 
2486.243824  	-0.003381 
2488.172640  	-0.003405 
2490.101456  	-0.003180 
2492.030272  	-0.002984 
2493.959088  	-0.002835 
2495.887904  	-0.002859 
2497.816720  	-0.002897 
2499.745536  	-0.002837 
2501.674352  	-0.002822 
2503.603168  	-0.002814 
2505.531984  	-0.002744 
2507.460800  	-0.002913 
2509.389616  	-0.002900 
2511.318432  	-0.002849 
2513.247248  	-0.002713 
2515.176064  	-0.002678 
2517.104880  	-0.002555 
2519.033696  	-0.002625 
2520.962512  	-0.002469 
2522.891328  	-0.002340 
2524.820144  	-0.002394 
2526.748960  	-0.002453 
2528.677776  	-0.002323 
2530.606592  	-0.002249 
2532.535408  	-0.002267 
2534.464224  	-0.002205 
2536.393040  	-0.002165 
2538.321856  	-0.002150 
2540.250672  	-0.002036 
2542.179488  	-0.001940 
2544.108304  	-0.001881 
2546.037120  	-0.001940 
2547.965936  	-0.001859 
2549.894752  	-0.001703 
2551.823568  	-0.001699 
2553.752384  	-0.001627 
2555.681200  	-0.001325 
2557.610016  	-0.001219 
2559.538832  	-0.001167 
2561.467648  	-0.001098 
2563.396464  	-0.000929 
2565.325280  	-0.000672 
2567.254096  	-0.000628 
2569.182912  	-0.000714 
2571.111728  	-0.000687 
2573.040544  	-0.000826 
2574.969360  	-0.000692 
2576.898176  	-0.000295 
2578.826992  	-0.000177 
2580.755808  	-0.000296 
2582.684624  	-0.000275 
2584.613440  	-0.000196 
2586.542256  	-0.000147 
2588.471072  	-0.000085 
2590.399888  	0.000125 
2592.328704  	0.000230 
2594.257520  	0.000177 
2596.186336  	0.000088 
2598.115152  	0.000089 
2600.043968  	0.000047 
2601.972784  	0.000239 
2603.901600  	0.000486 
2605.830416  	0.000652 
2607.759232  	0.000755 
2609.688048  	0.000855 
2611.616864  	0.000835 
2613.545680  	0.000955 
2615.474496  	0.001081 
2617.403312  	0.001228 
2619.332128  	0.001466 
2621.260944  	0.001467 
2623.189760  	0.001399 
2625.118576  	0.001541 
2627.047392  	0.001613 
2628.976208  	0.001790 
2630.905024  	0.001936 
2632.833840  	0.001917 
2634.762656  	0.002033 
2636.691472  	0.002235 
2638.620288  	0.002309 
2640.549104  	0.002367 
2642.477920  	0.002462 
2644.406736  	0.002641 
2646.335552  	0.002747 
2648.264368  	0.002880 
2650.193184  	0.002959 
2652.122000  	0.003122 
2654.050816  	0.003363 
2655.979632  	0.003607 
2657.908448  	0.003688 
2659.837264  	0.003799 
2661.766080  	0.003935 
2663.694896  	0.004060 
2665.623712  	0.004096 
2667.552528  	0.004283 
2669.481344  	0.004457 
2671.410160  	0.004592 
2673.338976  	0.004651 
2675.267792  	0.004758 
2677.196608  	0.004903 
2679.125424  	0.005022 
2681.054240  	0.005154 
2682.983056  	0.005286 
2684.911872  	0.005364 
2686.840688  	0.005484 
2688.769504  	0.005505 
2690.698320  	0.005513 
2692.627136  	0.005675 
2694.555952  	0.005892 
2696.484768  	0.005946 
2698.413584  	0.005962 
2700.342400  	0.006026 
2702.271216  	0.006271 
2704.200032  	0.006510 
2706.128848  	0.006590 
2708.057664  	0.006576 
2709.986480  	0.006642 
2711.915296  	0.006730 
2713.844112  	0.006954 
2715.772928  	0.007169 
2717.701744  	0.007353 
2719.630560  	0.007557 
2721.559376  	0.007644 
2723.488192  	0.007737 
2725.417008  	0.007993 
2727.345824  	0.008202 
2729.274640  	0.008243 
2731.203456  	0.008412 
2733.132272  	0.008654 
2735.061088  	0.008751 
2736.989904  	0.008896 
2738.918720  	0.008956 
2740.847536  	0.009043 
2742.776352  	0.009013 
2744.705168  	0.009070 
2746.633984  	0.009193 
2748.562800  	0.009276 
2750.491616  	0.009287 
2752.420432  	0.009414 
2754.349248  	0.009386 
2756.278064  	0.009409 
2758.206880  	0.009329 
2760.135696  	0.009335 
2762.064512  	0.009442 
2763.993328  	0.009515 
2765.922144  	0.009500 
2767.850960  	0.009484 
2769.779776  	0.009477 
2771.708592  	0.009526 
2773.637408  	0.009436 
2775.566224  	0.009356 
2777.495040  	0.009356 
2779.423856  	0.009468 
2781.352672  	0.009564 
2783.281488  	0.009456 
2785.210304  	0.009360 
2787.139120  	0.009364 
2789.067936  	0.009399 
2790.996752  	0.009463 
2792.925568  	0.009346 
2794.854384  	0.009272 
2796.783200  	0.009242 
2798.712016  	0.009335 
2800.640832  	0.009371 
2802.569648  	0.009354 
2804.498464  	0.009382 
2806.427280  	0.009359 
2808.356096  	0.009300 
2810.284912  	0.009361 
2812.213728  	0.009383 
2814.142544  	0.009288 
2816.071360  	0.009216 
2818.000176  	0.009126 
2819.928992  	0.008987 
2821.857808  	0.008891 
2823.786624  	0.008826 
2825.715440  	0.008717 
2827.644256  	0.008501 
2829.573072  	0.008380 
2831.501888  	0.008128 
2833.430704  	0.007743 
2835.359520  	0.007362 
2837.288336  	0.007095 
2839.217152  	0.006804 
2841.145968  	0.006443 
2843.074784  	0.006018 
2845.003600  	0.005624 
2846.932416  	0.005283 
2848.861232  	0.004892 
2850.790048  	0.004409 
2852.718864  	0.003920 
2854.647680  	0.003399 
2856.576496  	0.002907 
2858.505312  	0.002347 
2860.434128  	0.001743 
2862.362944  	0.001059 
2864.291760  	0.000327 
2866.220576  	-0.000297 
2868.149392  	-0.000543 
2870.078208  	-0.000738 
2872.007024  	-0.000860 
2873.935840  	-0.000798 
2875.864656  	-0.000645 
2877.793472  	-0.000656 
2879.722288  	-0.000784 
2881.651104  	-0.001084 
2883.579920  	-0.001330 
2885.508736  	-0.001071 
2887.437552  	-0.000721 
2889.366368  	-0.000681 
2891.295184  	-0.000954 
2893.224000  	-0.001154 
2895.152816  	-0.001016 
2897.081632  	-0.001257 
2899.010448  	-0.002968 
2900.939264  	-0.004522 
2902.868080  	-0.003230 
2904.796896  	-0.001944 
2906.725712  	-0.001543 
2908.654528  	-0.000963 
2910.583344  	-0.000542 
2912.512160  	0.000095 
2914.440976  	0.001349 
2916.369792  	0.002134 
2918.298608  	0.002552 
2920.227424  	0.003065 
2922.156240  	0.003827 
2924.085056  	0.004773 
2926.013872  	0.005779 
2927.942688  	0.006796 
2929.871504  	0.007848 
2931.800320  	0.008841 
2933.729136  	0.009648 
2935.657952  	0.010318 
2937.586768  	0.011097 
2939.515584  	0.011745 
2941.444400  	0.011979 
2943.373216  	0.012095 
2945.302032  	0.012484 
2947.230848  	0.012807 
2949.159664  	0.012581 
2951.088480  	0.012060 
2953.017296  	0.011614 
2954.946112  	0.011044 
2956.874928  	0.010326 
2958.803744  	0.009495 
2960.732560  	0.008915 
2962.661376  	0.008328 
2964.590192  	0.007274 
2966.519008  	0.005937 
2968.447824  	0.004937 
2970.376640  	0.004178 
2972.305456  	0.003664 
2974.234272  	0.003895 
2976.163088  	0.004316 
2978.091904  	0.004263 
2980.020720  	0.004221 
2981.949536  	0.004524 
2983.878352  	0.004304 
2985.807168  	0.003346 
2987.735984  	0.002461 
2989.664800  	0.002902 
2991.593616  	0.005959 
2993.522432  	0.007930 
2995.451248  	0.008461 
2997.380064  	0.009295 
2999.308880  	0.010511 
3001.237696  	0.011884 
3003.166512  	0.013333 
3005.095328  	0.014762 
3007.024144  	0.016203 
3008.952960  	0.017680 
3010.881776  	0.019206 
3012.810592  	0.020521 
3014.739408  	0.021939 
3016.668224  	0.023208 
3018.597040  	0.024470 
3020.525856  	0.025719 
3022.454672  	0.026907 
3024.383488  	0.028037 
3026.312304  	0.029005 
3028.241120  	0.030062 
3030.169936  	0.031046 
3032.098752  	0.031817 
3034.027568  	0.032651 
3035.956384  	0.033509 
3037.885200  	0.034508 
3039.814016  	0.035334 
3041.742832  	0.035960 
3043.671648  	0.036564 
3045.600464  	0.037289 
3047.529280  	0.037843 
3049.458096  	0.038440 
3051.386912  	0.039252 
3053.315728  	0.039935 
3055.244544  	0.040550 
3057.173360  	0.041316 
3059.102176  	0.042065 
3061.030992  	0.042818 
3062.959808  	0.043638 
3064.888624  	0.044324 
3066.817440  	0.045024 
3068.746256  	0.046067 
3070.675072  	0.047034 
3072.603888  	0.047636 
3074.532704  	0.048450 
3076.461520  	0.049434 
3078.390336  	0.050211 
3080.319152  	0.050900 
3082.247968  	0.051732 
3084.176784  	0.052704 
3086.105600  	0.053679 
3088.034416  	0.054489 
3089.963232  	0.055442 
3091.892048  	0.056291 
3093.820864  	0.057092 
3095.749680  	0.057889 
3097.678496  	0.058746 
3099.607312  	0.059625 
3101.536128  	0.060506 
3103.464944  	0.061608 
3105.393760  	0.062535 
3107.322576  	0.063285 
3109.251392  	0.064175 
3111.180208  	0.064936 
3113.109024  	0.065609 
3115.037840  	0.066401 
3116.966656  	0.067227 
3118.895472  	0.067901 
3120.824288  	0.068600 
3122.753104  	0.069351 
3124.681920  	0.069956 
3126.610736  	0.070512 
3128.539552  	0.071409 
3130.468368  	0.072354 
3132.397184  	0.072905 
3134.326000  	0.073456 
3136.254816  	0.074204 
3138.183632  	0.074961 
3140.112448  	0.075438 
3142.041264  	0.076169 
3143.970080  	0.076848 
3145.898896  	0.077208 
3147.827712  	0.077947 
3149.756528  	0.078759 
3151.685344  	0.079260 
3153.614160  	0.079945 
3155.542976  	0.080795 
3157.471792  	0.081497 
3159.400608  	0.082162 
3161.329424  	0.082840 
3163.258240  	0.083322 
3165.187056  	0.083758 
3167.115872  	0.084347 
3169.044688  	0.084964 
3170.973504  	0.085397 
3172.902320  	0.085869 
3174.831136  	0.086465 
3176.759952  	0.086978 
3178.688768  	0.087206 
3180.617584  	0.087548 
3182.546400  	0.088015 
3184.475216  	0.088147 
3186.404032  	0.088108 
3188.332848  	0.088451 
3190.261664  	0.088758 
3192.190480  	0.088820 
3194.119296  	0.088690 
3196.048112  	0.088805 
3197.976928  	0.088750 
3199.905744  	0.088644 
3201.834560  	0.088578 
3203.763376  	0.088528 
3205.692192  	0.088506 
3207.621008  	0.088421 
3209.549824  	0.088202 
3211.478640  	0.088124 
3213.407456  	0.088077 
3215.336272  	0.087731 
3217.265088  	0.087644 
3219.193904  	0.087469 
3221.122720  	0.087217 
3223.051536  	0.087060 
3224.980352  	0.086902 
3226.909168  	0.086633 
3228.837984  	0.086326 
3230.766800  	0.086312 
3232.695616  	0.086475 
3234.624432  	0.086336 
3236.553248  	0.086116 
3238.482064  	0.086084 
3240.410880  	0.086145 
3242.339696  	0.086256 
3244.268512  	0.086095 
3246.197328  	0.086187 
3248.126144  	0.086667 
3250.054960  	0.086865 
3251.983776  	0.086977 
3253.912592  	0.087160 
3255.841408  	0.087312 
3257.770224  	0.087446 
3259.699040  	0.087806 
3261.627856  	0.088269 
3263.556672  	0.088404 
3265.485488  	0.088489 
3267.414304  	0.088834 
3269.343120  	0.089306 
3271.271936  	0.089489 
3273.200752  	0.089441 
3275.129568  	0.089570 
3277.058384  	0.090012 
3278.987200  	0.090236 
3280.916016  	0.090481 
3282.844832  	0.090677 
3284.773648  	0.090753 
3286.702464  	0.090994 
3288.631280  	0.091222 
3290.560096  	0.091658 
3292.488912  	0.092038 
3294.417728  	0.092209 
3296.346544  	0.092621 
3298.275360  	0.092999 
3300.204176  	0.093293 
3302.132992  	0.093410 
3304.061808  	0.093699 
3305.990624  	0.094193 
3307.919440  	0.094543 
3309.848256  	0.094829 
3311.777072  	0.095204 
3313.705888  	0.095570 
3315.634704  	0.096083 
3317.563520  	0.096325 
3319.492336  	0.096488 
3321.421152  	0.096656 
3323.349968  	0.096896 
3325.278784  	0.097235 
3327.207600  	0.097410 
3329.136416  	0.097341 
3331.065232  	0.097404 
3332.994048  	0.097613 
3334.922864  	0.097716 
3336.851680  	0.097541 
3338.780496  	0.097361 
3340.709312  	0.097265 
3342.638128  	0.097164 
3344.566944  	0.096775 
3346.495760  	0.096501 
3348.424576  	0.096182 
3350.353392  	0.095715 
3352.282208  	0.095452 
3354.211024  	0.095207 
3356.139840  	0.094889 
3358.068656  	0.094532 
3359.997472  	0.094116 
3361.926288  	0.093717 
3363.855104  	0.093411 
3365.783920  	0.092899 
3367.712736  	0.092366 
3369.641552  	0.091949 
3371.570368  	0.091494 
3373.499184  	0.091022 
3375.428000  	0.090581 
3377.356816  	0.090417 
3379.285632  	0.090238 
3381.214448  	0.089729 
3383.143264  	0.089116 
3385.072080  	0.088589 
3387.000896  	0.088273 
3388.929712  	0.088015 
3390.858528  	0.087640 
3392.787344  	0.087169 
3394.716160  	0.086724 
3396.644976  	0.086325 
3398.573792  	0.085778 
3400.502608  	0.085267 
3402.431424  	0.084694 
3404.360240  	0.084100 
3406.289056  	0.083616 
3408.217872  	0.083166 
3410.146688  	0.082615 
3412.075504  	0.082136 
3414.004320  	0.081640 
3415.933136  	0.081217 
3417.861952  	0.080716 
3419.790768  	0.080009 
3421.719584  	0.079242 
3423.648400  	0.078757 
3425.577216  	0.078222 
3427.506032  	0.077756 
3429.434848  	0.077248 
3431.363664  	0.076557 
3433.292480  	0.075879 
3435.221296  	0.075275 
3437.150112  	0.074791 
3439.078928  	0.074289 
3441.007744  	0.073632 
3442.936560  	0.073013 
3444.865376  	0.072549 
3446.794192  	0.071482 
3448.723008  	0.070486 
3450.651824  	0.070037 
3452.580640  	0.069575 
3454.509456  	0.069132 
3456.438272  	0.068488 
3458.367088  	0.067827 
3460.295904  	0.067071 
3462.224720  	0.065975 
3464.153536  	0.065006 
3466.082352  	0.064379 
3468.011168  	0.063358 
3469.939984  	0.062581 
3471.868800  	0.062153 
3473.797616  	0.061275 
3475.726432  	0.060137 
3477.655248  	0.059534 
3479.584064  	0.059114 
3481.512880  	0.058198 
3483.441696  	0.056893 
3485.370512  	0.056119 
3487.299328  	0.055042 
3489.228144  	0.054314 
3491.156960  	0.053837 
3493.085776  	0.052963 
3495.014592  	0.051934 
3496.943408  	0.051059 
3498.872224  	0.050674 
3500.801040  	0.050488 
3502.729856  	0.049394 
3504.658672  	0.048039 
3506.587488  	0.047795 
3508.516304  	0.047377 
3510.445120  	0.046251 
3512.373936  	0.045457 
3514.302752  	0.044870 
3516.231568  	0.044681 
3518.160384  	0.044115 
3520.089200  	0.043376 
3522.018016  	0.042962 
3523.946832  	0.042380 
3525.875648  	0.041467 
3527.804464  	0.040100 
3529.733280  	0.039076 
3531.662096  	0.038609 
3533.590912  	0.038330 
3535.519728  	0.038086 
3537.448544  	0.037409 
3539.377360  	0.036698 
3541.306176  	0.036273 
3543.234992  	0.036080 
3545.163808  	0.035569 
3547.092624  	0.034238 
3549.021440  	0.033295 
3550.950256  	0.032853 
3552.879072  	0.031693 
3554.807888  	0.031120 
3556.736704  	0.030852 
3558.665520  	0.030638 
3560.594336  	0.030079 
3562.523152  	0.029248 
3564.451968  	0.029297 
3566.380784  	0.028465 
3568.309600  	0.025450 
3570.238416  	0.025037 
3572.167232  	0.025378 
3574.096048  	0.024655 
3576.024864  	0.023716 
3577.953680  	0.023111 
3579.882496  	0.022355 
3581.811312  	0.021924 
3583.740128  	0.021975 
3585.668944  	0.021982 
3587.597760  	0.019003 
3589.526576  	0.016818 
3591.455392  	0.017754 
3593.384208  	0.017713 
3595.313024  	0.016109 
3597.241840  	0.014793 
3599.170656  	0.013734 
3601.099472  	0.012485 
3603.028288  	0.012384 
3604.957104  	0.012882 
3606.885920  	0.012263 
3608.814736  	0.010031 
3610.743552  	0.009538 
3612.672368  	0.008613 
3614.601184  	0.007041 
3616.530000  	0.007477 
3618.458816  	0.005102 
3620.387632  	0.002299 
3622.316448  	0.003063 
3624.245264  	0.003900 
3626.174080  	0.004471 
3628.102896  	0.001196 
3630.031712  	-0.005159 
3631.960528  	-0.002174 
3633.889344  	-0.002005 
3635.818160  	-0.002881 
3637.746976  	-0.003402 
3639.675792  	-0.003781 
3641.604608  	-0.003983 
3643.533424  	-0.004131 
3645.462240  	-0.003709 
3647.391056  	-0.006747 
3649.319872  	-0.013042 
3651.248688  	-0.016128 
3653.177504  	-0.011846 
3655.106320  	-0.010986 
3657.035136  	-0.014875 
3658.963952  	-0.014320 
3660.892768  	-0.013816 
3662.821584  	-0.014073 
3664.750400  	-0.013853 
3666.679216  	-0.012915 
3668.608032  	-0.014485 
3670.536848  	-0.019658 
3672.465664  	-0.016782 
3674.394480  	-0.016485 
3676.323296  	-0.024416 
3678.252112  	-0.020422 
3680.180928  	-0.017894 
3682.109744  	-0.016783 
3684.038560  	-0.016410 
3685.967376  	-0.015529 
3687.896192  	-0.018241 
3689.825008  	-0.022996 
3691.753824  	-0.022175 
3693.682640  	-0.019259 
3695.611456  	-0.017636 
3697.540272  	-0.016724 
3699.469088  	-0.015449 
3701.397904  	-0.016759 
3703.326720  	-0.017253 
3705.255536  	-0.015220 
3707.184352  	-0.014028 
3709.113168  	-0.014770 
3711.041984  	-0.017844 
3712.970800  	-0.018985 
3714.899616  	-0.015723 
3716.828432  	-0.013734 
3718.757248  	-0.014114 
3720.686064  	-0.014531 
3722.614880  	-0.015237 
3724.543696  	-0.014821 
3726.472512  	-0.015407 
3728.401328  	-0.014799 
3730.330144  	-0.013659 
3732.258960  	-0.015537 
3734.187776  	-0.015755 
3736.116592  	-0.018576 
3738.045408  	-0.018186 
3739.974224  	-0.015017 
3741.903040  	-0.012291 
3743.831856  	-0.014720 
3745.760672  	-0.019432 
3747.689488  	-0.014937 
3749.618304  	-0.016972 
3751.547120  	-0.020967 
3753.475936  	-0.019512 
3755.404752  	-0.015515 
3757.333568  	-0.014763 
3759.262384  	-0.016014 
3761.191200  	-0.016311 
3763.120016  	-0.013582 
3765.048832  	-0.014258 
3766.977648  	-0.014514 
3768.906464  	-0.014879 
3770.835280  	-0.016850 
3772.764096  	-0.015169 
3774.692912  	-0.013791 
3776.621728  	-0.013082 
3778.550544  	-0.014359 
3780.479360  	-0.016392 
3782.408176  	-0.014309 
3784.336992  	-0.014362 
3786.265808  	-0.014809 
3788.194624  	-0.014296 
3790.123440  	-0.014204 
3792.052256  	-0.014115 
3793.981072  	-0.013284 
3795.909888  	-0.014454 
3797.838704  	-0.014720 
3799.767520  	-0.013644 
3801.696336  	-0.019427 
3803.625152  	-0.018232 
3805.553968  	-0.015178 
3807.482784  	-0.018229 
3809.411600  	-0.016174 
3811.340416  	-0.013920 
3813.269232  	-0.012487 
3815.198048  	-0.014747 
3817.126864  	-0.017814 
3819.055680  	-0.014835 
3820.984496  	-0.018907 
3822.913312  	-0.019264 
3824.842128  	-0.014970 
3826.770944  	-0.015586 
3828.699760  	-0.014747 
3830.628576  	-0.014228 
3832.557392  	-0.015278 
3834.486208  	-0.014820 
3836.415024  	-0.015563 
3838.343840  	-0.018175 
3840.272656  	-0.018290 
3842.201472  	-0.016488 
3844.130288  	-0.016467 
3846.059104  	-0.015149 
3847.987920  	-0.013156 
3849.916736  	-0.011698 
3851.845552  	-0.012647 
3853.774368  	-0.022304 
3855.703184  	-0.021040 
3857.632000  	-0.016437 
3859.560816  	-0.013891 
3861.489632  	-0.013552 
3863.418448  	-0.014806 
3865.347264  	-0.016376 
3867.276080  	-0.013704 
3869.204896  	-0.014610 
3871.133712  	-0.017305 
3873.062528  	-0.015290 
3874.991344  	-0.016347 
3876.920160  	-0.013747 
3878.848976  	-0.012338 
3880.777792  	-0.014864 
3882.706608  	-0.013978 
3884.635424  	-0.013415 
3886.564240  	-0.016339 
3888.493056  	-0.013923 
3890.421872  	-0.013869 
3892.350688  	-0.016368 
3894.279504  	-0.014981 
3896.208320  	-0.012798 
3898.137136  	-0.012166 
3900.065952  	-0.013266 
3901.994768  	-0.013567 
3903.923584  	-0.015462 
3905.852400  	-0.016576 
3907.781216  	-0.015016 
3909.710032  	-0.013911 
3911.638848  	-0.013727 
3913.567664  	-0.013276 
3915.496480  	-0.012717 
3917.425296  	-0.013669 
3919.354112  	-0.014293 
3921.282928  	-0.013812 
3923.211744  	-0.012825 
3925.140560  	-0.013521 
3927.069376  	-0.013520 
3928.998192  	-0.013061 
3930.927008  	-0.013155 
3932.855824  	-0.013993 
3934.784640  	-0.014131 
3936.713456  	-0.013671 
3938.642272  	-0.013443 
3940.571088  	-0.012731 
3942.499904  	-0.013247 
3944.428720  	-0.013825 
3946.357536  	-0.012956 
3948.286352  	-0.013002 
3950.215168  	-0.013748 
3952.143984  	-0.014077 
3954.072800  	-0.013792 
3956.001616  	-0.013545 
3957.930432  	-0.013624 
3959.859248  	-0.013549 
3961.788064  	-0.013689 
3963.716880  	-0.014028 
3965.645696  	-0.014026 
3967.574512  	-0.013872 
3969.503328  	-0.013719 
3971.432144  	-0.013807 
3973.360960  	-0.013820 
3975.289776  	-0.013828 
3977.218592  	-0.013801 
3979.147408  	-0.013781 
3981.076224  	-0.013843 
3983.005040  	-0.013927 
3984.933856  	-0.013887 
3986.862672  	-0.013926 
3988.791488  	-0.013655 
3990.720304  	-0.013478 
3992.649120  	-0.013632 
3994.577936  	-0.013922 
3996.506752  	-0.013921 
3998.435568  	-0.013890 
4000.364384  	-0.013926 