##TITLE=No Description
##DATA TYPE=INFRARED SPECTRUM
##XUNITS=1/CM
##YUNITS=Abs
399.264912  	0.628426 
401.193728  	0.598055 
403.122544  	0.600444 
405.051360  	0.604180 
406.980176  	0.593148 
408.908992  	0.573311 
410.837808  	0.578085 
412.766624  	0.584609 
414.695440  	0.595999 
416.624256  	0.591888 
418.553072  	0.597727 
420.481888  	0.591457 
422.410704  	0.584235 
424.339520  	0.562108 
426.268336  	0.551463 
428.197152  	0.551029 
430.125968  	0.551783 
432.054784  	0.545550 
433.983600  	0.548761 
435.912416  	0.548794 
437.841232  	0.551918 
439.770048  	0.544436 
441.698864  	0.540512 
443.627680  	0.542761 
445.556496  	0.547674 
447.485312  	0.538828 
449.414128  	0.534348 
451.342944  	0.534581 
453.271760  	0.536986 
455.200576  	0.530236 
457.129392  	0.536025 
459.058208  	0.532488 
460.987024  	0.531860 
462.915840  	0.530305 
464.844656  	0.534364 
466.773472  	0.532610 
468.702288  	0.535289 
470.631104  	0.540275 
472.559920  	0.540235 
474.488736  	0.525179 
476.417552  	0.526779 
478.346368  	0.525212 
480.275184  	0.522437 
482.204000  	0.525874 
484.132816  	0.531966 
486.061632  	0.523640 
487.990448  	0.521525 
489.919264  	0.523922 
491.848080  	0.525192 
493.776896  	0.521113 
495.705712  	0.520393 
497.634528  	0.518789 
499.563344  	0.520088 
501.492160  	0.518220 
503.420976  	0.517647 
505.349792  	0.514810 
507.278608  	0.517078 
509.207424  	0.517055 
511.136240  	0.518255 
513.065056  	0.517972 
514.993872  	0.521908 
516.922688  	0.521173 
518.851504  	0.519526 
520.780320  	0.518762 
522.709136  	0.522963 
524.637952  	0.521406 
526.566768  	0.518719 
528.495584  	0.515994 
530.424400  	0.514568 
532.353216  	0.509993 
534.282032  	0.505322 
536.210848  	0.498782 
538.139664  	0.494402 
540.068480  	0.488993 
541.997296  	0.483100 
543.926112  	0.478242 
545.854928  	0.476280 
547.783744  	0.471252 
549.712560  	0.466624 
551.641376  	0.462220 
553.570192  	0.459720 
555.499008  	0.456880 
557.427824  	0.455502 
559.356640  	0.450264 
561.285456  	0.445660 
563.214272  	0.442138 
565.143088  	0.440089 
567.071904  	0.435897 
569.000720  	0.431822 
570.929536  	0.428732 
572.858352  	0.426515 
574.787168  	0.423560 
576.715984  	0.421593 
578.644800  	0.417621 
580.573616  	0.413233 
582.502432  	0.408947 
584.431248  	0.406549 
586.360064  	0.402670 
588.288880  	0.399590 
590.217696  	0.396916 
592.146512  	0.393978 
594.075328  	0.390493 
596.004144  	0.389196 
597.932960  	0.387660 
599.861776  	0.386396 
601.790592  	0.384680 
603.719408  	0.383046 
605.648224  	0.380938 
607.577040  	0.380031 
609.505856  	0.378540 
611.434672  	0.377139 
613.363488  	0.374733 
615.292304  	0.373472 
617.221120  	0.371987 
619.149936  	0.370861 
621.078752  	0.369073 
623.007568  	0.368414 
624.936384  	0.366889 
626.865200  	0.365195 
628.794016  	0.363940 
630.722832  	0.363321 
632.651648  	0.362498 
634.580464  	0.362521 
636.509280  	0.362669 
638.438096  	0.363157 
640.366912  	0.362505 
642.295728  	0.360301 
644.224544  	0.357582 
646.153360  	0.354637 
648.082176  	0.350344 
650.010992  	0.346731 
651.939808  	0.342679 
653.868624  	0.338858 
655.797440  	0.335333 
657.726256  	0.331947 
659.655072  	0.327661 
661.583888  	0.323465 
663.512704  	0.319726 
665.441520  	0.316979 
667.370336  	0.310757 
669.299152  	0.304222 
671.227968  	0.302787 
673.156784  	0.300178 
675.085600  	0.297099 
677.014416  	0.294301 
678.943232  	0.292417 
680.872048  	0.291165 
682.800864  	0.289109 
684.729680  	0.287214 
686.658496  	0.285690 
688.587312  	0.284638 
690.516128  	0.283091 
692.444944  	0.281446 
694.373760  	0.279952 
696.302576  	0.277977 
698.231392  	0.275774 
700.160208  	0.273879 
702.089024  	0.271706 
704.017840  	0.269301 
705.946656  	0.267008 
707.875472  	0.264621 
709.804288  	0.261843 
711.733104  	0.259844 
713.661920  	0.258100 
715.590736  	0.256979 
717.519552  	0.256477 
719.448368  	0.256386 
721.377184  	0.256554 
723.306000  	0.257365 
725.234816  	0.257696 
727.163632  	0.256969 
729.092448  	0.254541 
731.021264  	0.251547 
732.950080  	0.248656 
734.878896  	0.245702 
736.807712  	0.242535 
738.736528  	0.239824 
740.665344  	0.237833 
742.594160  	0.236177 
744.522976  	0.234429 
746.451792  	0.232804 
748.380608  	0.231507 
750.309424  	0.230352 
752.238240  	0.228986 
754.167056  	0.228243 
756.095872  	0.226926 
758.024688  	0.225688 
759.953504  	0.225355 
761.882320  	0.226171 
763.811136  	0.227080 
765.739952  	0.226062 
767.668768  	0.223407 
769.597584  	0.220981 
771.526400  	0.219612 
773.455216  	0.220700 
775.384032  	0.224117 
777.312848  	0.229115 
779.241664  	0.233423 
781.170480  	0.233982 
783.099296  	0.230123 
785.028112  	0.224302 
786.956928  	0.218109 
788.885744  	0.213337 
790.814560  	0.209764 
792.743376  	0.206945 
794.672192  	0.205394 
796.601008  	0.204553 
798.529824  	0.201995 
800.458640  	0.197682 
802.387456  	0.193852 
804.316272  	0.191733 
806.245088  	0.190577 
808.173904  	0.189889 
810.102720  	0.189686 
812.031536  	0.189753 
813.960352  	0.189903 
815.889168  	0.190106 
817.817984  	0.190379 
819.746800  	0.190947 
821.675616  	0.191094 
823.604432  	0.190761 
825.533248  	0.190226 
827.462064  	0.189487 
829.390880  	0.188403 
831.319696  	0.187261 
833.248512  	0.185763 
835.177328  	0.183457 
837.106144  	0.180559 
839.034960  	0.177231 
840.963776  	0.173618 
842.892592  	0.170012 
844.821408  	0.166314 
846.750224  	0.162947 
848.679040  	0.160251 
850.607856  	0.158196 
852.536672  	0.156488 
854.465488  	0.154874 
856.394304  	0.153583 
858.323120  	0.152415 
860.251936  	0.150611 
862.180752  	0.148264 
864.109568  	0.145592 
866.038384  	0.143429 
867.967200  	0.141417 
869.896016  	0.139349 
871.824832  	0.138299 
873.753648  	0.138200 
875.682464  	0.138748 
877.611280  	0.139299 
879.540096  	0.140393 
881.468912  	0.142563 
883.397728  	0.143931 
885.326544  	0.144786 
887.255360  	0.144909 
889.184176  	0.143910 
891.112992  	0.141975 
893.041808  	0.139955 
894.970624  	0.137423 
896.899440  	0.134099 
898.828256  	0.129971 
900.757072  	0.125871 
902.685888  	0.122718 
904.614704  	0.121004 
906.543520  	0.121177 
908.472336  	0.122569 
910.401152  	0.125156 
912.329968  	0.128124 
914.258784  	0.131040 
916.187600  	0.133765 
918.116416  	0.136180 
920.045232  	0.137789 
921.974048  	0.138687 
923.902864  	0.139093 
925.831680  	0.138982 
927.760496  	0.139005 
929.689312  	0.139242 
931.618128  	0.140052 
933.546944  	0.140604 
935.475760  	0.140638 
937.404576  	0.140410 
939.333392  	0.140024 
941.262208  	0.140105 
943.191024  	0.141494 
945.119840  	0.145142 
947.048656  	0.151045 
948.977472  	0.158845 
950.906288  	0.168526 
952.835104  	0.179430 
954.763920  	0.190953 
956.692736  	0.201523 
958.621552  	0.210448 
960.550368  	0.216878 
962.479184  	0.220069 
964.408000  	0.218981 
966.336816  	0.214100 
968.265632  	0.205580 
970.194448  	0.194117 
972.123264  	0.180971 
974.052080  	0.167256 
975.980896  	0.153764 
977.909712  	0.141096 
979.838528  	0.129935 
981.767344  	0.120699 
983.696160  	0.113540 
985.624976  	0.109012 
987.553792  	0.107272 
989.482608  	0.108258 
991.411424  	0.111702 
993.340240  	0.116704 
995.269056  	0.122683 
997.197872  	0.129298 
999.126688  	0.136327 
1001.055504  	0.143417 
1002.984320  	0.150338 
1004.913136  	0.157051 
1006.841952  	0.163620 
1008.770768  	0.169240 
1010.699584  	0.173306 
1012.628400  	0.175842 
1014.557216  	0.177011 
1016.486032  	0.177482 
1018.414848  	0.177412 
1020.343664  	0.176864 
1022.272480  	0.176149 
1024.201296  	0.175190 
1026.130112  	0.172426 
1028.058928  	0.171390 
1029.987744  	0.174118 
1031.916560  	0.176355 
1033.845376  	0.177946 
1035.774192  	0.179651 
1037.703008  	0.182911 
1039.631824  	0.189571 
1041.560640  	0.198867 
1043.489456  	0.211078 
1045.418272  	0.225930 
1047.347088  	0.242450 
1049.275904  	0.258104 
1051.204720  	0.270464 
1053.133536  	0.278076 
1055.062352  	0.281390 
1056.991168  	0.281456 
1058.919984  	0.282478 
1060.848800  	0.283202 
1062.777616  	0.281013 
1064.706432  	0.275208 
1066.635248  	0.270020 
1068.564064  	0.267577 
1070.492880  	0.262609 
1072.421696  	0.254920 
1074.350512  	0.249217 
1076.279328  	0.247216 
1078.208144  	0.249310 
1080.136960  	0.254279 
1082.065776  	0.260249 
1083.994592  	0.264125 
1085.923408  	0.265227 
1087.852224  	0.262570 
1089.781040  	0.257843 
1091.709856  	0.251914 
1093.638672  	0.243254 
1095.567488  	0.231816 
1097.496304  	0.219153 
1099.425120  	0.205761 
1101.353936  	0.192350 
1103.282752  	0.179100 
1105.211568  	0.166622 
1107.140384  	0.154824 
1109.069200  	0.143556 
1110.998016  	0.132718 
1112.926832  	0.123086 
1114.855648  	0.114564 
1116.784464  	0.106547 
1118.713280  	0.098841 
1120.642096  	0.091537 
1122.570912  	0.084818 
1124.499728  	0.078558 
1126.428544  	0.073083 
1128.357360  	0.068056 
1130.286176  	0.064002 
1132.214992  	0.060525 
1134.143808  	0.057813 
1136.072624  	0.055512 
1138.001440  	0.053397 
1139.930256  	0.050988 
1141.859072  	0.048688 
1143.787888  	0.046224 
1145.716704  	0.043891 
1147.645520  	0.041605 
1149.574336  	0.039892 
1151.503152  	0.038516 
1153.431968  	0.037992 
1155.360784  	0.038190 
1157.289600  	0.039009 
1159.218416  	0.040443 
1161.147232  	0.042556 
1163.076048  	0.044682 
1165.004864  	0.047040 
1166.933680  	0.049341 
1168.862496  	0.051727 
1170.791312  	0.054150 
1172.720128  	0.057152 
1174.648944  	0.060014 
1176.577760  	0.062910 
1178.506576  	0.065615 
1180.435392  	0.068305 
1182.364208  	0.070841 
1184.293024  	0.073925 
1186.221840  	0.077272 
1188.150656  	0.081166 
1190.079472  	0.085657 
1192.008288  	0.091198 
1193.937104  	0.097802 
1195.865920  	0.105421 
1197.794736  	0.113939 
1199.723552  	0.123343 
1201.652368  	0.132905 
1203.581184  	0.142596 
1205.510000  	0.152176 
1207.438816  	0.161358 
1209.367632  	0.169943 
1211.296448  	0.177498 
1213.225264  	0.183779 
1215.154080  	0.188627 
1217.082896  	0.192358 
1219.011712  	0.194998 
1220.940528  	0.196955 
1222.869344  	0.197941 
1224.798160  	0.198206 
1226.726976  	0.197814 
1228.655792  	0.196957 
1230.584608  	0.195267 
1232.513424  	0.193127 
1234.442240  	0.190300 
1236.371056  	0.186656 
1238.299872  	0.181667 
1240.228688  	0.174488 
1242.157504  	0.167071 
1244.086320  	0.160772 
1246.015136  	0.153091 
1247.943952  	0.144555 
1249.872768  	0.136019 
1251.801584  	0.128494 
1253.730400  	0.120966 
1255.659216  	0.113581 
1257.588032  	0.106782 
1259.516848  	0.100269 
1261.445664  	0.094108 
1263.374480  	0.088546 
1265.303296  	0.083883 
1267.232112  	0.080125 
1269.160928  	0.077171 
1271.089744  	0.074994 
1273.018560  	0.073724 
1274.947376  	0.073272 
1276.876192  	0.073328 
1278.805008  	0.073122 
1280.733824  	0.071996 
1282.662640  	0.070082 
1284.591456  	0.067744 
1286.520272  	0.065543 
1288.449088  	0.064018 
1290.377904  	0.063271 
1292.306720  	0.063372 
1294.235536  	0.063476 
1296.164352  	0.062657 
1298.093168  	0.060350 
1300.021984  	0.057316 
1301.950800  	0.054093 
1303.879616  	0.051070 
1305.808432  	0.047774 
1307.737248  	0.044523 
1309.666064  	0.041372 
1311.594880  	0.038886 
1313.523696  	0.036897 
1315.452512  	0.035684 
1317.381328  	0.035036 
1319.310144  	0.034812 
1321.238960  	0.034942 
1323.167776  	0.035726 
1325.096592  	0.036637 
1327.025408  	0.037253 
1328.954224  	0.037300 
1330.883040  	0.036970 
1332.811856  	0.036098 
1334.740672  	0.035429 
1336.669488  	0.035150 
1338.598304  	0.035177 
1340.527120  	0.034033 
1342.455936  	0.032630 
1344.384752  	0.032193 
1346.313568  	0.032410 
1348.242384  	0.033049 
1350.171200  	0.034329 
1352.100016  	0.035937 
1354.028832  	0.037946 
1355.957648  	0.039813 
1357.886464  	0.041827 
1359.815280  	0.044215 
1361.744096  	0.046610 
1363.672912  	0.047881 
1365.601728  	0.049177 
1367.530544  	0.050717 
1369.459360  	0.051225 
1371.388176  	0.051053 
1373.316992  	0.049949 
1375.245808  	0.046843 
1377.174624  	0.044153 
1379.103440  	0.041137 
1381.032256  	0.038147 
1382.961072  	0.035913 
1384.889888  	0.035140 
1386.818704  	0.034415 
1388.747520  	0.032551 
1390.676336  	0.030251 
1392.605152  	0.027279 
1394.533968  	0.025423 
1396.462784  	0.027849 
1398.391600  	0.028929 
1400.320416  	0.028329 
1402.249232  	0.028778 
1404.178048  	0.029418 
1406.106864  	0.029942 
1408.035680  	0.031696 
1409.964496  	0.034121 
1411.893312  	0.037012 
1413.822128  	0.040005 
1415.750944  	0.043537 
1417.679760  	0.045944 
1419.608576  	0.045743 
1421.537392  	0.046171 
1423.466208  	0.046279 
1425.395024  	0.044542 
1427.323840  	0.043184 
1429.252656  	0.040725 
1431.181472  	0.038871 
1433.110288  	0.038748 
1435.039104  	0.039512 
1436.967920  	0.038910 
1438.896736  	0.039624 
1440.825552  	0.040802 
1442.754368  	0.041496 
1444.683184  	0.041776 
1446.612000  	0.041748 
1448.540816  	0.040695 
1450.469632  	0.041101 
1452.398448  	0.041973 
1454.327264  	0.043171 
1456.256080  	0.042795 
1458.184896  	0.040169 
1460.113712  	0.041173 
1462.042528  	0.042750 
1463.971344  	0.042666 
1465.900160  	0.042909 
1467.828976  	0.045401 
1469.757792  	0.048821 
1471.686608  	0.052112 
1473.615424  	0.057646 
1475.544240  	0.063988 
1477.473056  	0.069692 
1479.401872  	0.073780 
1481.330688  	0.077105 
1483.259504  	0.079408 
1485.188320  	0.081129 
1487.117136  	0.081228 
1489.045952  	0.080564 
1490.974768  	0.077253 
1492.903584  	0.075103 
1494.832400  	0.072104 
1496.761216  	0.065481 
1498.690032  	0.059153 
1500.618848  	0.055003 
1502.547664  	0.051377 
1504.476480  	0.047761 
1506.405296  	0.041221 
1508.334112  	0.037809 
1510.262928  	0.037924 
1512.191744  	0.036136 
1514.120560  	0.035216 
1516.049376  	0.034788 
1517.978192  	0.034092 
1519.907008  	0.035619 
1521.835824  	0.036263 
1523.764640  	0.040384 
1525.693456  	0.044466 
1527.622272  	0.046572 
1529.551088  	0.047391 
1531.479904  	0.047286 
1533.408720  	0.043342 
1535.337536  	0.040013 
1537.266352  	0.038573 
1539.195168  	0.031973 
1541.123984  	0.024906 
1543.052800  	0.026389 
1544.981616  	0.026378 
1546.910432  	0.026004 
1548.839248  	0.026366 
1550.768064  	0.026301 
1552.696880  	0.026433 
1554.625696  	0.027002 
1556.554512  	0.027578 
1558.483328  	0.026068 
1560.412144  	0.029350 
1562.340960  	0.036267 
1564.269776  	0.040268 
1566.198592  	0.045491 
1568.127408  	0.049880 
1570.056224  	0.055071 
1571.985040  	0.062015 
1573.913856  	0.067090 
1575.842672  	0.068300 
1577.771488  	0.070780 
1579.700304  	0.072838 
1581.629120  	0.072793 
1583.557936  	0.072125 
1585.486752  	0.072875 
1587.415568  	0.075172 
1589.344384  	0.079562 
1591.273200  	0.085419 
1593.202016  	0.092708 
1595.130832  	0.100391 
1597.059648  	0.108559 
1598.988464  	0.115667 
1600.917280  	0.121972 
1602.846096  	0.125943 
1604.774912  	0.128529 
1606.703728  	0.128793 
1608.632544  	0.127900 
1610.561360  	0.125933 
1612.490176  	0.124540 
1614.418992  	0.122640 
1616.347808  	0.119798 
1618.276624  	0.120348 
1620.205440  	0.124823 
1622.134256  	0.127774 
1624.063072  	0.133115 
1625.991888  	0.140160 
1627.920704  	0.148466 
1629.849520  	0.158322 
1631.778336  	0.168200 
1633.707152  	0.175464 
1635.635968  	0.183328 
1637.564784  	0.193682 
1639.493600  	0.201946 
1641.422416  	0.207489 
1643.351232  	0.212138 
1645.280048  	0.213187 
1647.208864  	0.212395 
1649.137680  	0.213848 
1651.066496  	0.215075 
1652.995312  	0.207645 
1654.924128  	0.205736 
1656.852944  	0.206783 
1658.781760  	0.204939 
1660.710576  	0.201303 
1662.639392  	0.195736 
1664.568208  	0.191399 
1666.497024  	0.189213 
1668.425840  	0.183680 
1670.354656  	0.176335 
1672.283472  	0.173028 
1674.212288  	0.170118 
1676.141104  	0.164979 
1678.069920  	0.164147 
1679.998736  	0.163182 
1681.927552  	0.162061 
1683.856368  	0.157123 
1685.785184  	0.155798 
1687.714000  	0.157992 
1689.642816  	0.157452 
1691.571632  	0.155972 
1693.500448  	0.155294 
1695.429264  	0.151002 
1697.358080  	0.147699 
1699.286896  	0.145536 
1701.215712  	0.139729 
1703.144528  	0.139742 
1705.073344  	0.135739 
1707.002160  	0.129458 
1708.930976  	0.125123 
1710.859792  	0.119171 
1712.788608  	0.112303 
1714.717424  	0.103692 
1716.646240  	0.092513 
1718.575056  	0.078560 
1720.503872  	0.070604 
1722.432688  	0.063843 
1724.361504  	0.054556 
1726.290320  	0.046859 
1728.219136  	0.040323 
1730.147952  	0.034474 
1732.076768  	0.029952 
1734.005584  	0.023159 
1735.934400  	0.017895 
1737.863216  	0.017861 
1739.792032  	0.014272 
1741.720848  	0.013028 
1743.649664  	0.012281 
1745.578480  	0.011496 
1747.507296  	0.010150 
1749.436112  	0.009215 
1751.364928  	0.007838 
1753.293744  	0.007336 
1755.222560  	0.007077 
1757.151376  	0.006251 
1759.080192  	0.005838 
1761.009008  	0.005503 
1762.937824  	0.003963 
1764.866640  	0.004234 
1766.795456  	0.004478 
1768.724272  	0.004117 
1770.653088  	0.002592 
1772.581904  	0.000349 
1774.510720  	0.000917 
1776.439536  	0.002264 
1778.368352  	0.002450 
1780.297168  	0.002008 
1782.225984  	0.001404 
1784.154800  	0.001861 
1786.083616  	0.001373 
1788.012432  	0.001676 
1789.941248  	0.001916 
1791.870064  	0.000761 
1793.798880  	-0.000471 
1795.727696  	0.000741 
1797.656512  	0.000483 
1799.585328  	0.000325 
1801.514144  	0.000333 
1803.442960  	0.000458 
1805.371776  	-0.000031 
1807.300592  	0.000246 
1809.229408  	-0.000108 
1811.158224  	-0.000505 
1813.087040  	-0.000781 
1815.015856  	-0.000465 
1816.944672  	-0.000467 
1818.873488  	-0.000314 
1820.802304  	-0.000537 
1822.731120  	0.000030 
1824.659936  	-0.000601 
1826.588752  	-0.000963 
1828.517568  	-0.001234 
1830.446384  	-0.001850 
1832.375200  	-0.001453 
1834.304016  	-0.000852 
1836.232832  	-0.001094 
1838.161648  	-0.000900 
1840.090464  	-0.000933 
1842.019280  	-0.000384 
1843.948096  	-0.001576 
1845.876912  	-0.001419 
1847.805728  	-0.000820 
1849.734544  	-0.000868 
1851.663360  	-0.001079 
1853.592176  	-0.001112 
1855.520992  	-0.001248 
1857.449808  	-0.000991 
1859.378624  	-0.001151 
1861.307440  	-0.001102 
1863.236256  	-0.001488 
1865.165072  	-0.001163 
1867.093888  	-0.001276 
1869.022704  	-0.001638 
1870.951520  	-0.001881 
1872.880336  	-0.001440 
1874.809152  	-0.001636 
1876.737968  	-0.001672 
1878.666784  	-0.002062 
1880.595600  	-0.001629 
1882.524416  	-0.001712 
1884.453232  	-0.001500 
1886.382048  	-0.001881 
1888.310864  	-0.001855 
1890.239680  	-0.002433 
1892.168496  	-0.002078 
1894.097312  	-0.001880 
1896.026128  	-0.001593 
1897.954944  	-0.001847 
1899.883760  	-0.001703 
1901.812576  	-0.001966 
1903.741392  	-0.002054 
1905.670208  	-0.002082 
1907.599024  	-0.001567 
1909.527840  	-0.001789 
1911.456656  	-0.001481 
1913.385472  	-0.001537 
1915.314288  	-0.001005 
1917.243104  	-0.001416 
1919.171920  	-0.001831 
1921.100736  	-0.001966 
1923.029552  	-0.001558 
1924.958368  	-0.002015 
1926.887184  	-0.001805 
1928.816000  	-0.002048 
1930.744816  	-0.002081 
1932.673632  	-0.002584 
1934.602448  	-0.002382 
1936.531264  	-0.002265 
1938.460080  	-0.001412 
1940.388896  	-0.001749 
1942.317712  	-0.002349 
1944.246528  	-0.002779 
1946.175344  	-0.001630 
1948.104160  	-0.001419 
1950.032976  	-0.001139 
1951.961792  	-0.001330 
1953.890608  	-0.001614 
1955.819424  	-0.002735 
1957.748240  	-0.002115 
1959.677056  	-0.002416 
1961.605872  	-0.001747 
1963.534688  	-0.001839 
1965.463504  	-0.001047 
1967.392320  	-0.001259 
1969.321136  	-0.000819 
1971.249952  	-0.001452 
1973.178768  	-0.001193 
1975.107584  	-0.001094 
1977.036400  	0.000534 
1978.965216  	0.000719 
1980.894032  	0.000617 
1982.822848  	-0.000451 
1984.751664  	-0.000913 
1986.680480  	-0.001952 
1988.609296  	-0.002073 
1990.538112  	-0.002557 
1992.466928  	-0.001317 
1994.395744  	-0.002215 
1996.324560  	-0.001943 
1998.253376  	-0.002376 
2000.182192  	-0.002488 
2002.111008  	-0.002350 
2004.039824  	-0.001456 
2005.968640  	-0.002049 
2007.897456  	-0.001897 
2009.826272  	-0.002729 
2011.755088  	-0.002302 
2013.683904  	-0.002382 
2015.612720  	-0.001276 
2017.541536  	-0.001459 
2019.470352  	-0.000830 
2021.399168  	-0.001547 
2023.327984  	-0.001945 
2025.256800  	-0.001737 
2027.185616  	-0.001089 
2029.114432  	-0.001474 
2031.043248  	-0.000316 
2032.972064  	-0.000178 
2034.900880  	0.000824 
2036.829696  	0.000161 
2038.758512  	0.000159 
2040.687328  	-0.001190 
2042.616144  	-0.001011 
2044.544960  	-0.001293 
2046.473776  	-0.000671 
2048.402592  	-0.000387 
2050.331408  	-0.000072 
2052.260224  	-0.000762 
2054.189040  	-0.001419 
2056.117856  	-0.002488 
2058.046672  	-0.002316 
2059.975488  	-0.002215 
2061.904304  	-0.001947 
2063.833120  	-0.001984 
2065.761936  	-0.001716 
2067.690752  	-0.002153 
2069.619568  	-0.001482 
2071.548384  	-0.001055 
2073.477200  	-0.001462 
2075.406016  	-0.001643 
2077.334832  	-0.001362 
2079.263648  	-0.001454 
2081.192464  	-0.000987 
2083.121280  	-0.001214 
2085.050096  	-0.001372 
2086.978912  	-0.001328 
2088.907728  	-0.000573 
2090.836544  	-0.000753 
2092.765360  	-0.000849 
2094.694176  	-0.001089 
2096.622992  	-0.001461 
2098.551808  	-0.001510 
2100.480624  	-0.000630 
2102.409440  	-0.000532 
2104.338256  	-0.000940 
2106.267072  	-0.000847 
2108.195888  	-0.000542 
2110.124704  	-0.000806 
2112.053520  	-0.000748 
2113.982336  	-0.000870 
2115.911152  	-0.000689 
2117.839968  	-0.000862 
2119.768784  	-0.000920 
2121.697600  	-0.001249 
2123.626416  	-0.001159 
2125.555232  	-0.001617 
2127.484048  	-0.001462 
2129.412864  	-0.001901 
2131.341680  	-0.002012 
2133.270496  	-0.002181 
2135.199312  	-0.001231 
2137.128128  	-0.000742 
2139.056944  	-0.000044 
2140.985760  	-0.000479 
2142.914576  	-0.000576 
2144.843392  	-0.000676 
2146.772208  	-0.000517 
2148.701024  	-0.001251 
2150.629840  	-0.000873 
2152.558656  	-0.000432 
2154.487472  	0.000270 
2156.416288  	-0.000649 
2158.345104  	0.000226 
2160.273920  	0.001935 
2162.202736  	0.002545 
2164.131552  	0.001452 
2166.060368  	0.001224 
2167.989184  	0.001835 
2169.918000  	0.003123 
2171.846816  	0.001849 
2173.775632  	0.001970 
2175.704448  	0.002215 
2177.633264  	0.001240 
2179.562080  	0.000363 
2181.490896  	0.000553 
2183.419712  	-0.000191 
2185.348528  	-0.000154 
2187.277344  	-0.000671 
2189.206160  	-0.000735 
2191.134976  	-0.001102 
2193.063792  	-0.000525 
2194.992608  	0.000133 
2196.921424  	0.000553 
2198.850240  	-0.000024 
2200.779056  	-0.000957 
2202.707872  	-0.001118 
2204.636688  	-0.000643 
2206.565504  	-0.000327 
2208.494320  	-0.000297 
2210.423136  	-0.000728 
2212.351952  	-0.000754 
2214.280768  	-0.001215 
2216.209584  	-0.000977 
2218.138400  	-0.001218 
2220.067216  	-0.001379 
2221.996032  	-0.001331 
2223.924848  	-0.000945 
2225.853664  	-0.000689 
2227.782480  	-0.000717 
2229.711296  	-0.001963 
2231.640112  	-0.002659 
2233.568928  	-0.002400 
2235.497744  	-0.001941 
2237.426560  	-0.001852 
2239.355376  	-0.001659 
2241.284192  	-0.001823 
2243.213008  	-0.001760 
2245.141824  	-0.002117 
2247.070640  	-0.001826 
2248.999456  	-0.001798 
2250.928272  	-0.001931 
2252.857088  	-0.002611 
2254.785904  	-0.002690 
2256.714720  	-0.002773 
2258.643536  	-0.002966 
2260.572352  	-0.002963 
2262.501168  	-0.002555 
2264.429984  	-0.002592 
2266.358800  	-0.002672 
2268.287616  	-0.002792 
2270.216432  	-0.002534 
2272.145248  	-0.002254 
2274.074064  	-0.002508 
2276.002880  	-0.002869 
2277.931696  	-0.002103 
2279.860512  	-0.001832 
2281.789328  	-0.001732 
2283.718144  	-0.001758 
2285.646960  	-0.001550 
2287.575776  	-0.001463 
2289.504592  	-0.001700 
2291.433408  	-0.002194 
2293.362224  	-0.001930 
2295.291040  	-0.001557 
2297.219856  	-0.001272 
2299.148672  	-0.001385 
2301.077488  	-0.001279 
2303.006304  	-0.001141 
2304.935120  	-0.000813 
2306.863936  	-0.000914 
2308.792752  	-0.001022 
2310.721568  	-0.001108 
2312.650384  	-0.001386 
2314.579200  	-0.001928 
2316.508016  	-0.002636 
2318.436832  	-0.003502 
2320.365648  	-0.004197 
2322.294464  	-0.005136 
2324.223280  	-0.006422 
2326.152096  	-0.008073 
2328.080912  	-0.009506 
2330.009728  	-0.011106 
2331.938544  	-0.012476 
2333.867360  	-0.013434 
2335.796176  	-0.014155 
2337.724992  	-0.014857 
2339.653808  	-0.015092 
2341.582624  	-0.015349 
2343.511440  	-0.014632 
2345.440256  	-0.012689 
2347.369072  	-0.008966 
2349.297888  	-0.006650 
2351.226704  	-0.008357 
2353.155520  	-0.012556 
2355.084336  	-0.015698 
2357.013152  	-0.017962 
2358.941968  	-0.019401 
2360.870784  	-0.020351 
2362.799600  	-0.019837 
2364.728416  	-0.019258 
2366.657232  	-0.017526 
2368.586048  	-0.014847 
2370.514864  	-0.012264 
2372.443680  	-0.009823 
2374.372496  	-0.007205 
2376.301312  	-0.005118 
2378.230128  	-0.003595 
2380.158944  	-0.002649 
2382.087760  	-0.002146 
2384.016576  	-0.002229 
2385.945392  	-0.002572 
2387.874208  	-0.002754 
2389.803024  	-0.002837 
2391.731840  	-0.003070 
2393.660656  	-0.003052 
2395.589472  	-0.003132 
2397.518288  	-0.003052 
2399.447104  	-0.003193 
2401.375920  	-0.003272 
2403.304736  	-0.003450 
2405.233552  	-0.003353 
2407.162368  	-0.003159 
2409.091184  	-0.003008 
2411.020000  	-0.003017 
2412.948816  	-0.003085 
2414.877632  	-0.003058 
2416.806448  	-0.002873 
2418.735264  	-0.003114 
2420.664080  	-0.003259 
2422.592896  	-0.003295 
2424.521712  	-0.003111 
2426.450528  	-0.003155 
2428.379344  	-0.003131 
2430.308160  	-0.002942 
2432.236976  	-0.002702 
2434.165792  	-0.002708 
2436.094608  	-0.002784 
2438.023424  	-0.002729 
2439.952240  	-0.002454 
2441.881056  	-0.002663 
2443.809872  	-0.002874 
2445.738688  	-0.002843 
2447.667504  	-0.002605 
2449.596320  	-0.002438 
2451.525136  	-0.002261 
2453.453952  	-0.002186 
2455.382768  	-0.002263 
2457.311584  	-0.002413 
2459.240400  	-0.002378 
2461.169216  	-0.002464 
2463.098032  	-0.002884 
2465.026848  	-0.002899 
2466.955664  	-0.002551 
2468.884480  	-0.002652 
2470.813296  	-0.002700 
2472.742112  	-0.002652 
2474.670928  	-0.002640 
2476.599744  	-0.002693 
2478.528560  	-0.002469 
2480.457376  	-0.002406 
2482.386192  	-0.002367 
2484.315008  	-0.002266 
2486.243824  	-0.002377 
2488.172640  	-0.002530 
2490.101456  	-0.002361 
2492.030272  	-0.002167 
2493.959088  	-0.002117 
2495.887904  	-0.002126 
2497.816720  	-0.002117 
2499.745536  	-0.002061 
2501.674352  	-0.001878 
2503.603168  	-0.001564 
2505.531984  	-0.001558 
2507.460800  	-0.002073 
2509.389616  	-0.001979 
2511.318432  	-0.001739 
2513.247248  	-0.001626 
2515.176064  	-0.001637 
2517.104880  	-0.001595 
2519.033696  	-0.001724 
2520.962512  	-0.001705 
2522.891328  	-0.001546 
2524.820144  	-0.001505 
2526.748960  	-0.001322 
2528.677776  	-0.001108 
2530.606592  	-0.001227 
2532.535408  	-0.001200 
2534.464224  	-0.001224 
2536.393040  	-0.001265 
2538.321856  	-0.001263 
2540.250672  	-0.001156 
2542.179488  	-0.001236 
2544.108304  	-0.001263 
2546.037120  	-0.001081 
2547.965936  	-0.000897 
2549.894752  	-0.000836 
2551.823568  	-0.000830 
2553.752384  	-0.000700 
2555.681200  	-0.000483 
2557.610016  	-0.000470 
2559.538832  	-0.000271 
2561.467648  	-0.000199 
2563.396464  	-0.000264 
2565.325280  	-0.000137 
2567.254096  	-0.000089 
2569.182912  	-0.000104 
2571.111728  	0.000106 
2573.040544  	0.000157 
2574.969360  	0.000216 
2576.898176  	0.000479 
2578.826992  	0.000539 
2580.755808  	0.000521 
2582.684624  	0.000676 
2584.613440  	0.000682 
2586.542256  	0.000802 
2588.471072  	0.000885 
2590.399888  	0.000938 
2592.328704  	0.000972 
2594.257520  	0.000879 
2596.186336  	0.000869 
2598.115152  	0.001038 
2600.043968  	0.001066 
2601.972784  	0.001133 
2603.901600  	0.001285 
2605.830416  	0.001532 
2607.759232  	0.001710 
2609.688048  	0.001777 
2611.616864  	0.001975 
2613.545680  	0.002120 
2615.474496  	0.002217 
2617.403312  	0.002345 
2619.332128  	0.002377 
2621.260944  	0.002377 
2623.189760  	0.002410 
2625.118576  	0.002584 
2627.047392  	0.002634 
2628.976208  	0.002737 
2630.905024  	0.002862 
2632.833840  	0.002902 
2634.762656  	0.003047 
2636.691472  	0.003170 
2638.620288  	0.003276 
2640.549104  	0.003317 
2642.477920  	0.003384 
2644.406736  	0.003675 
2646.335552  	0.003872 
2648.264368  	0.003951 
2650.193184  	0.003977 
2652.122000  	0.004138 
2654.050816  	0.004399 
2655.979632  	0.004533 
2657.908448  	0.004551 
2659.837264  	0.004731 
2661.766080  	0.004891 
2663.694896  	0.004958 
2665.623712  	0.004981 
2667.552528  	0.005161 
2669.481344  	0.005338 
2671.410160  	0.005427 
2673.338976  	0.005465 
2675.267792  	0.005687 
2677.196608  	0.005933 
2679.125424  	0.006003 
2681.054240  	0.006032 
2682.983056  	0.006195 
2684.911872  	0.006316 
2686.840688  	0.006424 
2688.769504  	0.006426 
2690.698320  	0.006407 
2692.627136  	0.006543 
2694.555952  	0.006687 
2696.484768  	0.006722 
2698.413584  	0.006829 
2700.342400  	0.006882 
2702.271216  	0.007083 
2704.200032  	0.007361 
2706.128848  	0.007453 
2708.057664  	0.007400 
2709.986480  	0.007541 
2711.915296  	0.007719 
2713.844112  	0.007834 
2715.772928  	0.007890 
2717.701744  	0.008028 
2719.630560  	0.008246 
2721.559376  	0.008414 
2723.488192  	0.008616 
2725.417008  	0.008814 
2727.345824  	0.008936 
2729.274640  	0.009038 
2731.203456  	0.009178 
2733.132272  	0.009345 
2735.061088  	0.009464 
2736.989904  	0.009607 
2738.918720  	0.009694 
2740.847536  	0.009752 
2742.776352  	0.009787 
2744.705168  	0.009886 
2746.633984  	0.009975 
2748.562800  	0.009997 
2750.491616  	0.010055 
2752.420432  	0.010252 
2754.349248  	0.010289 
2756.278064  	0.010290 
2758.206880  	0.010226 
2760.135696  	0.010157 
2762.064512  	0.010154 
2763.993328  	0.010221 
2765.922144  	0.010241 
2767.850960  	0.010221 
2769.779776  	0.010216 
2771.708592  	0.010242 
2773.637408  	0.010191 
2775.566224  	0.010071 
2777.495040  	0.010032 
2779.423856  	0.010182 
2781.352672  	0.010239 
2783.281488  	0.010130 
2785.210304  	0.010047 
2787.139120  	0.010203 
2789.067936  	0.010251 
2790.996752  	0.010184 
2792.925568  	0.010063 
2794.854384  	0.010016 
2796.783200  	0.010029 
2798.712016  	0.009964 
2800.640832  	0.009963 
2802.569648  	0.010018 
2804.498464  	0.010011 
2806.427280  	0.009874 
2808.356096  	0.009827 
2810.284912  	0.010020 
2812.213728  	0.010107 
2814.142544  	0.010011 
2816.071360  	0.009915 
2818.000176  	0.009831 
2819.928992  	0.009740 
2821.857808  	0.009672 
2823.786624  	0.009580 
2825.715440  	0.009562 
2827.644256  	0.009403 
2829.573072  	0.009244 
2831.501888  	0.009049 
2833.430704  	0.008752 
2835.359520  	0.008347 
2837.288336  	0.008006 
2839.217152  	0.007739 
2841.145968  	0.007419 
2843.074784  	0.007102 
2845.003600  	0.006614 
2846.932416  	0.006051 
2848.861232  	0.005681 
2850.790048  	0.005290 
2852.718864  	0.004824 
2854.647680  	0.004434 
2856.576496  	0.003936 
2858.505312  	0.003386 
2860.434128  	0.003002 
2862.362944  	0.002436 
2864.291760  	0.001631 
2866.220576  	0.001061 
2868.149392  	0.000807 
2870.078208  	0.000594 
2872.007024  	0.000604 
2873.935840  	0.000917 
2875.864656  	0.000983 
2877.793472  	0.000737 
2879.722288  	0.000564 
2881.651104  	0.000337 
2883.579920  	0.000250 
2885.508736  	0.000489 
2887.437552  	0.000820 
2889.366368  	0.000912 
2891.295184  	0.000734 
2893.224000  	0.000547 
2895.152816  	0.000578 
2897.081632  	0.000244 
2899.010448  	-0.001344 
2900.939264  	-0.002767 
2902.868080  	-0.001642 
2904.796896  	-0.000403 
2906.725712  	0.000142 
2908.654528  	0.000797 
2910.583344  	0.001322 
2912.512160  	0.001813 
2914.440976  	0.002801 
2916.369792  	0.003568 
2918.298608  	0.004065 
2920.227424  	0.004527 
2922.156240  	0.005239 
2924.085056  	0.006154 
2926.013872  	0.007105 
2927.942688  	0.008174 
2929.871504  	0.009258 
2931.800320  	0.010221 
2933.729136  	0.011055 
2935.657952  	0.011676 
2937.586768  	0.012395 
2939.515584  	0.013200 
2941.444400  	0.013515 
2943.373216  	0.013578 
2945.302032  	0.013900 
2947.230848  	0.014081 
2949.159664  	0.013850 
2951.088480  	0.013383 
2953.017296  	0.012949 
2954.946112  	0.012435 
2956.874928  	0.011867 
2958.803744  	0.011057 
2960.732560  	0.010479 
2962.661376  	0.009984 
2964.590192  	0.009052 
2966.519008  	0.007829 
2968.447824  	0.006896 
2970.376640  	0.006216 
2972.305456  	0.005799 
2974.234272  	0.005956 
2976.163088  	0.006207 
2978.091904  	0.006170 
2980.020720  	0.006170 
2981.949536  	0.006375 
2983.878352  	0.006199 
2985.807168  	0.005324 
2987.735984  	0.004461 
2989.664800  	0.004774 
2991.593616  	0.007560 
2993.522432  	0.009471 
2995.451248  	0.010079 
2997.380064  	0.010904 
2999.308880  	0.012079 
3001.237696  	0.013466 
3003.166512  	0.014834 
3005.095328  	0.016129 
3007.024144  	0.017322 
3008.952960  	0.018612 
3010.881776  	0.020041 
3012.810592  	0.021501 
3014.739408  	0.022936 
3016.668224  	0.024010 
3018.597040  	0.025093 
3020.525856  	0.026240 
3022.454672  	0.027326 
3024.383488  	0.028378 
3026.312304  	0.029343 
3028.241120  	0.030375 
3030.169936  	0.031394 
3032.098752  	0.032153 
3034.027568  	0.032850 
3035.956384  	0.033658 
3037.885200  	0.034634 
3039.814016  	0.035361 
3041.742832  	0.036054 
3043.671648  	0.036599 
3045.600464  	0.037206 
3047.529280  	0.037829 
3049.458096  	0.038464 
3051.386912  	0.039180 
3053.315728  	0.039845 
3055.244544  	0.040484 
3057.173360  	0.041258 
3059.102176  	0.041882 
3061.030992  	0.042624 
3062.959808  	0.043519 
3064.888624  	0.044127 
3066.817440  	0.044914 
3068.746256  	0.045990 
3070.675072  	0.046752 
3072.603888  	0.047408 
3074.532704  	0.048289 
3076.461520  	0.049143 
3078.390336  	0.049970 
3080.319152  	0.050771 
3082.247968  	0.051615 
3084.176784  	0.052449 
3086.105600  	0.053311 
3088.034416  	0.054126 
3089.963232  	0.054901 
3091.892048  	0.055589 
3093.820864  	0.056365 
3095.749680  	0.057225 
3097.678496  	0.058172 
3099.607312  	0.059116 
3101.536128  	0.060133 
3103.464944  	0.061230 
3105.393760  	0.062078 
3107.322576  	0.062947 
3109.251392  	0.063777 
3111.180208  	0.064408 
3113.109024  	0.065129 
3115.037840  	0.065987 
3116.966656  	0.066856 
3118.895472  	0.067541 
3120.824288  	0.068343 
3122.753104  	0.069012 
3124.681920  	0.069527 
3126.610736  	0.070094 
3128.539552  	0.070834 
3130.468368  	0.071532 
3132.397184  	0.072014 
3134.326000  	0.072788 
3136.254816  	0.073591 
3138.183632  	0.074298 
3140.112448  	0.075020 
3142.041264  	0.075708 
3143.970080  	0.076272 
3145.898896  	0.076829 
3147.827712  	0.077545 
3149.756528  	0.078209 
3151.685344  	0.078795 
3153.614160  	0.079572 
3155.542976  	0.080368 
3157.471792  	0.081036 
3159.400608  	0.081732 
3161.329424  	0.082495 
3163.258240  	0.083111 
3165.187056  	0.083554 
3167.115872  	0.083987 
3169.044688  	0.084572 
3170.973504  	0.085108 
3172.902320  	0.085578 
3174.831136  	0.086093 
3176.759952  	0.086620 
3178.688768  	0.087045 
3180.617584  	0.087358 
3182.546400  	0.087660 
3184.475216  	0.087956 
3186.404032  	0.088082 
3188.332848  	0.088260 
3190.261664  	0.088542 
3192.190480  	0.088741 
3194.119296  	0.088622 
3196.048112  	0.088698 
3197.976928  	0.088709 
3199.905744  	0.088666 
3201.834560  	0.088599 
3203.763376  	0.088702 
3205.692192  	0.088672 
3207.621008  	0.088332 
3209.549824  	0.088174 
3211.478640  	0.088174 
3213.407456  	0.088017 
3215.336272  	0.087989 
3217.265088  	0.088064 
3219.193904  	0.087855 
3221.122720  	0.087617 
3223.051536  	0.087496 
3224.980352  	0.087263 
3226.909168  	0.087122 
3228.837984  	0.086873 
3230.766800  	0.086621 
3232.695616  	0.086621 
3234.624432  	0.086508 
3236.553248  	0.086378 
3238.482064  	0.086333 
3240.410880  	0.086413 
3242.339696  	0.086637 
3244.268512  	0.086540 
3246.197328  	0.086736 
3248.126144  	0.087092 
3250.054960  	0.087211 
3251.983776  	0.087266 
3253.912592  	0.087228 
3255.841408  	0.087547 
3257.770224  	0.088018 
3259.699040  	0.088324 
3261.627856  	0.088533 
3263.556672  	0.088833 
3265.485488  	0.089181 
3267.414304  	0.089259 
3269.343120  	0.089590 
3271.271936  	0.089843 
3273.200752  	0.089723 
3275.129568  	0.089779 
3277.058384  	0.090262 
3278.987200  	0.090629 
3280.916016  	0.090718 
3282.844832  	0.091011 
3284.773648  	0.091366 
3286.702464  	0.091598 
3288.631280  	0.091841 
3290.560096  	0.092154 
3292.488912  	0.092532 
3294.417728  	0.092764 
3296.346544  	0.093015 
3298.275360  	0.093321 
3300.204176  	0.093787 
3302.132992  	0.094300 
3304.061808  	0.094631 
3305.990624  	0.094842 
3307.919440  	0.095230 
3309.848256  	0.095538 
3311.777072  	0.095949 
3313.705888  	0.096289 
3315.634704  	0.096724 
3317.563520  	0.097227 
3319.492336  	0.097414 
3321.421152  	0.097437 
3323.349968  	0.097744 
3325.278784  	0.098023 
3327.207600  	0.098147 
3329.136416  	0.098133 
3331.065232  	0.098308 
3332.994048  	0.098464 
3334.922864  	0.098575 
3336.851680  	0.098620 
3338.780496  	0.098404 
3340.709312  	0.098277 
3342.638128  	0.098179 
3344.566944  	0.097758 
3346.495760  	0.097468 
3348.424576  	0.097274 
3350.353392  	0.096951 
3352.282208  	0.096570 
3354.211024  	0.096328 
3356.139840  	0.096094 
3358.068656  	0.095750 
3359.997472  	0.095451 
3361.926288  	0.094926 
3363.855104  	0.094423 
3365.783920  	0.093942 
3367.712736  	0.093582 
3369.641552  	0.093232 
3371.570368  	0.092583 
3373.499184  	0.092214 
3375.428000  	0.091913 
3377.356816  	0.091448 
3379.285632  	0.091288 
3381.214448  	0.091062 
3383.143264  	0.090568 
3385.072080  	0.089971 
3387.000896  	0.089458 
3388.929712  	0.089142 
3390.858528  	0.088835 
3392.787344  	0.088233 
3394.716160  	0.087725 
3396.644976  	0.087522 
3398.573792  	0.087128 
3400.502608  	0.086668 
3402.431424  	0.085998 
3404.360240  	0.085319 
3406.289056  	0.084664 
3408.217872  	0.084250 
3410.146688  	0.083884 
3412.075504  	0.083563 
3414.004320  	0.083157 
3415.933136  	0.082642 
3417.861952  	0.081967 
3419.790768  	0.081356 
3421.719584  	0.080771 
3423.648400  	0.080229 
3425.577216  	0.079519 
3427.506032  	0.078860 
3429.434848  	0.078314 
3431.363664  	0.077837 
3433.292480  	0.077162 
3435.221296  	0.076548 
3437.150112  	0.075940 
3439.078928  	0.075412 
3441.007744  	0.074714 
3442.936560  	0.074100 
3444.865376  	0.073783 
3446.794192  	0.072944 
3448.723008  	0.071875 
3450.651824  	0.071242 
3452.580640  	0.070564 
3454.509456  	0.070148 
3456.438272  	0.069645 
3458.367088  	0.069000 
3460.295904  	0.068189 
3462.224720  	0.067265 
3464.153536  	0.066492 
3466.082352  	0.065747 
3468.011168  	0.064759 
3469.939984  	0.063872 
3471.868800  	0.063116 
3473.797616  	0.062149 
3475.726432  	0.061342 
3477.655248  	0.060661 
3479.584064  	0.059962 
3481.512880  	0.059141 
3483.441696  	0.058130 
3485.370512  	0.057466 
3487.299328  	0.056486 
3489.228144  	0.055683 
3491.156960  	0.054899 
3493.085776  	0.054000 
3495.014592  	0.053152 
3496.943408  	0.052333 
3498.872224  	0.051523 
3500.801040  	0.051203 
3502.729856  	0.050497 
3504.658672  	0.049489 
3506.587488  	0.049095 
3508.516304  	0.048528 
3510.445120  	0.047463 
3512.373936  	0.046590 
3514.302752  	0.045752 
3516.231568  	0.045400 
3518.160384  	0.044993 
3520.089200  	0.044197 
3522.018016  	0.043640 
3523.946832  	0.043337 
3525.875648  	0.042708 
3527.804464  	0.041459 
3529.733280  	0.040461 
3531.662096  	0.039710 
3533.590912  	0.039190 
3535.519728  	0.039016 
3537.448544  	0.038474 
3539.377360  	0.037761 
3541.306176  	0.037290 
3543.234992  	0.037045 
3545.163808  	0.036819 
3547.092624  	0.035807 
3549.021440  	0.034541 
3550.950256  	0.033833 
3552.879072  	0.032891 
3554.807888  	0.032164 
3556.736704  	0.031782 
3558.665520  	0.031459 
3560.594336  	0.030990 
3562.523152  	0.030088 
3564.451968  	0.029742 
3566.380784  	0.029344 
3568.309600  	0.027380 
3570.238416  	0.026662 
3572.167232  	0.026428 
3574.096048  	0.025560 
3576.024864  	0.024698 
3577.953680  	0.024314 
3579.882496  	0.023501 
3581.811312  	0.022652 
3583.740128  	0.022173 
3585.668944  	0.022139 
3587.597760  	0.020461 
3589.526576  	0.018900 
3591.455392  	0.018771 
3593.384208  	0.018352 
3595.313024  	0.017292 
3597.241840  	0.016214 
3599.170656  	0.014897 
3601.099472  	0.013836 
3603.028288  	0.013598 
3604.957104  	0.013570 
3606.885920  	0.012877 
3608.814736  	0.011478 
3610.743552  	0.011006 
3612.672368  	0.009780 
3614.601184  	0.008342 
3616.530000  	0.008418 
3618.458816  	0.006698 
3620.387632  	0.004788 
3622.316448  	0.004928 
3624.245264  	0.004886 
3626.174080  	0.004722 
3628.102896  	0.002180 
3630.031712  	-0.001467 
3631.960528  	-0.000006 
3633.889344  	-0.000357 
3635.818160  	-0.001045 
3637.746976  	-0.001927 
3639.675792  	-0.002578 
3641.604608  	-0.002861 
3643.533424  	-0.003248 
3645.462240  	-0.003729 
3647.391056  	-0.006265 
3649.319872  	-0.010653 
3651.248688  	-0.012349 
3653.177504  	-0.009720 
3655.106320  	-0.009851 
3657.035136  	-0.012625 
3658.963952  	-0.012556 
3660.892768  	-0.012548 
3662.821584  	-0.012869 
3664.750400  	-0.012833 
3666.679216  	-0.012456 
3668.608032  	-0.014044 
3670.536848  	-0.017353 
3672.465664  	-0.015609 
3674.394480  	-0.016192 
3676.323296  	-0.020772 
3678.252112  	-0.017680 
3680.180928  	-0.016063 
3682.109744  	-0.015597 
3684.038560  	-0.015692 
3685.967376  	-0.015263 
3687.896192  	-0.017184 
3689.825008  	-0.019856 
3691.753824  	-0.019057 
3693.682640  	-0.016966 
3695.611456  	-0.016012 
3697.540272  	-0.015379 
3699.469088  	-0.014504 
3701.397904  	-0.015316 
3703.326720  	-0.015408 
3705.255536  	-0.013912 
3707.184352  	-0.013462 
3709.113168  	-0.014640 
3711.041984  	-0.016588 
3712.970800  	-0.016220 
3714.899616  	-0.013798 
3716.828432  	-0.012864 
3718.757248  	-0.013090 
3720.686064  	-0.013437 
3722.614880  	-0.013967 
3724.543696  	-0.013460 
3726.472512  	-0.013765 
3728.401328  	-0.013665 
3730.330144  	-0.013448 
3732.258960  	-0.014826 
3734.187776  	-0.014744 
3736.116592  	-0.016016 
3738.045408  	-0.015598 
3739.974224  	-0.013661 
3741.903040  	-0.012380 
3743.831856  	-0.014496 
3745.760672  	-0.016723 
3747.689488  	-0.014043 
3749.618304  	-0.015824 
3751.547120  	-0.018122 
3753.475936  	-0.016609 
3755.404752  	-0.014144 
3757.333568  	-0.013675 
3759.262384  	-0.014393 
3761.191200  	-0.014429 
3763.120016  	-0.012648 
3765.048832  	-0.013044 
3766.977648  	-0.013147 
3768.906464  	-0.013813 
3770.835280  	-0.014946 
3772.764096  	-0.013645 
3774.692912  	-0.012783 
3776.621728  	-0.012371 
3778.550544  	-0.013419 
3780.479360  	-0.014730 
3782.408176  	-0.013312 
3784.336992  	-0.013391 
3786.265808  	-0.013430 
3788.194624  	-0.013118 
3790.123440  	-0.013159 
3792.052256  	-0.013153 
3793.981072  	-0.012898 
3795.909888  	-0.013824 
3797.838704  	-0.013824 
3799.767520  	-0.013786 
3801.696336  	-0.017560 
3803.625152  	-0.016048 
3805.553968  	-0.014311 
3807.482784  	-0.016008 
3809.411600  	-0.014343 
3811.340416  	-0.012992 
3813.269232  	-0.012308 
3815.198048  	-0.014255 
3817.126864  	-0.016026 
3819.055680  	-0.014255 
3820.984496  	-0.017042 
3822.913312  	-0.016588 
3824.842128  	-0.013773 
3826.770944  	-0.014198 
3828.699760  	-0.013676 
3830.628576  	-0.013552 
3832.557392  	-0.014292 
3834.486208  	-0.013934 
3836.415024  	-0.014553 
3838.343840  	-0.016137 
3840.272656  	-0.015860 
3842.201472  	-0.014561 
3844.130288  	-0.014506 
3846.059104  	-0.013658 
3847.987920  	-0.012621 
3849.916736  	-0.012425 
3851.845552  	-0.014182 
3853.774368  	-0.019608 
3855.703184  	-0.017430 
3857.632000  	-0.014471 
3859.560816  	-0.013035 
3861.489632  	-0.012992 
3863.418448  	-0.013772 
3865.347264  	-0.014505 
3867.276080  	-0.013056 
3869.204896  	-0.013962 
3871.133712  	-0.014979 
3873.062528  	-0.013920 
3874.991344  	-0.014633 
3876.920160  	-0.012938 
3878.848976  	-0.012224 
3880.777792  	-0.013602 
3882.706608  	-0.012957 
3884.635424  	-0.012882 
3886.564240  	-0.014466 
3888.493056  	-0.013132 
3890.421872  	-0.013263 
3892.350688  	-0.014448 
3894.279504  	-0.013493 
3896.208320  	-0.012418 
3898.137136  	-0.012148 
3900.065952  	-0.012695 
3901.994768  	-0.012824 
3903.923584  	-0.013747 
3905.852400  	-0.014158 
3907.781216  	-0.013379 
3909.710032  	-0.013021 
3911.638848  	-0.013044 
3913.567664  	-0.012591 
3915.496480  	-0.012091 
3917.425296  	-0.012707 
3919.354112  	-0.013238 
3921.282928  	-0.013046 
3923.211744  	-0.012511 
3925.140560  	-0.012802 
3927.069376  	-0.012887 
3928.998192  	-0.012635 
3930.927008  	-0.012425 
3932.855824  	-0.012597 
3934.784640  	-0.012869 
3936.713456  	-0.012872 
3938.642272  	-0.012593 
3940.571088  	-0.012161 
3942.499904  	-0.012279 
3944.428720  	-0.012546 
3946.357536  	-0.012153 
3948.286352  	-0.012213 
3950.215168  	-0.012827 
3952.143984  	-0.013124 
3954.072800  	-0.013006 
3956.001616  	-0.012821 
3957.930432  	-0.012726 
3959.859248  	-0.012597 
3961.788064  	-0.012656 
3963.716880  	-0.013017 
3965.645696  	-0.013220 
3967.574512  	-0.013093 
3969.503328  	-0.012845 
3971.432144  	-0.012901 
3973.360960  	-0.013019 
3975.289776  	-0.013107 
3977.218592  	-0.013008 
3979.147408  	-0.012955 
3981.076224  	-0.013071 
3983.005040  	-0.013124 
3984.933856  	-0.013101 
3986.862672  	-0.013071 
3988.791488  	-0.012908 
3990.720304  	-0.012753 
3992.649120  	-0.012780 
3994.577936  	-0.013039 
3996.506752  	-0.012982 
3998.435568  	-0.012884 
4000.364384  	-0.012842 