##TITLE=No Description
##DATA TYPE=INFRARED SPECTRUM
##XUNITS=1/CM
##YUNITS=Abs
399.264912  	0.579786 
401.193728  	0.568045 
403.122544  	0.586827 
405.051360  	0.585685 
406.980176  	0.590216 
408.908992  	0.598524 
410.837808  	0.596795 
412.766624  	0.584369 
414.695440  	0.586685 
416.624256  	0.567693 
418.553072  	0.552218 
420.481888  	0.560387 
422.410704  	0.575605 
424.339520  	0.568437 
426.268336  	0.557499 
428.197152  	0.551211 
430.125968  	0.560604 
432.054784  	0.555115 
433.983600  	0.547480 
435.912416  	0.536219 
437.841232  	0.539530 
439.770048  	0.537341 
441.698864  	0.536187 
443.627680  	0.531900 
445.556496  	0.532131 
447.485312  	0.529195 
449.414128  	0.528787 
451.342944  	0.531815 
453.271760  	0.537922 
455.200576  	0.531097 
457.129392  	0.531359 
459.058208  	0.530576 
460.987024  	0.529905 
462.915840  	0.525650 
464.844656  	0.528786 
466.773472  	0.525859 
468.702288  	0.529485 
470.631104  	0.531118 
472.559920  	0.532304 
474.488736  	0.525576 
476.417552  	0.523947 
478.346368  	0.523346 
480.275184  	0.526762 
482.204000  	0.523782 
484.132816  	0.522135 
486.061632  	0.522304 
487.990448  	0.527101 
489.919264  	0.523926 
491.848080  	0.517436 
493.776896  	0.512654 
495.705712  	0.513519 
497.634528  	0.512830 
499.563344  	0.515673 
501.492160  	0.511051 
503.420976  	0.509158 
505.349792  	0.512484 
507.278608  	0.515664 
509.207424  	0.510759 
511.136240  	0.510854 
513.065056  	0.512466 
514.993872  	0.514495 
516.922688  	0.515082 
518.851504  	0.518831 
520.780320  	0.517548 
522.709136  	0.514761 
524.637952  	0.515146 
526.566768  	0.514648 
528.495584  	0.510223 
530.424400  	0.509259 
532.353216  	0.504754 
534.282032  	0.499916 
536.210848  	0.492743 
538.139664  	0.488762 
540.068480  	0.484860 
541.997296  	0.480056 
543.926112  	0.474626 
545.854928  	0.472803 
547.783744  	0.468183 
549.712560  	0.464487 
551.641376  	0.461016 
553.570192  	0.458415 
555.499008  	0.454004 
557.427824  	0.450763 
559.356640  	0.447502 
561.285456  	0.444535 
563.214272  	0.440144 
565.143088  	0.436972 
567.071904  	0.433151 
569.000720  	0.429806 
570.929536  	0.427063 
572.858352  	0.425371 
574.787168  	0.422187 
576.715984  	0.420503 
578.644800  	0.416118 
580.573616  	0.411518 
582.502432  	0.406262 
584.431248  	0.402640 
586.360064  	0.399272 
588.288880  	0.396590 
590.217696  	0.394100 
592.146512  	0.392024 
594.075328  	0.389518 
596.004144  	0.388011 
597.932960  	0.385525 
599.861776  	0.383788 
601.790592  	0.381793 
603.719408  	0.380407 
605.648224  	0.379066 
607.577040  	0.377962 
609.505856  	0.376322 
611.434672  	0.374471 
613.363488  	0.372355 
615.292304  	0.371020 
617.221120  	0.369783 
619.149936  	0.368644 
621.078752  	0.366323 
623.007568  	0.365225 
624.936384  	0.364153 
626.865200  	0.362936 
628.794016  	0.361151 
630.722832  	0.360638 
632.651648  	0.360447 
634.580464  	0.360264 
636.509280  	0.359500 
638.438096  	0.359918 
640.366912  	0.358793 
642.295728  	0.356734 
644.224544  	0.355024 
646.153360  	0.352156 
648.082176  	0.347428 
650.010992  	0.344422 
651.939808  	0.341071 
653.868624  	0.337485 
655.797440  	0.333702 
657.726256  	0.329686 
659.655072  	0.325496 
661.583888  	0.321701 
663.512704  	0.317275 
665.441520  	0.313612 
667.370336  	0.306650 
669.299152  	0.300960 
671.227968  	0.300499 
673.156784  	0.297818 
675.085600  	0.294737 
677.014416  	0.292646 
678.943232  	0.290795 
680.872048  	0.289250 
682.800864  	0.287153 
684.729680  	0.285602 
686.658496  	0.284055 
688.587312  	0.282547 
690.516128  	0.281216 
692.444944  	0.279908 
694.373760  	0.278862 
696.302576  	0.277163 
698.231392  	0.274583 
700.160208  	0.271900 
702.089024  	0.269496 
704.017840  	0.267592 
705.946656  	0.265622 
707.875472  	0.263196 
709.804288  	0.260865 
711.733104  	0.258780 
713.661920  	0.256751 
715.590736  	0.255307 
717.519552  	0.254794 
719.448368  	0.255198 
721.377184  	0.255430 
723.306000  	0.255784 
725.234816  	0.255764 
727.163632  	0.255027 
729.092448  	0.252817 
731.021264  	0.249935 
732.950080  	0.246720 
734.878896  	0.243459 
736.807712  	0.240484 
738.736528  	0.238057 
740.665344  	0.236144 
742.594160  	0.234618 
744.522976  	0.232883 
746.451792  	0.231521 
748.380608  	0.229812 
750.309424  	0.228465 
752.238240  	0.227627 
754.167056  	0.226572 
756.095872  	0.225074 
758.024688  	0.224234 
759.953504  	0.224006 
761.882320  	0.224706 
763.811136  	0.225370 
765.739952  	0.224409 
767.668768  	0.221933 
769.597584  	0.219473 
771.526400  	0.218308 
773.455216  	0.219542 
775.384032  	0.222810 
777.312848  	0.227561 
779.241664  	0.231400 
781.170480  	0.231726 
783.099296  	0.228428 
785.028112  	0.222932 
786.956928  	0.216809 
788.885744  	0.211679 
790.814560  	0.207866 
792.743376  	0.205300 
794.672192  	0.204262 
796.601008  	0.203668 
798.529824  	0.201014 
800.458640  	0.196586 
802.387456  	0.192960 
804.316272  	0.190886 
806.245088  	0.189460 
808.173904  	0.188779 
810.102720  	0.188606 
812.031536  	0.188316 
813.960352  	0.188533 
815.889168  	0.189021 
817.817984  	0.189215 
819.746800  	0.189395 
821.675616  	0.189564 
823.604432  	0.189503 
825.533248  	0.189177 
827.462064  	0.188558 
829.390880  	0.187634 
831.319696  	0.186341 
833.248512  	0.184617 
835.177328  	0.182325 
837.106144  	0.179667 
839.034960  	0.176405 
840.963776  	0.172728 
842.892592  	0.168987 
844.821408  	0.165305 
846.750224  	0.162097 
848.679040  	0.159507 
850.607856  	0.157699 
852.536672  	0.156026 
854.465488  	0.154371 
856.394304  	0.153171 
858.323120  	0.152092 
860.251936  	0.150180 
862.180752  	0.147962 
864.109568  	0.145511 
866.038384  	0.142869 
867.967200  	0.140598 
869.896016  	0.138935 
871.824832  	0.138040 
873.753648  	0.137901 
875.682464  	0.138586 
877.611280  	0.139265 
879.540096  	0.140203 
881.468912  	0.142101 
883.397728  	0.143629 
885.326544  	0.144609 
887.255360  	0.144782 
889.184176  	0.143699 
891.112992  	0.141705 
893.041808  	0.140067 
894.970624  	0.137548 
896.899440  	0.134013 
898.828256  	0.129907 
900.757072  	0.125801 
902.685888  	0.122508 
904.614704  	0.120857 
906.543520  	0.120986 
908.472336  	0.122363 
910.401152  	0.124730 
912.329968  	0.127508 
914.258784  	0.130732 
916.187600  	0.133631 
918.116416  	0.135996 
920.045232  	0.137694 
921.974048  	0.138518 
923.902864  	0.138865 
925.831680  	0.138768 
927.760496  	0.138731 
929.689312  	0.139017 
931.618128  	0.139698 
933.546944  	0.140237 
935.475760  	0.140395 
937.404576  	0.140175 
939.333392  	0.139776 
941.262208  	0.139746 
943.191024  	0.141141 
945.119840  	0.144740 
947.048656  	0.150745 
948.977472  	0.158886 
950.906288  	0.168654 
952.835104  	0.179527 
954.763920  	0.190957 
956.692736  	0.201773 
958.621552  	0.211202 
960.550368  	0.217777 
962.479184  	0.220775 
964.408000  	0.219731 
966.336816  	0.214940 
968.265632  	0.206337 
970.194448  	0.194752 
972.123264  	0.181474 
974.052080  	0.167621 
975.980896  	0.154080 
977.909712  	0.141445 
979.838528  	0.130093 
981.767344  	0.120923 
983.696160  	0.113868 
985.624976  	0.109218 
987.553792  	0.107432 
989.482608  	0.108343 
991.411424  	0.111689 
993.340240  	0.116852 
995.269056  	0.123089 
997.197872  	0.129740 
999.126688  	0.136638 
1001.055504  	0.143639 
1002.984320  	0.150531 
1004.913136  	0.157512 
1006.841952  	0.164327 
1008.770768  	0.169802 
1010.699584  	0.173914 
1012.628400  	0.176708 
1014.557216  	0.177954 
1016.486032  	0.178095 
1018.414848  	0.177729 
1020.343664  	0.177444 
1022.272480  	0.176917 
1024.201296  	0.175750 
1026.130112  	0.172839 
1028.058928  	0.171972 
1029.987744  	0.174955 
1031.916560  	0.177075 
1033.845376  	0.178583 
1035.774192  	0.180448 
1037.703008  	0.183920 
1039.631824  	0.190551 
1041.560640  	0.199755 
1043.489456  	0.212484 
1045.418272  	0.227990 
1047.347088  	0.244968 
1049.275904  	0.260281 
1051.204720  	0.272167 
1053.133536  	0.279557 
1055.062352  	0.282837 
1056.991168  	0.282595 
1058.919984  	0.283492 
1060.848800  	0.284199 
1062.777616  	0.282035 
1064.706432  	0.276391 
1066.635248  	0.271233 
1068.564064  	0.268579 
1070.492880  	0.263107 
1072.421696  	0.255515 
1074.350512  	0.250164 
1076.279328  	0.248139 
1078.208144  	0.250338 
1080.136960  	0.255433 
1082.065776  	0.261427 
1083.994592  	0.265479 
1085.923408  	0.266406 
1087.852224  	0.263760 
1089.781040  	0.258931 
1091.709856  	0.252403 
1093.638672  	0.243466 
1095.567488  	0.231850 
1097.496304  	0.219072 
1099.425120  	0.205775 
1101.353936  	0.192243 
1103.282752  	0.178972 
1105.211568  	0.166431 
1107.140384  	0.154398 
1109.069200  	0.143103 
1110.998016  	0.132846 
1112.926832  	0.123445 
1114.855648  	0.114705 
1116.784464  	0.106362 
1118.713280  	0.098573 
1120.642096  	0.091458 
1122.570912  	0.084807 
1124.499728  	0.078469 
1126.428544  	0.072821 
1128.357360  	0.068066 
1130.286176  	0.064094 
1132.214992  	0.060469 
1134.143808  	0.057681 
1136.072624  	0.055496 
1138.001440  	0.053594 
1139.930256  	0.051113 
1141.859072  	0.048639 
1143.787888  	0.046273 
1145.716704  	0.044076 
1147.645520  	0.041831 
1149.574336  	0.040109 
1151.503152  	0.038763 
1153.431968  	0.038189 
1155.360784  	0.038415 
1157.289600  	0.039362 
1159.218416  	0.040773 
1161.147232  	0.042808 
1163.076048  	0.044850 
1165.004864  	0.047215 
1166.933680  	0.049636 
1168.862496  	0.052036 
1170.791312  	0.054341 
1172.720128  	0.057396 
1174.648944  	0.060320 
1176.577760  	0.063153 
1178.506576  	0.065814 
1180.435392  	0.068692 
1182.364208  	0.071433 
1184.293024  	0.074478 
1186.221840  	0.077889 
1188.150656  	0.081921 
1190.079472  	0.086335 
1192.008288  	0.091781 
1193.937104  	0.098548 
1195.865920  	0.106427 
1197.794736  	0.114931 
1199.723552  	0.124266 
1201.652368  	0.133800 
1203.581184  	0.143485 
1205.510000  	0.153185 
1207.438816  	0.162275 
1209.367632  	0.170821 
1211.296448  	0.178426 
1213.225264  	0.184605 
1215.154080  	0.189438 
1217.082896  	0.193007 
1219.011712  	0.195272 
1220.940528  	0.196984 
1222.869344  	0.198027 
1224.798160  	0.198417 
1226.726976  	0.198062 
1228.655792  	0.197182 
1230.584608  	0.195423 
1232.513424  	0.193013 
1234.442240  	0.190014 
1236.371056  	0.186285 
1238.299872  	0.181218 
1240.228688  	0.173972 
1242.157504  	0.166597 
1244.086320  	0.160289 
1246.015136  	0.152671 
1247.943952  	0.144263 
1249.872768  	0.135731 
1251.801584  	0.128307 
1253.730400  	0.120922 
1255.659216  	0.113617 
1257.588032  	0.106651 
1259.516848  	0.100055 
1261.445664  	0.093994 
1263.374480  	0.088501 
1265.303296  	0.083870 
1267.232112  	0.080041 
1269.160928  	0.077120 
1271.089744  	0.074947 
1273.018560  	0.073751 
1274.947376  	0.073433 
1276.876192  	0.073521 
1278.805008  	0.073270 
1280.733824  	0.072145 
1282.662640  	0.070099 
1284.591456  	0.067707 
1286.520272  	0.065622 
1288.449088  	0.064200 
1290.377904  	0.063422 
1292.306720  	0.063528 
1294.235536  	0.063723 
1296.164352  	0.062955 
1298.093168  	0.060707 
1300.021984  	0.057693 
1301.950800  	0.054460 
1303.879616  	0.051413 
1305.808432  	0.048131 
1307.737248  	0.044847 
1309.666064  	0.041611 
1311.594880  	0.039234 
1313.523696  	0.037414 
1315.452512  	0.036140 
1317.381328  	0.035363 
1319.310144  	0.035145 
1321.238960  	0.035220 
1323.167776  	0.036005 
1325.096592  	0.036981 
1327.025408  	0.037599 
1328.954224  	0.037586 
1330.883040  	0.037149 
1332.811856  	0.036299 
1334.740672  	0.035721 
1336.669488  	0.035492 
1338.598304  	0.035509 
1340.527120  	0.034377 
1342.455936  	0.033036 
1344.384752  	0.032602 
1346.313568  	0.032845 
1348.242384  	0.033498 
1350.171200  	0.034797 
1352.100016  	0.036272 
1354.028832  	0.038127 
1355.957648  	0.040075 
1357.886464  	0.042201 
1359.815280  	0.044583 
1361.744096  	0.047068 
1363.672912  	0.048416 
1365.601728  	0.049596 
1367.530544  	0.051029 
1369.459360  	0.051543 
1371.388176  	0.051540 
1373.316992  	0.050533 
1375.245808  	0.047502 
1377.174624  	0.044868 
1379.103440  	0.041937 
1381.032256  	0.038945 
1382.961072  	0.036722 
1384.889888  	0.035981 
1386.818704  	0.035187 
1388.747520  	0.033238 
1390.676336  	0.031035 
1392.605152  	0.028205 
1394.533968  	0.026458 
1396.462784  	0.028755 
1398.391600  	0.029855 
1400.320416  	0.029159 
1402.249232  	0.029449 
1404.178048  	0.030098 
1406.106864  	0.030654 
1408.035680  	0.032369 
1409.964496  	0.034721 
1411.893312  	0.037517 
1413.822128  	0.040539 
1415.750944  	0.044156 
1417.679760  	0.046631 
1419.608576  	0.046376 
1421.537392  	0.046682 
1423.466208  	0.046859 
1425.395024  	0.045196 
1427.323840  	0.043814 
1429.252656  	0.041283 
1431.181472  	0.039381 
1433.110288  	0.039285 
1435.039104  	0.040150 
1436.967920  	0.039504 
1438.896736  	0.040132 
1440.825552  	0.041342 
1442.754368  	0.042005 
1444.683184  	0.042273 
1446.612000  	0.042340 
1448.540816  	0.041277 
1450.469632  	0.041679 
1452.398448  	0.042584 
1454.327264  	0.043762 
1456.256080  	0.043528 
1458.184896  	0.041026 
1460.113712  	0.041932 
1462.042528  	0.043300 
1463.971344  	0.043101 
1465.900160  	0.043248 
1467.828976  	0.045719 
1469.757792  	0.049226 
1471.686608  	0.052676 
1473.615424  	0.058057 
1475.544240  	0.064265 
1477.473056  	0.069830 
1479.401872  	0.073985 
1481.330688  	0.077307 
1483.259504  	0.079475 
1485.188320  	0.081255 
1487.117136  	0.081541 
1489.045952  	0.081001 
1490.974768  	0.077704 
1492.903584  	0.075645 
1494.832400  	0.072788 
1496.761216  	0.066079 
1498.690032  	0.059537 
1500.618848  	0.055295 
1502.547664  	0.051716 
1504.476480  	0.048261 
1506.405296  	0.042275 
1508.334112  	0.038635 
1510.262928  	0.038345 
1512.191744  	0.036587 
1514.120560  	0.035767 
1516.049376  	0.035398 
1517.978192  	0.034742 
1519.907008  	0.036391 
1521.835824  	0.036995 
1523.764640  	0.040882 
1525.693456  	0.044979 
1527.622272  	0.047011 
1529.551088  	0.047775 
1531.479904  	0.047689 
1533.408720  	0.043844 
1535.337536  	0.040466 
1537.266352  	0.039248 
1539.195168  	0.033095 
1541.123984  	0.025984 
1543.052800  	0.027214 
1544.981616  	0.026938 
1546.910432  	0.026374 
1548.839248  	0.026807 
1550.768064  	0.026772 
1552.696880  	0.026902 
1554.625696  	0.027576 
1556.554512  	0.028415 
1558.483328  	0.027545 
1560.412144  	0.030194 
1562.340960  	0.036657 
1564.269776  	0.040641 
1566.198592  	0.045907 
1568.127408  	0.050274 
1570.056224  	0.055245 
1571.985040  	0.062083 
1573.913856  	0.067260 
1575.842672  	0.068601 
1577.771488  	0.071062 
1579.700304  	0.072899 
1581.629120  	0.072745 
1583.557936  	0.072124 
1585.486752  	0.072846 
1587.415568  	0.075110 
1589.344384  	0.079583 
1591.273200  	0.085536 
1593.202016  	0.092789 
1595.130832  	0.100385 
1597.059648  	0.108527 
1598.988464  	0.115567 
1600.917280  	0.121701 
1602.846096  	0.125659 
1604.774912  	0.128425 
1606.703728  	0.128836 
1608.632544  	0.127977 
1610.561360  	0.125845 
1612.490176  	0.124316 
1614.418992  	0.122433 
1616.347808  	0.119704 
1618.276624  	0.120235 
1620.205440  	0.124748 
1622.134256  	0.127784 
1624.063072  	0.133176 
1625.991888  	0.140159 
1627.920704  	0.148227 
1629.849520  	0.157828 
1631.778336  	0.167716 
1633.707152  	0.175132 
1635.635968  	0.182834 
1637.564784  	0.192741 
1639.493600  	0.201050 
1641.422416  	0.206527 
1643.351232  	0.211150 
1645.280048  	0.212248 
1647.208864  	0.211414 
1649.137680  	0.212767 
1651.066496  	0.214256 
1652.995312  	0.207378 
1654.924128  	0.204964 
1656.852944  	0.205853 
1658.781760  	0.204087 
1660.710576  	0.200549 
1662.639392  	0.195077 
1664.568208  	0.190811 
1666.497024  	0.188678 
1668.425840  	0.183262 
1670.354656  	0.175750 
1672.283472  	0.172433 
1674.212288  	0.169612 
1676.141104  	0.164306 
1678.069920  	0.163316 
1679.998736  	0.162277 
1681.927552  	0.161314 
1683.856368  	0.156982 
1685.785184  	0.155211 
1687.714000  	0.157166 
1689.642816  	0.156616 
1691.571632  	0.155111 
1693.500448  	0.154576 
1695.429264  	0.150735 
1697.358080  	0.147461 
1699.286896  	0.145524 
1701.215712  	0.139650 
1703.144528  	0.139356 
1705.073344  	0.135510 
1707.002160  	0.129280 
1708.930976  	0.124933 
1710.859792  	0.119021 
1712.788608  	0.112267 
1714.717424  	0.103902 
1716.646240  	0.092885 
1718.575056  	0.078672 
1720.503872  	0.070731 
1722.432688  	0.064086 
1724.361504  	0.054711 
1726.290320  	0.046995 
1728.219136  	0.040445 
1730.147952  	0.034620 
1732.076768  	0.030040 
1734.005584  	0.023369 
1735.934400  	0.018275 
1737.863216  	0.018298 
1739.792032  	0.014854 
1741.720848  	0.013521 
1743.649664  	0.012734 
1745.578480  	0.011940 
1747.507296  	0.010466 
1749.436112  	0.009628 
1751.364928  	0.008209 
1753.293744  	0.007619 
1755.222560  	0.007410 
1757.151376  	0.006605 
1759.080192  	0.006127 
1761.009008  	0.005737 
1762.937824  	0.004157 
1764.866640  	0.004581 
1766.795456  	0.005003 
1768.724272  	0.004596 
1770.653088  	0.003182 
1772.581904  	0.001016 
1774.510720  	0.001367 
1776.439536  	0.002611 
1778.368352  	0.002836 
1780.297168  	0.002457 
1782.225984  	0.001934 
1784.154800  	0.002320 
1786.083616  	0.001728 
1788.012432  	0.002052 
1789.941248  	0.002358 
1791.870064  	0.001242 
1793.798880  	-0.000021 
1795.727696  	0.001243 
1797.656512  	0.001057 
1799.585328  	0.000913 
1801.514144  	0.000901 
1803.442960  	0.000883 
1805.371776  	0.000547 
1807.300592  	0.000830 
1809.229408  	0.000315 
1811.158224  	-0.000001 
1813.087040  	-0.000307 
1815.015856  	-0.000039 
1816.944672  	0.000030 
1818.873488  	0.000238 
1820.802304  	0.000183 
1822.731120  	0.000754 
1824.659936  	0.000138 
1826.588752  	-0.000349 
1828.517568  	-0.000664 
1830.446384  	-0.001186 
1832.375200  	-0.000757 
1834.304016  	-0.000090 
1836.232832  	-0.000364 
1838.161648  	-0.000256 
1840.090464  	-0.000346 
1842.019280  	0.000360 
1843.948096  	-0.000745 
1845.876912  	-0.001073 
1847.805728  	-0.000568 
1849.734544  	-0.000442 
1851.663360  	-0.000600 
1853.592176  	-0.000531 
1855.520992  	-0.000668 
1857.449808  	-0.000632 
1859.378624  	-0.000947 
1861.307440  	-0.000763 
1863.236256  	-0.000776 
1865.165072  	-0.000305 
1867.093888  	-0.000372 
1869.022704  	-0.000942 
1870.951520  	-0.001316 
1872.880336  	-0.000596 
1874.809152  	-0.000823 
1876.737968  	-0.001021 
1878.666784  	-0.001419 
1880.595600  	-0.000938 
1882.524416  	-0.001170 
1884.453232  	-0.001067 
1886.382048  	-0.001309 
1888.310864  	-0.000830 
1890.239680  	-0.001117 
1892.168496  	-0.000971 
1894.097312  	-0.000999 
1896.026128  	-0.000715 
1897.954944  	-0.001040 
1899.883760  	-0.000806 
1901.812576  	-0.001043 
1903.741392  	-0.001343 
1905.670208  	-0.001590 
1907.599024  	-0.000986 
1909.527840  	-0.000977 
1911.456656  	-0.000876 
1913.385472  	-0.001058 
1915.314288  	-0.000412 
1917.243104  	-0.000664 
1919.171920  	-0.000755 
1921.100736  	-0.000531 
1923.029552  	-0.000504 
1924.958368  	-0.001199 
1926.887184  	-0.000836 
1928.816000  	-0.001072 
1930.744816  	-0.000745 
1932.673632  	-0.000769 
1934.602448  	-0.000868 
1936.531264  	-0.001300 
1938.460080  	-0.000667 
1940.388896  	-0.000485 
1942.317712  	-0.000402 
1944.246528  	-0.000841 
1946.175344  	-0.000139 
1948.104160  	-0.000496 
1950.032976  	-0.000529 
1951.961792  	-0.000998 
1953.890608  	-0.000582 
1955.819424  	-0.000895 
1957.748240  	-0.000329 
1959.677056  	-0.001180 
1961.605872  	-0.000257 
1963.534688  	-0.000412 
1965.463504  	0.000587 
1967.392320  	0.000385 
1969.321136  	0.000789 
1971.249952  	0.000456 
1973.178768  	0.000987 
1975.107584  	0.000303 
1977.036400  	0.001553 
1978.965216  	0.001927 
1980.894032  	0.001496 
1982.822848  	0.000662 
1984.751664  	0.000936 
1986.680480  	0.000171 
1988.609296  	0.000662 
1990.538112  	0.000337 
1992.466928  	0.000493 
1994.395744  	-0.000936 
1996.324560  	-0.000947 
1998.253376  	-0.001175 
2000.182192  	-0.000611 
2002.111008  	-0.000410 
2004.039824  	0.000710 
2005.968640  	-0.000128 
2007.897456  	0.000088 
2009.826272  	-0.000581 
2011.755088  	-0.000286 
2013.683904  	-0.000316 
2015.612720  	0.000781 
2017.541536  	0.000653 
2019.470352  	0.000642 
2021.399168  	-0.000895 
2023.327984  	-0.000383 
2025.256800  	0.000613 
2027.185616  	0.000607 
2029.114432  	-0.000431 
2031.043248  	0.000399 
2032.972064  	0.000162 
2034.900880  	0.000606 
2036.829696  	-0.000242 
2038.758512  	0.000628 
2040.687328  	-0.000050 
2042.616144  	0.000098 
2044.544960  	0.000165 
2046.473776  	0.000914 
2048.402592  	-0.000061 
2050.331408  	-0.000259 
2052.260224  	-0.001033 
2054.189040  	-0.000999 
2056.117856  	-0.001303 
2058.046672  	-0.001168 
2059.975488  	-0.001299 
2061.904304  	-0.001000 
2063.833120  	-0.001246 
2065.761936  	-0.001211 
2067.690752  	-0.001544 
2069.619568  	-0.001376 
2071.548384  	-0.001068 
2073.477200  	-0.000628 
2075.406016  	-0.000787 
2077.334832  	-0.000485 
2079.263648  	-0.000585 
2081.192464  	-0.000349 
2083.121280  	-0.000284 
2085.050096  	-0.000466 
2086.978912  	-0.001050 
2088.907728  	-0.000869 
2090.836544  	-0.001171 
2092.765360  	-0.000812 
2094.694176  	-0.000191 
2096.622992  	-0.000049 
2098.551808  	-0.000572 
2100.480624  	-0.000141 
2102.409440  	-0.000290 
2104.338256  	-0.000565 
2106.267072  	-0.000306 
2108.195888  	0.000073 
2110.124704  	-0.000132 
2112.053520  	-0.000027 
2113.982336  	-0.000281 
2115.911152  	-0.000505 
2117.839968  	-0.000748 
2119.768784  	-0.000673 
2121.697600  	-0.000926 
2123.626416  	-0.000514 
2125.555232  	-0.000387 
2127.484048  	-0.000256 
2129.412864  	-0.000848 
2131.341680  	-0.001301 
2133.270496  	-0.001513 
2135.199312  	-0.000394 
2137.128128  	-0.000225 
2139.056944  	0.000149 
2140.985760  	0.000150 
2142.914576  	-0.000044 
2144.843392  	-0.000268 
2146.772208  	0.000477 
2148.701024  	0.000298 
2150.629840  	0.000413 
2152.558656  	0.000066 
2154.487472  	0.000622 
2156.416288  	0.000035 
2158.345104  	0.001063 
2160.273920  	0.002025 
2162.202736  	0.003160 
2164.131552  	0.002728 
2166.060368  	0.002438 
2167.989184  	0.002579 
2169.918000  	0.003391 
2171.846816  	0.002213 
2173.775632  	0.002644 
2175.704448  	0.003368 
2177.633264  	0.002962 
2179.562080  	0.001560 
2181.490896  	0.002079 
2183.419712  	0.001430 
2185.348528  	0.000950 
2187.277344  	0.000303 
2189.206160  	0.000973 
2191.134976  	0.001075 
2193.063792  	0.001055 
2194.992608  	0.001194 
2196.921424  	0.001467 
2198.850240  	0.001185 
2200.779056  	0.001086 
2202.707872  	0.000889 
2204.636688  	0.000969 
2206.565504  	0.000655 
2208.494320  	0.000221 
2210.423136  	0.000058 
2212.351952  	0.000295 
2214.280768  	0.000150 
2216.209584  	0.000003 
2218.138400  	-0.001028 
2220.067216  	-0.000502 
2221.996032  	-0.000332 
2223.924848  	-0.000018 
2225.853664  	0.000483 
2227.782480  	0.001358 
2229.711296  	0.000674 
2231.640112  	-0.000449 
2233.568928  	-0.000888 
2235.497744  	-0.000358 
2237.426560  	-0.000656 
2239.355376  	-0.000726 
2241.284192  	-0.000347 
2243.213008  	-0.000142 
2245.141824  	-0.000697 
2247.070640  	-0.000691 
2248.999456  	-0.000950 
2250.928272  	-0.001339 
2252.857088  	-0.001696 
2254.785904  	-0.001616 
2256.714720  	-0.001908 
2258.643536  	-0.001683 
2260.572352  	-0.001717 
2262.501168  	-0.001732 
2264.429984  	-0.001814 
2266.358800  	-0.001583 
2268.287616  	-0.001717 
2270.216432  	-0.001731 
2272.145248  	-0.001647 
2274.074064  	-0.001659 
2276.002880  	-0.001582 
2277.931696  	-0.001141 
2279.860512  	-0.001162 
2281.789328  	-0.000864 
2283.718144  	-0.001020 
2285.646960  	-0.001051 
2287.575776  	-0.000786 
2289.504592  	-0.000819 
2291.433408  	-0.001152 
2293.362224  	-0.001005 
2295.291040  	-0.000628 
2297.219856  	-0.000265 
2299.148672  	-0.000338 
2301.077488  	-0.000209 
2303.006304  	-0.000215 
2304.935120  	-0.000054 
2306.863936  	0.000183 
2308.792752  	0.000331 
2310.721568  	0.000065 
2312.650384  	-0.000208 
2314.579200  	-0.000622 
2316.508016  	-0.001305 
2318.436832  	-0.002004 
2320.365648  	-0.002725 
2322.294464  	-0.003751 
2324.223280  	-0.004949 
2326.152096  	-0.006449 
2328.080912  	-0.007576 
2330.009728  	-0.008771 
2331.938544  	-0.010067 
2333.867360  	-0.011114 
2335.796176  	-0.011961 
2337.724992  	-0.012745 
2339.653808  	-0.012753 
2341.582624  	-0.012598 
2343.511440  	-0.012059 
2345.440256  	-0.010647 
2347.369072  	-0.007306 
2349.297888  	-0.004851 
2351.226704  	-0.006193 
2353.155520  	-0.009770 
2355.084336  	-0.012396 
2357.013152  	-0.014573 
2358.941968  	-0.016199 
2360.870784  	-0.017345 
2362.799600  	-0.016697 
2364.728416  	-0.016021 
2366.657232  	-0.014470 
2368.586048  	-0.011913 
2370.514864  	-0.009592 
2372.443680  	-0.007818 
2374.372496  	-0.005488 
2376.301312  	-0.003479 
2378.230128  	-0.002179 
2380.158944  	-0.001541 
2382.087760  	-0.001262 
2384.016576  	-0.001381 
2385.945392  	-0.001662 
2387.874208  	-0.001900 
2389.803024  	-0.002157 
2391.731840  	-0.002521 
2393.660656  	-0.002390 
2395.589472  	-0.002179 
2397.518288  	-0.002045 
2399.447104  	-0.002222 
2401.375920  	-0.002281 
2403.304736  	-0.002303 
2405.233552  	-0.002153 
2407.162368  	-0.002304 
2409.091184  	-0.002339 
2411.020000  	-0.002346 
2412.948816  	-0.002327 
2414.877632  	-0.002306 
2416.806448  	-0.002100 
2418.735264  	-0.002113 
2420.664080  	-0.002130 
2422.592896  	-0.002134 
2424.521712  	-0.002130 
2426.450528  	-0.002318 
2428.379344  	-0.002149 
2430.308160  	-0.001916 
2432.236976  	-0.001908 
2434.165792  	-0.001980 
2436.094608  	-0.001874 
2438.023424  	-0.001627 
2439.952240  	-0.001429 
2441.881056  	-0.001472 
2443.809872  	-0.001563 
2445.738688  	-0.001485 
2447.667504  	-0.001079 
2449.596320  	-0.001133 
2451.525136  	-0.001115 
2453.453952  	-0.001073 
2455.382768  	-0.001321 
2457.311584  	-0.001626 
2459.240400  	-0.001767 
2461.169216  	-0.001676 
2463.098032  	-0.001489 
2465.026848  	-0.001545 
2466.955664  	-0.001720 
2468.884480  	-0.001947 
2470.813296  	-0.001897 
2472.742112  	-0.001854 
2474.670928  	-0.001719 
2476.599744  	-0.001745 
2478.528560  	-0.001546 
2480.457376  	-0.001478 
2482.386192  	-0.001472 
2484.315008  	-0.001149 
2486.243824  	-0.001126 
2488.172640  	-0.001285 
2490.101456  	-0.001068 
2492.030272  	-0.001008 
2493.959088  	-0.000936 
2495.887904  	-0.001047 
2497.816720  	-0.001097 
2499.745536  	-0.000983 
2501.674352  	-0.000776 
2503.603168  	-0.000622 
2505.531984  	-0.000566 
2507.460800  	-0.000790 
2509.389616  	-0.000656 
2511.318432  	-0.000362 
2513.247248  	-0.000362 
2515.176064  	-0.000523 
2517.104880  	-0.000466 
2519.033696  	-0.000417 
2520.962512  	-0.000287 
2522.891328  	-0.000351 
2524.820144  	-0.000421 
2526.748960  	-0.000462 
2528.677776  	-0.000187 
2530.606592  	-0.000056 
2532.535408  	-0.000110 
2534.464224  	-0.000151 
2536.393040  	-0.000017 
2538.321856  	0.000124 
2540.250672  	0.000115 
2542.179488  	0.000083 
2544.108304  	0.000300 
2546.037120  	0.000357 
2547.965936  	0.000263 
2549.894752  	0.000202 
2551.823568  	0.000351 
2553.752384  	0.000445 
2555.681200  	0.000590 
2557.610016  	0.000676 
2559.538832  	0.000736 
2561.467648  	0.000939 
2563.396464  	0.001194 
2565.325280  	0.001152 
2567.254096  	0.001040 
2569.182912  	0.000957 
2571.111728  	0.001126 
2573.040544  	0.001207 
2574.969360  	0.001334 
2576.898176  	0.001599 
2578.826992  	0.001606 
2580.755808  	0.001462 
2582.684624  	0.001623 
2584.613440  	0.001762 
2586.542256  	0.001874 
2588.471072  	0.002017 
2590.399888  	0.002070 
2592.328704  	0.001975 
2594.257520  	0.001942 
2596.186336  	0.002102 
2598.115152  	0.002356 
2600.043968  	0.002340 
2601.972784  	0.002307 
2603.901600  	0.002260 
2605.830416  	0.002410 
2607.759232  	0.002621 
2609.688048  	0.002840 
2611.616864  	0.003017 
2613.545680  	0.003114 
2615.474496  	0.003141 
2617.403312  	0.003242 
2619.332128  	0.003244 
2621.260944  	0.003257 
2623.189760  	0.003321 
2625.118576  	0.003336 
2627.047392  	0.003341 
2628.976208  	0.003458 
2630.905024  	0.003646 
2632.833840  	0.003808 
2634.762656  	0.003984 
2636.691472  	0.004100 
2638.620288  	0.004153 
2640.549104  	0.004220 
2642.477920  	0.004273 
2644.406736  	0.004436 
2646.335552  	0.004501 
2648.264368  	0.004527 
2650.193184  	0.004656 
2652.122000  	0.004920 
2654.050816  	0.005102 
2655.979632  	0.005240 
2657.908448  	0.005353 
2659.837264  	0.005517 
2661.766080  	0.005532 
2663.694896  	0.005601 
2665.623712  	0.005787 
2667.552528  	0.005944 
2669.481344  	0.006022 
2671.410160  	0.006135 
2673.338976  	0.006246 
2675.267792  	0.006426 
2677.196608  	0.006611 
2679.125424  	0.006748 
2681.054240  	0.006870 
2682.983056  	0.006996 
2684.911872  	0.006958 
2686.840688  	0.007057 
2688.769504  	0.007163 
2690.698320  	0.007264 
2692.627136  	0.007362 
2694.555952  	0.007467 
2696.484768  	0.007594 
2698.413584  	0.007670 
2700.342400  	0.007674 
2702.271216  	0.007830 
2704.200032  	0.008044 
2706.128848  	0.008153 
2708.057664  	0.008233 
2709.986480  	0.008406 
2711.915296  	0.008463 
2713.844112  	0.008612 
2715.772928  	0.008728 
2717.701744  	0.008851 
2719.630560  	0.009098 
2721.559376  	0.009228 
2723.488192  	0.009320 
2725.417008  	0.009557 
2727.345824  	0.009741 
2729.274640  	0.009848 
2731.203456  	0.010029 
2733.132272  	0.010205 
2735.061088  	0.010328 
2736.989904  	0.010437 
2738.918720  	0.010450 
2740.847536  	0.010490 
2742.776352  	0.010564 
2744.705168  	0.010697 
2746.633984  	0.010794 
2748.562800  	0.010893 
2750.491616  	0.010983 
2752.420432  	0.011181 
2754.349248  	0.011160 
2756.278064  	0.011051 
2758.206880  	0.010935 
2760.135696  	0.010871 
2762.064512  	0.011014 
2763.993328  	0.011135 
2765.922144  	0.011141 
2767.850960  	0.011147 
2769.779776  	0.011049 
2771.708592  	0.011067 
2773.637408  	0.011065 
2775.566224  	0.011080 
2777.495040  	0.011086 
2779.423856  	0.011132 
2781.352672  	0.011077 
2783.281488  	0.010989 
2785.210304  	0.010938 
2787.139120  	0.010970 
2789.067936  	0.011042 
2790.996752  	0.011107 
2792.925568  	0.011042 
2794.854384  	0.010971 
2796.783200  	0.010873 
2798.712016  	0.010720 
2800.640832  	0.010661 
2802.569648  	0.010845 
2804.498464  	0.010899 
2806.427280  	0.010855 
2808.356096  	0.010806 
2810.284912  	0.010829 
2812.213728  	0.010850 
2814.142544  	0.010878 
2816.071360  	0.010857 
2818.000176  	0.010722 
2819.928992  	0.010641 
2821.857808  	0.010516 
2823.786624  	0.010431 
2825.715440  	0.010425 
2827.644256  	0.010274 
2829.573072  	0.010112 
2831.501888  	0.009881 
2833.430704  	0.009563 
2835.359520  	0.009246 
2837.288336  	0.008956 
2839.217152  	0.008610 
2841.145968  	0.008230 
2843.074784  	0.007824 
2845.003600  	0.007422 
2846.932416  	0.007101 
2848.861232  	0.006799 
2850.790048  	0.006361 
2852.718864  	0.005974 
2854.647680  	0.005643 
2856.576496  	0.005107 
2858.505312  	0.004473 
2860.434128  	0.004075 
2862.362944  	0.003526 
2864.291760  	0.002803 
2866.220576  	0.002314 
2868.149392  	0.002065 
2870.078208  	0.001874 
2872.007024  	0.001843 
2873.935840  	0.001977 
2875.864656  	0.002081 
2877.793472  	0.002051 
2879.722288  	0.001950 
2881.651104  	0.001741 
2883.579920  	0.001752 
2885.508736  	0.001912 
2887.437552  	0.002139 
2889.366368  	0.002220 
2891.295184  	0.002038 
2893.224000  	0.001902 
2895.152816  	0.001944 
2897.081632  	0.001552 
2899.010448  	0.000014 
2900.939264  	-0.001289 
2902.868080  	-0.000127 
2904.796896  	0.001143 
2906.725712  	0.001748 
2908.654528  	0.002279 
2910.583344  	0.002593 
2912.512160  	0.003073 
2914.440976  	0.004143 
2916.369792  	0.004964 
2918.298608  	0.005433 
2920.227424  	0.005849 
2922.156240  	0.006495 
2924.085056  	0.007356 
2926.013872  	0.008327 
2927.942688  	0.009353 
2929.871504  	0.010434 
2931.800320  	0.011312 
2933.729136  	0.012050 
2935.657952  	0.012821 
2937.586768  	0.013640 
2939.515584  	0.014264 
2941.444400  	0.014548 
2943.373216  	0.014637 
2945.302032  	0.014990 
2947.230848  	0.015256 
2949.159664  	0.015035 
2951.088480  	0.014623 
2953.017296  	0.014221 
2954.946112  	0.013656 
2956.874928  	0.012982 
2958.803744  	0.012346 
2960.732560  	0.011818 
2962.661376  	0.011237 
2964.590192  	0.010393 
2966.519008  	0.009286 
2968.447824  	0.008400 
2970.376640  	0.007686 
2972.305456  	0.007211 
2974.234272  	0.007437 
2976.163088  	0.007812 
2978.091904  	0.007778 
2980.020720  	0.007633 
2981.949536  	0.007814 
2983.878352  	0.007702 
2985.807168  	0.006815 
2987.735984  	0.005914 
2989.664800  	0.006268 
2991.593616  	0.009004 
2993.522432  	0.010752 
2995.451248  	0.011300 
2997.380064  	0.012236 
2999.308880  	0.013381 
3001.237696  	0.014540 
3003.166512  	0.015899 
3005.095328  	0.017183 
3007.024144  	0.018455 
3008.952960  	0.019812 
3010.881776  	0.021247 
3012.810592  	0.022487 
3014.739408  	0.023631 
3016.668224  	0.024601 
3018.597040  	0.025815 
3020.525856  	0.027067 
3022.454672  	0.028157 
3024.383488  	0.029103 
3026.312304  	0.029942 
3028.241120  	0.030968 
3030.169936  	0.032052 
3032.098752  	0.032934 
3034.027568  	0.033648 
3035.956384  	0.034404 
3037.885200  	0.035298 
3039.814016  	0.036030 
3041.742832  	0.036638 
3043.671648  	0.037195 
3045.600464  	0.037937 
3047.529280  	0.038504 
3049.458096  	0.039140 
3051.386912  	0.039902 
3053.315728  	0.040550 
3055.244544  	0.041151 
3057.173360  	0.041772 
3059.102176  	0.042370 
3061.030992  	0.043144 
3062.959808  	0.044146 
3064.888624  	0.044995 
3066.817440  	0.045497 
3068.746256  	0.046255 
3070.675072  	0.047244 
3072.603888  	0.047959 
3074.532704  	0.048690 
3076.461520  	0.049634 
3078.390336  	0.050475 
3080.319152  	0.051273 
3082.247968  	0.052133 
3084.176784  	0.052926 
3086.105600  	0.053698 
3088.034416  	0.054545 
3089.963232  	0.055449 
3091.892048  	0.056310 
3093.820864  	0.057213 
3095.749680  	0.058005 
3097.678496  	0.058908 
3099.607312  	0.059990 
3101.536128  	0.060964 
3103.464944  	0.061961 
3105.393760  	0.062816 
3107.322576  	0.063494 
3109.251392  	0.064144 
3111.180208  	0.064897 
3113.109024  	0.065799 
3115.037840  	0.066667 
3116.966656  	0.067396 
3118.895472  	0.068091 
3120.824288  	0.068816 
3122.753104  	0.069659 
3124.681920  	0.070173 
3126.610736  	0.070708 
3128.539552  	0.071413 
3130.468368  	0.072240 
3132.397184  	0.072913 
3134.326000  	0.073450 
3136.254816  	0.074001 
3138.183632  	0.074707 
3140.112448  	0.075357 
3142.041264  	0.076080 
3143.970080  	0.076841 
3145.898896  	0.077494 
3147.827712  	0.078208 
3149.756528  	0.078751 
3151.685344  	0.079167 
3153.614160  	0.080071 
3155.542976  	0.080883 
3157.471792  	0.081538 
3159.400608  	0.082276 
3161.329424  	0.082861 
3163.258240  	0.083269 
3165.187056  	0.083965 
3167.115872  	0.084679 
3169.044688  	0.085041 
3170.973504  	0.085482 
3172.902320  	0.086110 
3174.831136  	0.086669 
3176.759952  	0.087100 
3178.688768  	0.087434 
3180.617584  	0.087952 
3182.546400  	0.088333 
3184.475216  	0.088465 
3186.404032  	0.088382 
3188.332848  	0.088601 
3190.261664  	0.088992 
3192.190480  	0.089221 
3194.119296  	0.089167 
3196.048112  	0.089188 
3197.976928  	0.089158 
3199.905744  	0.089146 
3201.834560  	0.089103 
3203.763376  	0.089059 
3205.692192  	0.089065 
3207.621008  	0.088986 
3209.549824  	0.089014 
3211.478640  	0.088903 
3213.407456  	0.088570 
3215.336272  	0.088391 
3217.265088  	0.088401 
3219.193904  	0.088232 
3221.122720  	0.087918 
3223.051536  	0.087634 
3224.980352  	0.087447 
3226.909168  	0.087402 
3228.837984  	0.087152 
3230.766800  	0.087008 
3232.695616  	0.087088 
3234.624432  	0.086916 
3236.553248  	0.086782 
3238.482064  	0.086960 
3240.410880  	0.086992 
3242.339696  	0.087037 
3244.268512  	0.086962 
3246.197328  	0.087112 
3248.126144  	0.087300 
3250.054960  	0.087402 
3251.983776  	0.087641 
3253.912592  	0.087751 
3255.841408  	0.088043 
3257.770224  	0.088503 
3259.699040  	0.088687 
3261.627856  	0.088920 
3263.556672  	0.089134 
3265.485488  	0.089268 
3267.414304  	0.089486 
3269.343120  	0.089830 
3271.271936  	0.090088 
3273.200752  	0.090196 
3275.129568  	0.090379 
3277.058384  	0.090827 
3278.987200  	0.091080 
3280.916016  	0.091139 
3282.844832  	0.091303 
3284.773648  	0.091457 
3286.702464  	0.091631 
3288.631280  	0.092100 
3290.560096  	0.092485 
3292.488912  	0.092725 
3294.417728  	0.093000 
3296.346544  	0.093414 
3298.275360  	0.093740 
3300.204176  	0.094089 
3302.132992  	0.094501 
3304.061808  	0.094830 
3305.990624  	0.095194 
3307.919440  	0.095587 
3309.848256  	0.095812 
3311.777072  	0.096171 
3313.705888  	0.096558 
3315.634704  	0.097025 
3317.563520  	0.097363 
3319.492336  	0.097656 
3321.421152  	0.097745 
3323.349968  	0.097850 
3325.278784  	0.098057 
3327.207600  	0.098365 
3329.136416  	0.098344 
3331.065232  	0.098444 
3332.994048  	0.098613 
3334.922864  	0.098554 
3336.851680  	0.098463 
3338.780496  	0.098439 
3340.709312  	0.098535 
3342.638128  	0.098410 
3344.566944  	0.097956 
3346.495760  	0.097707 
3348.424576  	0.097418 
3350.353392  	0.097176 
3352.282208  	0.096882 
3354.211024  	0.096549 
3356.139840  	0.096367 
3358.068656  	0.095947 
3359.997472  	0.095351 
3361.926288  	0.094937 
3363.855104  	0.094625 
3365.783920  	0.094301 
3367.712736  	0.093781 
3369.641552  	0.093382 
3371.570368  	0.093070 
3373.499184  	0.092884 
3375.428000  	0.092446 
3377.356816  	0.091935 
3379.285632  	0.091747 
3381.214448  	0.091443 
3383.143264  	0.090870 
3385.072080  	0.090351 
3387.000896  	0.089962 
3388.929712  	0.089599 
3390.858528  	0.089155 
3392.787344  	0.088533 
3394.716160  	0.088146 
3396.644976  	0.087944 
3398.573792  	0.087356 
3400.502608  	0.086978 
3402.431424  	0.086501 
3404.360240  	0.085819 
3406.289056  	0.085112 
3408.217872  	0.084597 
3410.146688  	0.083951 
3412.075504  	0.083414 
3414.004320  	0.083046 
3415.933136  	0.082838 
3417.861952  	0.082341 
3419.790768  	0.081618 
3421.719584  	0.080997 
3423.648400  	0.080603 
3425.577216  	0.080006 
3427.506032  	0.079507 
3429.434848  	0.079135 
3431.363664  	0.078430 
3433.292480  	0.077469 
3435.221296  	0.076778 
3437.150112  	0.076287 
3439.078928  	0.076004 
3441.007744  	0.075355 
3442.936560  	0.074580 
3444.865376  	0.074136 
3446.794192  	0.073388 
3448.723008  	0.072372 
3450.651824  	0.071732 
3452.580640  	0.071053 
3454.509456  	0.070499 
3456.438272  	0.069926 
3458.367088  	0.069162 
3460.295904  	0.068419 
3462.224720  	0.067603 
3464.153536  	0.066718 
3466.082352  	0.066054 
3468.011168  	0.065004 
3469.939984  	0.064135 
3471.868800  	0.063579 
3473.797616  	0.062864 
3475.726432  	0.061897 
3477.655248  	0.061101 
3479.584064  	0.060548 
3481.512880  	0.059747 
3483.441696  	0.058556 
3485.370512  	0.057924 
3487.299328  	0.056994 
3489.228144  	0.056085 
3491.156960  	0.055119 
3493.085776  	0.054377 
3495.014592  	0.053584 
3496.943408  	0.052726 
3498.872224  	0.052096 
3500.801040  	0.051688 
3502.729856  	0.050998 
3504.658672  	0.049951 
3506.587488  	0.049473 
3508.516304  	0.049075 
3510.445120  	0.048216 
3512.373936  	0.047285 
3514.302752  	0.046502 
3516.231568  	0.046019 
3518.160384  	0.045445 
3520.089200  	0.044781 
3522.018016  	0.044554 
3523.946832  	0.044192 
3525.875648  	0.043302 
3527.804464  	0.041998 
3529.733280  	0.041017 
3531.662096  	0.040525 
3533.590912  	0.040044 
3535.519728  	0.039663 
3537.448544  	0.038967 
3539.377360  	0.038201 
3541.306176  	0.037724 
3543.234992  	0.037551 
3545.163808  	0.037347 
3547.092624  	0.036284 
3549.021440  	0.034956 
3550.950256  	0.034442 
3552.879072  	0.033535 
3554.807888  	0.032767 
3556.736704  	0.032285 
3558.665520  	0.032032 
3560.594336  	0.031614 
3562.523152  	0.030816 
3564.451968  	0.030569 
3566.380784  	0.030401 
3568.309600  	0.028397 
3570.238416  	0.027548 
3572.167232  	0.027378 
3574.096048  	0.026424 
3576.024864  	0.025259 
3577.953680  	0.024715 
3579.882496  	0.024310 
3581.811312  	0.023742 
3583.740128  	0.023085 
3585.668944  	0.022965 
3587.597760  	0.021400 
3589.526576  	0.019942 
3591.455392  	0.019789 
3593.384208  	0.019348 
3595.313024  	0.018190 
3597.241840  	0.016962 
3599.170656  	0.015761 
3601.099472  	0.014700 
3603.028288  	0.014471 
3604.957104  	0.014487 
3606.885920  	0.013936 
3608.814736  	0.012427 
3610.743552  	0.011908 
3612.672368  	0.010796 
3614.601184  	0.009456 
3616.530000  	0.009434 
3618.458816  	0.007634 
3620.387632  	0.005720 
3622.316448  	0.005627 
3624.245264  	0.005400 
3626.174080  	0.005554 
3628.102896  	0.003735 
3630.031712  	-0.000300 
3631.960528  	0.000895 
3633.889344  	0.000647 
3635.818160  	-0.000389 
3637.746976  	-0.001261 
3639.675792  	-0.001704 
3641.604608  	-0.001939 
3643.533424  	-0.002161 
3645.462240  	-0.002424 
3647.391056  	-0.005125 
3649.319872  	-0.009605 
3651.248688  	-0.011124 
3653.177504  	-0.008504 
3655.106320  	-0.008516 
3657.035136  	-0.011416 
3658.963952  	-0.011578 
3660.892768  	-0.011471 
3662.821584  	-0.011615 
3664.750400  	-0.011573 
3666.679216  	-0.011271 
3668.608032  	-0.012664 
3670.536848  	-0.016086 
3672.465664  	-0.014565 
3674.394480  	-0.014674 
3676.323296  	-0.019150 
3678.252112  	-0.016349 
3680.180928  	-0.014763 
3682.109744  	-0.014199 
3684.038560  	-0.014309 
3685.967376  	-0.013968 
3687.896192  	-0.015617 
3689.825008  	-0.018346 
3691.753824  	-0.017771 
3693.682640  	-0.016023 
3695.611456  	-0.015040 
3697.540272  	-0.014292 
3699.469088  	-0.013412 
3701.397904  	-0.014164 
3703.326720  	-0.014285 
3705.255536  	-0.012907 
3707.184352  	-0.012211 
3709.113168  	-0.012983 
3711.041984  	-0.014987 
3712.970800  	-0.015082 
3714.899616  	-0.012847 
3716.828432  	-0.011767 
3718.757248  	-0.011986 
3720.686064  	-0.012390 
3722.614880  	-0.012859 
3724.543696  	-0.012418 
3726.472512  	-0.012730 
3728.401328  	-0.012332 
3730.330144  	-0.012081 
3732.258960  	-0.013496 
3734.187776  	-0.013223 
3736.116592  	-0.014277 
3738.045408  	-0.014234 
3739.974224  	-0.012438 
3741.903040  	-0.010842 
3743.831856  	-0.012376 
3745.760672  	-0.015256 
3747.689488  	-0.012946 
3749.618304  	-0.014581 
3751.547120  	-0.017131 
3753.475936  	-0.015988 
3755.404752  	-0.013372 
3757.333568  	-0.012466 
3759.262384  	-0.013188 
3761.191200  	-0.013420 
3763.120016  	-0.011680 
3765.048832  	-0.012244 
3766.977648  	-0.012734 
3768.906464  	-0.013017 
3770.835280  	-0.013888 
3772.764096  	-0.012674 
3774.692912  	-0.011748 
3776.621728  	-0.011330 
3778.550544  	-0.012304 
3780.479360  	-0.013794 
3782.408176  	-0.012548 
3784.336992  	-0.012502 
3786.265808  	-0.012610 
3788.194624  	-0.012273 
3790.123440  	-0.012215 
3792.052256  	-0.012095 
3793.981072  	-0.011668 
3795.909888  	-0.012599 
3797.838704  	-0.012925 
3799.767520  	-0.012633 
3801.696336  	-0.015998 
3803.625152  	-0.014795 
3805.553968  	-0.013024 
3807.482784  	-0.014707 
3809.411600  	-0.013238 
3811.340416  	-0.012054 
3813.269232  	-0.011522 
3815.198048  	-0.013221 
3817.126864  	-0.014900 
3819.055680  	-0.013137 
3820.984496  	-0.015808 
3822.913312  	-0.015662 
3824.842128  	-0.012984 
3826.770944  	-0.013368 
3828.699760  	-0.012904 
3830.628576  	-0.012675 
3832.557392  	-0.013350 
3834.486208  	-0.012972 
3836.415024  	-0.013377 
3838.343840  	-0.014879 
3840.272656  	-0.014765 
3842.201472  	-0.013550 
3844.130288  	-0.013487 
3846.059104  	-0.012775 
3847.987920  	-0.011799 
3849.916736  	-0.011342 
3851.845552  	-0.012390 
3853.774368  	-0.017732 
3855.703184  	-0.016363 
3857.632000  	-0.013472 
3859.560816  	-0.011976 
3861.489632  	-0.011716 
3863.418448  	-0.012410 
3865.347264  	-0.013250 
3867.276080  	-0.011872 
3869.204896  	-0.012651 
3871.133712  	-0.013849 
3873.062528  	-0.012775 
3874.991344  	-0.013655 
3876.920160  	-0.012055 
3878.848976  	-0.011073 
3880.777792  	-0.012369 
3882.706608  	-0.011943 
3884.635424  	-0.011805 
3886.564240  	-0.013506 
3888.493056  	-0.012398 
3890.421872  	-0.012310 
3892.350688  	-0.013410 
3894.279504  	-0.012451 
3896.208320  	-0.011260 
3898.137136  	-0.010912 
3900.065952  	-0.011426 
3901.994768  	-0.011545 
3903.923584  	-0.012601 
3905.852400  	-0.013269 
3907.781216  	-0.012504 
3909.710032  	-0.012118 
3911.638848  	-0.012098 
3913.567664  	-0.011636 
3915.496480  	-0.011192 
3917.425296  	-0.011847 
3919.354112  	-0.012285 
3921.282928  	-0.011940 
3923.211744  	-0.011303 
3925.140560  	-0.011661 
3927.069376  	-0.011737 
3928.998192  	-0.011426 
3930.927008  	-0.011183 
3932.855824  	-0.011599 
3934.784640  	-0.012168 
3936.713456  	-0.012011 
3938.642272  	-0.011583 
3940.571088  	-0.011081 
3942.499904  	-0.011343 
3944.428720  	-0.011720 
3946.357536  	-0.011331 
3948.286352  	-0.011262 
3950.215168  	-0.011811 
3952.143984  	-0.012196 
3954.072800  	-0.012102 
3956.001616  	-0.011898 
3957.930432  	-0.011981 
3959.859248  	-0.011848 
3961.788064  	-0.011781 
3963.716880  	-0.012110 
3965.645696  	-0.012353 
3967.574512  	-0.012183 
3969.503328  	-0.011886 
3971.432144  	-0.012019 
3973.360960  	-0.012200 
3975.289776  	-0.012285 
3977.218592  	-0.012186 
3979.147408  	-0.011904 
3981.076224  	-0.011825 
3983.005040  	-0.011922 
3984.933856  	-0.012008 
3986.862672  	-0.011956 
3988.791488  	-0.011801 
3990.720304  	-0.011792 
3992.649120  	-0.011893 
3994.577936  	-0.012039 
3996.506752  	-0.012089 
3998.435568  	-0.012067 
4000.364384  	-0.011996 