##TITLE=No Description
##DATA TYPE=INFRARED SPECTRUM
##XUNITS=1/CM
##YUNITS=Abs
399.264912  	0.626611 
401.193728  	0.598544 
403.122544  	0.590113 
405.051360  	0.587867 
406.980176  	0.588588 
408.908992  	0.573207 
410.837808  	0.575870 
412.766624  	0.577509 
414.695440  	0.574283 
416.624256  	0.569214 
418.553072  	0.579441 
420.481888  	0.565282 
422.410704  	0.554626 
424.339520  	0.545399 
426.268336  	0.549325 
428.197152  	0.547333 
430.125968  	0.546612 
432.054784  	0.543917 
433.983600  	0.549323 
435.912416  	0.545259 
437.841232  	0.542803 
439.770048  	0.538557 
441.698864  	0.538761 
443.627680  	0.529162 
445.556496  	0.522433 
447.485312  	0.518840 
449.414128  	0.522835 
451.342944  	0.527988 
453.271760  	0.529502 
455.200576  	0.526009 
457.129392  	0.530498 
459.058208  	0.527005 
460.987024  	0.527534 
462.915840  	0.527182 
464.844656  	0.528566 
466.773472  	0.526779 
468.702288  	0.527150 
470.631104  	0.526510 
472.559920  	0.528092 
474.488736  	0.522948 
476.417552  	0.521772 
478.346368  	0.518493 
480.275184  	0.519542 
482.204000  	0.515163 
484.132816  	0.517141 
486.061632  	0.518011 
487.990448  	0.517329 
489.919264  	0.511197 
491.848080  	0.510097 
493.776896  	0.508090 
495.705712  	0.504823 
497.634528  	0.505248 
499.563344  	0.508084 
501.492160  	0.505470 
503.420976  	0.506416 
505.349792  	0.506396 
507.278608  	0.505499 
509.207424  	0.502179 
511.136240  	0.503499 
513.065056  	0.504526 
514.993872  	0.509139 
516.922688  	0.509917 
518.851504  	0.511678 
520.780320  	0.511152 
522.709136  	0.509980 
524.637952  	0.509796 
526.566768  	0.508952 
528.495584  	0.506242 
530.424400  	0.505125 
532.353216  	0.500192 
534.282032  	0.495346 
536.210848  	0.488783 
538.139664  	0.483277 
540.068480  	0.478636 
541.997296  	0.475116 
543.926112  	0.470293 
545.854928  	0.467325 
547.783744  	0.463243 
549.712560  	0.458063 
551.641376  	0.453006 
553.570192  	0.450666 
555.499008  	0.447988 
557.427824  	0.443969 
559.356640  	0.438665 
561.285456  	0.436207 
563.214272  	0.433240 
565.143088  	0.429469 
567.071904  	0.424517 
569.000720  	0.420792 
570.929536  	0.417404 
572.858352  	0.415744 
574.787168  	0.413819 
576.715984  	0.411447 
578.644800  	0.407857 
580.573616  	0.404697 
582.502432  	0.398878 
584.431248  	0.394341 
586.360064  	0.391583 
588.288880  	0.390289 
590.217696  	0.387534 
592.146512  	0.384305 
594.075328  	0.381709 
596.004144  	0.380080 
597.932960  	0.377291 
599.861776  	0.375494 
601.790592  	0.374015 
603.719408  	0.372476 
605.648224  	0.370936 
607.577040  	0.369990 
609.505856  	0.368321 
611.434672  	0.366875 
613.363488  	0.364724 
615.292304  	0.363126 
617.221120  	0.361601 
619.149936  	0.360526 
621.078752  	0.359356 
623.007568  	0.358926 
624.936384  	0.357294 
626.865200  	0.355452 
628.794016  	0.354109 
630.722832  	0.353891 
632.651648  	0.353328 
634.580464  	0.353229 
636.509280  	0.353015 
638.438096  	0.353314 
640.366912  	0.352128 
642.295728  	0.350525 
644.224544  	0.348325 
646.153360  	0.345496 
648.082176  	0.341182 
650.010992  	0.337683 
651.939808  	0.333852 
653.868624  	0.329680 
655.797440  	0.325811 
657.726256  	0.322424 
659.655072  	0.318707 
661.583888  	0.314533 
663.512704  	0.309982 
665.441520  	0.306591 
667.370336  	0.299176 
669.299152  	0.292111 
671.227968  	0.292676 
673.156784  	0.290802 
675.085600  	0.287710 
677.014416  	0.284941 
678.943232  	0.282840 
680.872048  	0.281280 
682.800864  	0.279897 
684.729680  	0.278119 
686.658496  	0.276556 
688.587312  	0.275643 
690.516128  	0.274167 
692.444944  	0.273415 
694.373760  	0.272652 
696.302576  	0.270633 
698.231392  	0.268450 
700.160208  	0.266112 
702.089024  	0.263980 
704.017840  	0.261631 
705.946656  	0.258702 
707.875472  	0.256046 
709.804288  	0.254094 
711.733104  	0.252364 
713.661920  	0.250627 
715.590736  	0.249414 
717.519552  	0.248570 
719.448368  	0.248396 
721.377184  	0.248985 
723.306000  	0.249985 
725.234816  	0.250061 
727.163632  	0.249371 
729.092448  	0.247613 
731.021264  	0.244652 
732.950080  	0.241245 
734.878896  	0.238054 
736.807712  	0.234874 
738.736528  	0.232228 
740.665344  	0.230235 
742.594160  	0.228797 
744.522976  	0.227565 
746.451792  	0.226071 
748.380608  	0.224378 
750.309424  	0.223027 
752.238240  	0.221951 
754.167056  	0.221452 
756.095872  	0.220395 
758.024688  	0.219332 
759.953504  	0.218831 
761.882320  	0.219402 
763.811136  	0.220007 
765.739952  	0.219188 
767.668768  	0.216765 
769.597584  	0.214025 
771.526400  	0.212716 
773.455216  	0.214368 
775.384032  	0.218218 
777.312848  	0.223154 
779.241664  	0.227325 
781.170480  	0.227990 
783.099296  	0.224611 
785.028112  	0.219075 
786.956928  	0.212948 
788.885744  	0.207870 
790.814560  	0.204298 
792.743376  	0.202134 
794.672192  	0.200823 
796.601008  	0.199980 
798.529824  	0.197205 
800.458640  	0.192714 
802.387456  	0.189069 
804.316272  	0.187052 
806.245088  	0.185856 
808.173904  	0.185205 
810.102720  	0.184912 
812.031536  	0.184880 
813.960352  	0.185195 
815.889168  	0.185502 
817.817984  	0.185549 
819.746800  	0.185795 
821.675616  	0.186024 
823.604432  	0.185966 
825.533248  	0.185676 
827.462064  	0.185462 
829.390880  	0.184707 
831.319696  	0.183095 
833.248512  	0.180992 
835.177328  	0.178657 
837.106144  	0.176231 
839.034960  	0.172801 
840.963776  	0.169058 
842.892592  	0.165484 
844.821408  	0.161941 
846.750224  	0.158746 
848.679040  	0.156259 
850.607856  	0.154249 
852.536672  	0.152454 
854.465488  	0.151011 
856.394304  	0.149754 
858.323120  	0.148332 
860.251936  	0.146388 
862.180752  	0.144051 
864.109568  	0.141432 
866.038384  	0.139067 
867.967200  	0.136959 
869.896016  	0.134942 
871.824832  	0.133989 
873.753648  	0.133860 
875.682464  	0.134279 
877.611280  	0.134741 
879.540096  	0.135675 
881.468912  	0.137754 
883.397728  	0.139333 
885.326544  	0.140449 
887.255360  	0.140717 
889.184176  	0.139626 
891.112992  	0.137561 
893.041808  	0.135763 
894.970624  	0.133453 
896.899440  	0.130051 
898.828256  	0.125867 
900.757072  	0.121783 
902.685888  	0.118654 
904.614704  	0.116998 
906.543520  	0.117063 
908.472336  	0.118544 
910.401152  	0.121114 
912.329968  	0.124129 
914.258784  	0.127339 
916.187600  	0.130072 
918.116416  	0.132466 
920.045232  	0.134441 
921.974048  	0.135628 
923.902864  	0.136099 
925.831680  	0.136038 
927.760496  	0.136114 
929.689312  	0.136442 
931.618128  	0.137078 
933.546944  	0.137586 
935.475760  	0.137908 
937.404576  	0.137858 
939.333392  	0.137528 
941.262208  	0.137641 
943.191024  	0.139291 
945.119840  	0.143430 
947.048656  	0.149850 
948.977472  	0.157994 
950.906288  	0.167836 
952.835104  	0.178872 
954.763920  	0.190528 
956.692736  	0.201305 
958.621552  	0.210496 
960.550368  	0.216914 
962.479184  	0.219890 
964.408000  	0.218865 
966.336816  	0.213866 
968.265632  	0.205289 
970.194448  	0.193765 
972.123264  	0.180360 
974.052080  	0.166516 
975.980896  	0.152988 
977.909712  	0.140367 
979.838528  	0.129205 
981.767344  	0.119919 
983.696160  	0.112598 
985.624976  	0.108031 
987.553792  	0.106300 
989.482608  	0.107279 
991.411424  	0.110664 
993.340240  	0.115724 
995.269056  	0.122013 
997.197872  	0.128781 
999.126688  	0.135726 
1001.055504  	0.142757 
1002.984320  	0.149878 
1004.913136  	0.156885 
1006.841952  	0.163665 
1008.770768  	0.169220 
1010.699584  	0.173130 
1012.628400  	0.175489 
1014.557216  	0.176569 
1016.486032  	0.176808 
1018.414848  	0.176548 
1020.343664  	0.176212 
1022.272480  	0.175592 
1024.201296  	0.174425 
1026.130112  	0.171180 
1028.058928  	0.170172 
1029.987744  	0.173423 
1031.916560  	0.175626 
1033.845376  	0.176892 
1035.774192  	0.178383 
1037.703008  	0.181561 
1039.631824  	0.188398 
1041.560640  	0.197689 
1043.489456  	0.209716 
1045.418272  	0.224684 
1047.347088  	0.241320 
1049.275904  	0.256464 
1051.204720  	0.268508 
1053.133536  	0.276092 
1055.062352  	0.279254 
1056.991168  	0.278537 
1058.919984  	0.279250 
1060.848800  	0.279941 
1062.777616  	0.277495 
1064.706432  	0.271297 
1066.635248  	0.265652 
1068.564064  	0.263494 
1070.492880  	0.258792 
1072.421696  	0.251054 
1074.350512  	0.245411 
1076.279328  	0.243456 
1078.208144  	0.245770 
1080.136960  	0.251065 
1082.065776  	0.257143 
1083.994592  	0.261015 
1085.923408  	0.261992 
1087.852224  	0.259372 
1089.781040  	0.254437 
1091.709856  	0.248170 
1093.638672  	0.239637 
1095.567488  	0.228345 
1097.496304  	0.215448 
1099.425120  	0.202001 
1101.353936  	0.188578 
1103.282752  	0.175504 
1105.211568  	0.163109 
1107.140384  	0.151156 
1109.069200  	0.139845 
1110.998016  	0.129615 
1112.926832  	0.120298 
1114.855648  	0.111585 
1116.784464  	0.103417 
1118.713280  	0.095834 
1120.642096  	0.088736 
1122.570912  	0.082336 
1124.499728  	0.076235 
1126.428544  	0.070592 
1128.357360  	0.065595 
1130.286176  	0.061710 
1132.214992  	0.058343 
1134.143808  	0.055547 
1136.072624  	0.053226 
1138.001440  	0.051221 
1139.930256  	0.048648 
1141.859072  	0.046223 
1143.787888  	0.044000 
1145.716704  	0.041892 
1147.645520  	0.039579 
1149.574336  	0.037793 
1151.503152  	0.036372 
1153.431968  	0.035782 
1155.360784  	0.035946 
1157.289600  	0.036857 
1159.218416  	0.038414 
1161.147232  	0.040580 
1163.076048  	0.042796 
1165.004864  	0.045203 
1166.933680  	0.047355 
1168.862496  	0.049822 
1170.791312  	0.052253 
1172.720128  	0.055282 
1174.648944  	0.058181 
1176.577760  	0.061106 
1178.506576  	0.063800 
1180.435392  	0.066602 
1182.364208  	0.069407 
1184.293024  	0.072643 
1186.221840  	0.075998 
1188.150656  	0.079840 
1190.079472  	0.084329 
1192.008288  	0.089941 
1193.937104  	0.096648 
1195.865920  	0.104309 
1197.794736  	0.112843 
1199.723552  	0.122170 
1201.652368  	0.131652 
1203.581184  	0.141397 
1205.510000  	0.150905 
1207.438816  	0.160035 
1209.367632  	0.168635 
1211.296448  	0.175976 
1213.225264  	0.182142 
1215.154080  	0.186886 
1217.082896  	0.190464 
1219.011712  	0.192719 
1220.940528  	0.194276 
1222.869344  	0.195191 
1224.798160  	0.195418 
1226.726976  	0.194782 
1228.655792  	0.193735 
1230.584608  	0.192108 
1232.513424  	0.189761 
1234.442240  	0.186698 
1236.371056  	0.183121 
1238.299872  	0.178111 
1240.228688  	0.170789 
1242.157504  	0.163507 
1244.086320  	0.157299 
1246.015136  	0.149646 
1247.943952  	0.141203 
1249.872768  	0.132702 
1251.801584  	0.125372 
1253.730400  	0.117974 
1255.659216  	0.110717 
1257.588032  	0.103943 
1259.516848  	0.097458 
1261.445664  	0.091536 
1263.374480  	0.085996 
1265.303296  	0.081289 
1267.232112  	0.077624 
1269.160928  	0.074889 
1271.089744  	0.072668 
1273.018560  	0.071433 
1274.947376  	0.071051 
1276.876192  	0.071131 
1278.805008  	0.070924 
1280.733824  	0.069776 
1282.662640  	0.067764 
1284.591456  	0.065349 
1286.520272  	0.063190 
1288.449088  	0.061864 
1290.377904  	0.061221 
1292.306720  	0.061405 
1294.235536  	0.061529 
1296.164352  	0.060651 
1298.093168  	0.058317 
1300.021984  	0.055455 
1301.950800  	0.052296 
1303.879616  	0.049218 
1305.808432  	0.045944 
1307.737248  	0.042681 
1309.666064  	0.039536 
1311.594880  	0.037209 
1313.523696  	0.035304 
1315.452512  	0.034094 
1317.381328  	0.033368 
1319.310144  	0.033154 
1321.238960  	0.033272 
1323.167776  	0.034017 
1325.096592  	0.034896 
1327.025408  	0.035594 
1328.954224  	0.035609 
1330.883040  	0.035182 
1332.811856  	0.034328 
1334.740672  	0.033751 
1336.669488  	0.033616 
1338.598304  	0.033610 
1340.527120  	0.032229 
1342.455936  	0.030915 
1344.384752  	0.030596 
1346.313568  	0.030939 
1348.242384  	0.031539 
1350.171200  	0.032809 
1352.100016  	0.034489 
1354.028832  	0.036451 
1355.957648  	0.038141 
1357.886464  	0.040272 
1359.815280  	0.042713 
1361.744096  	0.044918 
1363.672912  	0.046090 
1365.601728  	0.047454 
1367.530544  	0.048916 
1369.459360  	0.049288 
1371.388176  	0.049287 
1373.316992  	0.047969 
1375.245808  	0.044402 
1377.174624  	0.041920 
1379.103440  	0.039007 
1381.032256  	0.036057 
1382.961072  	0.033867 
1384.889888  	0.033176 
1386.818704  	0.032168 
1388.747520  	0.030191 
1390.676336  	0.028160 
1392.605152  	0.025165 
1394.533968  	0.022932 
1396.462784  	0.025541 
1398.391600  	0.026815 
1400.320416  	0.026048 
1402.249232  	0.026634 
1404.178048  	0.027174 
1406.106864  	0.027538 
1408.035680  	0.029475 
1409.964496  	0.032028 
1411.893312  	0.034891 
1413.822128  	0.038048 
1415.750944  	0.041925 
1417.679760  	0.044378 
1419.608576  	0.043561 
1421.537392  	0.044109 
1423.466208  	0.044417 
1425.395024  	0.042579 
1427.323840  	0.041481 
1429.252656  	0.038966 
1431.181472  	0.037111 
1433.110288  	0.037252 
1435.039104  	0.038150 
1436.967920  	0.036691 
1438.896736  	0.037464 
1440.825552  	0.038961 
1442.754368  	0.039607 
1444.683184  	0.039965 
1446.612000  	0.039990 
1448.540816  	0.038561 
1450.469632  	0.039117 
1452.398448  	0.040224 
1454.327264  	0.041649 
1456.256080  	0.040826 
1458.184896  	0.036971 
1460.113712  	0.038793 
1462.042528  	0.041076 
1463.971344  	0.040855 
1465.900160  	0.040702 
1467.828976  	0.043662 
1469.757792  	0.047513 
1471.686608  	0.050566 
1473.615424  	0.055352 
1475.544240  	0.061884 
1477.473056  	0.067726 
1479.401872  	0.072160 
1481.330688  	0.075487 
1483.259504  	0.077661 
1485.188320  	0.079474 
1487.117136  	0.079470 
1489.045952  	0.078426 
1490.974768  	0.074743 
1492.903584  	0.073046 
1494.832400  	0.070269 
1496.761216  	0.063014 
1498.690032  	0.056554 
1500.618848  	0.052657 
1502.547664  	0.049510 
1504.476480  	0.046251 
1506.405296  	0.038497 
1508.334112  	0.034234 
1510.262928  	0.035455 
1512.191744  	0.034203 
1514.120560  	0.033610 
1516.049376  	0.032959 
1517.978192  	0.031905 
1519.907008  	0.033835 
1521.835824  	0.033403 
1523.764640  	0.037934 
1525.693456  	0.042447 
1527.622272  	0.044433 
1529.551088  	0.045571 
1531.479904  	0.045716 
1533.408720  	0.041003 
1535.337536  	0.037840 
1537.266352  	0.037447 
1539.195168  	0.030170 
1541.123984  	0.021593 
1543.052800  	0.023628 
1544.981616  	0.023924 
1546.910432  	0.024133 
1548.839248  	0.024985 
1550.768064  	0.024724 
1552.696880  	0.024995 
1554.625696  	0.025486 
1556.554512  	0.026500 
1558.483328  	0.023525 
1560.412144  	0.025455 
1562.340960  	0.034179 
1564.269776  	0.038712 
1566.198592  	0.044014 
1568.127408  	0.048456 
1570.056224  	0.052838 
1571.985040  	0.060180 
1573.913856  	0.065759 
1575.842672  	0.066244 
1577.771488  	0.068566 
1579.700304  	0.071198 
1581.629120  	0.071123 
1583.557936  	0.070457 
1585.486752  	0.071256 
1587.415568  	0.073718 
1589.344384  	0.078181 
1591.273200  	0.084103 
1593.202016  	0.091326 
1595.130832  	0.098926 
1597.059648  	0.107069 
1598.988464  	0.114138 
1600.917280  	0.120141 
1602.846096  	0.123884 
1604.774912  	0.126443 
1606.703728  	0.126671 
1608.632544  	0.125555 
1610.561360  	0.123543 
1612.490176  	0.122310 
1614.418992  	0.120473 
1616.347808  	0.116919 
1618.276624  	0.117340 
1620.205440  	0.122451 
1622.134256  	0.125317 
1624.063072  	0.130413 
1625.991888  	0.137807 
1627.920704  	0.145886 
1629.849520  	0.155683 
1631.778336  	0.165599 
1633.707152  	0.172475 
1635.635968  	0.179020 
1637.564784  	0.189109 
1639.493600  	0.197768 
1641.422416  	0.203132 
1643.351232  	0.207387 
1645.280048  	0.207655 
1647.208864  	0.205897 
1649.137680  	0.207920 
1651.066496  	0.209202 
1652.995312  	0.200391 
1654.924128  	0.198675 
1656.852944  	0.200468 
1658.781760  	0.198948 
1660.710576  	0.195288 
1662.639392  	0.189436 
1664.568208  	0.185363 
1666.497024  	0.183506 
1668.425840  	0.177588 
1670.354656  	0.169707 
1672.283472  	0.167119 
1674.212288  	0.164278 
1676.141104  	0.158817 
1678.069920  	0.158559 
1679.998736  	0.157740 
1681.927552  	0.156561 
1683.856368  	0.150600 
1685.785184  	0.149143 
1687.714000  	0.152087 
1689.642816  	0.151552 
1691.571632  	0.150159 
1693.500448  	0.149717 
1695.429264  	0.144948 
1697.358080  	0.141649 
1699.286896  	0.139668 
1701.215712  	0.133000 
1703.144528  	0.133517 
1705.073344  	0.129707 
1707.002160  	0.123627 
1708.930976  	0.119684 
1710.859792  	0.113978 
1712.788608  	0.107491 
1714.717424  	0.098971 
1716.646240  	0.087376 
1718.575056  	0.073122 
1720.503872  	0.066394 
1722.432688  	0.060274 
1724.361504  	0.051001 
1726.290320  	0.043642 
1728.219136  	0.037561 
1730.147952  	0.031820 
1732.076768  	0.027418 
1734.005584  	0.019530 
1735.934400  	0.014518 
1737.863216  	0.015684 
1739.792032  	0.011853 
1741.720848  	0.010678 
1743.649664  	0.010353 
1745.578480  	0.009696 
1747.507296  	0.008161 
1749.436112  	0.007006 
1751.364928  	0.005227 
1753.293744  	0.005074 
1755.222560  	0.005453 
1757.151376  	0.004286 
1759.080192  	0.004050 
1761.009008  	0.003605 
1762.937824  	0.001598 
1764.866640  	0.002484 
1766.795456  	0.003071 
1768.724272  	0.002486 
1770.653088  	0.000956 
1772.581904  	-0.002318 
1774.510720  	-0.001454 
1776.439536  	0.000459 
1778.368352  	0.000878 
1780.297168  	0.000246 
1782.225984  	-0.000329 
1784.154800  	0.000272 
1786.083616  	-0.000409 
1788.012432  	0.000272 
1789.941248  	0.000795 
1791.870064  	-0.001075 
1793.798880  	-0.002815 
1795.727696  	-0.001101 
1797.656512  	-0.001051 
1799.585328  	-0.001073 
1801.514144  	-0.001236 
1803.442960  	-0.001290 
1805.371776  	-0.001605 
1807.300592  	-0.001100 
1809.229408  	-0.001547 
1811.158224  	-0.002065 
1813.087040  	-0.002357 
1815.015856  	-0.001717 
1816.944672  	-0.001712 
1818.873488  	-0.001802 
1820.802304  	-0.001757 
1822.731120  	-0.000919 
1824.659936  	-0.001884 
1826.588752  	-0.002598 
1828.517568  	-0.002931 
1830.446384  	-0.003901 
1832.375200  	-0.003108 
1834.304016  	-0.002052 
1836.232832  	-0.002118 
1838.161648  	-0.002098 
1840.090464  	-0.002190 
1842.019280  	-0.001198 
1843.948096  	-0.002953 
1845.876912  	-0.003396 
1847.805728  	-0.002444 
1849.734544  	-0.002461 
1851.663360  	-0.002540 
1853.592176  	-0.002390 
1855.520992  	-0.002639 
1857.449808  	-0.002514 
1859.378624  	-0.002589 
1861.307440  	-0.002512 
1863.236256  	-0.002747 
1865.165072  	-0.002473 
1867.093888  	-0.002629 
1869.022704  	-0.003387 
1870.951520  	-0.003637 
1872.880336  	-0.002648 
1874.809152  	-0.002881 
1876.737968  	-0.002800 
1878.666784  	-0.002987 
1880.595600  	-0.002611 
1882.524416  	-0.002920 
1884.453232  	-0.002906 
1886.382048  	-0.002914 
1888.310864  	-0.002734 
1890.239680  	-0.003780 
1892.168496  	-0.003216 
1894.097312  	-0.002998 
1896.026128  	-0.003136 
1897.954944  	-0.003409 
1899.883760  	-0.002922 
1901.812576  	-0.003253 
1903.741392  	-0.003357 
1905.670208  	-0.003068 
1907.599024  	-0.002530 
1909.527840  	-0.003199 
1911.456656  	-0.003011 
1913.385472  	-0.003086 
1915.314288  	-0.002392 
1917.243104  	-0.002705 
1919.171920  	-0.003098 
1921.100736  	-0.002851 
1923.029552  	-0.002745 
1924.958368  	-0.003122 
1926.887184  	-0.002750 
1928.816000  	-0.003044 
1930.744816  	-0.002876 
1932.673632  	-0.002974 
1934.602448  	-0.002768 
1936.531264  	-0.003161 
1938.460080  	-0.002886 
1940.388896  	-0.002975 
1942.317712  	-0.003070 
1944.246528  	-0.003830 
1946.175344  	-0.003137 
1948.104160  	-0.002750 
1950.032976  	-0.002075 
1951.961792  	-0.002432 
1953.890608  	-0.002590 
1955.819424  	-0.003283 
1957.748240  	-0.002590 
1959.677056  	-0.003284 
1961.605872  	-0.003206 
1963.534688  	-0.003308 
1965.463504  	-0.002486 
1967.392320  	-0.003494 
1969.321136  	-0.003054 
1971.249952  	-0.002535 
1973.178768  	-0.000928 
1975.107584  	-0.002663 
1977.036400  	-0.002884 
1978.965216  	-0.001669 
1980.894032  	-0.001564 
1982.822848  	-0.002413 
1984.751664  	-0.001723 
1986.680480  	-0.002857 
1988.609296  	-0.003057 
1990.538112  	-0.003293 
1992.466928  	-0.002313 
1994.395744  	-0.002904 
1996.324560  	-0.002613 
1998.253376  	-0.002939 
2000.182192  	-0.003542 
2002.111008  	-0.003790 
2004.039824  	-0.002523 
2005.968640  	-0.003457 
2007.897456  	-0.002693 
2009.826272  	-0.003052 
2011.755088  	-0.002638 
2013.683904  	-0.003191 
2015.612720  	-0.002956 
2017.541536  	-0.003439 
2019.470352  	-0.002684 
2021.399168  	-0.003784 
2023.327984  	-0.004005 
2025.256800  	-0.003288 
2027.185616  	-0.001326 
2029.114432  	-0.000789 
2031.043248  	-0.000450 
2032.972064  	-0.001823 
2034.900880  	-0.002075 
2036.829696  	-0.003178 
2038.758512  	-0.001979 
2040.687328  	-0.002514 
2042.616144  	-0.002117 
2044.544960  	-0.002139 
2046.473776  	-0.002279 
2048.402592  	-0.002915 
2050.331408  	-0.002849 
2052.260224  	-0.003394 
2054.189040  	-0.003046 
2056.117856  	-0.003171 
2058.046672  	-0.002881 
2059.975488  	-0.003260 
2061.904304  	-0.003305 
2063.833120  	-0.003229 
2065.761936  	-0.003053 
2067.690752  	-0.003613 
2069.619568  	-0.003315 
2071.548384  	-0.003452 
2073.477200  	-0.003308 
2075.406016  	-0.003038 
2077.334832  	-0.002655 
2079.263648  	-0.002865 
2081.192464  	-0.002591 
2083.121280  	-0.002697 
2085.050096  	-0.002860 
2086.978912  	-0.003024 
2088.907728  	-0.002630 
2090.836544  	-0.002947 
2092.765360  	-0.002640 
2094.694176  	-0.002495 
2096.622992  	-0.002475 
2098.551808  	-0.002630 
2100.480624  	-0.002270 
2102.409440  	-0.002405 
2104.338256  	-0.002413 
2106.267072  	-0.002548 
2108.195888  	-0.002428 
2110.124704  	-0.002640 
2112.053520  	-0.002400 
2113.982336  	-0.002584 
2115.911152  	-0.002936 
2117.839968  	-0.002803 
2119.768784  	-0.002198 
2121.697600  	-0.002508 
2123.626416  	-0.002811 
2125.555232  	-0.002880 
2127.484048  	-0.002578 
2129.412864  	-0.002795 
2131.341680  	-0.002915 
2133.270496  	-0.003393 
2135.199312  	-0.002830 
2137.128128  	-0.002544 
2139.056944  	-0.001986 
2140.985760  	-0.002263 
2142.914576  	-0.001653 
2144.843392  	-0.001479 
2146.772208  	-0.001615 
2148.701024  	-0.001988 
2150.629840  	-0.001124 
2152.558656  	-0.001243 
2154.487472  	-0.001300 
2156.416288  	-0.002351 
2158.345104  	-0.001629 
2160.273920  	0.000548 
2162.202736  	0.001742 
2164.131552  	-0.000278 
2166.060368  	-0.001303 
2167.989184  	-0.000618 
2169.918000  	0.000633 
2171.846816  	-0.001048 
2173.775632  	-0.001462 
2175.704448  	-0.001440 
2177.633264  	-0.000521 
2179.562080  	-0.000715 
2181.490896  	-0.001143 
2183.419712  	-0.002705 
2185.348528  	-0.002611 
2187.277344  	-0.001830 
2189.206160  	-0.002103 
2191.134976  	-0.002320 
2193.063792  	-0.001592 
2194.992608  	-0.002167 
2196.921424  	-0.001665 
2198.850240  	-0.001289 
2200.779056  	-0.001118 
2202.707872  	-0.001935 
2204.636688  	-0.002492 
2206.565504  	-0.002181 
2208.494320  	-0.001945 
2210.423136  	-0.002529 
2212.351952  	-0.002671 
2214.280768  	-0.002729 
2216.209584  	-0.002352 
2218.138400  	-0.002833 
2220.067216  	-0.002713 
2221.996032  	-0.002689 
2223.924848  	-0.002458 
2225.853664  	-0.002548 
2227.782480  	-0.002586 
2229.711296  	-0.003605 
2231.640112  	-0.003902 
2233.568928  	-0.003578 
2235.497744  	-0.002841 
2237.426560  	-0.003153 
2239.355376  	-0.003378 
2241.284192  	-0.003277 
2243.213008  	-0.002898 
2245.141824  	-0.003531 
2247.070640  	-0.003416 
2248.999456  	-0.003226 
2250.928272  	-0.003336 
2252.857088  	-0.003906 
2254.785904  	-0.003934 
2256.714720  	-0.004313 
2258.643536  	-0.004404 
2260.572352  	-0.004651 
2262.501168  	-0.004313 
2264.429984  	-0.004392 
2266.358800  	-0.004310 
2268.287616  	-0.004296 
2270.216432  	-0.003995 
2272.145248  	-0.004042 
2274.074064  	-0.004223 
2276.002880  	-0.004286 
2277.931696  	-0.003970 
2279.860512  	-0.003879 
2281.789328  	-0.003610 
2283.718144  	-0.003713 
2285.646960  	-0.003575 
2287.575776  	-0.003404 
2289.504592  	-0.003435 
2291.433408  	-0.003777 
2293.362224  	-0.003750 
2295.291040  	-0.003493 
2297.219856  	-0.003095 
2299.148672  	-0.003131 
2301.077488  	-0.003037 
2303.006304  	-0.003057 
2304.935120  	-0.002867 
2306.863936  	-0.002911 
2308.792752  	-0.003037 
2310.721568  	-0.003346 
2312.650384  	-0.003699 
2314.579200  	-0.004388 
2316.508016  	-0.005137 
2318.436832  	-0.005853 
2320.365648  	-0.006952 
2322.294464  	-0.008394 
2324.223280  	-0.009804 
2326.152096  	-0.011614 
2328.080912  	-0.012908 
2330.009728  	-0.014230 
2331.938544  	-0.015913 
2333.867360  	-0.017077 
2335.796176  	-0.018058 
2337.724992  	-0.019213 
2339.653808  	-0.019273 
2341.582624  	-0.019505 
2343.511440  	-0.018984 
2345.440256  	-0.017309 
2347.369072  	-0.012951 
2349.297888  	-0.009548 
2351.226704  	-0.011090 
2353.155520  	-0.015726 
2355.084336  	-0.019549 
2357.013152  	-0.022662 
2358.941968  	-0.024350 
2360.870784  	-0.025832 
2362.799600  	-0.025597 
2364.728416  	-0.024367 
2366.657232  	-0.021765 
2368.586048  	-0.018940 
2370.514864  	-0.016213 
2372.443680  	-0.013650 
2374.372496  	-0.010814 
2376.301312  	-0.008119 
2378.230128  	-0.006093 
2380.158944  	-0.004791 
2382.087760  	-0.003997 
2384.016576  	-0.003972 
2385.945392  	-0.004145 
2387.874208  	-0.004258 
2389.803024  	-0.004355 
2391.731840  	-0.004676 
2393.660656  	-0.004740 
2395.589472  	-0.004683 
2397.518288  	-0.004470 
2399.447104  	-0.004560 
2401.375920  	-0.004715 
2403.304736  	-0.004826 
2405.233552  	-0.004518 
2407.162368  	-0.004627 
2409.091184  	-0.004595 
2411.020000  	-0.004509 
2412.948816  	-0.004467 
2414.877632  	-0.004480 
2416.806448  	-0.004424 
2418.735264  	-0.004580 
2420.664080  	-0.004731 
2422.592896  	-0.004893 
2424.521712  	-0.004779 
2426.450528  	-0.004784 
2428.379344  	-0.004699 
2430.308160  	-0.004606 
2432.236976  	-0.004442 
2434.165792  	-0.004566 
2436.094608  	-0.004737 
2438.023424  	-0.004581 
2439.952240  	-0.004246 
2441.881056  	-0.004183 
2443.809872  	-0.004288 
2445.738688  	-0.004201 
2447.667504  	-0.003949 
2449.596320  	-0.003930 
2451.525136  	-0.003881 
2453.453952  	-0.004024 
2455.382768  	-0.004120 
2457.311584  	-0.004143 
2459.240400  	-0.004082 
2461.169216  	-0.004069 
2463.098032  	-0.004220 
2465.026848  	-0.004216 
2466.955664  	-0.004111 
2468.884480  	-0.004314 
2470.813296  	-0.004357 
2472.742112  	-0.004226 
2474.670928  	-0.004104 
2476.599744  	-0.004273 
2478.528560  	-0.004272 
2480.457376  	-0.004243 
2482.386192  	-0.004184 
2484.315008  	-0.003988 
2486.243824  	-0.003933 
2488.172640  	-0.003911 
2490.101456  	-0.003760 
2492.030272  	-0.003836 
2493.959088  	-0.003643 
2495.887904  	-0.003506 
2497.816720  	-0.003612 
2499.745536  	-0.003452 
2501.674352  	-0.003278 
2503.603168  	-0.003284 
2505.531984  	-0.003372 
2507.460800  	-0.003717 
2509.389616  	-0.003554 
2511.318432  	-0.003364 
2513.247248  	-0.003286 
2515.176064  	-0.003305 
2517.104880  	-0.003273 
2519.033696  	-0.003390 
2520.962512  	-0.003214 
2522.891328  	-0.003094 
2524.820144  	-0.003290 
2526.748960  	-0.003180 
2528.677776  	-0.002897 
2530.606592  	-0.002907 
2532.535408  	-0.003015 
2534.464224  	-0.003093 
2536.393040  	-0.003044 
2538.321856  	-0.002912 
2540.250672  	-0.002777 
2542.179488  	-0.002844 
2544.108304  	-0.002723 
2546.037120  	-0.002501 
2547.965936  	-0.002350 
2549.894752  	-0.002507 
2551.823568  	-0.002534 
2553.752384  	-0.002414 
2555.681200  	-0.002212 
2557.610016  	-0.002271 
2559.538832  	-0.002158 
2561.467648  	-0.001902 
2563.396464  	-0.001786 
2565.325280  	-0.001867 
2567.254096  	-0.001877 
2569.182912  	-0.001636 
2571.111728  	-0.001483 
2573.040544  	-0.001570 
2574.969360  	-0.001481 
2576.898176  	-0.001452 
2578.826992  	-0.001525 
2580.755808  	-0.001479 
2582.684624  	-0.001384 
2584.613440  	-0.001304 
2586.542256  	-0.001199 
2588.471072  	-0.001027 
2590.399888  	-0.000863 
2592.328704  	-0.000749 
2594.257520  	-0.000781 
2596.186336  	-0.000821 
2598.115152  	-0.000664 
2600.043968  	-0.000698 
2601.972784  	-0.000548 
2603.901600  	-0.000436 
2605.830416  	-0.000374 
2607.759232  	-0.000256 
2609.688048  	-0.000079 
2611.616864  	0.000001 
2613.545680  	0.000225 
2615.474496  	0.000271 
2617.403312  	0.000302 
2619.332128  	0.000363 
2621.260944  	0.000406 
2623.189760  	0.000428 
2625.118576  	0.000537 
2627.047392  	0.000610 
2628.976208  	0.000790 
2630.905024  	0.000899 
2632.833840  	0.001011 
2634.762656  	0.001175 
2636.691472  	0.001230 
2638.620288  	0.001359 
2640.549104  	0.001507 
2642.477920  	0.001465 
2644.406736  	0.001551 
2646.335552  	0.001790 
2648.264368  	0.001941 
2650.193184  	0.002036 
2652.122000  	0.002238 
2654.050816  	0.002427 
2655.979632  	0.002542 
2657.908448  	0.002629 
2659.837264  	0.002739 
2661.766080  	0.002870 
2663.694896  	0.003023 
2665.623712  	0.003103 
2667.552528  	0.003292 
2669.481344  	0.003512 
2671.410160  	0.003629 
2673.338976  	0.003742 
2675.267792  	0.003849 
2677.196608  	0.003957 
2679.125424  	0.003991 
2681.054240  	0.004060 
2682.983056  	0.004236 
2684.911872  	0.004307 
2686.840688  	0.004455 
2688.769504  	0.004605 
2690.698320  	0.004705 
2692.627136  	0.004665 
2694.555952  	0.004703 
2696.484768  	0.004809 
2698.413584  	0.004830 
2700.342400  	0.004851 
2702.271216  	0.005084 
2704.200032  	0.005293 
2706.128848  	0.005358 
2708.057664  	0.005338 
2709.986480  	0.005506 
2711.915296  	0.005699 
2713.844112  	0.005812 
2715.772928  	0.005903 
2717.701744  	0.006155 
2719.630560  	0.006472 
2721.559376  	0.006577 
2723.488192  	0.006600 
2725.417008  	0.006826 
2727.345824  	0.007036 
2729.274640  	0.007092 
2731.203456  	0.007227 
2733.132272  	0.007492 
2735.061088  	0.007558 
2736.989904  	0.007558 
2738.918720  	0.007705 
2740.847536  	0.007844 
2742.776352  	0.007819 
2744.705168  	0.007880 
2746.633984  	0.007960 
2748.562800  	0.008024 
2750.491616  	0.008110 
2752.420432  	0.008245 
2754.349248  	0.008150 
2756.278064  	0.008103 
2758.206880  	0.008080 
2760.135696  	0.008090 
2762.064512  	0.008121 
2763.993328  	0.008118 
2765.922144  	0.008124 
2767.850960  	0.008184 
2769.779776  	0.008204 
2771.708592  	0.008275 
2773.637408  	0.008185 
2775.566224  	0.008076 
2777.495040  	0.008086 
2779.423856  	0.008188 
2781.352672  	0.008186 
2783.281488  	0.008146 
2785.210304  	0.008123 
2787.139120  	0.008191 
2789.067936  	0.008308 
2790.996752  	0.008268 
2792.925568  	0.008054 
2794.854384  	0.008037 
2796.783200  	0.008043 
2798.712016  	0.007973 
2800.640832  	0.007889 
2802.569648  	0.007929 
2804.498464  	0.008030 
2806.427280  	0.007962 
2808.356096  	0.007842 
2810.284912  	0.007927 
2812.213728  	0.007938 
2814.142544  	0.007915 
2816.071360  	0.007940 
2818.000176  	0.007802 
2819.928992  	0.007666 
2821.857808  	0.007604 
2823.786624  	0.007413 
2825.715440  	0.007290 
2827.644256  	0.007207 
2829.573072  	0.007100 
2831.501888  	0.006764 
2833.430704  	0.006391 
2835.359520  	0.006050 
2837.288336  	0.005786 
2839.217152  	0.005506 
2841.145968  	0.005218 
2843.074784  	0.004791 
2845.003600  	0.004326 
2846.932416  	0.003894 
2848.861232  	0.003524 
2850.790048  	0.003187 
2852.718864  	0.002734 
2854.647680  	0.002215 
2856.576496  	0.001643 
2858.505312  	0.001051 
2860.434128  	0.000471 
2862.362944  	-0.000231 
2864.291760  	-0.000979 
2866.220576  	-0.001568 
2868.149392  	-0.001860 
2870.078208  	-0.002130 
2872.007024  	-0.002218 
2873.935840  	-0.002111 
2875.864656  	-0.002125 
2877.793472  	-0.002314 
2879.722288  	-0.002423 
2881.651104  	-0.002750 
2883.579920  	-0.002917 
2885.508736  	-0.002678 
2887.437552  	-0.002408 
2889.366368  	-0.002251 
2891.295184  	-0.002502 
2893.224000  	-0.002856 
2895.152816  	-0.002957 
2897.081632  	-0.003210 
2899.010448  	-0.004809 
2900.939264  	-0.006250 
2902.868080  	-0.005067 
2904.796896  	-0.003698 
2906.725712  	-0.003134 
2908.654528  	-0.002585 
2910.583344  	-0.002163 
2912.512160  	-0.001673 
2914.440976  	-0.000577 
2916.369792  	0.000335 
2918.298608  	0.000840 
2920.227424  	0.001314 
2922.156240  	0.002014 
2924.085056  	0.002865 
2926.013872  	0.003875 
2927.942688  	0.004930 
2929.871504  	0.005976 
2931.800320  	0.006948 
2933.729136  	0.007789 
2935.657952  	0.008297 
2937.586768  	0.008834 
2939.515584  	0.009519 
2941.444400  	0.009858 
2943.373216  	0.009991 
2945.302032  	0.010348 
2947.230848  	0.010545 
2949.159664  	0.010238 
2951.088480  	0.009772 
2953.017296  	0.009336 
2954.946112  	0.008742 
2956.874928  	0.007963 
2958.803744  	0.007075 
2960.732560  	0.006530 
2962.661376  	0.005950 
2964.590192  	0.004890 
2966.519008  	0.003664 
2968.447824  	0.002785 
2970.376640  	0.002039 
2972.305456  	0.001587 
2974.234272  	0.001852 
2976.163088  	0.002094 
2978.091904  	0.001992 
2980.020720  	0.002042 
2981.949536  	0.002252 
2983.878352  	0.002027 
2985.807168  	0.001018 
2987.735984  	0.000047 
2989.664800  	0.000454 
2991.593616  	0.003538 
2993.522432  	0.005615 
2995.451248  	0.006167 
2997.380064  	0.006947 
2999.308880  	0.008128 
3001.237696  	0.009495 
3003.166512  	0.011029 
3005.095328  	0.012498 
3007.024144  	0.014009 
3008.952960  	0.015500 
3010.881776  	0.016950 
3012.810592  	0.018271 
3014.739408  	0.019466 
3016.668224  	0.020544 
3018.597040  	0.021860 
3020.525856  	0.023163 
3022.454672  	0.024219 
3024.383488  	0.025264 
3026.312304  	0.026352 
3028.241120  	0.027577 
3030.169936  	0.028564 
3032.098752  	0.029310 
3034.027568  	0.030014 
3035.956384  	0.030835 
3037.885200  	0.031824 
3039.814016  	0.032591 
3041.742832  	0.033233 
3043.671648  	0.033888 
3045.600464  	0.034672 
3047.529280  	0.035142 
3049.458096  	0.035766 
3051.386912  	0.036575 
3053.315728  	0.037227 
3055.244544  	0.037904 
3057.173360  	0.038474 
3059.102176  	0.038979 
3061.030992  	0.039723 
3062.959808  	0.040607 
3064.888624  	0.041296 
3066.817440  	0.041978 
3068.746256  	0.042851 
3070.675072  	0.043719 
3072.603888  	0.044387 
3074.532704  	0.045098 
3076.461520  	0.046000 
3078.390336  	0.046954 
3080.319152  	0.047717 
3082.247968  	0.048455 
3084.176784  	0.049249 
3086.105600  	0.050042 
3088.034416  	0.050834 
3089.963232  	0.051840 
3091.892048  	0.052537 
3093.820864  	0.053187 
3095.749680  	0.053995 
3097.678496  	0.054958 
3099.607312  	0.055936 
3101.536128  	0.056892 
3103.464944  	0.057812 
3105.393760  	0.058567 
3107.322576  	0.059330 
3109.251392  	0.060163 
3111.180208  	0.060810 
3113.109024  	0.061551 
3115.037840  	0.062320 
3116.966656  	0.063137 
3118.895472  	0.063730 
3120.824288  	0.064316 
3122.753104  	0.065098 
3124.681920  	0.065742 
3126.610736  	0.066205 
3128.539552  	0.066957 
3130.468368  	0.067765 
3132.397184  	0.068251 
3134.326000  	0.068857 
3136.254816  	0.069518 
3138.183632  	0.070132 
3140.112448  	0.070722 
3142.041264  	0.071272 
3143.970080  	0.071850 
3145.898896  	0.072478 
3147.827712  	0.073185 
3149.756528  	0.073803 
3151.685344  	0.074288 
3153.614160  	0.075058 
3155.542976  	0.075927 
3157.471792  	0.076694 
3159.400608  	0.077388 
3161.329424  	0.077969 
3163.258240  	0.078454 
3165.187056  	0.078870 
3167.115872  	0.079428 
3169.044688  	0.079978 
3170.973504  	0.080383 
3172.902320  	0.080798 
3174.831136  	0.081245 
3176.759952  	0.081717 
3178.688768  	0.082078 
3180.617584  	0.082451 
3182.546400  	0.082915 
3184.475216  	0.083244 
3186.404032  	0.083045 
3188.332848  	0.083081 
3190.261664  	0.083469 
3192.190480  	0.083617 
3194.119296  	0.083544 
3196.048112  	0.083727 
3197.976928  	0.083569 
3199.905744  	0.083471 
3201.834560  	0.083510 
3203.763376  	0.083548 
3205.692192  	0.083418 
3207.621008  	0.083146 
3209.549824  	0.083067 
3211.478640  	0.083046 
3213.407456  	0.082947 
3215.336272  	0.082689 
3217.265088  	0.082675 
3219.193904  	0.082625 
3221.122720  	0.082472 
3223.051536  	0.082236 
3224.980352  	0.081902 
3226.909168  	0.081618 
3228.837984  	0.081439 
3230.766800  	0.081379 
3232.695616  	0.081442 
3234.624432  	0.081386 
3236.553248  	0.081291 
3238.482064  	0.081260 
3240.410880  	0.081261 
3242.339696  	0.081314 
3244.268512  	0.081158 
3246.197328  	0.081099 
3248.126144  	0.081428 
3250.054960  	0.081739 
3251.983776  	0.081951 
3253.912592  	0.082091 
3255.841408  	0.082224 
3257.770224  	0.082537 
3259.699040  	0.082787 
3261.627856  	0.083043 
3263.556672  	0.083348 
3265.485488  	0.083439 
3267.414304  	0.083497 
3269.343120  	0.083940 
3271.271936  	0.084231 
3273.200752  	0.084191 
3275.129568  	0.084307 
3277.058384  	0.084733 
3278.987200  	0.084989 
3280.916016  	0.085109 
3282.844832  	0.085309 
3284.773648  	0.085406 
3286.702464  	0.085637 
3288.631280  	0.086022 
3290.560096  	0.086465 
3292.488912  	0.086856 
3294.417728  	0.086975 
3296.346544  	0.087226 
3298.275360  	0.087592 
3300.204176  	0.087968 
3302.132992  	0.088267 
3304.061808  	0.088501 
3305.990624  	0.089014 
3307.919440  	0.089315 
3309.848256  	0.089394 
3311.777072  	0.089728 
3313.705888  	0.090296 
3315.634704  	0.090869 
3317.563520  	0.091091 
3319.492336  	0.091278 
3321.421152  	0.091411 
3323.349968  	0.091598 
3325.278784  	0.091770 
3327.207600  	0.091878 
3329.136416  	0.091689 
3331.065232  	0.091893 
3332.994048  	0.092221 
3334.922864  	0.092374 
3336.851680  	0.092240 
3338.780496  	0.091970 
3340.709312  	0.091759 
3342.638128  	0.091726 
3344.566944  	0.091326 
3346.495760  	0.091074 
3348.424576  	0.090895 
3350.353392  	0.090544 
3352.282208  	0.090207 
3354.211024  	0.089888 
3356.139840  	0.089508 
3358.068656  	0.089202 
3359.997472  	0.088879 
3361.926288  	0.088553 
3363.855104  	0.088128 
3365.783920  	0.087700 
3367.712736  	0.087246 
3369.641552  	0.086825 
3371.570368  	0.086422 
3373.499184  	0.086080 
3375.428000  	0.085694 
3377.356816  	0.085189 
3379.285632  	0.085048 
3381.214448  	0.084754 
3383.143264  	0.084134 
3385.072080  	0.083530 
3387.000896  	0.083137 
3388.929712  	0.082844 
3390.858528  	0.082576 
3392.787344  	0.082207 
3394.716160  	0.081802 
3396.644976  	0.081337 
3398.573792  	0.080916 
3400.502608  	0.080494 
3402.431424  	0.079818 
3404.360240  	0.079209 
3406.289056  	0.078799 
3408.217872  	0.078407 
3410.146688  	0.077868 
3412.075504  	0.077421 
3414.004320  	0.077002 
3415.933136  	0.076647 
3417.861952  	0.076023 
3419.790768  	0.075411 
3421.719584  	0.074874 
3423.648400  	0.074499 
3425.577216  	0.073936 
3427.506032  	0.073236 
3429.434848  	0.072572 
3431.363664  	0.071958 
3433.292480  	0.071332 
3435.221296  	0.070726 
3437.150112  	0.070221 
3439.078928  	0.069759 
3441.007744  	0.069216 
3442.936560  	0.068787 
3444.865376  	0.068475 
3446.794192  	0.067399 
3448.723008  	0.066293 
3450.651824  	0.065911 
3452.580640  	0.065382 
3454.509456  	0.064857 
3456.438272  	0.064285 
3458.367088  	0.063561 
3460.295904  	0.062855 
3462.224720  	0.061864 
3464.153536  	0.061073 
3466.082352  	0.060577 
3468.011168  	0.059551 
3469.939984  	0.058748 
3471.868800  	0.058120 
3473.797616  	0.057289 
3475.726432  	0.056447 
3477.655248  	0.055901 
3479.584064  	0.055416 
3481.512880  	0.054340 
3483.441696  	0.053223 
3485.370512  	0.052700 
3487.299328  	0.051659 
3489.228144  	0.050800 
3491.156960  	0.050133 
3493.085776  	0.049376 
3495.014592  	0.048538 
3496.943408  	0.047817 
3498.872224  	0.047285 
3500.801040  	0.047072 
3502.729856  	0.046060 
3504.658672  	0.044685 
3506.587488  	0.044464 
3508.516304  	0.044063 
3510.445120  	0.042967 
3512.373936  	0.042198 
3514.302752  	0.041571 
3516.231568  	0.041348 
3518.160384  	0.040865 
3520.089200  	0.040365 
3522.018016  	0.039947 
3523.946832  	0.039410 
3525.875648  	0.038803 
3527.804464  	0.037542 
3529.733280  	0.036568 
3531.662096  	0.036044 
3533.590912  	0.035580 
3535.519728  	0.035178 
3537.448544  	0.034499 
3539.377360  	0.033861 
3541.306176  	0.033595 
3543.234992  	0.033539 
3545.163808  	0.033098 
3547.092624  	0.031780 
3549.021440  	0.030692 
3550.950256  	0.030371 
3552.879072  	0.029269 
3554.807888  	0.028696 
3556.736704  	0.028430 
3558.665520  	0.028115 
3560.594336  	0.027513 
3562.523152  	0.026940 
3564.451968  	0.027028 
3566.380784  	0.025978 
3568.309600  	0.023441 
3570.238416  	0.023288 
3572.167232  	0.023437 
3574.096048  	0.022646 
3576.024864  	0.021540 
3577.953680  	0.021047 
3579.882496  	0.020451 
3581.811312  	0.019878 
3583.740128  	0.019649 
3585.668944  	0.019594 
3587.597760  	0.017036 
3589.526576  	0.015229 
3591.455392  	0.015839 
3593.384208  	0.015535 
3595.313024  	0.014081 
3597.241840  	0.013095 
3599.170656  	0.012024 
3601.099472  	0.010691 
3603.028288  	0.010656 
3604.957104  	0.011171 
3606.885920  	0.010405 
3608.814736  	0.008321 
3610.743552  	0.008177 
3612.672368  	0.006968 
3614.601184  	0.005237 
3616.530000  	0.005803 
3618.458816  	0.003620 
3620.387632  	0.001060 
3622.316448  	0.001890 
3624.245264  	0.002531 
3626.174080  	0.002912 
3628.102896  	-0.000114 
3630.031712  	-0.005731 
3631.960528  	-0.002980 
3633.889344  	-0.002998 
3635.818160  	-0.003932 
3637.746976  	-0.004410 
3639.675792  	-0.004756 
3641.604608  	-0.004957 
3643.533424  	-0.005093 
3645.462240  	-0.004956 
3647.391056  	-0.008094 
3649.319872  	-0.013981 
3651.248688  	-0.016741 
3653.177504  	-0.012636 
3655.106320  	-0.012129 
3657.035136  	-0.015969 
3658.963952  	-0.015384 
3660.892768  	-0.014811 
3662.821584  	-0.014815 
3664.750400  	-0.014584 
3666.679216  	-0.013971 
3668.608032  	-0.015674 
3670.536848  	-0.020613 
3672.465664  	-0.017758 
3674.394480  	-0.017647 
3676.323296  	-0.025013 
3678.252112  	-0.020752 
3680.180928  	-0.018499 
3682.109744  	-0.017632 
3684.038560  	-0.017253 
3685.967376  	-0.016189 
3687.896192  	-0.018787 
3689.825008  	-0.023523 
3691.753824  	-0.022859 
3693.682640  	-0.019723 
3695.611456  	-0.018072 
3697.540272  	-0.017230 
3699.469088  	-0.015977 
3701.397904  	-0.017264 
3703.326720  	-0.017843 
3705.255536  	-0.015869 
3707.184352  	-0.014831 
3709.113168  	-0.015947 
3711.041984  	-0.019054 
3712.970800  	-0.019497 
3714.899616  	-0.016027 
3716.828432  	-0.014265 
3718.757248  	-0.014493 
3720.686064  	-0.014831 
3722.614880  	-0.015780 
3724.543696  	-0.015552 
3726.472512  	-0.016163 
3728.401328  	-0.015642 
3730.330144  	-0.014499 
3732.258960  	-0.016244 
3734.187776  	-0.016768 
3736.116592  	-0.019271 
3738.045408  	-0.018510 
3739.974224  	-0.015623 
3741.903040  	-0.013107 
3743.831856  	-0.015913 
3745.760672  	-0.020365 
3747.689488  	-0.016145 
3749.618304  	-0.018496 
3751.547120  	-0.022063 
3753.475936  	-0.020061 
3755.404752  	-0.016072 
3757.333568  	-0.015102 
3759.262384  	-0.016300 
3761.191200  	-0.016698 
3763.120016  	-0.014041 
3765.048832  	-0.014612 
3766.977648  	-0.014946 
3768.906464  	-0.015584 
3770.835280  	-0.017339 
3772.764096  	-0.015497 
3774.692912  	-0.014137 
3776.621728  	-0.013528 
3778.550544  	-0.014874 
3780.479360  	-0.016856 
3782.408176  	-0.014860 
3784.336992  	-0.014965 
3786.265808  	-0.015316 
3788.194624  	-0.014644 
3790.123440  	-0.014481 
3792.052256  	-0.014346 
3793.981072  	-0.013587 
3795.909888  	-0.014970 
3797.838704  	-0.015447 
3799.767520  	-0.014630 
3801.696336  	-0.020128 
3803.625152  	-0.018477 
3805.553968  	-0.015608 
3807.482784  	-0.018574 
3809.411600  	-0.016498 
3811.340416  	-0.014343 
3813.269232  	-0.013075 
3815.198048  	-0.015591 
3817.126864  	-0.018578 
3819.055680  	-0.015524 
3820.984496  	-0.019772 
3822.913312  	-0.019946 
3824.842128  	-0.015564 
3826.770944  	-0.016150 
3828.699760  	-0.015258 
3830.628576  	-0.014734 
3832.557392  	-0.015994 
3834.486208  	-0.015447 
3836.415024  	-0.016126 
3838.343840  	-0.018949 
3840.272656  	-0.019061 
3842.201472  	-0.017242 
3844.130288  	-0.017054 
3846.059104  	-0.015614 
3847.987920  	-0.013708 
3849.916736  	-0.012761 
3851.845552  	-0.014494 
3853.774368  	-0.023476 
3855.703184  	-0.021365 
3857.632000  	-0.016788 
3859.560816  	-0.014334 
3861.489632  	-0.014003 
3863.418448  	-0.015225 
3865.347264  	-0.016680 
3867.276080  	-0.014194 
3869.204896  	-0.015357 
3871.133712  	-0.017748 
3873.062528  	-0.015871 
3874.991344  	-0.017038 
3876.920160  	-0.014438 
3878.848976  	-0.013186 
3880.777792  	-0.015552 
3882.706608  	-0.014467 
3884.635424  	-0.013992 
3886.564240  	-0.016726 
3888.493056  	-0.014362 
3890.421872  	-0.014407 
3892.350688  	-0.016786 
3894.279504  	-0.015388 
3896.208320  	-0.013424 
3898.137136  	-0.013000 
3900.065952  	-0.014213 
3901.994768  	-0.014597 
3903.923584  	-0.016008 
3905.852400  	-0.016813 
3907.781216  	-0.015405 
3909.710032  	-0.014438 
3911.638848  	-0.014229 
3913.567664  	-0.013676 
3915.496480  	-0.013189 
3917.425296  	-0.014312 
3919.354112  	-0.015098 
3921.282928  	-0.014694 
3923.211744  	-0.013732 
3925.140560  	-0.014343 
3927.069376  	-0.014252 
3928.998192  	-0.013743 
3930.927008  	-0.013781 
3932.855824  	-0.014373 
3934.784640  	-0.014477 
3936.713456  	-0.014200 
3938.642272  	-0.013934 
3940.571088  	-0.013240 
3942.499904  	-0.013670 
3944.428720  	-0.014254 
3946.357536  	-0.013436 
3948.286352  	-0.013457 
3950.215168  	-0.014201 
3952.143984  	-0.014580 
3954.072800  	-0.014428 
3956.001616  	-0.014135 
3957.930432  	-0.014209 
3959.859248  	-0.014072 
3961.788064  	-0.014098 
3963.716880  	-0.014447 
3965.645696  	-0.014544 
3967.574512  	-0.014464 
3969.503328  	-0.014193 
3971.432144  	-0.014267 
3973.360960  	-0.014491 
3975.289776  	-0.014597 
3977.218592  	-0.014438 
3979.147408  	-0.014258 
3981.076224  	-0.014207 
3983.005040  	-0.014247 
3984.933856  	-0.014288 
3986.862672  	-0.014349 
3988.791488  	-0.014175 
3990.720304  	-0.014049 
3992.649120  	-0.014154 
3994.577936  	-0.014349 
3996.506752  	-0.014368 
3998.435568  	-0.014348 
4000.364384  	-0.014284 