##TITLE=No Description
##DATA TYPE=INFRARED SPECTRUM
##XUNITS=1/CM
##YUNITS=Abs
399.264912  	0.627142 
401.193728  	0.601256 
403.122544  	0.602746 
405.051360  	0.598843 
406.980176  	0.602837 
408.908992  	0.600004 
410.837808  	0.589409 
412.766624  	0.577168 
414.695440  	0.580675 
416.624256  	0.569895 
418.553072  	0.581398 
420.481888  	0.577886 
422.410704  	0.573796 
424.339520  	0.563899 
426.268336  	0.562354 
428.197152  	0.563106 
430.125968  	0.568573 
432.054784  	0.554920 
433.983600  	0.549675 
435.912416  	0.555230 
437.841232  	0.558244 
439.770048  	0.551615 
441.698864  	0.548170 
443.627680  	0.541253 
445.556496  	0.540199 
447.485312  	0.538940 
449.414128  	0.540036 
451.342944  	0.538323 
453.271760  	0.538927 
455.200576  	0.540578 
457.129392  	0.547742 
459.058208  	0.548420 
460.987024  	0.546014 
462.915840  	0.538910 
464.844656  	0.541471 
466.773472  	0.538778 
468.702288  	0.540801 
470.631104  	0.539911 
472.559920  	0.536223 
474.488736  	0.532003 
476.417552  	0.537201 
478.346368  	0.533409 
480.275184  	0.530075 
482.204000  	0.525578 
484.132816  	0.527773 
486.061632  	0.528554 
487.990448  	0.533493 
489.919264  	0.530432 
491.848080  	0.527574 
493.776896  	0.525530 
495.705712  	0.522807 
497.634528  	0.520086 
499.563344  	0.522663 
501.492160  	0.520991 
503.420976  	0.520936 
505.349792  	0.520246 
507.278608  	0.521693 
509.207424  	0.518774 
511.136240  	0.517853 
513.065056  	0.518549 
514.993872  	0.522885 
516.922688  	0.522581 
518.851504  	0.525952 
520.780320  	0.525753 
522.709136  	0.523758 
524.637952  	0.521022 
526.566768  	0.518340 
528.495584  	0.515772 
530.424400  	0.516618 
532.353216  	0.513079 
534.282032  	0.506933 
536.210848  	0.499321 
538.139664  	0.494685 
540.068480  	0.489452 
541.997296  	0.484894 
543.926112  	0.479468 
545.854928  	0.476261 
547.783744  	0.473652 
549.712560  	0.471074 
551.641376  	0.465973 
553.570192  	0.463607 
555.499008  	0.460269 
557.427824  	0.456909 
559.356640  	0.452338 
561.285456  	0.448104 
563.214272  	0.444368 
565.143088  	0.442061 
567.071904  	0.438966 
569.000720  	0.435618 
570.929536  	0.432724 
572.858352  	0.430836 
574.787168  	0.428048 
576.715984  	0.425598 
578.644800  	0.420962 
580.573616  	0.416832 
582.502432  	0.411779 
584.431248  	0.408189 
586.360064  	0.404400 
588.288880  	0.402159 
590.217696  	0.400002 
592.146512  	0.397937 
594.075328  	0.394997 
596.004144  	0.393201 
597.932960  	0.391000 
599.861776  	0.388633 
601.790592  	0.387210 
603.719408  	0.386574 
605.648224  	0.384495 
607.577040  	0.383306 
609.505856  	0.381805 
611.434672  	0.379494 
613.363488  	0.377345 
615.292304  	0.376804 
617.221120  	0.375880 
619.149936  	0.374610 
621.078752  	0.372191 
623.007568  	0.370965 
624.936384  	0.369370 
626.865200  	0.367986 
628.794016  	0.366401 
630.722832  	0.365905 
632.651648  	0.365897 
634.580464  	0.365506 
636.509280  	0.365191 
638.438096  	0.365668 
640.366912  	0.364496 
642.295728  	0.362667 
644.224544  	0.360067 
646.153360  	0.357079 
648.082176  	0.353242 
650.010992  	0.350036 
651.939808  	0.346228 
653.868624  	0.342105 
655.797440  	0.337968 
657.726256  	0.334446 
659.655072  	0.330628 
661.583888  	0.326251 
663.512704  	0.321763 
665.441520  	0.319046 
667.370336  	0.313331 
669.299152  	0.306411 
671.227968  	0.304792 
673.156784  	0.302015 
675.085600  	0.299248 
677.014416  	0.296780 
678.943232  	0.294502 
680.872048  	0.292961 
682.800864  	0.291384 
684.729680  	0.289726 
686.658496  	0.287823 
688.587312  	0.286616 
690.516128  	0.285397 
692.444944  	0.284210 
694.373760  	0.282850 
696.302576  	0.280623 
698.231392  	0.278126 
700.160208  	0.275933 
702.089024  	0.273883 
704.017840  	0.271522 
705.946656  	0.268702 
707.875472  	0.266337 
709.804288  	0.264175 
711.733104  	0.262224 
713.661920  	0.260319 
715.590736  	0.259008 
717.519552  	0.258114 
719.448368  	0.258167 
721.377184  	0.258260 
723.306000  	0.258844 
725.234816  	0.259111 
727.163632  	0.258693 
729.092448  	0.256602 
731.021264  	0.253403 
732.950080  	0.250452 
734.878896  	0.247250 
736.807712  	0.243827 
738.736528  	0.241078 
740.665344  	0.239062 
742.594160  	0.237752 
744.522976  	0.236539 
746.451792  	0.234759 
748.380608  	0.232719 
750.309424  	0.231343 
752.238240  	0.230412 
754.167056  	0.229581 
756.095872  	0.228201 
758.024688  	0.227132 
759.953504  	0.226608 
761.882320  	0.227353 
763.811136  	0.227798 
765.739952  	0.226919 
767.668768  	0.224605 
769.597584  	0.222125 
771.526400  	0.220865 
773.455216  	0.221882 
775.384032  	0.225102 
777.312848  	0.229997 
779.241664  	0.233928 
781.170480  	0.233917 
783.099296  	0.230453 
785.028112  	0.225029 
786.956928  	0.218983 
788.885744  	0.213988 
790.814560  	0.210403 
792.743376  	0.207807 
794.672192  	0.206491 
796.601008  	0.205561 
798.529824  	0.202963 
800.458640  	0.198488 
802.387456  	0.194583 
804.316272  	0.192595 
806.245088  	0.191483 
808.173904  	0.190958 
810.102720  	0.190357 
812.031536  	0.190108 
813.960352  	0.190301 
815.889168  	0.190538 
817.817984  	0.190606 
819.746800  	0.190818 
821.675616  	0.190816 
823.604432  	0.190546 
825.533248  	0.190093 
827.462064  	0.189435 
829.390880  	0.188457 
831.319696  	0.186977 
833.248512  	0.185202 
835.177328  	0.182861 
837.106144  	0.180137 
839.034960  	0.177115 
840.963776  	0.173268 
842.892592  	0.169594 
844.821408  	0.166169 
846.750224  	0.162834 
848.679040  	0.159997 
850.607856  	0.158044 
852.536672  	0.156461 
854.465488  	0.154820 
856.394304  	0.153397 
858.323120  	0.151772 
860.251936  	0.149685 
862.180752  	0.147370 
864.109568  	0.144935 
866.038384  	0.142380 
867.967200  	0.140220 
869.896016  	0.138410 
871.824832  	0.137425 
873.753648  	0.137141 
875.682464  	0.137869 
877.611280  	0.138425 
879.540096  	0.139023 
881.468912  	0.140968 
883.397728  	0.142501 
885.326544  	0.143360 
887.255360  	0.143648 
889.184176  	0.142510 
891.112992  	0.140226 
893.041808  	0.138441 
894.970624  	0.136016 
896.899440  	0.132481 
898.828256  	0.128377 
900.757072  	0.124429 
902.685888  	0.121446 
904.614704  	0.119723 
906.543520  	0.119838 
908.472336  	0.121268 
910.401152  	0.123798 
912.329968  	0.126533 
914.258784  	0.129438 
916.187600  	0.132302 
918.116416  	0.134859 
920.045232  	0.136553 
921.974048  	0.137424 
923.902864  	0.137773 
925.831680  	0.137566 
927.760496  	0.137504 
929.689312  	0.137831 
931.618128  	0.138598 
933.546944  	0.139198 
935.475760  	0.139448 
937.404576  	0.139316 
939.333392  	0.138834 
941.262208  	0.138731 
943.191024  	0.140298 
945.119840  	0.144088 
947.048656  	0.149992 
948.977472  	0.157783 
950.906288  	0.167297 
952.835104  	0.177998 
954.763920  	0.189236 
956.692736  	0.199859 
958.621552  	0.208955 
960.550368  	0.215296 
962.479184  	0.218361 
964.408000  	0.217382 
966.336816  	0.212513 
968.265632  	0.204157 
970.194448  	0.192967 
972.123264  	0.179781 
974.052080  	0.165989 
975.980896  	0.152571 
977.909712  	0.140086 
979.838528  	0.128906 
981.767344  	0.119684 
983.696160  	0.112591 
985.624976  	0.108060 
987.553792  	0.106265 
989.482608  	0.107224 
991.411424  	0.110529 
993.340240  	0.115353 
995.269056  	0.121345 
997.197872  	0.128008 
999.126688  	0.134862 
1001.055504  	0.141536 
1002.984320  	0.148326 
1004.913136  	0.155149 
1006.841952  	0.161816 
1008.770768  	0.167455 
1010.699584  	0.171523 
1012.628400  	0.173995 
1014.557216  	0.174924 
1016.486032  	0.175177 
1018.414848  	0.175092 
1020.343664  	0.174871 
1022.272480  	0.174085 
1024.201296  	0.173037 
1026.130112  	0.169973 
1028.058928  	0.168762 
1029.987744  	0.171828 
1031.916560  	0.174090 
1033.845376  	0.175610 
1035.774192  	0.177165 
1037.703008  	0.180175 
1039.631824  	0.186653 
1041.560640  	0.195695 
1043.489456  	0.207636 
1045.418272  	0.222669 
1047.347088  	0.239607 
1049.275904  	0.255282 
1051.204720  	0.267525 
1053.133536  	0.275260 
1055.062352  	0.278970 
1056.991168  	0.279070 
1058.919984  	0.280243 
1060.848800  	0.281390 
1062.777616  	0.279137 
1064.706432  	0.272989 
1066.635248  	0.267942 
1068.564064  	0.266062 
1070.492880  	0.260847 
1072.421696  	0.252646 
1074.350512  	0.246901 
1076.279328  	0.245060 
1078.208144  	0.247349 
1080.136960  	0.252422 
1082.065776  	0.258293 
1083.994592  	0.262490 
1085.923408  	0.263748 
1087.852224  	0.261364 
1089.781040  	0.256849 
1091.709856  	0.250762 
1093.638672  	0.242323 
1095.567488  	0.230841 
1097.496304  	0.218189 
1099.425120  	0.205105 
1101.353936  	0.191727 
1103.282752  	0.178435 
1105.211568  	0.165881 
1107.140384  	0.153700 
1109.069200  	0.142205 
1110.998016  	0.131661 
1112.926832  	0.122034 
1114.855648  	0.113304 
1116.784464  	0.105330 
1118.713280  	0.097715 
1120.642096  	0.090539 
1122.570912  	0.083906 
1124.499728  	0.077679 
1126.428544  	0.072088 
1128.357360  	0.067146 
1130.286176  	0.063246 
1132.214992  	0.059819 
1134.143808  	0.056974 
1136.072624  	0.054498 
1138.001440  	0.052567 
1139.930256  	0.050184 
1141.859072  	0.047735 
1143.787888  	0.045408 
1145.716704  	0.043292 
1147.645520  	0.041056 
1149.574336  	0.039255 
1151.503152  	0.037744 
1153.431968  	0.037181 
1155.360784  	0.037390 
1157.289600  	0.038306 
1159.218416  	0.039703 
1161.147232  	0.041617 
1163.076048  	0.043802 
1165.004864  	0.046109 
1166.933680  	0.048211 
1168.862496  	0.050668 
1170.791312  	0.053177 
1172.720128  	0.056176 
1174.648944  	0.058903 
1176.577760  	0.061661 
1178.506576  	0.064296 
1180.435392  	0.066997 
1182.364208  	0.069597 
1184.293024  	0.072684 
1186.221840  	0.076018 
1188.150656  	0.079914 
1190.079472  	0.084226 
1192.008288  	0.089601 
1193.937104  	0.096237 
1195.865920  	0.103926 
1197.794736  	0.112344 
1199.723552  	0.121624 
1201.652368  	0.131204 
1203.581184  	0.140955 
1205.510000  	0.150389 
1207.438816  	0.159253 
1209.367632  	0.167860 
1211.296448  	0.175568 
1213.225264  	0.181855 
1215.154080  	0.186823 
1217.082896  	0.190441 
1219.011712  	0.192806 
1220.940528  	0.194764 
1222.869344  	0.195944 
1224.798160  	0.196266 
1226.726976  	0.196059 
1228.655792  	0.195284 
1230.584608  	0.193472 
1232.513424  	0.191240 
1234.442240  	0.188418 
1236.371056  	0.184893 
1238.299872  	0.180041 
1240.228688  	0.172936 
1242.157504  	0.165537 
1244.086320  	0.159114 
1246.015136  	0.151478 
1247.943952  	0.142974 
1249.872768  	0.134389 
1251.801584  	0.126939 
1253.730400  	0.119556 
1255.659216  	0.112213 
1257.588032  	0.105337 
1259.516848  	0.098764 
1261.445664  	0.092635 
1263.374480  	0.087090 
1265.303296  	0.082456 
1267.232112  	0.078687 
1269.160928  	0.075659 
1271.089744  	0.073362 
1273.018560  	0.072174 
1274.947376  	0.071870 
1276.876192  	0.071926 
1278.805008  	0.071692 
1280.733824  	0.070628 
1282.662640  	0.068523 
1284.591456  	0.066057 
1286.520272  	0.063928 
1288.449088  	0.062465 
1290.377904  	0.061724 
1292.306720  	0.061964 
1294.235536  	0.062097 
1296.164352  	0.061157 
1298.093168  	0.058876 
1300.021984  	0.055983 
1301.950800  	0.052777 
1303.879616  	0.049703 
1305.808432  	0.046338 
1307.737248  	0.043079 
1309.666064  	0.040003 
1311.594880  	0.037779 
1313.523696  	0.035881 
1315.452512  	0.034579 
1317.381328  	0.033791 
1319.310144  	0.033533 
1321.238960  	0.033731 
1323.167776  	0.034542 
1325.096592  	0.035446 
1327.025408  	0.036136 
1328.954224  	0.036209 
1330.883040  	0.035782 
1332.811856  	0.034844 
1334.740672  	0.034326 
1336.669488  	0.034206 
1338.598304  	0.034143 
1340.527120  	0.032675 
1342.455936  	0.031356 
1344.384752  	0.031072 
1346.313568  	0.031330 
1348.242384  	0.031958 
1350.171200  	0.033231 
1352.100016  	0.034813 
1354.028832  	0.036788 
1355.957648  	0.038650 
1357.886464  	0.040740 
1359.815280  	0.043185 
1361.744096  	0.045554 
1363.672912  	0.046652 
1365.601728  	0.047996 
1367.530544  	0.049460 
1369.459360  	0.049854 
1371.388176  	0.049867 
1373.316992  	0.048722 
1375.245808  	0.045312 
1377.174624  	0.042758 
1379.103440  	0.039768 
1381.032256  	0.036766 
1382.961072  	0.034544 
1384.889888  	0.033956 
1386.818704  	0.033086 
1388.747520  	0.030963 
1390.676336  	0.028870 
1392.605152  	0.026124 
1394.533968  	0.024199 
1396.462784  	0.026597 
1398.391600  	0.027761 
1400.320416  	0.026935 
1402.249232  	0.027501 
1404.178048  	0.028138 
1406.106864  	0.028513 
1408.035680  	0.030377 
1409.964496  	0.032857 
1411.893312  	0.035665 
1413.822128  	0.038757 
1415.750944  	0.042565 
1417.679760  	0.045073 
1419.608576  	0.044151 
1421.537392  	0.044662 
1423.466208  	0.045016 
1425.395024  	0.043105 
1427.323840  	0.042066 
1429.252656  	0.039611 
1431.181472  	0.037631 
1433.110288  	0.037697 
1435.039104  	0.038759 
1436.967920  	0.037477 
1438.896736  	0.038041 
1440.825552  	0.039447 
1442.754368  	0.040108 
1444.683184  	0.040407 
1446.612000  	0.040442 
1448.540816  	0.039072 
1450.469632  	0.039563 
1452.398448  	0.040685 
1454.327264  	0.042390 
1456.256080  	0.042114 
1458.184896  	0.038301 
1460.113712  	0.039458 
1462.042528  	0.041498 
1463.971344  	0.041424 
1465.900160  	0.041293 
1467.828976  	0.044117 
1469.757792  	0.048011 
1471.686608  	0.051285 
1473.615424  	0.056129 
1475.544240  	0.062489 
1477.473056  	0.067990 
1479.401872  	0.072355 
1481.330688  	0.075756 
1483.259504  	0.078054 
1485.188320  	0.080071 
1487.117136  	0.080220 
1489.045952  	0.079342 
1490.974768  	0.075552 
1492.903584  	0.073793 
1494.832400  	0.071179 
1496.761216  	0.064074 
1498.690032  	0.057377 
1500.618848  	0.053300 
1502.547664  	0.050235 
1504.476480  	0.047419 
1506.405296  	0.040535 
1508.334112  	0.035667 
1510.262928  	0.036170 
1512.191744  	0.034750 
1514.120560  	0.034218 
1516.049376  	0.033660 
1517.978192  	0.032651 
1519.907008  	0.034908 
1521.835824  	0.034799 
1523.764640  	0.038759 
1525.693456  	0.043041 
1527.622272  	0.045002 
1529.551088  	0.046046 
1531.479904  	0.046400 
1533.408720  	0.042113 
1535.337536  	0.038675 
1537.266352  	0.038252 
1539.195168  	0.031625 
1541.123984  	0.023236 
1543.052800  	0.024832 
1544.981616  	0.024795 
1546.910432  	0.024518 
1548.839248  	0.025263 
1550.768064  	0.025115 
1552.696880  	0.025541 
1554.625696  	0.026132 
1556.554512  	0.027256 
1558.483328  	0.025193 
1560.412144  	0.026589 
1562.340960  	0.034598 
1564.269776  	0.039098 
1566.198592  	0.044407 
1568.127408  	0.048952 
1570.056224  	0.053352 
1571.985040  	0.060349 
1573.913856  	0.065977 
1575.842672  	0.066775 
1577.771488  	0.068731 
1579.700304  	0.071205 
1581.629120  	0.071201 
1583.557936  	0.070493 
1585.486752  	0.071204 
1587.415568  	0.073586 
1589.344384  	0.078013 
1591.273200  	0.083971 
1593.202016  	0.091332 
1595.130832  	0.098941 
1597.059648  	0.106983 
1598.988464  	0.114011 
1600.917280  	0.120202 
1602.846096  	0.124164 
1604.774912  	0.126802 
1606.703728  	0.127189 
1608.632544  	0.126238 
1610.561360  	0.124130 
1612.490176  	0.122859 
1614.418992  	0.121515 
1616.347808  	0.118199 
1618.276624  	0.117956 
1620.205440  	0.123126 
1622.134256  	0.126428 
1624.063072  	0.131346 
1625.991888  	0.138565 
1627.920704  	0.146695 
1629.849520  	0.156617 
1631.778336  	0.167179 
1633.707152  	0.175020 
1635.635968  	0.181967 
1637.564784  	0.191534 
1639.493600  	0.200511 
1641.422416  	0.206394 
1643.351232  	0.211494 
1645.280048  	0.212649 
1647.208864  	0.210988 
1649.137680  	0.212698 
1651.066496  	0.215483 
1652.995312  	0.207348 
1654.924128  	0.203820 
1656.852944  	0.205656 
1658.781760  	0.204388 
1660.710576  	0.201093 
1662.639392  	0.195047 
1664.568208  	0.190489 
1666.497024  	0.189082 
1668.425840  	0.183570 
1670.354656  	0.175215 
1672.283472  	0.172199 
1674.212288  	0.169653 
1676.141104  	0.163793 
1678.069920  	0.163478 
1679.998736  	0.162900 
1681.927552  	0.162253 
1683.856368  	0.156419 
1685.785184  	0.154074 
1687.714000  	0.157123 
1689.642816  	0.156638 
1691.571632  	0.155209 
1693.500448  	0.155039 
1695.429264  	0.150742 
1697.358080  	0.147251 
1699.286896  	0.145305 
1701.215712  	0.137894 
1703.144528  	0.138514 
1705.073344  	0.134555 
1707.002160  	0.128086 
1708.930976  	0.124123 
1710.859792  	0.118239 
1712.788608  	0.111668 
1714.717424  	0.103201 
1716.646240  	0.091669 
1718.575056  	0.076581 
1720.503872  	0.069043 
1722.432688  	0.062766 
1724.361504  	0.053260 
1726.290320  	0.045616 
1728.219136  	0.039438 
1730.147952  	0.033758 
1732.076768  	0.029397 
1734.005584  	0.021749 
1735.934400  	0.016129 
1737.863216  	0.016981 
1739.792032  	0.013280 
1741.720848  	0.011912 
1743.649664  	0.011286 
1745.578480  	0.010651 
1747.507296  	0.009223 
1749.436112  	0.008231 
1751.364928  	0.006393 
1753.293744  	0.005961 
1755.222560  	0.006312 
1757.151376  	0.005350 
1759.080192  	0.004993 
1761.009008  	0.004553 
1762.937824  	0.002539 
1764.866640  	0.003197 
1766.795456  	0.003750 
1768.724272  	0.003337 
1770.653088  	0.002023 
1772.581904  	-0.001016 
1774.510720  	-0.000500 
1776.439536  	0.001112 
1778.368352  	0.001533 
1780.297168  	0.001086 
1782.225984  	0.000421 
1784.154800  	0.000956 
1786.083616  	0.000281 
1788.012432  	0.000902 
1789.941248  	0.001527 
1791.870064  	-0.000023 
1793.798880  	-0.001792 
1795.727696  	-0.000139 
1797.656512  	-0.000189 
1799.585328  	-0.000380 
1801.514144  	-0.000685 
1803.442960  	-0.000452 
1805.371776  	-0.000664 
1807.300592  	-0.000347 
1809.229408  	-0.000901 
1811.158224  	-0.001354 
1813.087040  	-0.001732 
1815.015856  	-0.001189 
1816.944672  	-0.001209 
1818.873488  	-0.001204 
1820.802304  	-0.001318 
1822.731120  	-0.000544 
1824.659936  	-0.001418 
1826.588752  	-0.001944 
1828.517568  	-0.001929 
1830.446384  	-0.002841 
1832.375200  	-0.002408 
1834.304016  	-0.001492 
1836.232832  	-0.001623 
1838.161648  	-0.001631 
1840.090464  	-0.001787 
1842.019280  	-0.000711 
1843.948096  	-0.002156 
1845.876912  	-0.002679 
1847.805728  	-0.001923 
1849.734544  	-0.001905 
1851.663360  	-0.002079 
1853.592176  	-0.002121 
1855.520992  	-0.002280 
1857.449808  	-0.002034 
1859.378624  	-0.002284 
1861.307440  	-0.002205 
1863.236256  	-0.002124 
1865.165072  	-0.001500 
1867.093888  	-0.001752 
1869.022704  	-0.002558 
1870.951520  	-0.002972 
1872.880336  	-0.002281 
1874.809152  	-0.002498 
1876.737968  	-0.002364 
1878.666784  	-0.002474 
1880.595600  	-0.002185 
1882.524416  	-0.002447 
1884.453232  	-0.002353 
1886.382048  	-0.002468 
1888.310864  	-0.002090 
1890.239680  	-0.002778 
1892.168496  	-0.002433 
1894.097312  	-0.002465 
1896.026128  	-0.002624 
1897.954944  	-0.002944 
1899.883760  	-0.002525 
1901.812576  	-0.002887 
1903.741392  	-0.002835 
1905.670208  	-0.002730 
1907.599024  	-0.002290 
1909.527840  	-0.002670 
1911.456656  	-0.002355 
1913.385472  	-0.002429 
1915.314288  	-0.001745 
1917.243104  	-0.002151 
1919.171920  	-0.002725 
1921.100736  	-0.002299 
1923.029552  	-0.001705 
1924.958368  	-0.002406 
1926.887184  	-0.002423 
1928.816000  	-0.002881 
1930.744816  	-0.002734 
1932.673632  	-0.002843 
1934.602448  	-0.002471 
1936.531264  	-0.002348 
1938.460080  	-0.001940 
1940.388896  	-0.002504 
1942.317712  	-0.002657 
1944.246528  	-0.002913 
1946.175344  	-0.002111 
1948.104160  	-0.002333 
1950.032976  	-0.002216 
1951.961792  	-0.002509 
1953.890608  	-0.002296 
1955.819424  	-0.002957 
1957.748240  	-0.002195 
1959.677056  	-0.002671 
1961.605872  	-0.002184 
1963.534688  	-0.002198 
1965.463504  	-0.001135 
1967.392320  	-0.001852 
1969.321136  	-0.001802 
1971.249952  	-0.002004 
1973.178768  	-0.000560 
1975.107584  	-0.001740 
1977.036400  	-0.001427 
1978.965216  	-0.000384 
1980.894032  	-0.000229 
1982.822848  	-0.001192 
1984.751664  	-0.001016 
1986.680480  	-0.002113 
1988.609296  	-0.001848 
1990.538112  	-0.002293 
1992.466928  	-0.001593 
1994.395744  	-0.002540 
1996.324560  	-0.002751 
1998.253376  	-0.003145 
2000.182192  	-0.003111 
2002.111008  	-0.003378 
2004.039824  	-0.002463 
2005.968640  	-0.002789 
2007.897456  	-0.002299 
2009.826272  	-0.002751 
2011.755088  	-0.001894 
2013.683904  	-0.001930 
2015.612720  	-0.001503 
2017.541536  	-0.001963 
2019.470352  	-0.001940 
2021.399168  	-0.003779 
2023.327984  	-0.003776 
2025.256800  	-0.002517 
2027.185616  	-0.000753 
2029.114432  	-0.001070 
2031.043248  	-0.001070 
2032.972064  	-0.001812 
2034.900880  	-0.002061 
2036.829696  	-0.002540 
2038.758512  	-0.000988 
2040.687328  	-0.001315 
2042.616144  	-0.001272 
2044.544960  	-0.001655 
2046.473776  	-0.000927 
2048.402592  	-0.001065 
2050.331408  	-0.001364 
2052.260224  	-0.002748 
2054.189040  	-0.002644 
2056.117856  	-0.002582 
2058.046672  	-0.002296 
2059.975488  	-0.002775 
2061.904304  	-0.002920 
2063.833120  	-0.003049 
2065.761936  	-0.002819 
2067.690752  	-0.003168 
2069.619568  	-0.002577 
2071.548384  	-0.002682 
2073.477200  	-0.002915 
2075.406016  	-0.002866 
2077.334832  	-0.002130 
2079.263648  	-0.002308 
2081.192464  	-0.002189 
2083.121280  	-0.002171 
2085.050096  	-0.001822 
2086.978912  	-0.001922 
2088.907728  	-0.001940 
2090.836544  	-0.002454 
2092.765360  	-0.002205 
2094.694176  	-0.002238 
2096.622992  	-0.002358 
2098.551808  	-0.002666 
2100.480624  	-0.002040 
2102.409440  	-0.002049 
2104.338256  	-0.002343 
2106.267072  	-0.001914 
2108.195888  	-0.001389 
2110.124704  	-0.001661 
2112.053520  	-0.001673 
2113.982336  	-0.001788 
2115.911152  	-0.001885 
2117.839968  	-0.001958 
2119.768784  	-0.001894 
2121.697600  	-0.002316 
2123.626416  	-0.002309 
2125.555232  	-0.002512 
2127.484048  	-0.002136 
2129.412864  	-0.002292 
2131.341680  	-0.002613 
2133.270496  	-0.003148 
2135.199312  	-0.002519 
2137.128128  	-0.001859 
2139.056944  	-0.001074 
2140.985760  	-0.001885 
2142.914576  	-0.001975 
2144.843392  	-0.001813 
2146.772208  	-0.001289 
2148.701024  	-0.001994 
2150.629840  	-0.001567 
2152.558656  	-0.001582 
2154.487472  	-0.001512 
2156.416288  	-0.002236 
2158.345104  	-0.001119 
2160.273920  	0.001248 
2162.202736  	0.001985 
2164.131552  	0.000064 
2166.060368  	-0.000405 
2167.989184  	0.000217 
2169.918000  	0.001199 
2171.846816  	0.000262 
2173.775632  	0.000123 
2175.704448  	0.000218 
2177.633264  	0.000223 
2179.562080  	-0.000772 
2181.490896  	-0.000607 
2183.419712  	-0.001888 
2185.348528  	-0.002418 
2187.277344  	-0.002148 
2189.206160  	-0.001347 
2191.134976  	-0.001329 
2193.063792  	-0.001275 
2194.992608  	-0.001069 
2196.921424  	-0.000865 
2198.850240  	-0.001419 
2200.779056  	-0.001634 
2202.707872  	-0.001873 
2204.636688  	-0.001510 
2206.565504  	-0.001531 
2208.494320  	-0.001684 
2210.423136  	-0.002246 
2212.351952  	-0.002534 
2214.280768  	-0.002504 
2216.209584  	-0.001957 
2218.138400  	-0.002853 
2220.067216  	-0.002768 
2221.996032  	-0.002651 
2223.924848  	-0.002058 
2225.853664  	-0.001465 
2227.782480  	-0.001402 
2229.711296  	-0.002397 
2231.640112  	-0.003026 
2233.568928  	-0.003183 
2235.497744  	-0.002536 
2237.426560  	-0.002436 
2239.355376  	-0.002431 
2241.284192  	-0.002476 
2243.213008  	-0.002284 
2245.141824  	-0.002475 
2247.070640  	-0.002566 
2248.999456  	-0.002972 
2250.928272  	-0.003119 
2252.857088  	-0.003283 
2254.785904  	-0.003304 
2256.714720  	-0.003817 
2258.643536  	-0.003867 
2260.572352  	-0.003958 
2262.501168  	-0.003782 
2264.429984  	-0.003786 
2266.358800  	-0.003669 
2268.287616  	-0.003713 
2270.216432  	-0.003297 
2272.145248  	-0.003099 
2274.074064  	-0.003472 
2276.002880  	-0.003563 
2277.931696  	-0.003255 
2279.860512  	-0.003414 
2281.789328  	-0.003161 
2283.718144  	-0.003037 
2285.646960  	-0.002989 
2287.575776  	-0.002995 
2289.504592  	-0.003012 
2291.433408  	-0.003035 
2293.362224  	-0.002741 
2295.291040  	-0.002365 
2297.219856  	-0.001978 
2299.148672  	-0.002171 
2301.077488  	-0.002191 
2303.006304  	-0.002073 
2304.935120  	-0.001658 
2306.863936  	-0.001429 
2308.792752  	-0.001365 
2310.721568  	-0.001618 
2312.650384  	-0.001944 
2314.579200  	-0.002385 
2316.508016  	-0.002784 
2318.436832  	-0.003266 
2320.365648  	-0.004135 
2322.294464  	-0.005322 
2324.223280  	-0.006382 
2326.152096  	-0.007591 
2328.080912  	-0.008771 
2330.009728  	-0.010158 
2331.938544  	-0.011449 
2333.867360  	-0.012385 
2335.796176  	-0.013158 
2337.724992  	-0.013895 
2339.653808  	-0.014137 
2341.582624  	-0.014645 
2343.511440  	-0.014038 
2345.440256  	-0.012823 
2347.369072  	-0.009355 
2349.297888  	-0.006196 
2351.226704  	-0.007178 
2353.155520  	-0.011217 
2355.084336  	-0.014356 
2357.013152  	-0.016577 
2358.941968  	-0.018014 
2360.870784  	-0.018900 
2362.799600  	-0.018234 
2364.728416  	-0.017972 
2366.657232  	-0.016467 
2368.586048  	-0.014183 
2370.514864  	-0.012008 
2372.443680  	-0.009952 
2374.372496  	-0.007712 
2376.301312  	-0.005902 
2378.230128  	-0.004544 
2380.158944  	-0.003710 
2382.087760  	-0.003352 
2384.016576  	-0.003383 
2385.945392  	-0.003597 
2387.874208  	-0.003840 
2389.803024  	-0.003924 
2391.731840  	-0.004161 
2393.660656  	-0.004317 
2395.589472  	-0.004383 
2397.518288  	-0.003968 
2399.447104  	-0.003953 
2401.375920  	-0.004188 
2403.304736  	-0.004439 
2405.233552  	-0.004299 
2407.162368  	-0.004461 
2409.091184  	-0.004445 
2411.020000  	-0.004231 
2412.948816  	-0.004249 
2414.877632  	-0.004303 
2416.806448  	-0.004172 
2418.735264  	-0.004181 
2420.664080  	-0.004175 
2422.592896  	-0.004179 
2424.521712  	-0.004194 
2426.450528  	-0.004486 
2428.379344  	-0.004365 
2430.308160  	-0.004159 
2432.236976  	-0.003927 
2434.165792  	-0.003959 
2436.094608  	-0.003962 
2438.023424  	-0.003762 
2439.952240  	-0.003518 
2441.881056  	-0.003693 
2443.809872  	-0.003834 
2445.738688  	-0.003811 
2447.667504  	-0.003537 
2449.596320  	-0.003477 
2451.525136  	-0.003474 
2453.453952  	-0.003535 
2455.382768  	-0.003656 
2457.311584  	-0.003874 
2459.240400  	-0.003752 
2461.169216  	-0.003659 
2463.098032  	-0.003684 
2465.026848  	-0.003742 
2466.955664  	-0.003690 
2468.884480  	-0.003850 
2470.813296  	-0.003883 
2472.742112  	-0.003839 
2474.670928  	-0.003518 
2476.599744  	-0.003391 
2478.528560  	-0.003558 
2480.457376  	-0.003805 
2482.386192  	-0.003781 
2484.315008  	-0.003595 
2486.243824  	-0.003592 
2488.172640  	-0.003684 
2490.101456  	-0.003430 
2492.030272  	-0.003262 
2493.959088  	-0.003174 
2495.887904  	-0.003024 
2497.816720  	-0.002979 
2499.745536  	-0.003179 
2501.674352  	-0.003109 
2503.603168  	-0.002803 
2505.531984  	-0.002794 
2507.460800  	-0.002993 
2509.389616  	-0.002807 
2511.318432  	-0.002766 
2513.247248  	-0.002873 
2515.176064  	-0.002791 
2517.104880  	-0.002589 
2519.033696  	-0.002748 
2520.962512  	-0.002703 
2522.891328  	-0.002609 
2524.820144  	-0.002579 
2526.748960  	-0.002556 
2528.677776  	-0.002382 
2530.606592  	-0.002438 
2532.535408  	-0.002399 
2534.464224  	-0.002443 
2536.393040  	-0.002476 
2538.321856  	-0.002479 
2540.250672  	-0.002239 
2542.179488  	-0.002084 
2544.108304  	-0.002160 
2546.037120  	-0.002158 
2547.965936  	-0.002068 
2549.894752  	-0.002101 
2551.823568  	-0.002094 
2553.752384  	-0.001814 
2555.681200  	-0.001377 
2557.610016  	-0.001370 
2559.538832  	-0.001386 
2561.467648  	-0.001281 
2563.396464  	-0.001118 
2565.325280  	-0.001048 
2567.254096  	-0.001081 
2569.182912  	-0.001071 
2571.111728  	-0.000854 
2573.040544  	-0.000814 
2574.969360  	-0.000825 
2576.898176  	-0.000616 
2578.826992  	-0.000593 
2580.755808  	-0.000784 
2582.684624  	-0.000600 
2584.613440  	-0.000456 
2586.542256  	-0.000480 
2588.471072  	-0.000356 
2590.399888  	-0.000210 
2592.328704  	-0.000335 
2594.257520  	-0.000338 
2596.186336  	-0.000158 
2598.115152  	-0.000017 
2600.043968  	-0.000027 
2601.972784  	0.000120 
2603.901600  	0.000197 
2605.830416  	0.000207 
2607.759232  	0.000225 
2609.688048  	0.000274 
2611.616864  	0.000404 
2613.545680  	0.000609 
2615.474496  	0.000716 
2617.403312  	0.000881 
2619.332128  	0.001063 
2621.260944  	0.001146 
2623.189760  	0.001127 
2625.118576  	0.001256 
2627.047392  	0.001403 
2628.976208  	0.001361 
2630.905024  	0.001337 
2632.833840  	0.001471 
2634.762656  	0.001704 
2636.691472  	0.001775 
2638.620288  	0.001818 
2640.549104  	0.001978 
2642.477920  	0.002069 
2644.406736  	0.002232 
2646.335552  	0.002377 
2648.264368  	0.002492 
2650.193184  	0.002559 
2652.122000  	0.002816 
2654.050816  	0.003008 
2655.979632  	0.003113 
2657.908448  	0.003215 
2659.837264  	0.003385 
2661.766080  	0.003466 
2663.694896  	0.003544 
2665.623712  	0.003613 
2667.552528  	0.003773 
2669.481344  	0.003966 
2671.410160  	0.004087 
2673.338976  	0.004078 
2675.267792  	0.004277 
2677.196608  	0.004480 
2679.125424  	0.004611 
2681.054240  	0.004740 
2682.983056  	0.004779 
2684.911872  	0.004804 
2686.840688  	0.005011 
2688.769504  	0.005125 
2690.698320  	0.005109 
2692.627136  	0.005204 
2694.555952  	0.005379 
2696.484768  	0.005513 
2698.413584  	0.005666 
2700.342400  	0.005772 
2702.271216  	0.005874 
2704.200032  	0.005985 
2706.128848  	0.006011 
2708.057664  	0.005964 
2709.986480  	0.006110 
2711.915296  	0.006329 
2713.844112  	0.006567 
2715.772928  	0.006620 
2717.701744  	0.006745 
2719.630560  	0.007034 
2721.559376  	0.007171 
2723.488192  	0.007280 
2725.417008  	0.007445 
2727.345824  	0.007591 
2729.274640  	0.007680 
2731.203456  	0.007743 
2733.132272  	0.007887 
2735.061088  	0.008011 
2736.989904  	0.008228 
2738.918720  	0.008336 
2740.847536  	0.008364 
2742.776352  	0.008353 
2744.705168  	0.008427 
2746.633984  	0.008515 
2748.562800  	0.008645 
2750.491616  	0.008774 
2752.420432  	0.008892 
2754.349248  	0.008847 
2756.278064  	0.008786 
2758.206880  	0.008684 
2760.135696  	0.008672 
2762.064512  	0.008752 
2763.993328  	0.008878 
2765.922144  	0.008931 
2767.850960  	0.008964 
2769.779776  	0.008953 
2771.708592  	0.008940 
2773.637408  	0.008812 
2775.566224  	0.008775 
2777.495040  	0.008777 
2779.423856  	0.008907 
2781.352672  	0.008959 
2783.281488  	0.008857 
2785.210304  	0.008800 
2787.139120  	0.008787 
2789.067936  	0.008831 
2790.996752  	0.008900 
2792.925568  	0.008780 
2794.854384  	0.008730 
2796.783200  	0.008685 
2798.712016  	0.008601 
2800.640832  	0.008588 
2802.569648  	0.008702 
2804.498464  	0.008830 
2806.427280  	0.008833 
2808.356096  	0.008708 
2810.284912  	0.008695 
2812.213728  	0.008691 
2814.142544  	0.008669 
2816.071360  	0.008674 
2818.000176  	0.008517 
2819.928992  	0.008389 
2821.857808  	0.008368 
2823.786624  	0.008322 
2825.715440  	0.008198 
2827.644256  	0.008051 
2829.573072  	0.008005 
2831.501888  	0.007738 
2833.430704  	0.007387 
2835.359520  	0.007055 
2837.288336  	0.006776 
2839.217152  	0.006449 
2841.145968  	0.006015 
2843.074784  	0.005630 
2845.003600  	0.005263 
2846.932416  	0.004940 
2848.861232  	0.004589 
2850.790048  	0.004101 
2852.718864  	0.003556 
2854.647680  	0.003058 
2856.576496  	0.002555 
2858.505312  	0.002014 
2860.434128  	0.001522 
2862.362944  	0.000849 
2864.291760  	0.000112 
2866.220576  	-0.000397 
2868.149392  	-0.000605 
2870.078208  	-0.000785 
2872.007024  	-0.000833 
2873.935840  	-0.000640 
2875.864656  	-0.000551 
2877.793472  	-0.000702 
2879.722288  	-0.000844 
2881.651104  	-0.001189 
2883.579920  	-0.001302 
2885.508736  	-0.001010 
2887.437552  	-0.000739 
2889.366368  	-0.000709 
2891.295184  	-0.000905 
2893.224000  	-0.001061 
2895.152816  	-0.001100 
2897.081632  	-0.001493 
2899.010448  	-0.003098 
2900.939264  	-0.004511 
2902.868080  	-0.003315 
2904.796896  	-0.002043 
2906.725712  	-0.001432 
2908.654528  	-0.000774 
2910.583344  	-0.000349 
2912.512160  	0.000169 
2914.440976  	0.001201 
2916.369792  	0.001962 
2918.298608  	0.002541 
2920.227424  	0.003018 
2922.156240  	0.003585 
2924.085056  	0.004458 
2926.013872  	0.005567 
2927.942688  	0.006518 
2929.871504  	0.007415 
2931.800320  	0.008451 
2933.729136  	0.009308 
2935.657952  	0.009876 
2937.586768  	0.010579 
2939.515584  	0.011306 
2941.444400  	0.011707 
2943.373216  	0.011922 
2945.302032  	0.012278 
2947.230848  	0.012499 
2949.159664  	0.012295 
2951.088480  	0.011746 
2953.017296  	0.011219 
2954.946112  	0.010537 
2956.874928  	0.009795 
2958.803744  	0.009051 
2960.732560  	0.008573 
2962.661376  	0.008094 
2964.590192  	0.007212 
2966.519008  	0.006078 
2968.447824  	0.005083 
2970.376640  	0.004244 
2972.305456  	0.003734 
2974.234272  	0.004013 
2976.163088  	0.004345 
2978.091904  	0.004310 
2980.020720  	0.004239 
2981.949536  	0.004347 
2983.878352  	0.004108 
2985.807168  	0.003206 
2987.735984  	0.002405 
2989.664800  	0.002745 
2991.593616  	0.005644 
2993.522432  	0.007586 
2995.451248  	0.008154 
2997.380064  	0.009006 
2999.308880  	0.010164 
3001.237696  	0.011412 
3003.166512  	0.012800 
3005.095328  	0.014216 
3007.024144  	0.015571 
3008.952960  	0.016943 
3010.881776  	0.018370 
3012.810592  	0.019738 
3014.739408  	0.021001 
3016.668224  	0.022152 
3018.597040  	0.023435 
3020.525856  	0.024641 
3022.454672  	0.025693 
3024.383488  	0.026661 
3026.312304  	0.027600 
3028.241120  	0.028685 
3030.169936  	0.029730 
3032.098752  	0.030538 
3034.027568  	0.031274 
3035.956384  	0.032166 
3037.885200  	0.033121 
3039.814016  	0.033824 
3041.742832  	0.034347 
3043.671648  	0.034852 
3045.600464  	0.035594 
3047.529280  	0.036268 
3049.458096  	0.036973 
3051.386912  	0.037676 
3053.315728  	0.038218 
3055.244544  	0.038782 
3057.173360  	0.039484 
3059.102176  	0.040223 
3061.030992  	0.040883 
3062.959808  	0.041717 
3064.888624  	0.042436 
3066.817440  	0.043117 
3068.746256  	0.043999 
3070.675072  	0.044805 
3072.603888  	0.045576 
3074.532704  	0.046439 
3076.461520  	0.047334 
3078.390336  	0.048251 
3080.319152  	0.048881 
3082.247968  	0.049623 
3084.176784  	0.050455 
3086.105600  	0.051310 
3088.034416  	0.052167 
3089.963232  	0.053115 
3091.892048  	0.053943 
3093.820864  	0.054681 
3095.749680  	0.055418 
3097.678496  	0.056251 
3099.607312  	0.057271 
3101.536128  	0.058313 
3103.464944  	0.059239 
3105.393760  	0.060039 
3107.322576  	0.060956 
3109.251392  	0.061971 
3111.180208  	0.062727 
3113.109024  	0.063418 
3115.037840  	0.064059 
3116.966656  	0.064727 
3118.895472  	0.065392 
3120.824288  	0.066185 
3122.753104  	0.066986 
3124.681920  	0.067637 
3126.610736  	0.068278 
3128.539552  	0.069100 
3130.468368  	0.069842 
3132.397184  	0.070363 
3134.326000  	0.071102 
3136.254816  	0.071824 
3138.183632  	0.072524 
3140.112448  	0.073112 
3142.041264  	0.073746 
3143.970080  	0.074300 
3145.898896  	0.074971 
3147.827712  	0.075709 
3149.756528  	0.076306 
3151.685344  	0.076888 
3153.614160  	0.077664 
3155.542976  	0.078480 
3157.471792  	0.079378 
3159.400608  	0.080041 
3161.329424  	0.080532 
3163.258240  	0.081044 
3165.187056  	0.081648 
3167.115872  	0.082344 
3169.044688  	0.082890 
3170.973504  	0.083325 
3172.902320  	0.083779 
3174.831136  	0.084440 
3176.759952  	0.085083 
3178.688768  	0.085294 
3180.617584  	0.085572 
3182.546400  	0.086150 
3184.475216  	0.086516 
3186.404032  	0.086446 
3188.332848  	0.086709 
3190.261664  	0.086885 
3192.190480  	0.086988 
3194.119296  	0.087030 
3196.048112  	0.087297 
3197.976928  	0.087213 
3199.905744  	0.087126 
3201.834560  	0.087156 
3203.763376  	0.087118 
3205.692192  	0.087007 
3207.621008  	0.086746 
3209.549824  	0.086575 
3211.478640  	0.086663 
3213.407456  	0.086584 
3215.336272  	0.086379 
3217.265088  	0.086357 
3219.193904  	0.085968 
3221.122720  	0.085570 
3223.051536  	0.085583 
3224.980352  	0.085535 
3226.909168  	0.085406 
3228.837984  	0.085117 
3230.766800  	0.084947 
3232.695616  	0.084916 
3234.624432  	0.084964 
3236.553248  	0.085031 
3238.482064  	0.084993 
3240.410880  	0.084910 
3242.339696  	0.085038 
3244.268512  	0.085005 
3246.197328  	0.085126 
3248.126144  	0.085423 
3250.054960  	0.085515 
3251.983776  	0.085841 
3253.912592  	0.086101 
3255.841408  	0.086104 
3257.770224  	0.086351 
3259.699040  	0.086829 
3261.627856  	0.087180 
3263.556672  	0.087361 
3265.485488  	0.087437 
3267.414304  	0.087616 
3269.343120  	0.087875 
3271.271936  	0.088149 
3273.200752  	0.088327 
3275.129568  	0.088391 
3277.058384  	0.088710 
3278.987200  	0.089111 
3280.916016  	0.089354 
3282.844832  	0.089405 
3284.773648  	0.089608 
3286.702464  	0.089930 
3288.631280  	0.090280 
3290.560096  	0.090646 
3292.488912  	0.090970 
3294.417728  	0.091288 
3296.346544  	0.091592 
3298.275360  	0.091666 
3300.204176  	0.092042 
3302.132992  	0.092688 
3304.061808  	0.093081 
3305.990624  	0.093572 
3307.919440  	0.094036 
3309.848256  	0.094486 
3311.777072  	0.094769 
3313.705888  	0.094867 
3315.634704  	0.095285 
3317.563520  	0.095710 
3319.492336  	0.096088 
3321.421152  	0.096252 
3323.349968  	0.096361 
3325.278784  	0.096569 
3327.207600  	0.096690 
3329.136416  	0.096579 
3331.065232  	0.096699 
3332.994048  	0.097107 
3334.922864  	0.097183 
3336.851680  	0.097060 
3338.780496  	0.096898 
3340.709312  	0.096883 
3342.638128  	0.096866 
3344.566944  	0.096497 
3346.495760  	0.096343 
3348.424576  	0.096100 
3350.353392  	0.095724 
3352.282208  	0.095480 
3354.211024  	0.095190 
3356.139840  	0.094901 
3358.068656  	0.094673 
3359.997472  	0.094303 
3361.926288  	0.093826 
3363.855104  	0.093447 
3365.783920  	0.092980 
3367.712736  	0.092555 
3369.641552  	0.092209 
3371.570368  	0.091649 
3373.499184  	0.091059 
3375.428000  	0.090628 
3377.356816  	0.090406 
3379.285632  	0.090239 
3381.214448  	0.089755 
3383.143264  	0.089267 
3385.072080  	0.088760 
3387.000896  	0.088259 
3388.929712  	0.087988 
3390.858528  	0.087662 
3392.787344  	0.087057 
3394.716160  	0.086462 
3396.644976  	0.086181 
3398.573792  	0.085844 
3400.502608  	0.085449 
3402.431424  	0.084846 
3404.360240  	0.084167 
3406.289056  	0.083695 
3408.217872  	0.083438 
3410.146688  	0.082767 
3412.075504  	0.082180 
3414.004320  	0.081728 
3415.933136  	0.081291 
3417.861952  	0.080548 
3419.790768  	0.079885 
3421.719584  	0.079412 
3423.648400  	0.079092 
3425.577216  	0.078473 
3427.506032  	0.077861 
3429.434848  	0.077165 
3431.363664  	0.076478 
3433.292480  	0.075954 
3435.221296  	0.075360 
3437.150112  	0.074799 
3439.078928  	0.074392 
3441.007744  	0.073896 
3442.936560  	0.073256 
3444.865376  	0.072719 
3446.794192  	0.071737 
3448.723008  	0.070674 
3450.651824  	0.070021 
3452.580640  	0.069394 
3454.509456  	0.069041 
3456.438272  	0.068394 
3458.367088  	0.067780 
3460.295904  	0.067076 
3462.224720  	0.066007 
3464.153536  	0.065157 
3466.082352  	0.064404 
3468.011168  	0.063383 
3469.939984  	0.062648 
3471.868800  	0.062107 
3473.797616  	0.061369 
3475.726432  	0.060414 
3477.655248  	0.059777 
3479.584064  	0.059305 
3481.512880  	0.058219 
3483.441696  	0.056867 
3485.370512  	0.056173 
3487.299328  	0.055175 
3489.228144  	0.054213 
3491.156960  	0.053460 
3493.085776  	0.052736 
3495.014592  	0.052000 
3496.943408  	0.051308 
3498.872224  	0.050863 
3500.801040  	0.050468 
3502.729856  	0.049320 
3504.658672  	0.047875 
3506.587488  	0.047660 
3508.516304  	0.047426 
3510.445120  	0.046348 
3512.373936  	0.045530 
3514.302752  	0.045017 
3516.231568  	0.044609 
3518.160384  	0.043860 
3520.089200  	0.043182 
3522.018016  	0.042913 
3523.946832  	0.042226 
3525.875648  	0.041397 
3527.804464  	0.040312 
3529.733280  	0.039344 
3531.662096  	0.038600 
3533.590912  	0.038159 
3535.519728  	0.037760 
3537.448544  	0.036968 
3539.377360  	0.036269 
3541.306176  	0.035906 
3543.234992  	0.035739 
3545.163808  	0.035362 
3547.092624  	0.034120 
3549.021440  	0.033158 
3550.950256  	0.032802 
3552.879072  	0.031542 
3554.807888  	0.030853 
3556.736704  	0.030571 
3558.665520  	0.030376 
3560.594336  	0.029727 
3562.523152  	0.028975 
3564.451968  	0.029222 
3566.380784  	0.028429 
3568.309600  	0.025462 
3570.238416  	0.025086 
3572.167232  	0.025290 
3574.096048  	0.024441 
3576.024864  	0.023422 
3577.953680  	0.022987 
3579.882496  	0.022390 
3581.811312  	0.021909 
3583.740128  	0.021771 
3585.668944  	0.021933 
3587.597760  	0.019404 
3589.526576  	0.017426 
3591.455392  	0.017945 
3593.384208  	0.017634 
3595.313024  	0.015941 
3597.241840  	0.014610 
3599.170656  	0.013583 
3601.099472  	0.012415 
3603.028288  	0.012501 
3604.957104  	0.013070 
3606.885920  	0.012097 
3608.814736  	0.009897 
3610.743552  	0.009791 
3612.672368  	0.008752 
3614.601184  	0.006927 
3616.530000  	0.007333 
3618.458816  	0.005156 
3620.387632  	0.002428 
3622.316448  	0.003117 
3624.245264  	0.003868 
3626.174080  	0.004544 
3628.102896  	0.001809 
3630.031712  	-0.004216 
3631.960528  	-0.001882 
3633.889344  	-0.001825 
3635.818160  	-0.002843 
3637.746976  	-0.003518 
3639.675792  	-0.003820 
3641.604608  	-0.004047 
3643.533424  	-0.004168 
3645.462240  	-0.003943 
3647.391056  	-0.006857 
3649.319872  	-0.012095 
3651.248688  	-0.014865 
3653.177504  	-0.011328 
3655.106320  	-0.010864 
3657.035136  	-0.014609 
3658.963952  	-0.014275 
3660.892768  	-0.013960 
3662.821584  	-0.014245 
3664.750400  	-0.013891 
3666.679216  	-0.013096 
3668.608032  	-0.014738 
3670.536848  	-0.019379 
3672.465664  	-0.016658 
3674.394480  	-0.016312 
3676.323296  	-0.023301 
3678.252112  	-0.019752 
3680.180928  	-0.017745 
3682.109744  	-0.016846 
3684.038560  	-0.016419 
3685.967376  	-0.015467 
3687.896192  	-0.017964 
3689.825008  	-0.022212 
3691.753824  	-0.021658 
3693.682640  	-0.018785 
3695.611456  	-0.017249 
3697.540272  	-0.016554 
3699.469088  	-0.015427 
3701.397904  	-0.016714 
3703.326720  	-0.016981 
3705.255536  	-0.014875 
3707.184352  	-0.013876 
3709.113168  	-0.014847 
3711.041984  	-0.017759 
3712.970800  	-0.018430 
3714.899616  	-0.015400 
3716.828432  	-0.013680 
3718.757248  	-0.013778 
3720.686064  	-0.014176 
3722.614880  	-0.015041 
3724.543696  	-0.014699 
3726.472512  	-0.015247 
3728.401328  	-0.014847 
3730.330144  	-0.013950 
3732.258960  	-0.015253 
3734.187776  	-0.015332 
3736.116592  	-0.017846 
3738.045408  	-0.017441 
3739.974224  	-0.014730 
3741.903040  	-0.012438 
3743.831856  	-0.015257 
3745.760672  	-0.019205 
3747.689488  	-0.014793 
3749.618304  	-0.016829 
3751.547120  	-0.020577 
3753.475936  	-0.019132 
3755.404752  	-0.015477 
3757.333568  	-0.014765 
3759.262384  	-0.016045 
3761.191200  	-0.016364 
3763.120016  	-0.013892 
3765.048832  	-0.014487 
3766.977648  	-0.014519 
3768.906464  	-0.014724 
3770.835280  	-0.016644 
3772.764096  	-0.015255 
3774.692912  	-0.014086 
3776.621728  	-0.013412 
3778.550544  	-0.014584 
3780.479360  	-0.016607 
3782.408176  	-0.014853 
3784.336992  	-0.014828 
3786.265808  	-0.014990 
3788.194624  	-0.014532 
3790.123440  	-0.014491 
3792.052256  	-0.014382 
3793.981072  	-0.013574 
3795.909888  	-0.014859 
3797.838704  	-0.015157 
3799.767520  	-0.014094 
3801.696336  	-0.019245 
3803.625152  	-0.017813 
3805.553968  	-0.015087 
3807.482784  	-0.018141 
3809.411600  	-0.016264 
3811.340416  	-0.014077 
3813.269232  	-0.012735 
3815.198048  	-0.014949 
3817.126864  	-0.017684 
3819.055680  	-0.014948 
3820.984496  	-0.018727 
3822.913312  	-0.019021 
3824.842128  	-0.015235 
3826.770944  	-0.015753 
3828.699760  	-0.014884 
3830.628576  	-0.014475 
3832.557392  	-0.015480 
3834.486208  	-0.014912 
3836.415024  	-0.015530 
3838.343840  	-0.017900 
3840.272656  	-0.017993 
3842.201472  	-0.016442 
3844.130288  	-0.016598 
3846.059104  	-0.015382 
3847.987920  	-0.013476 
3849.916736  	-0.012462 
3851.845552  	-0.013720 
3853.774368  	-0.021912 
3855.703184  	-0.020319 
3857.632000  	-0.016266 
3859.560816  	-0.014243 
3861.489632  	-0.013924 
3863.418448  	-0.014803 
3865.347264  	-0.016058 
3867.276080  	-0.013886 
3869.204896  	-0.014928 
3871.133712  	-0.017044 
3873.062528  	-0.015222 
3874.991344  	-0.016532 
3876.920160  	-0.014181 
3878.848976  	-0.012884 
3880.777792  	-0.015111 
3882.706608  	-0.014095 
3884.635424  	-0.013653 
3886.564240  	-0.016489 
3888.493056  	-0.014402 
3890.421872  	-0.014398 
3892.350688  	-0.016524 
3894.279504  	-0.015103 
3896.208320  	-0.013143 
3898.137136  	-0.012712 
3900.065952  	-0.013755 
3901.994768  	-0.014068 
3903.923584  	-0.015720 
3905.852400  	-0.016592 
3907.781216  	-0.015313 
3909.710032  	-0.014497 
3911.638848  	-0.014338 
3913.567664  	-0.013729 
3915.496480  	-0.013177 
3917.425296  	-0.014228 
3919.354112  	-0.014695 
3921.282928  	-0.014260 
3923.211744  	-0.013666 
3925.140560  	-0.014369 
3927.069376  	-0.014231 
3928.998192  	-0.013612 
3930.927008  	-0.013469 
3932.855824  	-0.014285 
3934.784640  	-0.014563 
3936.713456  	-0.014281 
3938.642272  	-0.013950 
3940.571088  	-0.013215 
3942.499904  	-0.013594 
3944.428720  	-0.014068 
3946.357536  	-0.013187 
3948.286352  	-0.013304 
3950.215168  	-0.014191 
3952.143984  	-0.014456 
3954.072800  	-0.014210 
3956.001616  	-0.013980 
3957.930432  	-0.013922 
3959.859248  	-0.013833 
3961.788064  	-0.014079 
3963.716880  	-0.014469 
3965.645696  	-0.014526 
3967.574512  	-0.014405 
3969.503328  	-0.014245 
3971.432144  	-0.014306 
3973.360960  	-0.014263 
3975.289776  	-0.014361 
3977.218592  	-0.014487 
3979.147408  	-0.014399 
3981.076224  	-0.014271 
3983.005040  	-0.014280 
3984.933856  	-0.014313 
3986.862672  	-0.014372 
3988.791488  	-0.014190 
3990.720304  	-0.014101 
3992.649120  	-0.014036 
3994.577936  	-0.014169 
3996.506752  	-0.014297 
3998.435568  	-0.014294 
4000.364384  	-0.014227 