##TITLE=No Description
##DATA TYPE=INFRARED SPECTRUM
##XUNITS=1/CM
##YUNITS=Abs
399.264912  	0.645216 
401.193728  	0.641495 
403.122544  	0.640275 
405.051360  	0.616733 
406.980176  	0.612521 
408.908992  	0.602205 
410.837808  	0.597954 
412.766624  	0.593627 
414.695440  	0.597682 
416.624256  	0.592633 
418.553072  	0.603888 
420.481888  	0.609491 
422.410704  	0.599389 
424.339520  	0.576472 
426.268336  	0.570380 
428.197152  	0.570348 
430.125968  	0.573140 
432.054784  	0.565738 
433.983600  	0.565166 
435.912416  	0.556118 
437.841232  	0.554248 
439.770048  	0.556296 
441.698864  	0.559158 
443.627680  	0.551558 
445.556496  	0.550415 
447.485312  	0.549501 
449.414128  	0.553298 
451.342944  	0.551731 
453.271760  	0.551741 
455.200576  	0.546420 
457.129392  	0.551152 
459.058208  	0.550743 
460.987024  	0.554269 
462.915840  	0.550400 
464.844656  	0.546409 
466.773472  	0.542032 
468.702288  	0.545053 
470.631104  	0.540928 
472.559920  	0.543644 
474.488736  	0.539235 
476.417552  	0.540370 
478.346368  	0.545020 
480.275184  	0.547405 
482.204000  	0.536432 
484.132816  	0.530790 
486.061632  	0.534366 
487.990448  	0.538199 
489.919264  	0.537518 
491.848080  	0.536084 
493.776896  	0.532544 
495.705712  	0.531425 
497.634528  	0.529107 
499.563344  	0.530347 
501.492160  	0.525933 
503.420976  	0.524528 
505.349792  	0.523446 
507.278608  	0.523024 
509.207424  	0.522960 
511.136240  	0.526746 
513.065056  	0.527625 
514.993872  	0.532245 
516.922688  	0.532798 
518.851504  	0.532264 
520.780320  	0.529161 
522.709136  	0.530364 
524.637952  	0.527283 
526.566768  	0.523254 
528.495584  	0.518210 
530.424400  	0.519437 
532.353216  	0.518879 
534.282032  	0.516034 
536.210848  	0.510411 
538.139664  	0.505207 
540.068480  	0.499762 
541.997296  	0.494515 
543.926112  	0.488019 
545.854928  	0.484979 
547.783744  	0.481508 
549.712560  	0.478575 
551.641376  	0.475180 
553.570192  	0.471630 
555.499008  	0.466813 
557.427824  	0.464192 
559.356640  	0.459718 
561.285456  	0.456044 
563.214272  	0.452738 
565.143088  	0.450407 
567.071904  	0.446278 
569.000720  	0.442658 
570.929536  	0.439652 
572.858352  	0.436380 
574.787168  	0.432157 
576.715984  	0.430295 
578.644800  	0.427827 
580.573616  	0.424146 
582.502432  	0.418938 
584.431248  	0.415380 
586.360064  	0.411655 
588.288880  	0.408850 
590.217696  	0.406644 
592.146512  	0.404600 
594.075328  	0.401717 
596.004144  	0.400056 
597.932960  	0.398796 
599.861776  	0.397342 
601.790592  	0.394770 
603.719408  	0.392935 
605.648224  	0.390747 
607.577040  	0.389942 
609.505856  	0.388248 
611.434672  	0.386451 
613.363488  	0.384337 
615.292304  	0.383043 
617.221120  	0.381306 
619.149936  	0.380217 
621.078752  	0.378734 
623.007568  	0.377175 
624.936384  	0.375100 
626.865200  	0.374144 
628.794016  	0.373120 
630.722832  	0.371491 
632.651648  	0.370470 
634.580464  	0.370797 
636.509280  	0.370961 
638.438096  	0.370767 
640.366912  	0.369109 
642.295728  	0.367532 
644.224544  	0.365309 
646.153360  	0.362224 
648.082176  	0.358062 
650.010992  	0.354215 
651.939808  	0.350310 
653.868624  	0.346404 
655.797440  	0.342089 
657.726256  	0.338125 
659.655072  	0.334098 
661.583888  	0.330284 
663.512704  	0.326728 
665.441520  	0.323659 
667.370336  	0.316661 
669.299152  	0.310020 
671.227968  	0.309637 
673.156784  	0.307160 
675.085600  	0.304518 
677.014416  	0.301624 
678.943232  	0.299146 
680.872048  	0.297870 
682.800864  	0.296732 
684.729680  	0.295293 
686.658496  	0.293479 
688.587312  	0.292192 
690.516128  	0.290247 
692.444944  	0.288946 
694.373760  	0.287912 
696.302576  	0.285848 
698.231392  	0.282833 
700.160208  	0.280650 
702.089024  	0.278545 
704.017840  	0.275936 
705.946656  	0.273366 
707.875472  	0.271032 
709.804288  	0.268841 
711.733104  	0.267012 
713.661920  	0.265125 
715.590736  	0.263345 
717.519552  	0.262396 
719.448368  	0.262763 
721.377184  	0.262801 
723.306000  	0.263065 
725.234816  	0.263327 
727.163632  	0.262816 
729.092448  	0.260492 
731.021264  	0.257390 
732.950080  	0.254014 
734.878896  	0.250820 
736.807712  	0.247789 
738.736528  	0.245380 
740.665344  	0.243860 
742.594160  	0.242138 
744.522976  	0.240298 
746.451792  	0.238660 
748.380608  	0.236920 
750.309424  	0.235636 
752.238240  	0.234173 
754.167056  	0.233145 
756.095872  	0.231894 
758.024688  	0.230856 
759.953504  	0.230401 
761.882320  	0.231115 
763.811136  	0.231285 
765.739952  	0.230285 
767.668768  	0.227923 
769.597584  	0.225593 
771.526400  	0.224518 
773.455216  	0.225378 
775.384032  	0.228021 
777.312848  	0.232413 
779.241664  	0.236336 
781.170480  	0.236837 
783.099296  	0.233710 
785.028112  	0.228532 
786.956928  	0.222726 
788.885744  	0.217645 
790.814560  	0.213733 
792.743376  	0.211080 
794.672192  	0.209492 
796.601008  	0.208570 
798.529824  	0.205871 
800.458640  	0.201339 
802.387456  	0.197836 
804.316272  	0.195722 
806.245088  	0.194063 
808.173904  	0.193131 
810.102720  	0.192579 
812.031536  	0.192369 
813.960352  	0.192612 
815.889168  	0.192237 
817.817984  	0.191751 
819.746800  	0.192021 
821.675616  	0.192217 
823.604432  	0.191985 
825.533248  	0.191473 
827.462064  	0.190280 
829.390880  	0.188911 
831.319696  	0.187809 
833.248512  	0.185919 
835.177328  	0.183244 
837.106144  	0.180709 
839.034960  	0.177728 
840.963776  	0.174011 
842.892592  	0.170554 
844.821408  	0.167082 
846.750224  	0.163959 
848.679040  	0.161419 
850.607856  	0.159331 
852.536672  	0.157483 
854.465488  	0.155852 
856.394304  	0.154381 
858.323120  	0.152976 
860.251936  	0.151264 
862.180752  	0.148788 
864.109568  	0.146008 
866.038384  	0.143617 
867.967200  	0.141419 
869.896016  	0.139297 
871.824832  	0.138002 
873.753648  	0.137731 
875.682464  	0.138231 
877.611280  	0.138535 
879.540096  	0.138998 
881.468912  	0.140667 
883.397728  	0.141726 
885.326544  	0.142520 
887.255360  	0.142757 
889.184176  	0.141450 
891.112992  	0.139032 
893.041808  	0.137131 
894.970624  	0.135028 
896.899440  	0.131748 
898.828256  	0.127791 
900.757072  	0.124186 
902.685888  	0.121190 
904.614704  	0.119491 
906.543520  	0.119604 
908.472336  	0.120816 
910.401152  	0.123036 
912.329968  	0.125787 
914.258784  	0.128732 
916.187600  	0.131480 
918.116416  	0.133726 
920.045232  	0.135240 
921.974048  	0.136026 
923.902864  	0.136234 
925.831680  	0.135912 
927.760496  	0.135702 
929.689312  	0.135847 
931.618128  	0.136316 
933.546944  	0.136677 
935.475760  	0.137005 
937.404576  	0.136932 
939.333392  	0.136549 
941.262208  	0.136647 
943.191024  	0.138140 
945.119840  	0.141604 
947.048656  	0.147024 
948.977472  	0.154085 
950.906288  	0.162556 
952.835104  	0.171955 
954.763920  	0.181862 
956.692736  	0.191277 
958.621552  	0.199343 
960.550368  	0.204787 
962.479184  	0.207553 
964.408000  	0.206789 
966.336816  	0.202254 
968.265632  	0.194494 
970.194448  	0.184177 
972.123264  	0.172038 
974.052080  	0.159256 
975.980896  	0.146920 
977.909712  	0.135379 
979.838528  	0.124870 
981.767344  	0.116289 
983.696160  	0.109752 
985.624976  	0.105532 
987.553792  	0.103903 
989.482608  	0.104767 
991.411424  	0.107921 
993.340240  	0.112530 
995.269056  	0.118141 
997.197872  	0.124378 
999.126688  	0.130745 
1001.055504  	0.137188 
1002.984320  	0.143808 
1004.913136  	0.150203 
1006.841952  	0.156245 
1008.770768  	0.161352 
1010.699584  	0.164972 
1012.628400  	0.167144 
1014.557216  	0.168045 
1016.486032  	0.168318 
1018.414848  	0.168272 
1020.343664  	0.167987 
1022.272480  	0.167294 
1024.201296  	0.166084 
1026.130112  	0.162921 
1028.058928  	0.161555 
1029.987744  	0.164439 
1031.916560  	0.166363 
1033.845376  	0.167313 
1035.774192  	0.168093 
1037.703008  	0.170484 
1039.631824  	0.176249 
1041.560640  	0.183998 
1043.489456  	0.194393 
1045.418272  	0.207513 
1047.347088  	0.222805 
1049.275904  	0.237835 
1051.204720  	0.250645 
1053.133536  	0.259260 
1055.062352  	0.264097 
1056.991168  	0.265619 
1058.919984  	0.267718 
1060.848800  	0.269366 
1062.777616  	0.267525 
1064.706432  	0.261495 
1066.635248  	0.256310 
1068.564064  	0.254635 
1070.492880  	0.250071 
1072.421696  	0.242599 
1074.350512  	0.236850 
1076.279328  	0.234639 
1078.208144  	0.236520 
1080.136960  	0.241064 
1082.065776  	0.246618 
1083.994592  	0.250556 
1085.923408  	0.252192 
1087.852224  	0.250446 
1089.781040  	0.246624 
1091.709856  	0.241707 
1093.638672  	0.234197 
1095.567488  	0.223745 
1097.496304  	0.212108 
1099.425120  	0.199563 
1101.353936  	0.186941 
1103.282752  	0.174564 
1105.211568  	0.162643 
1107.140384  	0.150987 
1109.069200  	0.139902 
1110.998016  	0.129703 
1112.926832  	0.120266 
1114.855648  	0.111648 
1116.784464  	0.103670 
1118.713280  	0.096410 
1120.642096  	0.089578 
1122.570912  	0.083255 
1124.499728  	0.077231 
1126.428544  	0.071866 
1128.357360  	0.066813 
1130.286176  	0.062688 
1132.214992  	0.059213 
1134.143808  	0.056427 
1136.072624  	0.053943 
1138.001440  	0.051926 
1139.930256  	0.049511 
1141.859072  	0.047092 
1143.787888  	0.044683 
1145.716704  	0.042568 
1147.645520  	0.040387 
1149.574336  	0.038575 
1151.503152  	0.037217 
1153.431968  	0.036693 
1155.360784  	0.036862 
1157.289600  	0.037766 
1159.218416  	0.039037 
1161.147232  	0.040776 
1163.076048  	0.042712 
1165.004864  	0.045032 
1166.933680  	0.047195 
1168.862496  	0.049598 
1170.791312  	0.051927 
1172.720128  	0.054622 
1174.648944  	0.057189 
1176.577760  	0.059821 
1178.506576  	0.062375 
1180.435392  	0.065020 
1182.364208  	0.067442 
1184.293024  	0.070308 
1186.221840  	0.073349 
1188.150656  	0.077035 
1190.079472  	0.081106 
1192.008288  	0.086154 
1193.937104  	0.092241 
1195.865920  	0.099414 
1197.794736  	0.107492 
1199.723552  	0.116295 
1201.652368  	0.125255 
1203.581184  	0.134213 
1205.510000  	0.143199 
1207.438816  	0.152129 
1209.367632  	0.160467 
1211.296448  	0.167813 
1213.225264  	0.174105 
1215.154080  	0.178950 
1217.082896  	0.182570 
1219.011712  	0.185186 
1220.940528  	0.187171 
1222.869344  	0.188304 
1224.798160  	0.188818 
1226.726976  	0.188801 
1228.655792  	0.188215 
1230.584608  	0.186948 
1232.513424  	0.185252 
1234.442240  	0.182761 
1236.371056  	0.179423 
1238.299872  	0.174856 
1240.228688  	0.168160 
1242.157504  	0.161225 
1244.086320  	0.155236 
1246.015136  	0.147775 
1247.943952  	0.139477 
1249.872768  	0.131187 
1251.801584  	0.123895 
1253.730400  	0.116524 
1255.659216  	0.109409 
1257.588032  	0.102767 
1259.516848  	0.096347 
1261.445664  	0.090280 
1263.374480  	0.084877 
1265.303296  	0.080355 
1267.232112  	0.076686 
1269.160928  	0.073809 
1271.089744  	0.071639 
1273.018560  	0.070486 
1274.947376  	0.069997 
1276.876192  	0.069976 
1278.805008  	0.069660 
1280.733824  	0.068565 
1282.662640  	0.066494 
1284.591456  	0.064058 
1286.520272  	0.061925 
1288.449088  	0.060504 
1290.377904  	0.059717 
1292.306720  	0.059685 
1294.235536  	0.059608 
1296.164352  	0.058667 
1298.093168  	0.056322 
1300.021984  	0.053399 
1301.950800  	0.050348 
1303.879616  	0.047521 
1305.808432  	0.044482 
1307.737248  	0.041451 
1309.666064  	0.038496 
1311.594880  	0.036256 
1313.523696  	0.034523 
1315.452512  	0.033423 
1317.381328  	0.032756 
1319.310144  	0.032541 
1321.238960  	0.032707 
1323.167776  	0.033388 
1325.096592  	0.034219 
1327.025408  	0.034918 
1328.954224  	0.034962 
1330.883040  	0.034574 
1332.811856  	0.033786 
1334.740672  	0.033219 
1336.669488  	0.033000 
1338.598304  	0.033028 
1340.527120  	0.031705 
1342.455936  	0.030278 
1344.384752  	0.029911 
1346.313568  	0.030129 
1348.242384  	0.030669 
1350.171200  	0.031910 
1352.100016  	0.033548 
1354.028832  	0.035487 
1355.957648  	0.037404 
1357.886464  	0.039532 
1359.815280  	0.041853 
1361.744096  	0.044086 
1363.672912  	0.045230 
1365.601728  	0.046406 
1367.530544  	0.047668 
1369.459360  	0.047958 
1371.388176  	0.047697 
1373.316992  	0.046288 
1375.245808  	0.042946 
1377.174624  	0.040424 
1379.103440  	0.037575 
1381.032256  	0.034597 
1382.961072  	0.032397 
1384.889888  	0.031609 
1386.818704  	0.030756 
1388.747520  	0.028907 
1390.676336  	0.026737 
1392.605152  	0.023567 
1394.533968  	0.021511 
1396.462784  	0.024302 
1398.391600  	0.025494 
1400.320416  	0.024759 
1402.249232  	0.025281 
1404.178048  	0.025937 
1406.106864  	0.026564 
1408.035680  	0.028532 
1409.964496  	0.031069 
1411.893312  	0.033910 
1413.822128  	0.036811 
1415.750944  	0.040368 
1417.679760  	0.042685 
1419.608576  	0.042178 
1421.537392  	0.042646 
1423.466208  	0.042803 
1425.395024  	0.041123 
1427.323840  	0.040020 
1429.252656  	0.037576 
1431.181472  	0.035814 
1433.110288  	0.035848 
1435.039104  	0.036555 
1436.967920  	0.035487 
1438.896736  	0.036119 
1440.825552  	0.037311 
1442.754368  	0.037761 
1444.683184  	0.037904 
1446.612000  	0.037835 
1448.540816  	0.036542 
1450.469632  	0.037045 
1452.398448  	0.037986 
1454.327264  	0.039075 
1456.256080  	0.038250 
1458.184896  	0.035479 
1460.113712  	0.037337 
1462.042528  	0.039279 
1463.971344  	0.039000 
1465.900160  	0.039374 
1467.828976  	0.042482 
1469.757792  	0.046190 
1471.686608  	0.049170 
1473.615424  	0.054429 
1475.544240  	0.060890 
1477.473056  	0.066660 
1479.401872  	0.070891 
1481.330688  	0.073981 
1483.259504  	0.075944 
1485.188320  	0.077387 
1487.117136  	0.077005 
1489.045952  	0.075754 
1490.974768  	0.072405 
1492.903584  	0.070709 
1494.832400  	0.067832 
1496.761216  	0.061060 
1498.690032  	0.055060 
1500.618848  	0.051495 
1502.547664  	0.048305 
1504.476480  	0.044550 
1506.405296  	0.036958 
1508.334112  	0.033857 
1510.262928  	0.034776 
1512.191744  	0.033275 
1514.120560  	0.032422 
1516.049376  	0.031629 
1517.978192  	0.030638 
1519.907008  	0.032020 
1521.835824  	0.031872 
1523.764640  	0.036242 
1525.693456  	0.040583 
1527.622272  	0.042803 
1529.551088  	0.043911 
1531.479904  	0.043969 
1533.408720  	0.039801 
1535.337536  	0.037117 
1537.266352  	0.036023 
1539.195168  	0.028458 
1541.123984  	0.020643 
1543.052800  	0.022910 
1544.981616  	0.023457 
1546.910432  	0.023434 
1548.839248  	0.023924 
1550.768064  	0.023799 
1552.696880  	0.023924 
1554.625696  	0.024306 
1556.554512  	0.024713 
1558.483328  	0.021966 
1560.412144  	0.025373 
1562.340960  	0.033225 
1564.269776  	0.037366 
1566.198592  	0.042706 
1568.127408  	0.046912 
1570.056224  	0.051545 
1571.985040  	0.058760 
1573.913856  	0.063800 
1575.842672  	0.064375 
1577.771488  	0.066975 
1579.700304  	0.069373 
1581.629120  	0.069316 
1583.557936  	0.068708 
1585.486752  	0.069525 
1587.415568  	0.071865 
1589.344384  	0.076129 
1591.273200  	0.081900 
1593.202016  	0.089036 
1595.130832  	0.096455 
1597.059648  	0.104457 
1598.988464  	0.111242 
1600.917280  	0.117119 
1602.846096  	0.120824 
1604.774912  	0.123284 
1606.703728  	0.123421 
1608.632544  	0.122344 
1610.561360  	0.120252 
1612.490176  	0.118894 
1614.418992  	0.116961 
1616.347808  	0.113769 
1618.276624  	0.114759 
1620.205440  	0.119798 
1622.134256  	0.122680 
1624.063072  	0.128031 
1625.991888  	0.135333 
1627.920704  	0.143583 
1629.849520  	0.153635 
1631.778336  	0.163530 
1633.707152  	0.170313 
1635.635968  	0.177498 
1637.564784  	0.188309 
1639.493600  	0.197122 
1641.422416  	0.202909 
1643.351232  	0.207453 
1645.280048  	0.207946 
1647.208864  	0.206819 
1649.137680  	0.209024 
1651.066496  	0.210203 
1652.995312  	0.202080 
1654.924128  	0.200924 
1656.852944  	0.202290 
1658.781760  	0.200580 
1660.710576  	0.196891 
1662.639392  	0.191065 
1664.568208  	0.186952 
1666.497024  	0.184843 
1668.425840  	0.178863 
1670.354656  	0.171662 
1672.283472  	0.169228 
1674.212288  	0.166479 
1676.141104  	0.161512 
1678.069920  	0.161099 
1679.998736  	0.160245 
1681.927552  	0.158850 
1683.856368  	0.153118 
1685.785184  	0.152298 
1687.714000  	0.155141 
1689.642816  	0.154668 
1691.571632  	0.153177 
1693.500448  	0.152238 
1695.429264  	0.147286 
1697.358080  	0.143719 
1699.286896  	0.141326 
1701.215712  	0.134863 
1703.144528  	0.134688 
1705.073344  	0.130314 
1707.002160  	0.124046 
1708.930976  	0.119833 
1710.859792  	0.113758 
1712.788608  	0.106879 
1714.717424  	0.098098 
1716.646240  	0.086731 
1718.575056  	0.073222 
1720.503872  	0.066375 
1722.432688  	0.060150 
1724.361504  	0.051074 
1726.290320  	0.043781 
1728.219136  	0.037620 
1730.147952  	0.031938 
1732.076768  	0.027339 
1734.005584  	0.019952 
1735.934400  	0.015343 
1737.863216  	0.015967 
1739.792032  	0.012338 
1741.720848  	0.011123 
1743.649664  	0.010581 
1745.578480  	0.009916 
1747.507296  	0.008279 
1749.436112  	0.007147 
1751.364928  	0.005680 
1753.293744  	0.005491 
1755.222560  	0.005650 
1757.151376  	0.004757 
1759.080192  	0.004351 
1761.009008  	0.003756 
1762.937824  	0.002124 
1764.866640  	0.002894 
1766.795456  	0.003318 
1768.724272  	0.002682 
1770.653088  	0.000775 
1772.581904  	-0.001878 
1774.510720  	-0.000667 
1776.439536  	0.000999 
1778.368352  	0.001255 
1780.297168  	0.000803 
1782.225984  	0.000367 
1784.154800  	0.000828 
1786.083616  	0.000094 
1788.012432  	0.000433 
1789.941248  	0.000744 
1791.870064  	-0.000770 
1793.798880  	-0.002074 
1795.727696  	-0.000428 
1797.656512  	-0.000586 
1799.585328  	-0.000945 
1801.514144  	-0.001067 
1803.442960  	-0.000892 
1805.371776  	-0.001113 
1807.300592  	-0.000702 
1809.229408  	-0.001220 
1811.158224  	-0.001770 
1813.087040  	-0.001981 
1815.015856  	-0.001451 
1816.944672  	-0.001449 
1818.873488  	-0.001294 
1820.802304  	-0.001348 
1822.731120  	-0.000863 
1824.659936  	-0.001866 
1826.588752  	-0.002567 
1828.517568  	-0.002878 
1830.446384  	-0.003327 
1832.375200  	-0.002593 
1834.304016  	-0.001796 
1836.232832  	-0.001905 
1838.161648  	-0.001844 
1840.090464  	-0.001869 
1842.019280  	-0.001253 
1843.948096  	-0.002693 
1845.876912  	-0.002775 
1847.805728  	-0.002003 
1849.734544  	-0.002056 
1851.663360  	-0.002311 
1853.592176  	-0.002184 
1855.520992  	-0.002442 
1857.449808  	-0.002313 
1859.378624  	-0.002352 
1861.307440  	-0.002190 
1863.236256  	-0.002371 
1865.165072  	-0.002154 
1867.093888  	-0.002678 
1869.022704  	-0.003434 
1870.951520  	-0.003596 
1872.880336  	-0.002822 
1874.809152  	-0.002820 
1876.737968  	-0.002547 
1878.666784  	-0.002844 
1880.595600  	-0.002426 
1882.524416  	-0.002479 
1884.453232  	-0.002400 
1886.382048  	-0.002866 
1888.310864  	-0.002987 
1890.239680  	-0.003627 
1892.168496  	-0.002863 
1894.097312  	-0.002684 
1896.026128  	-0.002558 
1897.954944  	-0.002799 
1899.883760  	-0.002560 
1901.812576  	-0.002887 
1903.741392  	-0.003004 
1905.670208  	-0.003011 
1907.599024  	-0.002443 
1909.527840  	-0.002648 
1911.456656  	-0.002654 
1913.385472  	-0.002803 
1915.314288  	-0.002261 
1917.243104  	-0.002912 
1919.171920  	-0.003357 
1921.100736  	-0.002952 
1923.029552  	-0.002640 
1924.958368  	-0.003303 
1926.887184  	-0.003281 
1928.816000  	-0.003485 
1930.744816  	-0.003137 
1932.673632  	-0.003172 
1934.602448  	-0.002854 
1936.531264  	-0.002933 
1938.460080  	-0.002090 
1940.388896  	-0.002423 
1942.317712  	-0.002967 
1944.246528  	-0.003505 
1946.175344  	-0.002297 
1948.104160  	-0.002694 
1950.032976  	-0.002678 
1951.961792  	-0.002725 
1953.890608  	-0.002395 
1955.819424  	-0.002780 
1957.748240  	-0.001952 
1959.677056  	-0.002516 
1961.605872  	-0.002538 
1963.534688  	-0.003236 
1965.463504  	-0.002599 
1967.392320  	-0.002850 
1969.321136  	-0.002047 
1971.249952  	-0.002174 
1973.178768  	-0.001301 
1975.107584  	-0.002407 
1977.036400  	-0.002058 
1978.965216  	-0.001227 
1980.894032  	-0.001431 
1982.822848  	-0.002250 
1984.751664  	-0.001653 
1986.680480  	-0.002778 
1988.609296  	-0.002425 
1990.538112  	-0.003080 
1992.466928  	-0.002957 
1994.395744  	-0.003694 
1996.324560  	-0.003166 
1998.253376  	-0.003067 
2000.182192  	-0.003059 
2002.111008  	-0.002911 
2004.039824  	-0.001534 
2005.968640  	-0.002854 
2007.897456  	-0.002075 
2009.826272  	-0.001705 
2011.755088  	-0.001718 
2013.683904  	-0.003509 
2015.612720  	-0.003381 
2017.541536  	-0.003737 
2019.470352  	-0.002576 
2021.399168  	-0.002969 
2023.327984  	-0.002144 
2025.256800  	-0.001883 
2027.185616  	-0.001719 
2029.114432  	-0.001423 
2031.043248  	-0.001247 
2032.972064  	-0.001939 
2034.900880  	-0.001402 
2036.829696  	-0.002674 
2038.758512  	-0.002212 
2040.687328  	-0.002404 
2042.616144  	-0.002182 
2044.544960  	-0.002547 
2046.473776  	-0.001748 
2048.402592  	-0.001809 
2050.331408  	-0.001924 
2052.260224  	-0.002846 
2054.189040  	-0.003112 
2056.117856  	-0.003188 
2058.046672  	-0.002780 
2059.975488  	-0.003130 
2061.904304  	-0.003382 
2063.833120  	-0.003419 
2065.761936  	-0.003259 
2067.690752  	-0.003544 
2069.619568  	-0.002731 
2071.548384  	-0.002619 
2073.477200  	-0.002962 
2075.406016  	-0.003069 
2077.334832  	-0.002392 
2079.263648  	-0.002364 
2081.192464  	-0.002441 
2083.121280  	-0.002738 
2085.050096  	-0.002748 
2086.978912  	-0.002776 
2088.907728  	-0.002453 
2090.836544  	-0.002494 
2092.765360  	-0.002081 
2094.694176  	-0.002198 
2096.622992  	-0.002220 
2098.551808  	-0.002304 
2100.480624  	-0.002043 
2102.409440  	-0.001961 
2104.338256  	-0.001695 
2106.267072  	-0.001734 
2108.195888  	-0.001843 
2110.124704  	-0.002122 
2112.053520  	-0.001778 
2113.982336  	-0.001987 
2115.911152  	-0.002115 
2117.839968  	-0.002242 
2119.768784  	-0.002266 
2121.697600  	-0.002471 
2123.626416  	-0.002204 
2125.555232  	-0.002404 
2127.484048  	-0.002159 
2129.412864  	-0.002707 
2131.341680  	-0.002784 
2133.270496  	-0.003011 
2135.199312  	-0.002887 
2137.128128  	-0.002119 
2139.056944  	-0.001535 
2140.985760  	-0.002258 
2142.914576  	-0.001729 
2144.843392  	-0.001569 
2146.772208  	-0.001553 
2148.701024  	-0.002606 
2150.629840  	-0.002132 
2152.558656  	-0.001553 
2154.487472  	-0.000934 
2156.416288  	-0.001715 
2158.345104  	-0.000750 
2160.273920  	0.000716 
2162.202736  	0.000538 
2164.131552  	-0.000917 
2166.060368  	-0.000221 
2167.989184  	0.000449 
2169.918000  	0.001328 
2171.846816  	-0.000293 
2173.775632  	-0.000656 
2175.704448  	0.000322 
2177.633264  	0.000649 
2179.562080  	0.000112 
2181.490896  	0.000054 
2183.419712  	-0.001019 
2185.348528  	-0.000666 
2187.277344  	-0.000380 
2189.206160  	-0.000592 
2191.134976  	-0.001195 
2193.063792  	-0.000782 
2194.992608  	-0.000694 
2196.921424  	-0.001071 
2198.850240  	-0.001587 
2200.779056  	-0.001303 
2202.707872  	-0.001633 
2204.636688  	-0.001677 
2206.565504  	-0.001333 
2208.494320  	-0.001076 
2210.423136  	-0.002048 
2212.351952  	-0.002108 
2214.280768  	-0.002413 
2216.209584  	-0.001931 
2218.138400  	-0.001825 
2220.067216  	-0.001646 
2221.996032  	-0.002357 
2223.924848  	-0.002266 
2225.853664  	-0.001689 
2227.782480  	-0.001820 
2229.711296  	-0.002692 
2231.640112  	-0.003039 
2233.568928  	-0.003032 
2235.497744  	-0.002928 
2237.426560  	-0.003125 
2239.355376  	-0.002774 
2241.284192  	-0.002670 
2243.213008  	-0.002709 
2245.141824  	-0.003047 
2247.070640  	-0.002832 
2248.999456  	-0.002634 
2250.928272  	-0.002800 
2252.857088  	-0.003168 
2254.785904  	-0.002997 
2256.714720  	-0.003564 
2258.643536  	-0.003740 
2260.572352  	-0.003845 
2262.501168  	-0.004056 
2264.429984  	-0.004248 
2266.358800  	-0.003728 
2268.287616  	-0.003661 
2270.216432  	-0.003572 
2272.145248  	-0.003425 
2274.074064  	-0.003458 
2276.002880  	-0.003593 
2277.931696  	-0.003295 
2279.860512  	-0.003311 
2281.789328  	-0.003017 
2283.718144  	-0.002997 
2285.646960  	-0.002742 
2287.575776  	-0.002839 
2289.504592  	-0.003161 
2291.433408  	-0.003382 
2293.362224  	-0.003147 
2295.291040  	-0.002894 
2297.219856  	-0.002601 
2299.148672  	-0.002702 
2301.077488  	-0.002744 
2303.006304  	-0.002762 
2304.935120  	-0.002627 
2306.863936  	-0.002838 
2308.792752  	-0.002979 
2310.721568  	-0.003565 
2312.650384  	-0.004075 
2314.579200  	-0.004665 
2316.508016  	-0.005655 
2318.436832  	-0.006888 
2320.365648  	-0.008207 
2322.294464  	-0.009566 
2324.223280  	-0.011038 
2326.152096  	-0.013110 
2328.080912  	-0.014578 
2330.009728  	-0.015880 
2331.938544  	-0.017408 
2333.867360  	-0.018901 
2335.796176  	-0.019958 
2337.724992  	-0.021052 
2339.653808  	-0.021134 
2341.582624  	-0.021394 
2343.511440  	-0.020495 
2345.440256  	-0.018124 
2347.369072  	-0.013564 
2349.297888  	-0.010487 
2351.226704  	-0.012763 
2353.155520  	-0.018071 
2355.084336  	-0.022409 
2357.013152  	-0.025873 
2358.941968  	-0.027781 
2360.870784  	-0.028779 
2362.799600  	-0.028246 
2364.728416  	-0.026962 
2366.657232  	-0.024211 
2368.586048  	-0.020889 
2370.514864  	-0.017570 
2372.443680  	-0.014485 
2374.372496  	-0.011327 
2376.301312  	-0.008513 
2378.230128  	-0.006285 
2380.158944  	-0.004753 
2382.087760  	-0.003965 
2384.016576  	-0.003774 
2385.945392  	-0.003775 
2387.874208  	-0.003833 
2389.803024  	-0.003911 
2391.731840  	-0.004263 
2393.660656  	-0.004292 
2395.589472  	-0.004173 
2397.518288  	-0.004106 
2399.447104  	-0.004136 
2401.375920  	-0.004045 
2403.304736  	-0.004096 
2405.233552  	-0.004103 
2407.162368  	-0.004269 
2409.091184  	-0.004143 
2411.020000  	-0.004156 
2412.948816  	-0.004152 
2414.877632  	-0.003991 
2416.806448  	-0.003845 
2418.735264  	-0.004061 
2420.664080  	-0.004227 
2422.592896  	-0.004323 
2424.521712  	-0.004238 
2426.450528  	-0.004363 
2428.379344  	-0.004274 
2430.308160  	-0.003979 
2432.236976  	-0.003749 
2434.165792  	-0.003838 
2436.094608  	-0.003904 
2438.023424  	-0.003757 
2439.952240  	-0.003385 
2441.881056  	-0.003356 
2443.809872  	-0.003515 
2445.738688  	-0.003586 
2447.667504  	-0.003506 
2449.596320  	-0.003518 
2451.525136  	-0.003388 
2453.453952  	-0.003333 
2455.382768  	-0.003435 
2457.311584  	-0.003474 
2459.240400  	-0.003454 
2461.169216  	-0.003738 
2463.098032  	-0.003823 
2465.026848  	-0.003704 
2466.955664  	-0.003750 
2468.884480  	-0.003906 
2470.813296  	-0.003912 
2472.742112  	-0.003961 
2474.670928  	-0.003646 
2476.599744  	-0.003519 
2478.528560  	-0.003416 
2480.457376  	-0.003353 
2482.386192  	-0.003322 
2484.315008  	-0.003301 
2486.243824  	-0.003289 
2488.172640  	-0.003377 
2490.101456  	-0.003409 
2492.030272  	-0.003408 
2493.959088  	-0.003176 
2495.887904  	-0.003024 
2497.816720  	-0.003098 
2499.745536  	-0.003165 
2501.674352  	-0.002929 
2503.603168  	-0.002631 
2505.531984  	-0.002638 
2507.460800  	-0.002934 
2509.389616  	-0.002935 
2511.318432  	-0.002882 
2513.247248  	-0.002838 
2515.176064  	-0.002740 
2517.104880  	-0.002616 
2519.033696  	-0.002716 
2520.962512  	-0.002567 
2522.891328  	-0.002357 
2524.820144  	-0.002369 
2526.748960  	-0.002420 
2528.677776  	-0.002275 
2530.606592  	-0.002356 
2532.535408  	-0.002370 
2534.464224  	-0.002358 
2536.393040  	-0.002438 
2538.321856  	-0.002328 
2540.250672  	-0.002233 
2542.179488  	-0.002153 
2544.108304  	-0.001971 
2546.037120  	-0.001941 
2547.965936  	-0.001934 
2549.894752  	-0.001788 
2551.823568  	-0.001841 
2553.752384  	-0.001731 
2555.681200  	-0.001437 
2557.610016  	-0.001463 
2559.538832  	-0.001445 
2561.467648  	-0.001366 
2563.396464  	-0.001321 
2565.325280  	-0.001150 
2567.254096  	-0.001038 
2569.182912  	-0.000949 
2571.111728  	-0.000858 
2573.040544  	-0.001155 
2574.969360  	-0.001142 
2576.898176  	-0.000739 
2578.826992  	-0.000578 
2580.755808  	-0.000632 
2582.684624  	-0.000614 
2584.613440  	-0.000566 
2586.542256  	-0.000587 
2588.471072  	-0.000404 
2590.399888  	-0.000265 
2592.328704  	-0.000410 
2594.257520  	-0.000478 
2596.186336  	-0.000450 
2598.115152  	-0.000229 
2600.043968  	-0.000142 
2601.972784  	-0.000019 
2603.901600  	0.000064 
2605.830416  	0.000110 
2607.759232  	0.000086 
2609.688048  	0.000248 
2611.616864  	0.000522 
2613.545680  	0.000668 
2615.474496  	0.000625 
2617.403312  	0.000684 
2619.332128  	0.000809 
2621.260944  	0.000811 
2623.189760  	0.000808 
2625.118576  	0.001006 
2627.047392  	0.001139 
2628.976208  	0.001292 
2630.905024  	0.001371 
2632.833840  	0.001345 
2634.762656  	0.001401 
2636.691472  	0.001438 
2638.620288  	0.001521 
2640.549104  	0.001689 
2642.477920  	0.001741 
2644.406736  	0.001858 
2646.335552  	0.002024 
2648.264368  	0.002171 
2650.193184  	0.002219 
2652.122000  	0.002337 
2654.050816  	0.002554 
2655.979632  	0.002670 
2657.908448  	0.002742 
2659.837264  	0.002906 
2661.766080  	0.003000 
2663.694896  	0.003132 
2665.623712  	0.003226 
2667.552528  	0.003339 
2669.481344  	0.003511 
2671.410160  	0.003592 
2673.338976  	0.003624 
2675.267792  	0.003786 
2677.196608  	0.004036 
2679.125424  	0.004156 
2681.054240  	0.004263 
2682.983056  	0.004347 
2684.911872  	0.004301 
2686.840688  	0.004453 
2688.769504  	0.004587 
2690.698320  	0.004628 
2692.627136  	0.004686 
2694.555952  	0.004812 
2696.484768  	0.004864 
2698.413584  	0.004860 
2700.342400  	0.004942 
2702.271216  	0.005224 
2704.200032  	0.005429 
2706.128848  	0.005396 
2708.057664  	0.005361 
2709.986480  	0.005532 
2711.915296  	0.005684 
2713.844112  	0.005812 
2715.772928  	0.005924 
2717.701744  	0.006099 
2719.630560  	0.006346 
2721.559376  	0.006436 
2723.488192  	0.006493 
2725.417008  	0.006689 
2727.345824  	0.006901 
2729.274640  	0.006985 
2731.203456  	0.007113 
2733.132272  	0.007325 
2735.061088  	0.007441 
2736.989904  	0.007566 
2738.918720  	0.007545 
2740.847536  	0.007609 
2742.776352  	0.007711 
2744.705168  	0.007884 
2746.633984  	0.007938 
2748.562800  	0.007896 
2750.491616  	0.007968 
2752.420432  	0.008145 
2754.349248  	0.008130 
2756.278064  	0.008065 
2758.206880  	0.008033 
2760.135696  	0.008057 
2762.064512  	0.008109 
2763.993328  	0.008076 
2765.922144  	0.008012 
2767.850960  	0.008071 
2769.779776  	0.008197 
2771.708592  	0.008251 
2773.637408  	0.008221 
2775.566224  	0.008179 
2777.495040  	0.008135 
2779.423856  	0.008213 
2781.352672  	0.008292 
2783.281488  	0.008275 
2785.210304  	0.008245 
2787.139120  	0.008352 
2789.067936  	0.008374 
2790.996752  	0.008348 
2792.925568  	0.008241 
2794.854384  	0.008280 
2796.783200  	0.008291 
2798.712016  	0.008202 
2800.640832  	0.008118 
2802.569648  	0.008239 
2804.498464  	0.008395 
2806.427280  	0.008406 
2808.356096  	0.008359 
2810.284912  	0.008469 
2812.213728  	0.008459 
2814.142544  	0.008312 
2816.071360  	0.008290 
2818.000176  	0.008209 
2819.928992  	0.008144 
2821.857808  	0.008027 
2823.786624  	0.007818 
2825.715440  	0.007810 
2827.644256  	0.007766 
2829.573072  	0.007583 
2831.501888  	0.007199 
2833.430704  	0.006838 
2835.359520  	0.006557 
2837.288336  	0.006225 
2839.217152  	0.005844 
2841.145968  	0.005517 
2843.074784  	0.005160 
2845.003600  	0.004693 
2846.932416  	0.004329 
2848.861232  	0.004033 
2850.790048  	0.003593 
2852.718864  	0.003103 
2854.647680  	0.002581 
2856.576496  	0.001958 
2858.505312  	0.001360 
2860.434128  	0.000863 
2862.362944  	0.000163 
2864.291760  	-0.000762 
2866.220576  	-0.001381 
2868.149392  	-0.001563 
2870.078208  	-0.001808 
2872.007024  	-0.001861 
2873.935840  	-0.001719 
2875.864656  	-0.001670 
2877.793472  	-0.001871 
2879.722288  	-0.002078 
2881.651104  	-0.002415 
2883.579920  	-0.002560 
2885.508736  	-0.002311 
2887.437552  	-0.002058 
2889.366368  	-0.002087 
2891.295184  	-0.002367 
2893.224000  	-0.002482 
2895.152816  	-0.002417 
2897.081632  	-0.002698 
2899.010448  	-0.004351 
2900.939264  	-0.005902 
2902.868080  	-0.004690 
2904.796896  	-0.003424 
2906.725712  	-0.002923 
2908.654528  	-0.002306 
2910.583344  	-0.001848 
2912.512160  	-0.001319 
2914.440976  	-0.000298 
2916.369792  	0.000583 
2918.298608  	0.001117 
2920.227424  	0.001580 
2922.156240  	0.002333 
2924.085056  	0.003230 
2926.013872  	0.004230 
2927.942688  	0.005272 
2929.871504  	0.006273 
2931.800320  	0.007184 
2933.729136  	0.007916 
2935.657952  	0.008534 
2937.586768  	0.009299 
2939.515584  	0.009959 
2941.444400  	0.010251 
2943.373216  	0.010345 
2945.302032  	0.010612 
2947.230848  	0.010748 
2949.159664  	0.010475 
2951.088480  	0.009998 
2953.017296  	0.009492 
2954.946112  	0.008867 
2956.874928  	0.008123 
2958.803744  	0.007290 
2960.732560  	0.006735 
2962.661376  	0.006108 
2964.590192  	0.005134 
2966.519008  	0.003937 
2968.447824  	0.002952 
2970.376640  	0.002077 
2972.305456  	0.001554 
2974.234272  	0.001814 
2976.163088  	0.002126 
2978.091904  	0.002131 
2980.020720  	0.002106 
2981.949536  	0.002258 
2983.878352  	0.002131 
2985.807168  	0.001176 
2987.735984  	0.000237 
2989.664800  	0.000651 
2991.593616  	0.003766 
2993.522432  	0.005804 
2995.451248  	0.006385 
2997.380064  	0.007144 
2999.308880  	0.008285 
3001.237696  	0.009628 
3003.166512  	0.011134 
3005.095328  	0.012578 
3007.024144  	0.013970 
3008.952960  	0.015419 
3010.881776  	0.016857 
3012.810592  	0.018233 
3014.739408  	0.019601 
3016.668224  	0.020842 
3018.597040  	0.022069 
3020.525856  	0.023139 
3022.454672  	0.024235 
3024.383488  	0.025341 
3026.312304  	0.026396 
3028.241120  	0.027611 
3030.169936  	0.028609 
3032.098752  	0.029314 
3034.027568  	0.030018 
3035.956384  	0.030948 
3037.885200  	0.031888 
3039.814016  	0.032557 
3041.742832  	0.033217 
3043.671648  	0.033904 
3045.600464  	0.034548 
3047.529280  	0.034843 
3049.458096  	0.035249 
3051.386912  	0.036015 
3053.315728  	0.036753 
3055.244544  	0.037356 
3057.173360  	0.037938 
3059.102176  	0.038572 
3061.030992  	0.039218 
3062.959808  	0.039934 
3064.888624  	0.040640 
3066.817440  	0.041338 
3068.746256  	0.042382 
3070.675072  	0.043299 
3072.603888  	0.043920 
3074.532704  	0.044665 
3076.461520  	0.045496 
3078.390336  	0.046083 
3080.319152  	0.046860 
3082.247968  	0.047789 
3084.176784  	0.048558 
3086.105600  	0.049373 
3088.034416  	0.050187 
3089.963232  	0.050920 
3091.892048  	0.051560 
3093.820864  	0.052372 
3095.749680  	0.053119 
3097.678496  	0.054041 
3099.607312  	0.054958 
3101.536128  	0.055756 
3103.464944  	0.056626 
3105.393760  	0.057534 
3107.322576  	0.058388 
3109.251392  	0.059114 
3111.180208  	0.059825 
3113.109024  	0.060591 
3115.037840  	0.061340 
3116.966656  	0.062094 
3118.895472  	0.062662 
3120.824288  	0.063318 
3122.753104  	0.063999 
3124.681920  	0.064613 
3126.610736  	0.065225 
3128.539552  	0.065997 
3130.468368  	0.066747 
3132.397184  	0.067337 
3134.326000  	0.067987 
3136.254816  	0.068540 
3138.183632  	0.069111 
3140.112448  	0.069788 
3142.041264  	0.070421 
3143.970080  	0.071007 
3145.898896  	0.071622 
3147.827712  	0.072349 
3149.756528  	0.072932 
3151.685344  	0.073431 
3153.614160  	0.074366 
3155.542976  	0.075264 
3157.471792  	0.075866 
3159.400608  	0.076510 
3161.329424  	0.077153 
3163.258240  	0.077628 
3165.187056  	0.078133 
3167.115872  	0.078700 
3169.044688  	0.079224 
3170.973504  	0.079666 
3172.902320  	0.080255 
3174.831136  	0.080844 
3176.759952  	0.081320 
3178.688768  	0.081594 
3180.617584  	0.081980 
3182.546400  	0.082395 
3184.475216  	0.082670 
3186.404032  	0.082803 
3188.332848  	0.083014 
3190.261664  	0.083100 
3192.190480  	0.083443 
3194.119296  	0.083581 
3196.048112  	0.083790 
3197.976928  	0.083798 
3199.905744  	0.083659 
3201.834560  	0.083620 
3203.763376  	0.083772 
3205.692192  	0.083794 
3207.621008  	0.083598 
3209.549824  	0.083515 
3211.478640  	0.083551 
3213.407456  	0.083514 
3215.336272  	0.083313 
3217.265088  	0.083135 
3219.193904  	0.083008 
3221.122720  	0.082803 
3223.051536  	0.082635 
3224.980352  	0.082371 
3226.909168  	0.082172 
3228.837984  	0.082144 
3230.766800  	0.081962 
3232.695616  	0.081794 
3234.624432  	0.081829 
3236.553248  	0.081743 
3238.482064  	0.081602 
3240.410880  	0.081577 
3242.339696  	0.081768 
3244.268512  	0.081730 
3246.197328  	0.081754 
3248.126144  	0.082088 
3250.054960  	0.082156 
3251.983776  	0.082321 
3253.912592  	0.082531 
3255.841408  	0.082720 
3257.770224  	0.083095 
3259.699040  	0.083385 
3261.627856  	0.083579 
3263.556672  	0.083770 
3265.485488  	0.084075 
3267.414304  	0.084338 
3269.343120  	0.084590 
3271.271936  	0.084873 
3273.200752  	0.084891 
3275.129568  	0.084923 
3277.058384  	0.085416 
3278.987200  	0.085774 
3280.916016  	0.086031 
3282.844832  	0.086136 
3284.773648  	0.086168 
3286.702464  	0.086540 
3288.631280  	0.086776 
3290.560096  	0.086997 
3292.488912  	0.087375 
3294.417728  	0.087612 
3296.346544  	0.088080 
3298.275360  	0.088594 
3300.204176  	0.088994 
3302.132992  	0.089353 
3304.061808  	0.089609 
3305.990624  	0.090050 
3307.919440  	0.090458 
3309.848256  	0.090680 
3311.777072  	0.090976 
3313.705888  	0.091387 
3315.634704  	0.092045 
3317.563520  	0.092453 
3319.492336  	0.092693 
3321.421152  	0.092904 
3323.349968  	0.093195 
3325.278784  	0.093437 
3327.207600  	0.093487 
3329.136416  	0.093465 
3331.065232  	0.093741 
3332.994048  	0.094095 
3334.922864  	0.094281 
3336.851680  	0.094185 
3338.780496  	0.094119 
3340.709312  	0.093988 
3342.638128  	0.093830 
3344.566944  	0.093538 
3346.495760  	0.093260 
3348.424576  	0.092918 
3350.353392  	0.092633 
3352.282208  	0.092499 
3354.211024  	0.092129 
3356.139840  	0.091823 
3358.068656  	0.091663 
3359.997472  	0.091123 
3361.926288  	0.090510 
3363.855104  	0.090175 
3365.783920  	0.089750 
3367.712736  	0.089257 
3369.641552  	0.089001 
3371.570368  	0.088699 
3373.499184  	0.088294 
3375.428000  	0.087891 
3377.356816  	0.087506 
3379.285632  	0.087373 
3381.214448  	0.087075 
3383.143264  	0.086458 
3385.072080  	0.085944 
3387.000896  	0.085507 
3388.929712  	0.085028 
3390.858528  	0.084611 
3392.787344  	0.084252 
3394.716160  	0.084004 
3396.644976  	0.083577 
3398.573792  	0.083173 
3400.502608  	0.082838 
3402.431424  	0.082156 
3404.360240  	0.081546 
3406.289056  	0.080995 
3408.217872  	0.080453 
3410.146688  	0.079997 
3412.075504  	0.079579 
3414.004320  	0.079085 
3415.933136  	0.078720 
3417.861952  	0.078146 
3419.790768  	0.077581 
3421.719584  	0.076947 
3423.648400  	0.076394 
3425.577216  	0.075835 
3427.506032  	0.075293 
3429.434848  	0.074759 
3431.363664  	0.074292 
3433.292480  	0.073723 
3435.221296  	0.073082 
3437.150112  	0.072655 
3439.078928  	0.072282 
3441.007744  	0.071569 
3442.936560  	0.071070 
3444.865376  	0.070638 
3446.794192  	0.069654 
3448.723008  	0.068781 
3450.651824  	0.068160 
3452.580640  	0.067490 
3454.509456  	0.067023 
3456.438272  	0.066456 
3458.367088  	0.065923 
3460.295904  	0.065196 
3462.224720  	0.064253 
3464.153536  	0.063373 
3466.082352  	0.062637 
3468.011168  	0.061707 
3469.939984  	0.061054 
3471.868800  	0.060444 
3473.797616  	0.059499 
3475.726432  	0.058604 
3477.655248  	0.057925 
3479.584064  	0.057279 
3481.512880  	0.056457 
3483.441696  	0.055435 
3485.370512  	0.054793 
3487.299328  	0.053677 
3489.228144  	0.052858 
3491.156960  	0.052240 
3493.085776  	0.051606 
3495.014592  	0.050690 
3496.943408  	0.049877 
3498.872224  	0.049315 
3500.801040  	0.048994 
3502.729856  	0.048118 
3504.658672  	0.046967 
3506.587488  	0.046599 
3508.516304  	0.046091 
3510.445120  	0.045168 
3512.373936  	0.044453 
3514.302752  	0.043785 
3516.231568  	0.043389 
3518.160384  	0.042838 
3520.089200  	0.042091 
3522.018016  	0.041621 
3523.946832  	0.041292 
3525.875648  	0.040379 
3527.804464  	0.039009 
3529.733280  	0.038298 
3531.662096  	0.037964 
3533.590912  	0.037527 
3535.519728  	0.037099 
3537.448544  	0.036442 
3539.377360  	0.035736 
3541.306176  	0.035348 
3543.234992  	0.035197 
3545.163808  	0.034985 
3547.092624  	0.033998 
3549.021440  	0.032815 
3550.950256  	0.032194 
3552.879072  	0.031241 
3554.807888  	0.030689 
3556.736704  	0.030294 
3558.665520  	0.030019 
3560.594336  	0.029575 
3562.523152  	0.028773 
3564.451968  	0.028608 
3566.380784  	0.028140 
3568.309600  	0.025794 
3570.238416  	0.025013 
3572.167232  	0.025061 
3574.096048  	0.024260 
3576.024864  	0.023324 
3577.953680  	0.022961 
3579.882496  	0.022336 
3581.811312  	0.021684 
3583.740128  	0.021293 
3585.668944  	0.021153 
3587.597760  	0.019133 
3589.526576  	0.017492 
3591.455392  	0.017552 
3593.384208  	0.017249 
3595.313024  	0.016095 
3597.241840  	0.014746 
3599.170656  	0.013557 
3601.099472  	0.012659 
3603.028288  	0.012633 
3604.957104  	0.012816 
3606.885920  	0.011768 
3608.814736  	0.009969 
3610.743552  	0.009909 
3612.672368  	0.008858 
3614.601184  	0.007423 
3616.530000  	0.007461 
3618.458816  	0.005298 
3620.387632  	0.003213 
3622.316448  	0.003651 
3624.245264  	0.003887 
3626.174080  	0.003788 
3628.102896  	0.000717 
3630.031712  	-0.003725 
3631.960528  	-0.001319 
3633.889344  	-0.001270 
3635.818160  	-0.001985 
3637.746976  	-0.002785 
3639.675792  	-0.003198 
3641.604608  	-0.003304 
3643.533424  	-0.003641 
3645.462240  	-0.004092 
3647.391056  	-0.007057 
3649.319872  	-0.011821 
3651.248688  	-0.013784 
3653.177504  	-0.010588 
3655.106320  	-0.010294 
3657.035136  	-0.013355 
3658.963952  	-0.013003 
3660.892768  	-0.012726 
3662.821584  	-0.013047 
3664.750400  	-0.012972 
3666.679216  	-0.012696 
3668.608032  	-0.014690 
3670.536848  	-0.018689 
3672.465664  	-0.016397 
3674.394480  	-0.016838 
3676.323296  	-0.022463 
3678.252112  	-0.018548 
3680.180928  	-0.016563 
3682.109744  	-0.015881 
3684.038560  	-0.015788 
3685.967376  	-0.015332 
3687.896192  	-0.017544 
3689.825008  	-0.021219 
3691.753824  	-0.020385 
3693.682640  	-0.017768 
3695.611456  	-0.016462 
3697.540272  	-0.015673 
3699.469088  	-0.014651 
3701.397904  	-0.015765 
3703.326720  	-0.016017 
3705.255536  	-0.014255 
3707.184352  	-0.013453 
3709.113168  	-0.014746 
3711.041984  	-0.017428 
3712.970800  	-0.017105 
3714.899616  	-0.014081 
3716.828432  	-0.012740 
3718.757248  	-0.012985 
3720.686064  	-0.013500 
3722.614880  	-0.014161 
3724.543696  	-0.013527 
3726.472512  	-0.014077 
3728.401328  	-0.014110 
3730.330144  	-0.013789 
3732.258960  	-0.015308 
3734.187776  	-0.015174 
3736.116592  	-0.016846 
3738.045408  	-0.016456 
3739.974224  	-0.013943 
3741.903040  	-0.011891 
3743.831856  	-0.014268 
3745.760672  	-0.017670 
3747.689488  	-0.014717 
3749.618304  	-0.016939 
3751.547120  	-0.019480 
3753.475936  	-0.017292 
3755.404752  	-0.014090 
3757.333568  	-0.013533 
3759.262384  	-0.014779 
3761.191200  	-0.014946 
3763.120016  	-0.012686 
3765.048832  	-0.013059 
3766.977648  	-0.013230 
3768.906464  	-0.013771 
3770.835280  	-0.014937 
3772.764096  	-0.013287 
3774.692912  	-0.012305 
3776.621728  	-0.012027 
3778.550544  	-0.013234 
3780.479360  	-0.014741 
3782.408176  	-0.013242 
3784.336992  	-0.013254 
3786.265808  	-0.013294 
3788.194624  	-0.012666 
3790.123440  	-0.012601 
3792.052256  	-0.012604 
3793.981072  	-0.012302 
3795.909888  	-0.013674 
3797.838704  	-0.013913 
3799.767520  	-0.013557 
3801.696336  	-0.017832 
3803.625152  	-0.016084 
3805.553968  	-0.013948 
3807.482784  	-0.016112 
3809.411600  	-0.014298 
3811.340416  	-0.012550 
3813.269232  	-0.011809 
3815.198048  	-0.014095 
3817.126864  	-0.016239 
3819.055680  	-0.014232 
3820.984496  	-0.017783 
3822.913312  	-0.017379 
3824.842128  	-0.013858 
3826.770944  	-0.014086 
3828.699760  	-0.013417 
3830.628576  	-0.013249 
3832.557392  	-0.014206 
3834.486208  	-0.013862 
3836.415024  	-0.014847 
3838.343840  	-0.016940 
3840.272656  	-0.016635 
3842.201472  	-0.014894 
3844.130288  	-0.014462 
3846.059104  	-0.013328 
3847.987920  	-0.011994 
3849.916736  	-0.011454 
3851.845552  	-0.013298 
3853.774368  	-0.020421 
3855.703184  	-0.018225 
3857.632000  	-0.014525 
3859.560816  	-0.012681 
3861.489632  	-0.012777 
3863.418448  	-0.013948 
3865.347264  	-0.014791 
3867.276080  	-0.012770 
3869.204896  	-0.013628 
3871.133712  	-0.015010 
3873.062528  	-0.013689 
3874.991344  	-0.014532 
3876.920160  	-0.012469 
3878.848976  	-0.011594 
3880.777792  	-0.013356 
3882.706608  	-0.012614 
3884.635424  	-0.012509 
3886.564240  	-0.014536 
3888.493056  	-0.012769 
3890.421872  	-0.012707 
3892.350688  	-0.014291 
3894.279504  	-0.013083 
3896.208320  	-0.011633 
3898.137136  	-0.011484 
3900.065952  	-0.012269 
3901.994768  	-0.012442 
3903.923584  	-0.013703 
3905.852400  	-0.014269 
3907.781216  	-0.013096 
3909.710032  	-0.012378 
3911.638848  	-0.012316 
3913.567664  	-0.012005 
3915.496480  	-0.011679 
3917.425296  	-0.012381 
3919.354112  	-0.012779 
3921.282928  	-0.012425 
3923.211744  	-0.011693 
3925.140560  	-0.012277 
3927.069376  	-0.012345 
3928.998192  	-0.012114 
3930.927008  	-0.011945 
3932.855824  	-0.012160 
3934.784640  	-0.012305 
3936.713456  	-0.012076 
3938.642272  	-0.011984 
3940.571088  	-0.011614 
3942.499904  	-0.011858 
3944.428720  	-0.012149 
3946.357536  	-0.011539 
3948.286352  	-0.011600 
3950.215168  	-0.012192 
3952.143984  	-0.012500 
3954.072800  	-0.012387 
3956.001616  	-0.012140 
3957.930432  	-0.012172 
3959.859248  	-0.012167 
3961.788064  	-0.012177 
3963.716880  	-0.012377 
3965.645696  	-0.012499 
3967.574512  	-0.012402 
3969.503328  	-0.012219 
3971.432144  	-0.012229 
3973.360960  	-0.012185 
3975.289776  	-0.012313 
3977.218592  	-0.012301 
3979.147408  	-0.012286 
3981.076224  	-0.012364 
3983.005040  	-0.012389 
3984.933856  	-0.012424 
3986.862672  	-0.012382 
3988.791488  	-0.012179 
3990.720304  	-0.012035 
3992.649120  	-0.012144 
3994.577936  	-0.012326 
3996.506752  	-0.012283 
3998.435568  	-0.012206 
4000.364384  	-0.012150 