##TITLE=No Description
##DATA TYPE=INFRARED SPECTRUM
##XUNITS=1/CM
##YUNITS=Abs
399.264912  	0.607722 
401.193728  	0.616039 
403.122544  	0.617018 
405.051360  	0.607464 
406.980176  	0.608744 
408.908992  	0.591164 
410.837808  	0.582267 
412.766624  	0.576481 
414.695440  	0.589504 
416.624256  	0.587037 
418.553072  	0.587565 
420.481888  	0.577909 
422.410704  	0.583888 
424.339520  	0.578531 
426.268336  	0.566873 
428.197152  	0.552572 
430.125968  	0.553748 
432.054784  	0.554242 
433.983600  	0.553962 
435.912416  	0.548395 
437.841232  	0.555896 
439.770048  	0.551409 
441.698864  	0.550174 
443.627680  	0.549349 
445.556496  	0.552395 
447.485312  	0.545567 
449.414128  	0.540771 
451.342944  	0.538440 
453.271760  	0.538306 
455.200576  	0.535937 
457.129392  	0.542877 
459.058208  	0.544439 
460.987024  	0.547730 
462.915840  	0.541607 
464.844656  	0.539575 
466.773472  	0.536733 
468.702288  	0.540017 
470.631104  	0.539336 
472.559920  	0.538795 
474.488736  	0.536459 
476.417552  	0.535297 
478.346368  	0.530967 
480.275184  	0.532602 
482.204000  	0.530082 
484.132816  	0.529723 
486.061632  	0.531112 
487.990448  	0.534891 
489.919264  	0.531137 
491.848080  	0.527705 
493.776896  	0.522214 
495.705712  	0.525378 
497.634528  	0.523497 
499.563344  	0.523158 
501.492160  	0.521146 
503.420976  	0.520404 
505.349792  	0.519855 
507.278608  	0.520561 
509.207424  	0.517865 
511.136240  	0.518702 
513.065056  	0.519267 
514.993872  	0.521676 
516.922688  	0.524228 
518.851504  	0.526782 
520.780320  	0.522033 
522.709136  	0.520780 
524.637952  	0.521576 
526.566768  	0.522944 
528.495584  	0.520960 
530.424400  	0.518299 
532.353216  	0.511497 
534.282032  	0.507185 
536.210848  	0.502903 
538.139664  	0.497883 
540.068480  	0.492174 
541.997296  	0.487877 
543.926112  	0.482267 
545.854928  	0.478368 
547.783744  	0.474030 
549.712560  	0.471834 
551.641376  	0.468172 
553.570192  	0.464945 
555.499008  	0.461663 
557.427824  	0.458156 
559.356640  	0.453111 
561.285456  	0.450573 
563.214272  	0.446195 
565.143088  	0.443022 
567.071904  	0.440287 
569.000720  	0.436493 
570.929536  	0.432044 
572.858352  	0.430305 
574.787168  	0.427078 
576.715984  	0.424498 
578.644800  	0.421461 
580.573616  	0.418059 
582.502432  	0.413370 
584.431248  	0.410237 
586.360064  	0.406968 
588.288880  	0.404877 
590.217696  	0.401715 
592.146512  	0.398721 
594.075328  	0.395883 
596.004144  	0.394424 
597.932960  	0.392827 
599.861776  	0.390956 
601.790592  	0.388431 
603.719408  	0.387051 
605.648224  	0.385207 
607.577040  	0.383452 
609.505856  	0.381432 
611.434672  	0.380177 
613.363488  	0.378615 
615.292304  	0.377511 
617.221120  	0.376150 
619.149936  	0.374231 
621.078752  	0.372546 
623.007568  	0.371794 
624.936384  	0.369814 
626.865200  	0.367984 
628.794016  	0.366718 
630.722832  	0.366317 
632.651648  	0.365826 
634.580464  	0.365886 
636.509280  	0.365352 
638.438096  	0.365014 
640.366912  	0.363938 
642.295728  	0.362775 
644.224544  	0.360580 
646.153360  	0.357513 
648.082176  	0.353132 
650.010992  	0.349297 
651.939808  	0.345442 
653.868624  	0.342264 
655.797440  	0.338307 
657.726256  	0.334299 
659.655072  	0.329964 
661.583888  	0.325720 
663.512704  	0.322223 
665.441520  	0.319849 
667.370336  	0.314112 
669.299152  	0.307054 
671.227968  	0.305528 
673.156784  	0.303034 
675.085600  	0.299854 
677.014416  	0.297556 
678.943232  	0.295727 
680.872048  	0.293907 
682.800864  	0.291742 
684.729680  	0.290066 
686.658496  	0.288819 
688.587312  	0.288100 
690.516128  	0.286212 
692.444944  	0.284236 
694.373760  	0.283138 
696.302576  	0.281318 
698.231392  	0.278874 
700.160208  	0.276513 
702.089024  	0.274318 
704.017840  	0.272085 
705.946656  	0.269651 
707.875472  	0.267261 
709.804288  	0.264833 
711.733104  	0.263024 
713.661920  	0.260956 
715.590736  	0.259291 
717.519552  	0.258345 
719.448368  	0.258471 
721.377184  	0.258870 
723.306000  	0.259441 
725.234816  	0.259671 
727.163632  	0.259052 
729.092448  	0.256602 
731.021264  	0.253458 
732.950080  	0.250180 
734.878896  	0.246891 
736.807712  	0.244009 
738.736528  	0.241703 
740.665344  	0.239599 
742.594160  	0.237871 
744.522976  	0.236165 
746.451792  	0.234510 
748.380608  	0.233197 
750.309424  	0.231867 
752.238240  	0.230651 
754.167056  	0.229498 
756.095872  	0.228255 
758.024688  	0.227216 
759.953504  	0.226838 
761.882320  	0.227591 
763.811136  	0.227914 
765.739952  	0.226859 
767.668768  	0.224655 
769.597584  	0.221955 
771.526400  	0.220383 
773.455216  	0.221503 
775.384032  	0.224984 
777.312848  	0.229574 
779.241664  	0.233699 
781.170480  	0.234340 
783.099296  	0.230934 
785.028112  	0.225246 
786.956928  	0.219350 
788.885744  	0.214420 
790.814560  	0.210436 
792.743376  	0.208088 
794.672192  	0.207393 
796.601008  	0.206509 
798.529824  	0.203330 
800.458640  	0.198538 
802.387456  	0.194758 
804.316272  	0.192776 
806.245088  	0.191406 
808.173904  	0.190709 
810.102720  	0.190324 
812.031536  	0.189813 
813.960352  	0.189600 
815.889168  	0.189965 
817.817984  	0.190124 
819.746800  	0.190254 
821.675616  	0.190604 
823.604432  	0.190450 
825.533248  	0.189645 
827.462064  	0.188549 
829.390880  	0.187522 
831.319696  	0.186266 
833.248512  	0.184505 
835.177328  	0.182250 
837.106144  	0.179656 
839.034960  	0.176374 
840.963776  	0.172762 
842.892592  	0.169282 
844.821408  	0.165972 
846.750224  	0.162955 
848.679040  	0.160365 
850.607856  	0.158220 
852.536672  	0.156506 
854.465488  	0.155022 
856.394304  	0.153492 
858.323120  	0.152114 
860.251936  	0.150503 
862.180752  	0.148232 
864.109568  	0.145514 
866.038384  	0.142958 
867.967200  	0.140982 
869.896016  	0.139016 
871.824832  	0.137775 
873.753648  	0.137413 
875.682464  	0.137851 
877.611280  	0.138093 
879.540096  	0.138757 
881.468912  	0.140976 
883.397728  	0.142295 
885.326544  	0.142972 
887.255360  	0.143163 
889.184176  	0.142059 
891.112992  	0.139934 
893.041808  	0.138263 
894.970624  	0.136090 
896.899440  	0.132849 
898.828256  	0.128760 
900.757072  	0.124745 
902.685888  	0.121437 
904.614704  	0.119617 
906.543520  	0.119667 
908.472336  	0.120778 
910.401152  	0.123007 
912.329968  	0.125490 
914.258784  	0.128436 
916.187600  	0.131396 
918.116416  	0.133696 
920.045232  	0.135319 
921.974048  	0.136347 
923.902864  	0.136535 
925.831680  	0.136214 
927.760496  	0.136299 
929.689312  	0.136531 
931.618128  	0.136997 
933.546944  	0.137543 
935.475760  	0.137855 
937.404576  	0.137767 
939.333392  	0.137474 
941.262208  	0.137558 
943.191024  	0.139015 
945.119840  	0.142594 
947.048656  	0.148387 
948.977472  	0.155946 
950.906288  	0.165096 
952.835104  	0.175479 
954.763920  	0.186463 
956.692736  	0.196726 
958.621552  	0.205412 
960.550368  	0.211521 
962.479184  	0.214553 
964.408000  	0.213773 
966.336816  	0.209247 
968.265632  	0.201182 
970.194448  	0.190409 
972.123264  	0.177843 
974.052080  	0.164591 
975.980896  	0.151638 
977.909712  	0.139577 
979.838528  	0.128658 
981.767344  	0.119487 
983.696160  	0.112433 
985.624976  	0.107970 
987.553792  	0.106140 
989.482608  	0.106840 
991.411424  	0.109864 
993.340240  	0.114428 
995.269056  	0.120254 
997.197872  	0.126700 
999.126688  	0.133278 
1001.055504  	0.140053 
1002.984320  	0.146891 
1004.913136  	0.153634 
1006.841952  	0.160184 
1008.770768  	0.165542 
1010.699584  	0.169245 
1012.628400  	0.171578 
1014.557216  	0.172623 
1016.486032  	0.172982 
1018.414848  	0.172767 
1020.343664  	0.172299 
1022.272480  	0.171691 
1024.201296  	0.170557 
1026.130112  	0.167572 
1028.058928  	0.166336 
1029.987744  	0.169301 
1031.916560  	0.171498 
1033.845376  	0.172874 
1035.774192  	0.174353 
1037.703008  	0.177080 
1039.631824  	0.183243 
1041.560640  	0.191972 
1043.489456  	0.203571 
1045.418272  	0.217719 
1047.347088  	0.233536 
1049.275904  	0.248615 
1051.204720  	0.260719 
1053.133536  	0.268586 
1055.062352  	0.272633 
1056.991168  	0.272759 
1058.919984  	0.274076 
1060.848800  	0.275650 
1062.777616  	0.273441 
1064.706432  	0.267638 
1066.635248  	0.262731 
1068.564064  	0.260733 
1070.492880  	0.256005 
1072.421696  	0.248620 
1074.350512  	0.243191 
1076.279328  	0.241563 
1078.208144  	0.243946 
1080.136960  	0.248917 
1082.065776  	0.255033 
1083.994592  	0.259339 
1085.923408  	0.260447 
1087.852224  	0.257970 
1089.781040  	0.253127 
1091.709856  	0.247154 
1093.638672  	0.239121 
1095.567488  	0.227987 
1097.496304  	0.215513 
1099.425120  	0.202274 
1101.353936  	0.188813 
1103.282752  	0.175786 
1105.211568  	0.163517 
1107.140384  	0.151625 
1109.069200  	0.140588 
1110.998016  	0.130425 
1112.926832  	0.120955 
1114.855648  	0.112579 
1116.784464  	0.104831 
1118.713280  	0.097208 
1120.642096  	0.090059 
1122.570912  	0.083539 
1124.499728  	0.077384 
1126.428544  	0.071968 
1128.357360  	0.066983 
1130.286176  	0.062985 
1132.214992  	0.059564 
1134.143808  	0.056737 
1136.072624  	0.054304 
1138.001440  	0.052222 
1139.930256  	0.049842 
1141.859072  	0.047539 
1143.787888  	0.045173 
1145.716704  	0.042951 
1147.645520  	0.040587 
1149.574336  	0.038792 
1151.503152  	0.037522 
1153.431968  	0.037176 
1155.360784  	0.037266 
1157.289600  	0.037913 
1159.218416  	0.039257 
1161.147232  	0.041247 
1163.076048  	0.043413 
1165.004864  	0.045889 
1166.933680  	0.048074 
1168.862496  	0.050472 
1170.791312  	0.053026 
1172.720128  	0.055962 
1174.648944  	0.058811 
1176.577760  	0.061790 
1178.506576  	0.064476 
1180.435392  	0.067331 
1182.364208  	0.070137 
1184.293024  	0.073192 
1186.221840  	0.076371 
1188.150656  	0.080107 
1190.079472  	0.084314 
1192.008288  	0.089616 
1193.937104  	0.096065 
1195.865920  	0.103637 
1197.794736  	0.111909 
1199.723552  	0.120893 
1201.652368  	0.130188 
1203.581184  	0.139747 
1205.510000  	0.149005 
1207.438816  	0.157774 
1209.367632  	0.166075 
1211.296448  	0.173571 
1213.225264  	0.179886 
1215.154080  	0.184571 
1217.082896  	0.188004 
1219.011712  	0.190417 
1220.940528  	0.192331 
1222.869344  	0.193498 
1224.798160  	0.193942 
1226.726976  	0.193413 
1228.655792  	0.192471 
1230.584608  	0.190922 
1232.513424  	0.188808 
1234.442240  	0.185884 
1236.371056  	0.182262 
1238.299872  	0.177709 
1240.228688  	0.170798 
1242.157504  	0.163609 
1244.086320  	0.157475 
1246.015136  	0.149759 
1247.943952  	0.141350 
1249.872768  	0.133035 
1251.801584  	0.125683 
1253.730400  	0.118322 
1255.659216  	0.111147 
1257.588032  	0.104418 
1259.516848  	0.097958 
1261.445664  	0.091927 
1263.374480  	0.086425 
1265.303296  	0.081808 
1267.232112  	0.078055 
1269.160928  	0.075302 
1271.089744  	0.073183 
1273.018560  	0.071851 
1274.947376  	0.071356 
1276.876192  	0.071391 
1278.805008  	0.071104 
1280.733824  	0.069971 
1282.662640  	0.068048 
1284.591456  	0.065677 
1286.520272  	0.063476 
1288.449088  	0.061935 
1290.377904  	0.061212 
1292.306720  	0.061465 
1294.235536  	0.061550 
1296.164352  	0.060619 
1298.093168  	0.058363 
1300.021984  	0.055482 
1301.950800  	0.052334 
1303.879616  	0.049387 
1305.808432  	0.046131 
1307.737248  	0.042932 
1309.666064  	0.039944 
1311.594880  	0.037667 
1313.523696  	0.035775 
1315.452512  	0.034526 
1317.381328  	0.033834 
1319.310144  	0.033623 
1321.238960  	0.033652 
1323.167776  	0.034395 
1325.096592  	0.035340 
1327.025408  	0.036006 
1328.954224  	0.035967 
1330.883040  	0.035566 
1332.811856  	0.034818 
1334.740672  	0.034340 
1336.669488  	0.034162 
1338.598304  	0.034132 
1340.527120  	0.032820 
1342.455936  	0.031441 
1344.384752  	0.030944 
1346.313568  	0.031196 
1348.242384  	0.031808 
1350.171200  	0.033006 
1352.100016  	0.034569 
1354.028832  	0.036605 
1355.957648  	0.038459 
1357.886464  	0.040527 
1359.815280  	0.042902 
1361.744096  	0.045178 
1363.672912  	0.046357 
1365.601728  	0.047681 
1367.530544  	0.049117 
1369.459360  	0.049572 
1371.388176  	0.049505 
1373.316992  	0.048325 
1375.245808  	0.044970 
1377.174624  	0.042353 
1379.103440  	0.039475 
1381.032256  	0.036473 
1382.961072  	0.034221 
1384.889888  	0.033526 
1386.818704  	0.032655 
1388.747520  	0.030712 
1390.676336  	0.028564 
1392.605152  	0.025686 
1394.533968  	0.023694 
1396.462784  	0.026194 
1398.391600  	0.027400 
1400.320416  	0.026628 
1402.249232  	0.027158 
1404.178048  	0.027818 
1406.106864  	0.028192 
1408.035680  	0.030040 
1409.964496  	0.032569 
1411.893312  	0.035367 
1413.822128  	0.038337 
1415.750944  	0.042053 
1417.679760  	0.044505 
1419.608576  	0.043947 
1421.537392  	0.044388 
1423.466208  	0.044615 
1425.395024  	0.042840 
1427.323840  	0.041719 
1429.252656  	0.039338 
1431.181472  	0.037358 
1433.110288  	0.037314 
1435.039104  	0.038286 
1436.967920  	0.037191 
1438.896736  	0.037759 
1440.825552  	0.039066 
1442.754368  	0.039707 
1444.683184  	0.039960 
1446.612000  	0.039959 
1448.540816  	0.038736 
1450.469632  	0.039266 
1452.398448  	0.040287 
1454.327264  	0.041714 
1456.256080  	0.041270 
1458.184896  	0.038014 
1460.113712  	0.039244 
1462.042528  	0.041154 
1463.971344  	0.041053 
1465.900160  	0.041162 
1467.828976  	0.044059 
1469.757792  	0.047837 
1471.686608  	0.051073 
1473.615424  	0.056278 
1475.544240  	0.062703 
1477.473056  	0.068369 
1479.401872  	0.072605 
1481.330688  	0.075951 
1483.259504  	0.078140 
1485.188320  	0.079834 
1487.117136  	0.079800 
1489.045952  	0.078984 
1490.974768  	0.075578 
1492.903584  	0.073724 
1494.832400  	0.070925 
1496.761216  	0.064061 
1498.690032  	0.057557 
1500.618848  	0.053512 
1502.547664  	0.050304 
1504.476480  	0.047180 
1506.405296  	0.040435 
1508.334112  	0.036097 
1510.262928  	0.036230 
1512.191744  	0.034705 
1514.120560  	0.034207 
1516.049376  	0.033761 
1517.978192  	0.032897 
1519.907008  	0.034748 
1521.835824  	0.034820 
1523.764640  	0.038853 
1525.693456  	0.043054 
1527.622272  	0.045029 
1529.551088  	0.045904 
1531.479904  	0.046045 
1533.408720  	0.041925 
1535.337536  	0.038732 
1537.266352  	0.037991 
1539.195168  	0.031343 
1541.123984  	0.023430 
1543.052800  	0.024926 
1544.981616  	0.024810 
1546.910432  	0.024550 
1548.839248  	0.025104 
1550.768064  	0.024979 
1552.696880  	0.025387 
1554.625696  	0.026005 
1556.554512  	0.027042 
1558.483328  	0.025058 
1560.412144  	0.027062 
1562.340960  	0.034825 
1564.269776  	0.039129 
1566.198592  	0.044401 
1568.127408  	0.048807 
1570.056224  	0.053567 
1571.985040  	0.060663 
1573.913856  	0.066029 
1575.842672  	0.067023 
1577.771488  	0.069552 
1579.700304  	0.071725 
1581.629120  	0.071636 
1583.557936  	0.071028 
1585.486752  	0.071744 
1587.415568  	0.074032 
1589.344384  	0.078475 
1591.273200  	0.084407 
1593.202016  	0.091655 
1595.130832  	0.099298 
1597.059648  	0.107501 
1598.988464  	0.114446 
1600.917280  	0.120425 
1602.846096  	0.124175 
1604.774912  	0.126798 
1606.703728  	0.127057 
1608.632544  	0.126070 
1610.561360  	0.124039 
1612.490176  	0.122765 
1614.418992  	0.120998 
1616.347808  	0.118023 
1618.276624  	0.118571 
1620.205440  	0.123288 
1622.134256  	0.126295 
1624.063072  	0.131777 
1625.991888  	0.138914 
1627.920704  	0.147047 
1629.849520  	0.156830 
1631.778336  	0.166737 
1633.707152  	0.173780 
1635.635968  	0.181138 
1637.564784  	0.191461 
1639.493600  	0.199847 
1641.422416  	0.205453 
1643.351232  	0.209859 
1645.280048  	0.210597 
1647.208864  	0.210069 
1649.137680  	0.211876 
1651.066496  	0.212696 
1652.995312  	0.204557 
1654.924128  	0.203172 
1656.852944  	0.204303 
1658.781760  	0.202488 
1660.710576  	0.198679 
1662.639392  	0.193119 
1664.568208  	0.188945 
1666.497024  	0.186706 
1668.425840  	0.180935 
1670.354656  	0.173513 
1672.283472  	0.170467 
1674.212288  	0.167413 
1676.141104  	0.162155 
1678.069920  	0.161713 
1679.998736  	0.161015 
1681.927552  	0.159932 
1683.856368  	0.154499 
1685.785184  	0.152909 
1687.714000  	0.155299 
1689.642816  	0.154795 
1691.571632  	0.153432 
1693.500448  	0.152950 
1695.429264  	0.148527 
1697.358080  	0.145149 
1699.286896  	0.142654 
1701.215712  	0.136343 
1703.144528  	0.136513 
1705.073344  	0.132444 
1707.002160  	0.126273 
1708.930976  	0.122161 
1710.859792  	0.116258 
1712.788608  	0.109420 
1714.717424  	0.100911 
1716.646240  	0.089758 
1718.575056  	0.075348 
1720.503872  	0.067850 
1722.432688  	0.061453 
1724.361504  	0.052194 
1726.290320  	0.044769 
1728.219136  	0.038598 
1730.147952  	0.032957 
1732.076768  	0.028713 
1734.005584  	0.021181 
1735.934400  	0.015781 
1737.863216  	0.016480 
1739.792032  	0.012821 
1741.720848  	0.011603 
1743.649664  	0.011015 
1745.578480  	0.010420 
1747.507296  	0.009022 
1749.436112  	0.007877 
1751.364928  	0.006056 
1753.293744  	0.005709 
1755.222560  	0.006057 
1757.151376  	0.004985 
1759.080192  	0.004641 
1761.009008  	0.004230 
1762.937824  	0.002300 
1764.866640  	0.003096 
1766.795456  	0.003792 
1768.724272  	0.003172 
1770.653088  	0.001608 
1772.581904  	-0.001308 
1774.510720  	-0.000527 
1776.439536  	0.001164 
1778.368352  	0.001480 
1780.297168  	0.001003 
1782.225984  	0.000422 
1784.154800  	0.000893 
1786.083616  	0.000181 
1788.012432  	0.000617 
1789.941248  	0.001203 
1791.870064  	-0.000246 
1793.798880  	-0.002033 
1795.727696  	-0.000511 
1797.656512  	-0.000510 
1799.585328  	-0.000587 
1801.514144  	-0.000720 
1803.442960  	-0.000638 
1805.371776  	-0.000974 
1807.300592  	-0.000629 
1809.229408  	-0.001031 
1811.158224  	-0.001471 
1813.087040  	-0.001728 
1815.015856  	-0.001133 
1816.944672  	-0.001245 
1818.873488  	-0.001328 
1820.802304  	-0.001391 
1822.731120  	-0.000618 
1824.659936  	-0.001449 
1826.588752  	-0.002075 
1828.517568  	-0.002274 
1830.446384  	-0.003097 
1832.375200  	-0.002587 
1834.304016  	-0.001649 
1836.232832  	-0.001861 
1838.161648  	-0.001864 
1840.090464  	-0.001879 
1842.019280  	-0.000981 
1843.948096  	-0.002402 
1845.876912  	-0.002770 
1847.805728  	-0.002008 
1849.734544  	-0.001985 
1851.663360  	-0.002331 
1853.592176  	-0.002387 
1855.520992  	-0.002424 
1857.449808  	-0.002124 
1859.378624  	-0.002305 
1861.307440  	-0.002411 
1863.236256  	-0.002557 
1865.165072  	-0.002002 
1867.093888  	-0.001958 
1869.022704  	-0.002978 
1870.951520  	-0.003557 
1872.880336  	-0.002598 
1874.809152  	-0.002702 
1876.737968  	-0.002687 
1878.666784  	-0.002902 
1880.595600  	-0.002407 
1882.524416  	-0.002679 
1884.453232  	-0.002678 
1886.382048  	-0.002655 
1888.310864  	-0.002159 
1890.239680  	-0.003096 
1892.168496  	-0.002786 
1894.097312  	-0.002571 
1896.026128  	-0.002701 
1897.954944  	-0.002970 
1899.883760  	-0.002650 
1901.812576  	-0.003031 
1903.741392  	-0.003123 
1905.670208  	-0.002982 
1907.599024  	-0.002592 
1909.527840  	-0.003233 
1911.456656  	-0.002814 
1913.385472  	-0.002663 
1915.314288  	-0.002170 
1917.243104  	-0.002878 
1919.171920  	-0.003205 
1921.100736  	-0.002930 
1923.029552  	-0.002770 
1924.958368  	-0.003424 
1926.887184  	-0.003280 
1928.816000  	-0.003280 
1930.744816  	-0.002704 
1932.673632  	-0.002895 
1934.602448  	-0.002734 
1936.531264  	-0.002819 
1938.460080  	-0.002229 
1940.388896  	-0.002968 
1942.317712  	-0.003252 
1944.246528  	-0.003177 
1946.175344  	-0.002489 
1948.104160  	-0.003201 
1950.032976  	-0.002541 
1951.961792  	-0.002637 
1953.890608  	-0.002594 
1955.819424  	-0.003180 
1957.748240  	-0.002436 
1959.677056  	-0.002187 
1961.605872  	-0.001802 
1963.534688  	-0.002781 
1965.463504  	-0.001975 
1967.392320  	-0.002495 
1969.321136  	-0.002330 
1971.249952  	-0.002809 
1973.178768  	-0.001972 
1975.107584  	-0.002252 
1977.036400  	-0.001499 
1978.965216  	-0.001486 
1980.894032  	-0.001265 
1982.822848  	-0.002378 
1984.751664  	-0.001904 
1986.680480  	-0.002618 
1988.609296  	-0.002442 
1990.538112  	-0.003223 
1992.466928  	-0.003094 
1994.395744  	-0.003353 
1996.324560  	-0.003054 
1998.253376  	-0.003461 
2000.182192  	-0.003148 
2002.111008  	-0.002948 
2004.039824  	-0.001694 
2005.968640  	-0.002567 
2007.897456  	-0.002841 
2009.826272  	-0.003457 
2011.755088  	-0.002344 
2013.683904  	-0.002641 
2015.612720  	-0.001845 
2017.541536  	-0.001703 
2019.470352  	-0.001938 
2021.399168  	-0.003355 
2023.327984  	-0.003573 
2025.256800  	-0.003156 
2027.185616  	-0.002374 
2029.114432  	-0.002695 
2031.043248  	-0.001112 
2032.972064  	-0.001363 
2034.900880  	-0.001325 
2036.829696  	-0.001985 
2038.758512  	-0.001589 
2040.687328  	-0.002284 
2042.616144  	-0.002083 
2044.544960  	-0.002549 
2046.473776  	-0.002084 
2048.402592  	-0.002655 
2050.331408  	-0.002433 
2052.260224  	-0.003078 
2054.189040  	-0.003159 
2056.117856  	-0.003579 
2058.046672  	-0.003226 
2059.975488  	-0.003068 
2061.904304  	-0.002703 
2063.833120  	-0.003156 
2065.761936  	-0.003286 
2067.690752  	-0.003258 
2069.619568  	-0.002882 
2071.548384  	-0.002880 
2073.477200  	-0.002729 
2075.406016  	-0.002719 
2077.334832  	-0.002470 
2079.263648  	-0.002863 
2081.192464  	-0.002618 
2083.121280  	-0.002875 
2085.050096  	-0.003159 
2086.978912  	-0.003163 
2088.907728  	-0.002590 
2090.836544  	-0.002465 
2092.765360  	-0.002098 
2094.694176  	-0.001983 
2096.622992  	-0.001991 
2098.551808  	-0.002658 
2100.480624  	-0.002459 
2102.409440  	-0.002543 
2104.338256  	-0.002350 
2106.267072  	-0.002002 
2108.195888  	-0.001668 
2110.124704  	-0.002054 
2112.053520  	-0.002080 
2113.982336  	-0.002278 
2115.911152  	-0.002623 
2117.839968  	-0.002496 
2119.768784  	-0.001937 
2121.697600  	-0.002401 
2123.626416  	-0.002350 
2125.555232  	-0.002234 
2127.484048  	-0.002074 
2129.412864  	-0.002696 
2131.341680  	-0.002568 
2133.270496  	-0.002665 
2135.199312  	-0.002447 
2137.128128  	-0.002063 
2139.056944  	-0.001686 
2140.985760  	-0.001966 
2142.914576  	-0.001490 
2144.843392  	-0.000831 
2146.772208  	-0.000717 
2148.701024  	-0.001160 
2150.629840  	-0.000111 
2152.558656  	-0.000923 
2154.487472  	-0.000882 
2156.416288  	-0.001873 
2158.345104  	-0.001377 
2160.273920  	0.000562 
2162.202736  	0.000952 
2164.131552  	-0.000066 
2166.060368  	0.000322 
2167.989184  	0.001022 
2169.918000  	0.001217 
2171.846816  	0.000257 
2173.775632  	0.000883 
2175.704448  	0.000351 
2177.633264  	0.000154 
2179.562080  	0.000005 
2181.490896  	-0.000073 
2183.419712  	-0.000834 
2185.348528  	-0.000442 
2187.277344  	-0.000523 
2189.206160  	-0.000671 
2191.134976  	-0.000916 
2193.063792  	-0.000896 
2194.992608  	-0.001616 
2196.921424  	-0.001718 
2198.850240  	-0.001597 
2200.779056  	-0.001317 
2202.707872  	-0.002028 
2204.636688  	-0.002046 
2206.565504  	-0.001541 
2208.494320  	-0.001484 
2210.423136  	-0.001991 
2212.351952  	-0.001888 
2214.280768  	-0.002726 
2216.209584  	-0.003011 
2218.138400  	-0.003031 
2220.067216  	-0.002069 
2221.996032  	-0.001812 
2223.924848  	-0.001755 
2225.853664  	-0.001697 
2227.782480  	-0.001519 
2229.711296  	-0.002590 
2231.640112  	-0.003242 
2233.568928  	-0.003328 
2235.497744  	-0.003255 
2237.426560  	-0.003409 
2239.355376  	-0.003351 
2241.284192  	-0.003277 
2243.213008  	-0.003121 
2245.141824  	-0.003361 
2247.070640  	-0.003144 
2248.999456  	-0.003189 
2250.928272  	-0.003605 
2252.857088  	-0.004172 
2254.785904  	-0.004028 
2256.714720  	-0.004016 
2258.643536  	-0.004061 
2260.572352  	-0.004334 
2262.501168  	-0.004231 
2264.429984  	-0.004307 
2266.358800  	-0.004088 
2268.287616  	-0.004061 
2270.216432  	-0.003936 
2272.145248  	-0.003934 
2274.074064  	-0.003559 
2276.002880  	-0.003309 
2277.931696  	-0.003144 
2279.860512  	-0.003425 
2281.789328  	-0.003172 
2283.718144  	-0.003077 
2285.646960  	-0.002958 
2287.575776  	-0.002924 
2289.504592  	-0.003177 
2291.433408  	-0.003313 
2293.362224  	-0.002972 
2295.291040  	-0.002732 
2297.219856  	-0.002447 
2299.148672  	-0.002431 
2301.077488  	-0.002256 
2303.006304  	-0.002186 
2304.935120  	-0.002047 
2306.863936  	-0.001956 
2308.792752  	-0.001915 
2310.721568  	-0.002268 
2312.650384  	-0.002730 
2314.579200  	-0.003171 
2316.508016  	-0.003811 
2318.436832  	-0.004532 
2320.365648  	-0.005217 
2322.294464  	-0.006265 
2324.223280  	-0.007621 
2326.152096  	-0.009110 
2328.080912  	-0.010338 
2330.009728  	-0.011860 
2331.938544  	-0.013374 
2333.867360  	-0.014549 
2335.796176  	-0.015326 
2337.724992  	-0.016104 
2339.653808  	-0.016022 
2341.582624  	-0.016304 
2343.511440  	-0.016013 
2345.440256  	-0.014553 
2347.369072  	-0.010707 
2349.297888  	-0.007382 
2351.226704  	-0.008603 
2353.155520  	-0.013155 
2355.084336  	-0.016576 
2357.013152  	-0.018851 
2358.941968  	-0.019945 
2360.870784  	-0.021430 
2362.799600  	-0.021495 
2364.728416  	-0.020695 
2366.657232  	-0.018865 
2368.586048  	-0.016440 
2370.514864  	-0.013703 
2372.443680  	-0.011431 
2374.372496  	-0.009046 
2376.301312  	-0.006908 
2378.230128  	-0.005156 
2380.158944  	-0.004195 
2382.087760  	-0.003860 
2384.016576  	-0.003915 
2385.945392  	-0.003988 
2387.874208  	-0.004126 
2389.803024  	-0.004214 
2391.731840  	-0.004449 
2393.660656  	-0.004529 
2395.589472  	-0.004574 
2397.518288  	-0.004433 
2399.447104  	-0.004508 
2401.375920  	-0.004650 
2403.304736  	-0.004848 
2405.233552  	-0.004792 
2407.162368  	-0.004740 
2409.091184  	-0.004560 
2411.020000  	-0.004499 
2412.948816  	-0.004558 
2414.877632  	-0.004533 
2416.806448  	-0.004303 
2418.735264  	-0.004431 
2420.664080  	-0.004483 
2422.592896  	-0.004450 
2424.521712  	-0.004281 
2426.450528  	-0.004558 
2428.379344  	-0.004469 
2430.308160  	-0.004234 
2432.236976  	-0.004169 
2434.165792  	-0.004214 
2436.094608  	-0.004215 
2438.023424  	-0.004012 
2439.952240  	-0.003644 
2441.881056  	-0.003809 
2443.809872  	-0.003879 
2445.738688  	-0.003772 
2447.667504  	-0.003588 
2449.596320  	-0.003720 
2451.525136  	-0.003863 
2453.453952  	-0.003903 
2455.382768  	-0.003924 
2457.311584  	-0.003865 
2459.240400  	-0.003848 
2461.169216  	-0.003886 
2463.098032  	-0.004063 
2465.026848  	-0.004068 
2466.955664  	-0.003800 
2468.884480  	-0.003886 
2470.813296  	-0.004011 
2472.742112  	-0.003872 
2474.670928  	-0.003726 
2476.599744  	-0.003938 
2478.528560  	-0.003847 
2480.457376  	-0.003729 
2482.386192  	-0.003775 
2484.315008  	-0.003643 
2486.243824  	-0.003683 
2488.172640  	-0.003901 
2490.101456  	-0.003707 
2492.030272  	-0.003535 
2493.959088  	-0.003287 
2495.887904  	-0.003228 
2497.816720  	-0.003326 
2499.745536  	-0.003346 
2501.674352  	-0.003257 
2503.603168  	-0.002953 
2505.531984  	-0.002955 
2507.460800  	-0.003218 
2509.389616  	-0.003215 
2511.318432  	-0.003125 
2513.247248  	-0.002891 
2515.176064  	-0.002853 
2517.104880  	-0.002915 
2519.033696  	-0.002987 
2520.962512  	-0.002752 
2522.891328  	-0.002636 
2524.820144  	-0.002794 
2526.748960  	-0.002767 
2528.677776  	-0.002550 
2530.606592  	-0.002522 
2532.535408  	-0.002432 
2534.464224  	-0.002501 
2536.393040  	-0.002603 
2538.321856  	-0.002456 
2540.250672  	-0.002254 
2542.179488  	-0.002373 
2544.108304  	-0.002240 
2546.037120  	-0.002030 
2547.965936  	-0.002199 
2549.894752  	-0.002362 
2551.823568  	-0.002207 
2553.752384  	-0.001861 
2555.681200  	-0.001435 
2557.610016  	-0.001414 
2559.538832  	-0.001468 
2561.467648  	-0.001428 
2563.396464  	-0.001313 
2565.325280  	-0.001188 
2567.254096  	-0.001158 
2569.182912  	-0.001337 
2571.111728  	-0.001260 
2573.040544  	-0.001158 
2574.969360  	-0.001109 
2576.898176  	-0.000985 
2578.826992  	-0.000982 
2580.755808  	-0.000863 
2582.684624  	-0.000634 
2584.613440  	-0.000659 
2586.542256  	-0.000670 
2588.471072  	-0.000575 
2590.399888  	-0.000392 
2592.328704  	-0.000399 
2594.257520  	-0.000509 
2596.186336  	-0.000506 
2598.115152  	-0.000227 
2600.043968  	-0.000064 
2601.972784  	-0.000037 
2603.901600  	-0.000037 
2605.830416  	0.000149 
2607.759232  	0.000210 
2609.688048  	0.000243 
2611.616864  	0.000458 
2613.545680  	0.000752 
2615.474496  	0.000788 
2617.403312  	0.000804 
2619.332128  	0.000939 
2621.260944  	0.001036 
2623.189760  	0.001037 
2625.118576  	0.001121 
2627.047392  	0.001223 
2628.976208  	0.001370 
2630.905024  	0.001378 
2632.833840  	0.001376 
2634.762656  	0.001512 
2636.691472  	0.001597 
2638.620288  	0.001726 
2640.549104  	0.001989 
2642.477920  	0.002055 
2644.406736  	0.002165 
2646.335552  	0.002327 
2648.264368  	0.002443 
2650.193184  	0.002429 
2652.122000  	0.002525 
2654.050816  	0.002703 
2655.979632  	0.002920 
2657.908448  	0.003052 
2659.837264  	0.003163 
2661.766080  	0.003216 
2663.694896  	0.003360 
2665.623712  	0.003516 
2667.552528  	0.003689 
2669.481344  	0.003816 
2671.410160  	0.003893 
2673.338976  	0.004052 
2675.267792  	0.004290 
2677.196608  	0.004439 
2679.125424  	0.004567 
2681.054240  	0.004724 
2682.983056  	0.004826 
2684.911872  	0.004748 
2686.840688  	0.004888 
2688.769504  	0.005078 
2690.698320  	0.005130 
2692.627136  	0.005166 
2694.555952  	0.005270 
2696.484768  	0.005369 
2698.413584  	0.005482 
2700.342400  	0.005517 
2702.271216  	0.005684 
2704.200032  	0.005911 
2706.128848  	0.005998 
2708.057664  	0.005988 
2709.986480  	0.006098 
2711.915296  	0.006304 
2713.844112  	0.006576 
2715.772928  	0.006670 
2717.701744  	0.006694 
2719.630560  	0.006854 
2721.559376  	0.007015 
2723.488192  	0.007226 
2725.417008  	0.007376 
2727.345824  	0.007485 
2729.274640  	0.007688 
2731.203456  	0.007777 
2733.132272  	0.007910 
2735.061088  	0.008032 
2736.989904  	0.008166 
2738.918720  	0.008297 
2740.847536  	0.008391 
2742.776352  	0.008358 
2744.705168  	0.008391 
2746.633984  	0.008498 
2748.562800  	0.008539 
2750.491616  	0.008568 
2752.420432  	0.008745 
2754.349248  	0.008810 
2756.278064  	0.008800 
2758.206880  	0.008634 
2760.135696  	0.008590 
2762.064512  	0.008710 
2763.993328  	0.008742 
2765.922144  	0.008694 
2767.850960  	0.008771 
2769.779776  	0.008852 
2771.708592  	0.008864 
2773.637408  	0.008728 
2775.566224  	0.008673 
2777.495040  	0.008663 
2779.423856  	0.008783 
2781.352672  	0.008738 
2783.281488  	0.008670 
2785.210304  	0.008666 
2787.139120  	0.008739 
2789.067936  	0.008853 
2790.996752  	0.008810 
2792.925568  	0.008654 
2794.854384  	0.008625 
2796.783200  	0.008663 
2798.712016  	0.008673 
2800.640832  	0.008635 
2802.569648  	0.008781 
2804.498464  	0.008799 
2806.427280  	0.008673 
2808.356096  	0.008628 
2810.284912  	0.008710 
2812.213728  	0.008672 
2814.142544  	0.008601 
2816.071360  	0.008620 
2818.000176  	0.008548 
2819.928992  	0.008422 
2821.857808  	0.008307 
2823.786624  	0.008218 
2825.715440  	0.008148 
2827.644256  	0.008025 
2829.573072  	0.007862 
2831.501888  	0.007507 
2833.430704  	0.007112 
2835.359520  	0.006758 
2837.288336  	0.006560 
2839.217152  	0.006283 
2841.145968  	0.005948 
2843.074784  	0.005624 
2845.003600  	0.005106 
2846.932416  	0.004573 
2848.861232  	0.004149 
2850.790048  	0.003755 
2852.718864  	0.003360 
2854.647680  	0.002958 
2856.576496  	0.002400 
2858.505312  	0.001812 
2860.434128  	0.001344 
2862.362944  	0.000768 
2864.291760  	-0.000044 
2866.220576  	-0.000667 
2868.149392  	-0.000898 
2870.078208  	-0.001048 
2872.007024  	-0.001174 
2873.935840  	-0.001000 
2875.864656  	-0.000888 
2877.793472  	-0.000992 
2879.722288  	-0.001144 
2881.651104  	-0.001399 
2883.579920  	-0.001562 
2885.508736  	-0.001426 
2887.437552  	-0.001112 
2889.366368  	-0.000998 
2891.295184  	-0.001186 
2893.224000  	-0.001381 
2895.152816  	-0.001374 
2897.081632  	-0.001659 
2899.010448  	-0.003202 
2900.939264  	-0.004645 
2902.868080  	-0.003436 
2904.796896  	-0.002210 
2906.725712  	-0.001688 
2908.654528  	-0.001045 
2910.583344  	-0.000652 
2912.512160  	-0.000121 
2914.440976  	0.000913 
2916.369792  	0.001716 
2918.298608  	0.002189 
2920.227424  	0.002616 
2922.156240  	0.003424 
2924.085056  	0.004357 
2926.013872  	0.005316 
2927.942688  	0.006359 
2929.871504  	0.007300 
2931.800320  	0.008164 
2933.729136  	0.009039 
2935.657952  	0.009719 
2937.586768  	0.010484 
2939.515584  	0.011287 
2941.444400  	0.011681 
2943.373216  	0.011789 
2945.302032  	0.011988 
2947.230848  	0.012195 
2949.159664  	0.012066 
2951.088480  	0.011671 
2953.017296  	0.011127 
2954.946112  	0.010409 
2956.874928  	0.009700 
2958.803744  	0.008952 
2960.732560  	0.008406 
2962.661376  	0.007904 
2964.590192  	0.007091 
2966.519008  	0.005923 
2968.447824  	0.004806 
2970.376640  	0.004018 
2972.305456  	0.003589 
2974.234272  	0.003747 
2976.163088  	0.004112 
2978.091904  	0.004140 
2980.020720  	0.004044 
2981.949536  	0.004259 
2983.878352  	0.004174 
2985.807168  	0.003316 
2987.735984  	0.002326 
2989.664800  	0.002683 
2991.593616  	0.005572 
2993.522432  	0.007465 
2995.451248  	0.008038 
2997.380064  	0.008988 
2999.308880  	0.010250 
3001.237696  	0.011543 
3003.166512  	0.012947 
3005.095328  	0.014288 
3007.024144  	0.015585 
3008.952960  	0.016924 
3010.881776  	0.018498 
3012.810592  	0.019939 
3014.739408  	0.021143 
3016.668224  	0.022244 
3018.597040  	0.023513 
3020.525856  	0.024867 
3022.454672  	0.026050 
3024.383488  	0.027174 
3026.312304  	0.028151 
3028.241120  	0.029120 
3030.169936  	0.030060 
3032.098752  	0.030816 
3034.027568  	0.031637 
3035.956384  	0.032495 
3037.885200  	0.033336 
3039.814016  	0.034062 
3041.742832  	0.034812 
3043.671648  	0.035442 
3045.600464  	0.036040 
3047.529280  	0.036623 
3049.458096  	0.037217 
3051.386912  	0.037971 
3053.315728  	0.038765 
3055.244544  	0.039371 
3057.173360  	0.040044 
3059.102176  	0.040693 
3061.030992  	0.041440 
3062.959808  	0.042244 
3064.888624  	0.042921 
3066.817440  	0.043642 
3068.746256  	0.044627 
3070.675072  	0.045538 
3072.603888  	0.046282 
3074.532704  	0.047153 
3076.461520  	0.048068 
3078.390336  	0.048855 
3080.319152  	0.049513 
3082.247968  	0.050307 
3084.176784  	0.051207 
3086.105600  	0.052098 
3088.034416  	0.052937 
3089.963232  	0.053807 
3091.892048  	0.054517 
3093.820864  	0.055292 
3095.749680  	0.056146 
3097.678496  	0.057112 
3099.607312  	0.058222 
3101.536128  	0.059161 
3103.464944  	0.060060 
3105.393760  	0.060975 
3107.322576  	0.061845 
3109.251392  	0.062611 
3111.180208  	0.063262 
3113.109024  	0.064051 
3115.037840  	0.064823 
3116.966656  	0.065623 
3118.895472  	0.066222 
3120.824288  	0.066829 
3122.753104  	0.067637 
3124.681920  	0.068406 
3126.610736  	0.068932 
3128.539552  	0.069687 
3130.468368  	0.070378 
3132.397184  	0.070890 
3134.326000  	0.071741 
3136.254816  	0.072403 
3138.183632  	0.073035 
3140.112448  	0.073652 
3142.041264  	0.074184 
3143.970080  	0.074963 
3145.898896  	0.075701 
3147.827712  	0.076431 
3149.756528  	0.077035 
3151.685344  	0.077625 
3153.614160  	0.078468 
3155.542976  	0.079168 
3157.471792  	0.079903 
3159.400608  	0.080580 
3161.329424  	0.081106 
3163.258240  	0.081537 
3165.187056  	0.082147 
3167.115872  	0.082834 
3169.044688  	0.083347 
3170.973504  	0.083892 
3172.902320  	0.084438 
3174.831136  	0.084853 
3176.759952  	0.085265 
3178.688768  	0.085629 
3180.617584  	0.086057 
3182.546400  	0.086358 
3184.475216  	0.086593 
3186.404032  	0.086799 
3188.332848  	0.087042 
3190.261664  	0.087259 
3192.190480  	0.087440 
3194.119296  	0.087618 
3196.048112  	0.087761 
3197.976928  	0.087527 
3199.905744  	0.087400 
3201.834560  	0.087384 
3203.763376  	0.087459 
3205.692192  	0.087521 
3207.621008  	0.087367 
3209.549824  	0.087160 
3211.478640  	0.087057 
3213.407456  	0.086942 
3215.336272  	0.086750 
3217.265088  	0.086554 
3219.193904  	0.086528 
3221.122720  	0.086528 
3223.051536  	0.086406 
3224.980352  	0.086153 
3226.909168  	0.085878 
3228.837984  	0.085565 
3230.766800  	0.085501 
3232.695616  	0.085632 
3234.624432  	0.085469 
3236.553248  	0.085211 
3238.482064  	0.085297 
3240.410880  	0.085459 
3242.339696  	0.085682 
3244.268512  	0.085491 
3246.197328  	0.085351 
3248.126144  	0.085652 
3250.054960  	0.085907 
3251.983776  	0.086232 
3253.912592  	0.086507 
3255.841408  	0.086691 
3257.770224  	0.086876 
3259.699040  	0.087042 
3261.627856  	0.087390 
3263.556672  	0.087530 
3265.485488  	0.087567 
3267.414304  	0.088088 
3269.343120  	0.088650 
3271.271936  	0.088921 
3273.200752  	0.088954 
3275.129568  	0.088830 
3277.058384  	0.089133 
3278.987200  	0.089442 
3280.916016  	0.089760 
3282.844832  	0.090045 
3284.773648  	0.090051 
3286.702464  	0.090234 
3288.631280  	0.090577 
3290.560096  	0.090979 
3292.488912  	0.091312 
3294.417728  	0.091616 
3296.346544  	0.092055 
3298.275360  	0.092408 
3300.204176  	0.092679 
3302.132992  	0.092994 
3304.061808  	0.093465 
3305.990624  	0.093903 
3307.919440  	0.094184 
3309.848256  	0.094405 
3311.777072  	0.094833 
3313.705888  	0.095243 
3315.634704  	0.095604 
3317.563520  	0.095891 
3319.492336  	0.096156 
3321.421152  	0.096360 
3323.349968  	0.096637 
3325.278784  	0.096822 
3327.207600  	0.097030 
3329.136416  	0.097071 
3331.065232  	0.097132 
3332.994048  	0.097202 
3334.922864  	0.097373 
3336.851680  	0.097481 
3338.780496  	0.097388 
3340.709312  	0.097260 
3342.638128  	0.097042 
3344.566944  	0.096705 
3346.495760  	0.096385 
3348.424576  	0.095937 
3350.353392  	0.095688 
3352.282208  	0.095546 
3354.211024  	0.095228 
3356.139840  	0.094878 
3358.068656  	0.094649 
3359.997472  	0.094399 
3361.926288  	0.093837 
3363.855104  	0.093277 
3365.783920  	0.092896 
3367.712736  	0.092514 
3369.641552  	0.092207 
3371.570368  	0.091786 
3373.499184  	0.091320 
3375.428000  	0.090780 
3377.356816  	0.090386 
3379.285632  	0.090315 
3381.214448  	0.089961 
3383.143264  	0.089442 
3385.072080  	0.089012 
3387.000896  	0.088387 
3388.929712  	0.087866 
3390.858528  	0.087579 
3392.787344  	0.087059 
3394.716160  	0.086531 
3396.644976  	0.086246 
3398.573792  	0.085943 
3400.502608  	0.085522 
3402.431424  	0.084832 
3404.360240  	0.084285 
3406.289056  	0.083820 
3408.217872  	0.083364 
3410.146688  	0.082854 
3412.075504  	0.082323 
3414.004320  	0.081850 
3415.933136  	0.081463 
3417.861952  	0.080766 
3419.790768  	0.080202 
3421.719584  	0.079761 
3423.648400  	0.079357 
3425.577216  	0.078659 
3427.506032  	0.078027 
3429.434848  	0.077557 
3431.363664  	0.076993 
3433.292480  	0.076365 
3435.221296  	0.075568 
3437.150112  	0.074849 
3439.078928  	0.074482 
3441.007744  	0.073901 
3442.936560  	0.073297 
3444.865376  	0.072928 
3446.794192  	0.072084 
3448.723008  	0.071049 
3450.651824  	0.070427 
3452.580640  	0.069734 
3454.509456  	0.069038 
3456.438272  	0.068402 
3458.367088  	0.067830 
3460.295904  	0.067203 
3462.224720  	0.066274 
3464.153536  	0.065474 
3466.082352  	0.064709 
3468.011168  	0.063520 
3469.939984  	0.062660 
3471.868800  	0.061975 
3473.797616  	0.061048 
3475.726432  	0.060259 
3477.655248  	0.059473 
3479.584064  	0.058906 
3481.512880  	0.058129 
3483.441696  	0.056811 
3485.370512  	0.056085 
3487.299328  	0.055439 
3489.228144  	0.054701 
3491.156960  	0.053722 
3493.085776  	0.052912 
3495.014592  	0.052219 
3496.943408  	0.051302 
3498.872224  	0.050592 
3500.801040  	0.050370 
3502.729856  	0.049406 
3504.658672  	0.047978 
3506.587488  	0.047749 
3508.516304  	0.047441 
3510.445120  	0.046245 
3512.373936  	0.045409 
3514.302752  	0.044814 
3516.231568  	0.044583 
3518.160384  	0.044086 
3520.089200  	0.043323 
3522.018016  	0.042699 
3523.946832  	0.042158 
3525.875648  	0.041509 
3527.804464  	0.040240 
3529.733280  	0.039240 
3531.662096  	0.038690 
3533.590912  	0.038377 
3535.519728  	0.038105 
3537.448544  	0.037387 
3539.377360  	0.036460 
3541.306176  	0.036024 
3543.234992  	0.035966 
3545.163808  	0.035675 
3547.092624  	0.034485 
3549.021440  	0.033453 
3550.950256  	0.032938 
3552.879072  	0.031795 
3554.807888  	0.031215 
3556.736704  	0.030821 
3558.665520  	0.030254 
3560.594336  	0.029653 
3562.523152  	0.029029 
3564.451968  	0.029095 
3566.380784  	0.028244 
3568.309600  	0.025761 
3570.238416  	0.025457 
3572.167232  	0.025350 
3574.096048  	0.024598 
3576.024864  	0.023795 
3577.953680  	0.023181 
3579.882496  	0.022345 
3581.811312  	0.021648 
3583.740128  	0.021495 
3585.668944  	0.021448 
3587.597760  	0.019012 
3589.526576  	0.017324 
3591.455392  	0.017743 
3593.384208  	0.017500 
3595.313024  	0.016129 
3597.241840  	0.015100 
3599.170656  	0.014156 
3601.099472  	0.012759 
3603.028288  	0.012516 
3604.957104  	0.012893 
3606.885920  	0.012144 
3608.814736  	0.010099 
3610.743552  	0.009714 
3612.672368  	0.008586 
3614.601184  	0.007192 
3616.530000  	0.007716 
3618.458816  	0.005531 
3620.387632  	0.002749 
3622.316448  	0.003042 
3624.245264  	0.003617 
3626.174080  	0.004064 
3628.102896  	0.001070 
3630.031712  	-0.004329 
3631.960528  	-0.001803 
3633.889344  	-0.001710 
3635.818160  	-0.002506 
3637.746976  	-0.003245 
3639.675792  	-0.003820 
3641.604608  	-0.004155 
3643.533424  	-0.004380 
3645.462240  	-0.004103 
3647.391056  	-0.006725 
3649.319872  	-0.012155 
3651.248688  	-0.014971 
3653.177504  	-0.011395 
3655.106320  	-0.010973 
3657.035136  	-0.014481 
3658.963952  	-0.014289 
3660.892768  	-0.013971 
3662.821584  	-0.014158 
3664.750400  	-0.014086 
3666.679216  	-0.013385 
3668.608032  	-0.014815 
3670.536848  	-0.019435 
3672.465664  	-0.017001 
3674.394480  	-0.016972 
3676.323296  	-0.023711 
3678.252112  	-0.020019 
3680.180928  	-0.018095 
3682.109744  	-0.017121 
3684.038560  	-0.016619 
3685.967376  	-0.015662 
3687.896192  	-0.017984 
3689.825008  	-0.022137 
3691.753824  	-0.021232 
3693.682640  	-0.018668 
3695.611456  	-0.017417 
3697.540272  	-0.016729 
3699.469088  	-0.015515 
3701.397904  	-0.016710 
3703.326720  	-0.017238 
3705.255536  	-0.015157 
3707.184352  	-0.014077 
3709.113168  	-0.015071 
3711.041984  	-0.018009 
3712.970800  	-0.018532 
3714.899616  	-0.015336 
3716.828432  	-0.013648 
3718.757248  	-0.014002 
3720.686064  	-0.014506 
3722.614880  	-0.015128 
3724.543696  	-0.014538 
3726.472512  	-0.015238 
3728.401328  	-0.014882 
3730.330144  	-0.013926 
3732.258960  	-0.015462 
3734.187776  	-0.015483 
3736.116592  	-0.017939 
3738.045408  	-0.017690 
3739.974224  	-0.015017 
3741.903040  	-0.012412 
3743.831856  	-0.014633 
3745.760672  	-0.018560 
3747.689488  	-0.014753 
3749.618304  	-0.016900 
3751.547120  	-0.020731 
3753.475936  	-0.019311 
3755.404752  	-0.015501 
3757.333568  	-0.014654 
3759.262384  	-0.015895 
3761.191200  	-0.016281 
3763.120016  	-0.013801 
3765.048832  	-0.014451 
3766.977648  	-0.014622 
3768.906464  	-0.014861 
3770.835280  	-0.016586 
3772.764096  	-0.015103 
3774.692912  	-0.014009 
3776.621728  	-0.013529 
3778.550544  	-0.014703 
3780.479360  	-0.016493 
3782.408176  	-0.014755 
3784.336992  	-0.014843 
3786.265808  	-0.015065 
3788.194624  	-0.014488 
3790.123440  	-0.014344 
3792.052256  	-0.014213 
3793.981072  	-0.013556 
3795.909888  	-0.014839 
3797.838704  	-0.015094 
3799.767520  	-0.014150 
3801.696336  	-0.019228 
3803.625152  	-0.017795 
3805.553968  	-0.015238 
3807.482784  	-0.018053 
3809.411600  	-0.016031 
3811.340416  	-0.013967 
3813.269232  	-0.012670 
3815.198048  	-0.014847 
3817.126864  	-0.017475 
3819.055680  	-0.014736 
3820.984496  	-0.018447 
3822.913312  	-0.018886 
3824.842128  	-0.015186 
3826.770944  	-0.015634 
3828.699760  	-0.014827 
3830.628576  	-0.014525 
3832.557392  	-0.015451 
3834.486208  	-0.014830 
3836.415024  	-0.015379 
3838.343840  	-0.017593 
3840.272656  	-0.017702 
3842.201472  	-0.016235 
3844.130288  	-0.016285 
3846.059104  	-0.015158 
3847.987920  	-0.013500 
3849.916736  	-0.012427 
3851.845552  	-0.013548 
3853.774368  	-0.021730 
3855.703184  	-0.020195 
3857.632000  	-0.016152 
3859.560816  	-0.013994 
3861.489632  	-0.013767 
3863.418448  	-0.014804 
3865.347264  	-0.016170 
3867.276080  	-0.013920 
3869.204896  	-0.015022 
3871.133712  	-0.017242 
3873.062528  	-0.015292 
3874.991344  	-0.016225 
3876.920160  	-0.013908 
3878.848976  	-0.012784 
3880.777792  	-0.015135 
3882.706608  	-0.014298 
3884.635424  	-0.013828 
3886.564240  	-0.016248 
3888.493056  	-0.014104 
3890.421872  	-0.014009 
3892.350688  	-0.016202 
3894.279504  	-0.015098 
3896.208320  	-0.013193 
3898.137136  	-0.012712 
3900.065952  	-0.013607 
3901.994768  	-0.013763 
3903.923584  	-0.015270 
3905.852400  	-0.016239 
3907.781216  	-0.015148 
3909.710032  	-0.014305 
3911.638848  	-0.014205 
3913.567664  	-0.013769 
3915.496480  	-0.013135 
3917.425296  	-0.013959 
3919.354112  	-0.014666 
3921.282928  	-0.014363 
3923.211744  	-0.013558 
3925.140560  	-0.014100 
3927.069376  	-0.013926 
3928.998192  	-0.013445 
3930.927008  	-0.013518 
3932.855824  	-0.014063 
3934.784640  	-0.014234 
3936.713456  	-0.014020 
3938.642272  	-0.013796 
3940.571088  	-0.013169 
3942.499904  	-0.013589 
3944.428720  	-0.014164 
3946.357536  	-0.013383 
3948.286352  	-0.013342 
3950.215168  	-0.014083 
3952.143984  	-0.014474 
3954.072800  	-0.014242 
3956.001616  	-0.014083 
3957.930432  	-0.014194 
3959.859248  	-0.013996 
3961.788064  	-0.014163 
3963.716880  	-0.014503 
3965.645696  	-0.014422 
3967.574512  	-0.014261 
3969.503328  	-0.014164 
3971.432144  	-0.014245 
3973.360960  	-0.014251 
3975.289776  	-0.014234 
3977.218592  	-0.014133 
3979.147408  	-0.014153 
3981.076224  	-0.014203 
3983.005040  	-0.014317 
3984.933856  	-0.014349 
3986.862672  	-0.014297 
3988.791488  	-0.014073 
3990.720304  	-0.013926 
3992.649120  	-0.013927 
3994.577936  	-0.014213 
3996.506752  	-0.014296 
3998.435568  	-0.014213 
4000.364384  	-0.014208 