##TITLE=No Description
##DATA TYPE=INFRARED SPECTRUM
##XUNITS=1/CM
##YUNITS=Abs
399.264912  	0.594399 
401.193728  	0.580137 
403.122544  	0.593571 
405.051360  	0.591542 
406.980176  	0.605162 
408.908992  	0.611203 
410.837808  	0.613822 
412.766624  	0.598624 
414.695440  	0.592036 
416.624256  	0.577787 
418.553072  	0.574228 
420.481888  	0.576401 
422.410704  	0.582153 
424.339520  	0.566696 
426.268336  	0.562621 
428.197152  	0.562016 
430.125968  	0.561141 
432.054784  	0.554298 
433.983600  	0.554954 
435.912416  	0.552631 
437.841232  	0.558484 
439.770048  	0.556753 
441.698864  	0.554388 
443.627680  	0.547640 
445.556496  	0.543942 
447.485312  	0.539428 
449.414128  	0.543005 
451.342944  	0.540317 
453.271760  	0.539047 
455.200576  	0.539176 
457.129392  	0.542620 
459.058208  	0.540417 
460.987024  	0.543735 
462.915840  	0.541127 
464.844656  	0.542374 
466.773472  	0.539857 
468.702288  	0.540868 
470.631104  	0.538746 
472.559920  	0.540761 
474.488736  	0.540604 
476.417552  	0.541306 
478.346368  	0.535373 
480.275184  	0.536435 
482.204000  	0.535904 
484.132816  	0.532470 
486.061632  	0.528846 
487.990448  	0.529557 
489.919264  	0.529580 
491.848080  	0.532384 
493.776896  	0.525964 
495.705712  	0.524090 
497.634528  	0.520224 
499.563344  	0.518304 
501.492160  	0.515866 
503.420976  	0.517762 
505.349792  	0.517856 
507.278608  	0.519171 
509.207424  	0.515551 
511.136240  	0.516182 
513.065056  	0.517847 
514.993872  	0.522612 
516.922688  	0.520368 
518.851504  	0.522342 
520.780320  	0.523321 
522.709136  	0.521636 
524.637952  	0.519528 
526.566768  	0.519810 
528.495584  	0.517717 
530.424400  	0.517540 
532.353216  	0.511828 
534.282032  	0.505970 
536.210848  	0.499494 
538.139664  	0.494500 
540.068480  	0.488778 
541.997296  	0.486522 
543.926112  	0.482552 
545.854928  	0.479549 
547.783744  	0.476607 
549.712560  	0.473243 
551.641376  	0.469160 
553.570192  	0.466288 
555.499008  	0.460822 
557.427824  	0.457181 
559.356640  	0.454491 
561.285456  	0.452111 
563.214272  	0.448303 
565.143088  	0.445184 
567.071904  	0.439641 
569.000720  	0.435828 
570.929536  	0.433019 
572.858352  	0.431004 
574.787168  	0.428993 
576.715984  	0.427283 
578.644800  	0.422723 
580.573616  	0.418597 
582.502432  	0.414283 
584.431248  	0.411426 
586.360064  	0.408079 
588.288880  	0.405171 
590.217696  	0.402727 
592.146512  	0.400734 
594.075328  	0.398055 
596.004144  	0.396589 
597.932960  	0.394489 
599.861776  	0.392963 
601.790592  	0.390511 
603.719408  	0.388965 
605.648224  	0.386870 
607.577040  	0.385314 
609.505856  	0.384054 
611.434672  	0.382820 
613.363488  	0.380833 
615.292304  	0.379479 
617.221120  	0.377519 
619.149936  	0.375827 
621.078752  	0.374305 
623.007568  	0.373061 
624.936384  	0.371133 
626.865200  	0.370044 
628.794016  	0.368531 
630.722832  	0.368068 
632.651648  	0.367829 
634.580464  	0.367469 
636.509280  	0.366967 
638.438096  	0.367190 
640.366912  	0.365872 
642.295728  	0.363852 
644.224544  	0.361791 
646.153360  	0.358764 
648.082176  	0.354152 
650.010992  	0.350330 
651.939808  	0.346469 
653.868624  	0.342634 
655.797440  	0.338826 
657.726256  	0.335330 
659.655072  	0.331735 
661.583888  	0.327962 
663.512704  	0.323758 
665.441520  	0.320764 
667.370336  	0.314460 
669.299152  	0.307803 
671.227968  	0.306464 
673.156784  	0.304185 
675.085600  	0.301722 
677.014416  	0.299388 
678.943232  	0.296972 
680.872048  	0.295220 
682.800864  	0.293457 
684.729680  	0.291475 
686.658496  	0.289687 
688.587312  	0.288655 
690.516128  	0.286977 
692.444944  	0.285436 
694.373760  	0.284645 
696.302576  	0.282604 
698.231392  	0.279815 
700.160208  	0.277366 
702.089024  	0.275322 
704.017840  	0.273189 
705.946656  	0.270711 
707.875472  	0.268428 
709.804288  	0.266200 
711.733104  	0.264129 
713.661920  	0.261991 
715.590736  	0.260489 
717.519552  	0.259644 
719.448368  	0.260071 
721.377184  	0.260398 
723.306000  	0.260516 
725.234816  	0.260280 
727.163632  	0.259410 
729.092448  	0.256894 
731.021264  	0.254040 
732.950080  	0.251224 
734.878896  	0.248186 
736.807712  	0.244924 
738.736528  	0.242553 
740.665344  	0.240747 
742.594160  	0.239063 
744.522976  	0.237326 
746.451792  	0.235525 
748.380608  	0.233770 
750.309424  	0.232205 
752.238240  	0.231047 
754.167056  	0.230231 
756.095872  	0.229118 
758.024688  	0.228365 
759.953504  	0.227797 
761.882320  	0.227888 
763.811136  	0.227929 
765.739952  	0.226944 
767.668768  	0.224971 
769.597584  	0.222595 
771.526400  	0.221064 
773.455216  	0.221987 
775.384032  	0.224803 
777.312848  	0.229119 
779.241664  	0.233093 
781.170480  	0.233942 
783.099296  	0.230752 
785.028112  	0.224989 
786.956928  	0.218977 
788.885744  	0.213938 
790.814560  	0.210227 
792.743376  	0.207916 
794.672192  	0.206695 
796.601008  	0.205505 
798.529824  	0.202655 
800.458640  	0.198486 
802.387456  	0.194797 
804.316272  	0.192776 
806.245088  	0.191535 
808.173904  	0.190643 
810.102720  	0.189750 
812.031536  	0.189487 
813.960352  	0.189627 
815.889168  	0.189505 
817.817984  	0.189331 
819.746800  	0.189426 
821.675616  	0.189220 
823.604432  	0.188986 
825.533248  	0.188773 
827.462064  	0.188180 
829.390880  	0.186949 
831.319696  	0.185519 
833.248512  	0.183776 
835.177328  	0.181446 
837.106144  	0.178674 
839.034960  	0.175479 
840.963776  	0.171768 
842.892592  	0.168154 
844.821408  	0.164832 
846.750224  	0.161871 
848.679040  	0.159271 
850.607856  	0.157111 
852.536672  	0.155368 
854.465488  	0.153706 
856.394304  	0.152182 
858.323120  	0.151021 
860.251936  	0.149350 
862.180752  	0.146972 
864.109568  	0.144214 
866.038384  	0.141675 
867.967200  	0.139648 
869.896016  	0.137770 
871.824832  	0.136731 
873.753648  	0.136274 
875.682464  	0.136445 
877.611280  	0.136878 
879.540096  	0.137670 
881.468912  	0.139368 
883.397728  	0.140455 
885.326544  	0.141355 
887.255360  	0.141500 
889.184176  	0.140288 
891.112992  	0.138164 
893.041808  	0.136225 
894.970624  	0.133784 
896.899440  	0.130657 
898.828256  	0.126949 
900.757072  	0.123281 
902.685888  	0.120265 
904.614704  	0.118470 
906.543520  	0.118424 
908.472336  	0.119668 
910.401152  	0.121957 
912.329968  	0.124710 
914.258784  	0.127628 
916.187600  	0.130290 
918.116416  	0.132603 
920.045232  	0.134096 
921.974048  	0.134801 
923.902864  	0.134901 
925.831680  	0.134728 
927.760496  	0.134686 
929.689312  	0.134837 
931.618128  	0.135515 
933.546944  	0.136152 
935.475760  	0.136257 
937.404576  	0.135884 
939.333392  	0.135427 
941.262208  	0.135399 
943.191024  	0.136707 
945.119840  	0.140144 
947.048656  	0.145668 
948.977472  	0.152805 
950.906288  	0.161578 
952.835104  	0.171484 
954.763920  	0.181902 
956.692736  	0.191848 
958.621552  	0.200433 
960.550368  	0.206347 
962.479184  	0.209163 
964.408000  	0.208391 
966.336816  	0.203895 
968.265632  	0.196044 
970.194448  	0.185399 
972.123264  	0.172984 
974.052080  	0.160039 
975.980896  	0.147392 
977.909712  	0.135512 
979.838528  	0.124890 
981.767344  	0.116000 
983.696160  	0.109162 
985.624976  	0.104768 
987.553792  	0.102934 
989.482608  	0.103644 
991.411424  	0.106611 
993.340240  	0.111103 
995.269056  	0.116824 
997.197872  	0.123158 
999.126688  	0.129574 
1001.055504  	0.136141 
1002.984320  	0.142739 
1004.913136  	0.149188 
1006.841952  	0.155123 
1008.770768  	0.160179 
1010.699584  	0.164033 
1012.628400  	0.166358 
1014.557216  	0.167254 
1016.486032  	0.167457 
1018.414848  	0.167269 
1020.343664  	0.166958 
1022.272480  	0.166266 
1024.201296  	0.165149 
1026.130112  	0.162119 
1028.058928  	0.160862 
1029.987744  	0.163712 
1031.916560  	0.165767 
1033.845376  	0.166856 
1035.774192  	0.167799 
1037.703008  	0.170387 
1039.631824  	0.176403 
1041.560640  	0.184695 
1043.489456  	0.195867 
1045.418272  	0.209671 
1047.347088  	0.225348 
1049.275904  	0.240438 
1051.204720  	0.252637 
1053.133536  	0.260601 
1055.062352  	0.264843 
1056.991168  	0.265491 
1058.919984  	0.266957 
1060.848800  	0.268155 
1062.777616  	0.266368 
1064.706432  	0.260782 
1066.635248  	0.255614 
1068.564064  	0.254111 
1070.492880  	0.249670 
1072.421696  	0.242105 
1074.350512  	0.236607 
1076.279328  	0.234722 
1078.208144  	0.236611 
1080.136960  	0.241333 
1082.065776  	0.247300 
1083.994592  	0.251743 
1085.923408  	0.253458 
1087.852224  	0.251464 
1089.781040  	0.247458 
1091.709856  	0.242316 
1093.638672  	0.234457 
1095.567488  	0.223557 
1097.496304  	0.211567 
1099.425120  	0.198952 
1101.353936  	0.186140 
1103.282752  	0.173487 
1105.211568  	0.161417 
1107.140384  	0.149886 
1109.069200  	0.138869 
1110.998016  	0.128750 
1112.926832  	0.119425 
1114.855648  	0.110678 
1116.784464  	0.102827 
1118.713280  	0.095648 
1120.642096  	0.088652 
1122.570912  	0.082088 
1124.499728  	0.075901 
1126.428544  	0.070539 
1128.357360  	0.065872 
1130.286176  	0.062127 
1132.214992  	0.058672 
1134.143808  	0.055793 
1136.072624  	0.053433 
1138.001440  	0.051450 
1139.930256  	0.049104 
1141.859072  	0.046787 
1143.787888  	0.044371 
1145.716704  	0.042256 
1147.645520  	0.040126 
1149.574336  	0.038484 
1151.503152  	0.037191 
1153.431968  	0.036543 
1155.360784  	0.036655 
1157.289600  	0.037503 
1159.218416  	0.038784 
1161.147232  	0.040658 
1163.076048  	0.042743 
1165.004864  	0.045028 
1166.933680  	0.047056 
1168.862496  	0.049326 
1170.791312  	0.051536 
1172.720128  	0.054350 
1174.648944  	0.056992 
1176.577760  	0.059659 
1178.506576  	0.062200 
1180.435392  	0.064767 
1182.364208  	0.067295 
1184.293024  	0.070335 
1186.221840  	0.073625 
1188.150656  	0.077226 
1190.079472  	0.081237 
1192.008288  	0.086325 
1193.937104  	0.092657 
1195.865920  	0.100123 
1197.794736  	0.108048 
1199.723552  	0.116748 
1201.652368  	0.125774 
1203.581184  	0.134889 
1205.510000  	0.144049 
1207.438816  	0.152940 
1209.367632  	0.161058 
1211.296448  	0.168231 
1213.225264  	0.174362 
1215.154080  	0.179247 
1217.082896  	0.182891 
1219.011712  	0.185295 
1220.940528  	0.187048 
1222.869344  	0.188178 
1224.798160  	0.188623 
1226.726976  	0.188421 
1228.655792  	0.187773 
1230.584608  	0.186401 
1232.513424  	0.184457 
1234.442240  	0.181835 
1236.371056  	0.178533 
1238.299872  	0.174011 
1240.228688  	0.167110 
1242.157504  	0.160000 
1244.086320  	0.153918 
1246.015136  	0.146447 
1247.943952  	0.138207 
1249.872768  	0.129878 
1251.801584  	0.122683 
1253.730400  	0.115497 
1255.659216  	0.108453 
1257.588032  	0.101878 
1259.516848  	0.095431 
1261.445664  	0.089376 
1263.374480  	0.084069 
1265.303296  	0.079613 
1267.232112  	0.075936 
1269.160928  	0.073111 
1271.089744  	0.071041 
1273.018560  	0.069927 
1274.947376  	0.069491 
1276.876192  	0.069503 
1278.805008  	0.069295 
1280.733824  	0.068191 
1282.662640  	0.066200 
1284.591456  	0.063843 
1286.520272  	0.061747 
1288.449088  	0.060329 
1290.377904  	0.059638 
1292.306720  	0.059758 
1294.235536  	0.059799 
1296.164352  	0.058873 
1298.093168  	0.056614 
1300.021984  	0.053785 
1301.950800  	0.050744 
1303.879616  	0.047889 
1305.808432  	0.044743 
1307.737248  	0.041576 
1309.666064  	0.038601 
1311.594880  	0.036366 
1313.523696  	0.034494 
1315.452512  	0.033337 
1317.381328  	0.032694 
1319.310144  	0.032475 
1321.238960  	0.032585 
1323.167776  	0.033202 
1325.096592  	0.034018 
1327.025408  	0.034780 
1328.954224  	0.034883 
1330.883040  	0.034458 
1332.811856  	0.033664 
1334.740672  	0.033146 
1336.669488  	0.032949 
1338.598304  	0.032951 
1340.527120  	0.031629 
1342.455936  	0.030215 
1344.384752  	0.029820 
1346.313568  	0.030016 
1348.242384  	0.030572 
1350.171200  	0.031744 
1352.100016  	0.033358 
1354.028832  	0.035288 
1355.957648  	0.037076 
1357.886464  	0.039197 
1359.815280  	0.041495 
1361.744096  	0.043732 
1363.672912  	0.044879 
1365.601728  	0.045966 
1367.530544  	0.047226 
1369.459360  	0.047646 
1371.388176  	0.047604 
1373.316992  	0.046520 
1375.245808  	0.043235 
1377.174624  	0.040567 
1379.103440  	0.037674 
1381.032256  	0.034736 
1382.961072  	0.032504 
1384.889888  	0.031848 
1386.818704  	0.031229 
1388.747520  	0.029380 
1390.676336  	0.027152 
1392.605152  	0.024126 
1394.533968  	0.022192 
1396.462784  	0.024807 
1398.391600  	0.025957 
1400.320416  	0.025156 
1402.249232  	0.025523 
1404.178048  	0.026127 
1406.106864  	0.026704 
1408.035680  	0.028538 
1409.964496  	0.030958 
1411.893312  	0.033736 
1413.822128  	0.036731 
1415.750944  	0.040427 
1417.679760  	0.042810 
1419.608576  	0.042259 
1421.537392  	0.042764 
1423.466208  	0.043066 
1425.395024  	0.041278 
1427.323840  	0.040102 
1429.252656  	0.037864 
1431.181472  	0.036072 
1433.110288  	0.035956 
1435.039104  	0.036784 
1436.967920  	0.035788 
1438.896736  	0.036351 
1440.825552  	0.037563 
1442.754368  	0.038126 
1444.683184  	0.038346 
1446.612000  	0.038329 
1448.540816  	0.037134 
1450.469632  	0.037491 
1452.398448  	0.038350 
1454.327264  	0.039702 
1456.256080  	0.039380 
1458.184896  	0.036344 
1460.113712  	0.037589 
1462.042528  	0.039443 
1463.971344  	0.039376 
1465.900160  	0.039517 
1467.828976  	0.042201 
1469.757792  	0.045796 
1471.686608  	0.048946 
1473.615424  	0.054107 
1475.544240  	0.060452 
1477.473056  	0.065901 
1479.401872  	0.069939 
1481.330688  	0.073121 
1483.259504  	0.075183 
1485.188320  	0.076876 
1487.117136  	0.076927 
1489.045952  	0.076104 
1490.974768  	0.072667 
1492.903584  	0.070841 
1494.832400  	0.068209 
1496.761216  	0.061743 
1498.690032  	0.055549 
1500.618848  	0.051518 
1502.547664  	0.048273 
1504.476480  	0.045123 
1506.405296  	0.038507 
1508.334112  	0.034698 
1510.262928  	0.035036 
1512.191744  	0.033496 
1514.120560  	0.032778 
1516.049376  	0.032309 
1517.978192  	0.031482 
1519.907008  	0.033231 
1521.835824  	0.033256 
1523.764640  	0.037135 
1525.693456  	0.041264 
1527.622272  	0.043314 
1529.551088  	0.044224 
1531.479904  	0.044341 
1533.408720  	0.040293 
1535.337536  	0.037216 
1537.266352  	0.036346 
1539.195168  	0.029642 
1541.123984  	0.022027 
1543.052800  	0.023894 
1544.981616  	0.023984 
1546.910432  	0.023598 
1548.839248  	0.024088 
1550.768064  	0.023993 
1552.696880  	0.024231 
1554.625696  	0.024825 
1556.554512  	0.025705 
1558.483328  	0.023679 
1560.412144  	0.025754 
1562.340960  	0.033105 
1564.269776  	0.037255 
1566.198592  	0.042428 
1568.127408  	0.046786 
1570.056224  	0.051354 
1571.985040  	0.058169 
1573.913856  	0.063299 
1575.842672  	0.064224 
1577.771488  	0.066501 
1579.700304  	0.068531 
1581.629120  	0.068394 
1583.557936  	0.067807 
1585.486752  	0.068627 
1587.415568  	0.070888 
1589.344384  	0.075088 
1591.273200  	0.080734 
1593.202016  	0.087810 
1595.130832  	0.095163 
1597.059648  	0.103047 
1598.988464  	0.109832 
1600.917280  	0.115757 
1602.846096  	0.119615 
1604.774912  	0.122223 
1606.703728  	0.122596 
1608.632544  	0.121710 
1610.561360  	0.119587 
1612.490176  	0.118260 
1614.418992  	0.116561 
1616.347808  	0.113503 
1618.276624  	0.113804 
1620.205440  	0.118541 
1622.134256  	0.121500 
1624.063072  	0.126658 
1625.991888  	0.133736 
1627.920704  	0.141757 
1629.849520  	0.151402 
1631.778336  	0.161268 
1633.707152  	0.168286 
1635.635968  	0.175343 
1637.564784  	0.185706 
1639.493600  	0.194508 
1641.422416  	0.200295 
1643.351232  	0.204942 
1645.280048  	0.206032 
1647.208864  	0.205173 
1649.137680  	0.206914 
1651.066496  	0.208458 
1652.995312  	0.200714 
1654.924128  	0.199115 
1656.852944  	0.200532 
1658.781760  	0.198946 
1660.710576  	0.195502 
1662.639392  	0.189942 
1664.568208  	0.185824 
1666.497024  	0.183954 
1668.425840  	0.178489 
1670.354656  	0.171067 
1672.283472  	0.168242 
1674.212288  	0.165529 
1676.141104  	0.160224 
1678.069920  	0.159677 
1679.998736  	0.158882 
1681.927552  	0.157872 
1683.856368  	0.152765 
1685.785184  	0.151159 
1687.714000  	0.153656 
1689.642816  	0.153118 
1691.571632  	0.151700 
1693.500448  	0.151185 
1695.429264  	0.146776 
1697.358080  	0.143230 
1699.286896  	0.141067 
1701.215712  	0.134877 
1703.144528  	0.135005 
1705.073344  	0.131120 
1707.002160  	0.124831 
1708.930976  	0.120651 
1710.859792  	0.114820 
1712.788608  	0.108216 
1714.717424  	0.099859 
1716.646240  	0.088715 
1718.575056  	0.074391 
1720.503872  	0.067111 
1722.432688  	0.060838 
1724.361504  	0.051664 
1726.290320  	0.044271 
1728.219136  	0.038125 
1730.147952  	0.032579 
1732.076768  	0.028187 
1734.005584  	0.020910 
1735.934400  	0.015752 
1737.863216  	0.016358 
1739.792032  	0.012714 
1741.720848  	0.011546 
1743.649664  	0.011107 
1745.578480  	0.010426 
1747.507296  	0.008922 
1749.436112  	0.007800 
1751.364928  	0.006251 
1753.293744  	0.005843 
1755.222560  	0.005985 
1757.151376  	0.005242 
1759.080192  	0.004760 
1761.009008  	0.004203 
1762.937824  	0.002532 
1764.866640  	0.003141 
1766.795456  	0.003619 
1768.724272  	0.003126 
1770.653088  	0.001611 
1772.581904  	-0.001055 
1774.510720  	-0.000410 
1776.439536  	0.001134 
1778.368352  	0.001494 
1780.297168  	0.000997 
1782.225984  	0.000463 
1784.154800  	0.000930 
1786.083616  	0.000244 
1788.012432  	0.000756 
1789.941248  	0.001224 
1791.870064  	-0.000254 
1793.798880  	-0.001854 
1795.727696  	-0.000336 
1797.656512  	-0.000418 
1799.585328  	-0.000507 
1801.514144  	-0.000534 
1803.442960  	-0.000576 
1805.371776  	-0.000977 
1807.300592  	-0.000663 
1809.229408  	-0.001018 
1811.158224  	-0.001489 
1813.087040  	-0.001933 
1815.015856  	-0.001468 
1816.944672  	-0.001323 
1818.873488  	-0.001187 
1820.802304  	-0.001344 
1822.731120  	-0.000691 
1824.659936  	-0.001438 
1826.588752  	-0.001908 
1828.517568  	-0.002245 
1830.446384  	-0.003151 
1832.375200  	-0.002582 
1834.304016  	-0.001743 
1836.232832  	-0.001765 
1838.161648  	-0.001549 
1840.090464  	-0.001646 
1842.019280  	-0.000898 
1843.948096  	-0.002370 
1845.876912  	-0.002745 
1847.805728  	-0.002071 
1849.734544  	-0.002163 
1851.663360  	-0.002341 
1853.592176  	-0.002091 
1855.520992  	-0.002137 
1857.449808  	-0.001964 
1859.378624  	-0.002118 
1861.307440  	-0.002151 
1863.236256  	-0.002468 
1865.165072  	-0.002227 
1867.093888  	-0.002361 
1869.022704  	-0.002995 
1870.951520  	-0.003306 
1872.880336  	-0.002511 
1874.809152  	-0.002713 
1876.737968  	-0.002624 
1878.666784  	-0.002738 
1880.595600  	-0.002262 
1882.524416  	-0.002721 
1884.453232  	-0.002769 
1886.382048  	-0.002924 
1888.310864  	-0.002644 
1890.239680  	-0.003268 
1892.168496  	-0.002693 
1894.097312  	-0.002745 
1896.026128  	-0.002789 
1897.954944  	-0.002862 
1899.883760  	-0.002497 
1901.812576  	-0.002936 
1903.741392  	-0.003157 
1905.670208  	-0.003236 
1907.599024  	-0.002668 
1909.527840  	-0.002801 
1911.456656  	-0.002429 
1913.385472  	-0.002433 
1915.314288  	-0.001835 
1917.243104  	-0.002300 
1919.171920  	-0.002664 
1921.100736  	-0.002409 
1923.029552  	-0.002091 
1924.958368  	-0.002478 
1926.887184  	-0.002506 
1928.816000  	-0.002865 
1930.744816  	-0.002722 
1932.673632  	-0.002967 
1934.602448  	-0.002822 
1936.531264  	-0.002738 
1938.460080  	-0.001995 
1940.388896  	-0.001987 
1942.317712  	-0.002145 
1944.246528  	-0.002984 
1946.175344  	-0.002129 
1948.104160  	-0.002334 
1950.032976  	-0.001961 
1951.961792  	-0.002263 
1953.890608  	-0.002301 
1955.819424  	-0.002695 
1957.748240  	-0.002128 
1959.677056  	-0.002777 
1961.605872  	-0.002199 
1963.534688  	-0.002070 
1965.463504  	-0.001355 
1967.392320  	-0.001789 
1969.321136  	-0.001621 
1971.249952  	-0.002088 
1973.178768  	-0.001096 
1975.107584  	-0.001930 
1977.036400  	-0.000486 
1978.965216  	0.000131 
1980.894032  	-0.000584 
1982.822848  	-0.001446 
1984.751664  	-0.000746 
1986.680480  	-0.002018 
1988.609296  	-0.001959 
1990.538112  	-0.001955 
1992.466928  	-0.001359 
1994.395744  	-0.002730 
1996.324560  	-0.003139 
1998.253376  	-0.003067 
2000.182192  	-0.003114 
2002.111008  	-0.002913 
2004.039824  	-0.001321 
2005.968640  	-0.001547 
2007.897456  	-0.001111 
2009.826272  	-0.001639 
2011.755088  	-0.001536 
2013.683904  	-0.001980 
2015.612720  	-0.001092 
2017.541536  	-0.001330 
2019.470352  	-0.001184 
2021.399168  	-0.002870 
2023.327984  	-0.002453 
2025.256800  	-0.001357 
2027.185616  	-0.000946 
2029.114432  	-0.001683 
2031.043248  	-0.001092 
2032.972064  	-0.000924 
2034.900880  	-0.000142 
2036.829696  	-0.001096 
2038.758512  	-0.000825 
2040.687328  	-0.001665 
2042.616144  	-0.001192 
2044.544960  	-0.001509 
2046.473776  	-0.000773 
2048.402592  	-0.001256 
2050.331408  	-0.001491 
2052.260224  	-0.002553 
2054.189040  	-0.002814 
2056.117856  	-0.002802 
2058.046672  	-0.002095 
2059.975488  	-0.002603 
2061.904304  	-0.002619 
2063.833120  	-0.002285 
2065.761936  	-0.002100 
2067.690752  	-0.003016 
2069.619568  	-0.002940 
2071.548384  	-0.002573 
2073.477200  	-0.002238 
2075.406016  	-0.001877 
2077.334832  	-0.001724 
2079.263648  	-0.002298 
2081.192464  	-0.002039 
2083.121280  	-0.002154 
2085.050096  	-0.002356 
2086.978912  	-0.002092 
2088.907728  	-0.001797 
2090.836544  	-0.002583 
2092.765360  	-0.002278 
2094.694176  	-0.001852 
2096.622992  	-0.001488 
2098.551808  	-0.001845 
2100.480624  	-0.001682 
2102.409440  	-0.002183 
2104.338256  	-0.002385 
2106.267072  	-0.001899 
2108.195888  	-0.001364 
2110.124704  	-0.001758 
2112.053520  	-0.001878 
2113.982336  	-0.002404 
2115.911152  	-0.002322 
2117.839968  	-0.002187 
2119.768784  	-0.001990 
2121.697600  	-0.002302 
2123.626416  	-0.002592 
2125.555232  	-0.002825 
2127.484048  	-0.002294 
2129.412864  	-0.002488 
2131.341680  	-0.002599 
2133.270496  	-0.002742 
2135.199312  	-0.001657 
2137.128128  	-0.000646 
2139.056944  	-0.000432 
2140.985760  	-0.000796 
2142.914576  	-0.000755 
2144.843392  	-0.001168 
2146.772208  	-0.001413 
2148.701024  	-0.001901 
2150.629840  	-0.000972 
2152.558656  	-0.000466 
2154.487472  	0.000178 
2156.416288  	0.000004 
2158.345104  	0.001240 
2160.273920  	0.002267 
2162.202736  	0.002750 
2164.131552  	0.001275 
2166.060368  	0.000598 
2167.989184  	0.000472 
2169.918000  	0.001302 
2171.846816  	0.000495 
2173.775632  	0.000770 
2175.704448  	0.000687 
2177.633264  	0.000793 
2179.562080  	-0.000179 
2181.490896  	-0.000289 
2183.419712  	-0.000843 
2185.348528  	-0.000533 
2187.277344  	-0.001213 
2189.206160  	-0.001892 
2191.134976  	-0.001892 
2193.063792  	-0.000659 
2194.992608  	-0.000496 
2196.921424  	-0.000603 
2198.850240  	-0.000895 
2200.779056  	-0.001077 
2202.707872  	-0.001612 
2204.636688  	-0.001425 
2206.565504  	-0.001173 
2208.494320  	-0.000954 
2210.423136  	-0.001490 
2212.351952  	-0.001246 
2214.280768  	-0.001655 
2216.209584  	-0.001746 
2218.138400  	-0.002220 
2220.067216  	-0.002144 
2221.996032  	-0.001964 
2223.924848  	-0.001099 
2225.853664  	-0.000773 
2227.782480  	-0.001068 
2229.711296  	-0.001948 
2231.640112  	-0.002414 
2233.568928  	-0.002568 
2235.497744  	-0.002016 
2237.426560  	-0.002391 
2239.355376  	-0.002277 
2241.284192  	-0.002237 
2243.213008  	-0.002284 
2245.141824  	-0.002712 
2247.070640  	-0.002503 
2248.999456  	-0.002511 
2250.928272  	-0.002674 
2252.857088  	-0.002968 
2254.785904  	-0.003062 
2256.714720  	-0.003729 
2258.643536  	-0.003983 
2260.572352  	-0.003915 
2262.501168  	-0.003400 
2264.429984  	-0.003259 
2266.358800  	-0.003126 
2268.287616  	-0.003487 
2270.216432  	-0.003619 
2272.145248  	-0.003247 
2274.074064  	-0.002949 
2276.002880  	-0.003006 
2277.931696  	-0.002771 
2279.860512  	-0.002742 
2281.789328  	-0.002590 
2283.718144  	-0.002870 
2285.646960  	-0.002896 
2287.575776  	-0.002844 
2289.504592  	-0.003008 
2291.433408  	-0.003061 
2293.362224  	-0.002886 
2295.291040  	-0.002652 
2297.219856  	-0.002328 
2299.148672  	-0.002464 
2301.077488  	-0.002137 
2303.006304  	-0.002044 
2304.935120  	-0.002064 
2306.863936  	-0.002089 
2308.792752  	-0.002081 
2310.721568  	-0.002411 
2312.650384  	-0.002779 
2314.579200  	-0.003486 
2316.508016  	-0.004155 
2318.436832  	-0.004818 
2320.365648  	-0.005688 
2322.294464  	-0.006851 
2324.223280  	-0.007931 
2326.152096  	-0.009488 
2328.080912  	-0.010894 
2330.009728  	-0.012362 
2331.938544  	-0.013884 
2333.867360  	-0.014894 
2335.796176  	-0.015683 
2337.724992  	-0.016798 
2339.653808  	-0.017043 
2341.582624  	-0.017129 
2343.511440  	-0.016822 
2345.440256  	-0.015140 
2347.369072  	-0.010868 
2349.297888  	-0.007762 
2351.226704  	-0.009490 
2353.155520  	-0.013953 
2355.084336  	-0.017144 
2357.013152  	-0.019629 
2358.941968  	-0.021147 
2360.870784  	-0.022519 
2362.799600  	-0.021904 
2364.728416  	-0.020998 
2366.657232  	-0.019302 
2368.586048  	-0.016951 
2370.514864  	-0.014299 
2372.443680  	-0.011711 
2374.372496  	-0.009010 
2376.301312  	-0.006708 
2378.230128  	-0.005036 
2380.158944  	-0.003995 
2382.087760  	-0.003364 
2384.016576  	-0.003290 
2385.945392  	-0.003522 
2387.874208  	-0.003833 
2389.803024  	-0.003912 
2391.731840  	-0.004122 
2393.660656  	-0.004174 
2395.589472  	-0.004138 
2397.518288  	-0.004072 
2399.447104  	-0.004159 
2401.375920  	-0.004089 
2403.304736  	-0.004200 
2405.233552  	-0.004185 
2407.162368  	-0.004332 
2409.091184  	-0.004224 
2411.020000  	-0.004118 
2412.948816  	-0.004062 
2414.877632  	-0.003939 
2416.806448  	-0.003873 
2418.735264  	-0.004038 
2420.664080  	-0.004059 
2422.592896  	-0.004100 
2424.521712  	-0.004046 
2426.450528  	-0.004177 
2428.379344  	-0.004005 
2430.308160  	-0.003776 
2432.236976  	-0.003712 
2434.165792  	-0.003774 
2436.094608  	-0.003875 
2438.023424  	-0.003830 
2439.952240  	-0.003494 
2441.881056  	-0.003704 
2443.809872  	-0.003881 
2445.738688  	-0.003693 
2447.667504  	-0.003248 
2449.596320  	-0.003346 
2451.525136  	-0.003279 
2453.453952  	-0.003214 
2455.382768  	-0.003183 
2457.311584  	-0.003325 
2459.240400  	-0.003540 
2461.169216  	-0.003730 
2463.098032  	-0.003826 
2465.026848  	-0.003573 
2466.955664  	-0.003425 
2468.884480  	-0.003736 
2470.813296  	-0.003891 
2472.742112  	-0.003705 
2474.670928  	-0.003455 
2476.599744  	-0.003807 
2478.528560  	-0.003905 
2480.457376  	-0.003771 
2482.386192  	-0.003656 
2484.315008  	-0.003495 
2486.243824  	-0.003473 
2488.172640  	-0.003593 
2490.101456  	-0.003362 
2492.030272  	-0.003084 
2493.959088  	-0.003110 
2495.887904  	-0.003206 
2497.816720  	-0.003107 
2499.745536  	-0.003037 
2501.674352  	-0.002963 
2503.603168  	-0.002803 
2505.531984  	-0.002665 
2507.460800  	-0.002763 
2509.389616  	-0.002665 
2511.318432  	-0.002593 
2513.247248  	-0.002706 
2515.176064  	-0.002859 
2517.104880  	-0.002745 
2519.033696  	-0.002813 
2520.962512  	-0.002667 
2522.891328  	-0.002420 
2524.820144  	-0.002409 
2526.748960  	-0.002611 
2528.677776  	-0.002397 
2530.606592  	-0.002214 
2532.535408  	-0.002367 
2534.464224  	-0.002562 
2536.393040  	-0.002459 
2538.321856  	-0.002159 
2540.250672  	-0.001888 
2542.179488  	-0.001837 
2544.108304  	-0.001795 
2546.037120  	-0.001806 
2547.965936  	-0.001739 
2549.894752  	-0.001748 
2551.823568  	-0.001895 
2553.752384  	-0.001662 
2555.681200  	-0.001299 
2557.610016  	-0.001346 
2559.538832  	-0.001351 
2561.467648  	-0.001286 
2563.396464  	-0.001139 
2565.325280  	-0.000987 
2567.254096  	-0.001115 
2569.182912  	-0.001094 
2571.111728  	-0.000968 
2573.040544  	-0.000913 
2574.969360  	-0.000812 
2576.898176  	-0.000657 
2578.826992  	-0.000569 
2580.755808  	-0.000679 
2582.684624  	-0.000561 
2584.613440  	-0.000424 
2586.542256  	-0.000398 
2588.471072  	-0.000333 
2590.399888  	-0.000236 
2592.328704  	-0.000270 
2594.257520  	-0.000261 
2596.186336  	-0.000136 
2598.115152  	-0.000085 
2600.043968  	-0.000244 
2601.972784  	-0.000137 
2603.901600  	0.000078 
2605.830416  	0.000246 
2607.759232  	0.000318 
2609.688048  	0.000328 
2611.616864  	0.000319 
2613.545680  	0.000610 
2615.474496  	0.000926 
2617.403312  	0.000974 
2619.332128  	0.001000 
2621.260944  	0.000923 
2623.189760  	0.000917 
2625.118576  	0.001121 
2627.047392  	0.001291 
2628.976208  	0.001351 
2630.905024  	0.001379 
2632.833840  	0.001424 
2634.762656  	0.001559 
2636.691472  	0.001623 
2638.620288  	0.001700 
2640.549104  	0.001871 
2642.477920  	0.001923 
2644.406736  	0.002035 
2646.335552  	0.002121 
2648.264368  	0.002297 
2650.193184  	0.002334 
2652.122000  	0.002441 
2654.050816  	0.002604 
2655.979632  	0.002709 
2657.908448  	0.002829 
2659.837264  	0.002997 
2661.766080  	0.003088 
2663.694896  	0.003169 
2665.623712  	0.003213 
2667.552528  	0.003374 
2669.481344  	0.003559 
2671.410160  	0.003621 
2673.338976  	0.003659 
2675.267792  	0.003876 
2677.196608  	0.004139 
2679.125424  	0.004276 
2681.054240  	0.004388 
2682.983056  	0.004525 
2684.911872  	0.004490 
2686.840688  	0.004504 
2688.769504  	0.004661 
2690.698320  	0.004780 
2692.627136  	0.004770 
2694.555952  	0.004856 
2696.484768  	0.004938 
2698.413584  	0.005001 
2700.342400  	0.005084 
2702.271216  	0.005272 
2704.200032  	0.005499 
2706.128848  	0.005550 
2708.057664  	0.005546 
2709.986480  	0.005719 
2711.915296  	0.005903 
2713.844112  	0.006047 
2715.772928  	0.006091 
2717.701744  	0.006213 
2719.630560  	0.006481 
2721.559376  	0.006597 
2723.488192  	0.006666 
2725.417008  	0.006896 
2727.345824  	0.007106 
2729.274640  	0.007180 
2731.203456  	0.007247 
2733.132272  	0.007426 
2735.061088  	0.007570 
2736.989904  	0.007673 
2738.918720  	0.007733 
2740.847536  	0.007792 
2742.776352  	0.007737 
2744.705168  	0.007864 
2746.633984  	0.008071 
2748.562800  	0.008132 
2750.491616  	0.008143 
2752.420432  	0.008332 
2754.349248  	0.008329 
2756.278064  	0.008234 
2758.206880  	0.008163 
2760.135696  	0.008129 
2762.064512  	0.008135 
2763.993328  	0.008195 
2765.922144  	0.008254 
2767.850960  	0.008289 
2769.779776  	0.008355 
2771.708592  	0.008456 
2773.637408  	0.008348 
2775.566224  	0.008193 
2777.495040  	0.008163 
2779.423856  	0.008223 
2781.352672  	0.008220 
2783.281488  	0.008243 
2785.210304  	0.008232 
2787.139120  	0.008280 
2789.067936  	0.008336 
2790.996752  	0.008327 
2792.925568  	0.008241 
2794.854384  	0.008300 
2796.783200  	0.008333 
2798.712016  	0.008251 
2800.640832  	0.008140 
2802.569648  	0.008186 
2804.498464  	0.008271 
2806.427280  	0.008263 
2808.356096  	0.008259 
2810.284912  	0.008366 
2812.213728  	0.008293 
2814.142544  	0.008222 
2816.071360  	0.008200 
2818.000176  	0.008099 
2819.928992  	0.008063 
2821.857808  	0.008007 
2823.786624  	0.007825 
2825.715440  	0.007703 
2827.644256  	0.007583 
2829.573072  	0.007433 
2831.501888  	0.007180 
2833.430704  	0.006863 
2835.359520  	0.006529 
2837.288336  	0.006199 
2839.217152  	0.005800 
2841.145968  	0.005486 
2843.074784  	0.005209 
2845.003600  	0.004790 
2846.932416  	0.004315 
2848.861232  	0.003923 
2850.790048  	0.003507 
2852.718864  	0.003006 
2854.647680  	0.002504 
2856.576496  	0.001997 
2858.505312  	0.001387 
2860.434128  	0.000880 
2862.362944  	0.000228 
2864.291760  	-0.000554 
2866.220576  	-0.001140 
2868.149392  	-0.001435 
2870.078208  	-0.001678 
2872.007024  	-0.001680 
2873.935840  	-0.001520 
2875.864656  	-0.001493 
2877.793472  	-0.001592 
2879.722288  	-0.001725 
2881.651104  	-0.002053 
2883.579920  	-0.002188 
2885.508736  	-0.002048 
2887.437552  	-0.001834 
2889.366368  	-0.001722 
2891.295184  	-0.001928 
2893.224000  	-0.002147 
2895.152816  	-0.002189 
2897.081632  	-0.002553 
2899.010448  	-0.004163 
2900.939264  	-0.005588 
2902.868080  	-0.004289 
2904.796896  	-0.003011 
2906.725712  	-0.002453 
2908.654528  	-0.001863 
2910.583344  	-0.001506 
2912.512160  	-0.001022 
2914.440976  	0.000057 
2916.369792  	0.000832 
2918.298608  	0.001372 
2920.227424  	0.001863 
2922.156240  	0.002505 
2924.085056  	0.003385 
2926.013872  	0.004333 
2927.942688  	0.005348 
2929.871504  	0.006404 
2931.800320  	0.007299 
2933.729136  	0.008093 
2935.657952  	0.008792 
2937.586768  	0.009437 
2939.515584  	0.010095 
2941.444400  	0.010452 
2943.373216  	0.010507 
2945.302032  	0.010740 
2947.230848  	0.010932 
2949.159664  	0.010685 
2951.088480  	0.010228 
2953.017296  	0.009771 
2954.946112  	0.009151 
2956.874928  	0.008504 
2958.803744  	0.007706 
2960.732560  	0.007059 
2962.661376  	0.006534 
2964.590192  	0.005735 
2966.519008  	0.004526 
2968.447824  	0.003460 
2970.376640  	0.002727 
2972.305456  	0.002303 
2974.234272  	0.002473 
2976.163088  	0.002758 
2978.091904  	0.002714 
2980.020720  	0.002727 
2981.949536  	0.002980 
2983.878352  	0.002786 
2985.807168  	0.001829 
2987.735984  	0.000792 
2989.664800  	0.001142 
2991.593616  	0.004204 
2993.522432  	0.006171 
2995.451248  	0.006705 
2997.380064  	0.007523 
2999.308880  	0.008685 
3001.237696  	0.010012 
3003.166512  	0.011487 
3005.095328  	0.012818 
3007.024144  	0.014156 
3008.952960  	0.015619 
3010.881776  	0.017099 
3012.810592  	0.018524 
3014.739408  	0.019795 
3016.668224  	0.020914 
3018.597040  	0.022205 
3020.525856  	0.023386 
3022.454672  	0.024416 
3024.383488  	0.025501 
3026.312304  	0.026533 
3028.241120  	0.027537 
3030.169936  	0.028420 
3032.098752  	0.029198 
3034.027568  	0.030076 
3035.956384  	0.031035 
3037.885200  	0.031921 
3039.814016  	0.032557 
3041.742832  	0.033225 
3043.671648  	0.033806 
3045.600464  	0.034445 
3047.529280  	0.035033 
3049.458096  	0.035571 
3051.386912  	0.036227 
3053.315728  	0.036912 
3055.244544  	0.037536 
3057.173360  	0.038086 
3059.102176  	0.038684 
3061.030992  	0.039391 
3062.959808  	0.040119 
3064.888624  	0.040844 
3066.817440  	0.041668 
3068.746256  	0.042565 
3070.675072  	0.043377 
3072.603888  	0.044052 
3074.532704  	0.044747 
3076.461520  	0.045500 
3078.390336  	0.046333 
3080.319152  	0.047092 
3082.247968  	0.047991 
3084.176784  	0.048775 
3086.105600  	0.049566 
3088.034416  	0.050360 
3089.963232  	0.051266 
3091.892048  	0.052024 
3093.820864  	0.052747 
3095.749680  	0.053593 
3097.678496  	0.054520 
3099.607312  	0.055382 
3101.536128  	0.056267 
3103.464944  	0.057204 
3105.393760  	0.057954 
3107.322576  	0.058715 
3109.251392  	0.059594 
3111.180208  	0.060302 
3113.109024  	0.061007 
3115.037840  	0.061746 
3116.966656  	0.062389 
3118.895472  	0.063096 
3120.824288  	0.063878 
3122.753104  	0.064633 
3124.681920  	0.065272 
3126.610736  	0.065886 
3128.539552  	0.066621 
3130.468368  	0.067491 
3132.397184  	0.068080 
3134.326000  	0.068761 
3136.254816  	0.069341 
3138.183632  	0.069997 
3140.112448  	0.070768 
3142.041264  	0.071466 
3143.970080  	0.071869 
3145.898896  	0.072303 
3147.827712  	0.073072 
3149.756528  	0.073886 
3151.685344  	0.074552 
3153.614160  	0.075377 
3155.542976  	0.076050 
3157.471792  	0.076536 
3159.400608  	0.077267 
3161.329424  	0.078063 
3163.258240  	0.078537 
3165.187056  	0.079014 
3167.115872  	0.079559 
3169.044688  	0.080115 
3170.973504  	0.080692 
3172.902320  	0.081231 
3174.831136  	0.081604 
3176.759952  	0.082110 
3178.688768  	0.082581 
3180.617584  	0.083163 
3182.546400  	0.083657 
3184.475216  	0.083958 
3186.404032  	0.083890 
3188.332848  	0.083950 
3190.261664  	0.084353 
3192.190480  	0.084662 
3194.119296  	0.084667 
3196.048112  	0.084652 
3197.976928  	0.084556 
3199.905744  	0.084698 
3201.834560  	0.084790 
3203.763376  	0.084776 
3205.692192  	0.084777 
3207.621008  	0.084611 
3209.549824  	0.084459 
3211.478640  	0.084551 
3213.407456  	0.084536 
3215.336272  	0.084306 
3217.265088  	0.084167 
3219.193904  	0.084093 
3221.122720  	0.083932 
3223.051536  	0.083651 
3224.980352  	0.083426 
3226.909168  	0.083268 
3228.837984  	0.082987 
3230.766800  	0.082828 
3232.695616  	0.082856 
3234.624432  	0.082795 
3236.553248  	0.082742 
3238.482064  	0.082849 
3240.410880  	0.082880 
3242.339696  	0.082839 
3244.268512  	0.082693 
3246.197328  	0.082836 
3248.126144  	0.083198 
3250.054960  	0.083284 
3251.983776  	0.083368 
3253.912592  	0.083592 
3255.841408  	0.083958 
3257.770224  	0.084433 
3259.699040  	0.084655 
3261.627856  	0.084717 
3263.556672  	0.084941 
3265.485488  	0.085166 
3267.414304  	0.085419 
3269.343120  	0.085765 
3271.271936  	0.085997 
3273.200752  	0.086052 
3275.129568  	0.086253 
3277.058384  	0.086605 
3278.987200  	0.086826 
3280.916016  	0.087121 
3282.844832  	0.087307 
3284.773648  	0.087461 
3286.702464  	0.087708 
3288.631280  	0.088098 
3290.560096  	0.088528 
3292.488912  	0.088774 
3294.417728  	0.089002 
3296.346544  	0.089497 
3298.275360  	0.089814 
3300.204176  	0.090055 
3302.132992  	0.090425 
3304.061808  	0.090763 
3305.990624  	0.091200 
3307.919440  	0.091736 
3309.848256  	0.091977 
3311.777072  	0.092217 
3313.705888  	0.092563 
3315.634704  	0.093231 
3317.563520  	0.093711 
3319.492336  	0.093902 
3321.421152  	0.094018 
3323.349968  	0.094308 
3325.278784  	0.094501 
3327.207600  	0.094487 
3329.136416  	0.094522 
3331.065232  	0.094856 
3332.994048  	0.095181 
3334.922864  	0.095370 
3336.851680  	0.095329 
3338.780496  	0.095183 
3340.709312  	0.095068 
3342.638128  	0.094921 
3344.566944  	0.094560 
3346.495760  	0.094119 
3348.424576  	0.093888 
3350.353392  	0.093735 
3352.282208  	0.093377 
3354.211024  	0.093074 
3356.139840  	0.092874 
3358.068656  	0.092571 
3359.997472  	0.092195 
3361.926288  	0.091853 
3363.855104  	0.091532 
3365.783920  	0.091154 
3367.712736  	0.090765 
3369.641552  	0.090287 
3371.570368  	0.089727 
3373.499184  	0.089219 
3375.428000  	0.088825 
3377.356816  	0.088606 
3379.285632  	0.088529 
3381.214448  	0.088035 
3383.143264  	0.087493 
3385.072080  	0.087227 
3387.000896  	0.086893 
3388.929712  	0.086277 
3390.858528  	0.085801 
3392.787344  	0.085421 
3394.716160  	0.084956 
3396.644976  	0.084790 
3398.573792  	0.084477 
3400.502608  	0.083988 
3402.431424  	0.083454 
3404.360240  	0.082689 
3406.289056  	0.081982 
3408.217872  	0.081598 
3410.146688  	0.081085 
3412.075504  	0.080575 
3414.004320  	0.080145 
3415.933136  	0.079920 
3417.861952  	0.079452 
3419.790768  	0.078768 
3421.719584  	0.078078 
3423.648400  	0.077687 
3425.577216  	0.077234 
3427.506032  	0.076577 
3429.434848  	0.075991 
3431.363664  	0.075239 
3433.292480  	0.074676 
3435.221296  	0.074194 
3437.150112  	0.073484 
3439.078928  	0.073014 
3441.007744  	0.072524 
3442.936560  	0.071987 
3444.865376  	0.071478 
3446.794192  	0.070430 
3448.723008  	0.069458 
3450.651824  	0.069073 
3452.580640  	0.068547 
3454.509456  	0.067905 
3456.438272  	0.067293 
3458.367088  	0.066733 
3460.295904  	0.065949 
3462.224720  	0.064896 
3464.153536  	0.063951 
3466.082352  	0.063436 
3468.011168  	0.062736 
3469.939984  	0.061850 
3471.868800  	0.061121 
3473.797616  	0.060212 
3475.726432  	0.059295 
3477.655248  	0.058691 
3479.584064  	0.058217 
3481.512880  	0.057305 
3483.441696  	0.056068 
3485.370512  	0.055371 
3487.299328  	0.054440 
3489.228144  	0.053695 
3491.156960  	0.052957 
3493.085776  	0.052195 
3495.014592  	0.051344 
3496.943408  	0.050593 
3498.872224  	0.050066 
3500.801040  	0.049814 
3502.729856  	0.048971 
3504.658672  	0.047704 
3506.587488  	0.047231 
3508.516304  	0.046734 
3510.445120  	0.045654 
3512.373936  	0.044808 
3514.302752  	0.044072 
3516.231568  	0.043769 
3518.160384  	0.043403 
3520.089200  	0.042828 
3522.018016  	0.042239 
3523.946832  	0.041625 
3525.875648  	0.041013 
3527.804464  	0.039843 
3529.733280  	0.038953 
3531.662096  	0.038309 
3533.590912  	0.037788 
3535.519728  	0.037404 
3537.448544  	0.036706 
3539.377360  	0.035881 
3541.306176  	0.035372 
3543.234992  	0.035344 
3545.163808  	0.035305 
3547.092624  	0.034360 
3549.021440  	0.033130 
3550.950256  	0.032456 
3552.879072  	0.031420 
3554.807888  	0.030851 
3556.736704  	0.030468 
3558.665520  	0.030132 
3560.594336  	0.029602 
3562.523152  	0.028891 
3564.451968  	0.028856 
3566.380784  	0.028297 
3568.309600  	0.025871 
3570.238416  	0.025284 
3572.167232  	0.025288 
3574.096048  	0.024458 
3576.024864  	0.023488 
3577.953680  	0.023101 
3579.882496  	0.022536 
3581.811312  	0.021826 
3583.740128  	0.021591 
3585.668944  	0.021491 
3587.597760  	0.019464 
3589.526576  	0.017848 
3591.455392  	0.017849 
3593.384208  	0.017426 
3595.313024  	0.016295 
3597.241840  	0.015130 
3599.170656  	0.014000 
3601.099472  	0.012766 
3603.028288  	0.012522 
3604.957104  	0.012900 
3606.885920  	0.012276 
3608.814736  	0.010462 
3610.743552  	0.010127 
3612.672368  	0.009181 
3614.601184  	0.007682 
3616.530000  	0.007719 
3618.458816  	0.005700 
3620.387632  	0.003498 
3622.316448  	0.003902 
3624.245264  	0.004197 
3626.174080  	0.004262 
3628.102896  	0.001626 
3630.031712  	-0.003148 
3631.960528  	-0.001093 
3633.889344  	-0.001181 
3635.818160  	-0.002153 
3637.746976  	-0.002884 
3639.675792  	-0.003343 
3641.604608  	-0.003543 
3643.533424  	-0.003745 
3645.462240  	-0.003578 
3647.391056  	-0.006087 
3649.319872  	-0.011273 
3651.248688  	-0.013711 
3653.177504  	-0.010585 
3655.106320  	-0.010329 
3657.035136  	-0.013488 
3658.963952  	-0.013406 
3660.892768  	-0.013316 
3662.821584  	-0.013527 
3664.750400  	-0.013386 
3666.679216  	-0.013044 
3668.608032  	-0.014529 
3670.536848  	-0.018523 
3672.465664  	-0.016460 
3674.394480  	-0.016413 
3676.323296  	-0.021986 
3678.252112  	-0.018701 
3680.180928  	-0.017042 
3682.109744  	-0.016300 
3684.038560  	-0.015990 
3685.967376  	-0.015142 
3687.896192  	-0.017132 
3689.825008  	-0.020820 
3691.753824  	-0.020416 
3693.682640  	-0.018049 
3695.611456  	-0.016653 
3697.540272  	-0.015715 
3699.469088  	-0.014657 
3701.397904  	-0.015790 
3703.326720  	-0.016056 
3705.255536  	-0.014276 
3707.184352  	-0.013430 
3709.113168  	-0.014234 
3711.041984  	-0.016711 
3712.970800  	-0.017117 
3714.899616  	-0.014391 
3716.828432  	-0.013035 
3718.757248  	-0.013379 
3720.686064  	-0.013879 
3722.614880  	-0.014460 
3724.543696  	-0.013982 
3726.472512  	-0.014419 
3728.401328  	-0.014041 
3730.330144  	-0.013408 
3732.258960  	-0.014817 
3734.187776  	-0.015001 
3736.116592  	-0.016839 
3738.045408  	-0.016254 
3739.974224  	-0.013899 
3741.903040  	-0.011981 
3743.831856  	-0.014301 
3745.760672  	-0.017640 
3747.689488  	-0.014444 
3749.618304  	-0.016441 
3751.547120  	-0.019285 
3753.475936  	-0.017666 
3755.404752  	-0.014463 
3757.333568  	-0.013940 
3759.262384  	-0.015024 
3761.191200  	-0.015173 
3763.120016  	-0.012850 
3765.048832  	-0.013375 
3766.977648  	-0.013692 
3768.906464  	-0.014043 
3770.835280  	-0.015565 
3772.764096  	-0.014308 
3774.692912  	-0.013204 
3776.621728  	-0.012652 
3778.550544  	-0.013813 
3780.479360  	-0.015424 
3782.408176  	-0.013815 
3784.336992  	-0.013891 
3786.265808  	-0.014094 
3788.194624  	-0.013540 
3790.123440  	-0.013372 
3792.052256  	-0.013348 
3793.981072  	-0.012932 
3795.909888  	-0.014197 
3797.838704  	-0.014249 
3799.767520  	-0.013529 
3801.696336  	-0.017727 
3803.625152  	-0.016283 
3805.553968  	-0.014286 
3807.482784  	-0.016563 
3809.411600  	-0.014880 
3811.340416  	-0.013290 
3813.269232  	-0.012392 
3815.198048  	-0.014337 
3817.126864  	-0.016541 
3819.055680  	-0.014234 
3820.984496  	-0.017484 
3822.913312  	-0.017470 
3824.842128  	-0.014166 
3826.770944  	-0.014774 
3828.699760  	-0.014053 
3830.628576  	-0.013726 
3832.557392  	-0.014555 
3834.486208  	-0.014200 
3836.415024  	-0.014839 
3838.343840  	-0.016723 
3840.272656  	-0.016645 
3842.201472  	-0.015217 
3844.130288  	-0.015192 
3846.059104  	-0.014197 
3847.987920  	-0.012773 
3849.916736  	-0.012073 
3851.845552  	-0.013502 
3853.774368  	-0.020390 
3855.703184  	-0.018667 
3857.632000  	-0.015154 
3859.560816  	-0.013260 
3861.489632  	-0.013051 
3863.418448  	-0.013927 
3865.347264  	-0.014974 
3867.276080  	-0.013155 
3869.204896  	-0.014035 
3871.133712  	-0.015689 
3873.062528  	-0.014204 
3874.991344  	-0.015248 
3876.920160  	-0.013305 
3878.848976  	-0.012253 
3880.777792  	-0.013981 
3882.706608  	-0.013177 
3884.635424  	-0.012911 
3886.564240  	-0.015032 
3888.493056  	-0.013258 
3890.421872  	-0.013351 
3892.350688  	-0.015206 
3894.279504  	-0.014029 
3896.208320  	-0.012359 
3898.137136  	-0.011985 
3900.065952  	-0.012771 
3901.994768  	-0.012905 
3903.923584  	-0.014368 
3905.852400  	-0.015197 
3907.781216  	-0.013971 
3909.710032  	-0.013177 
3911.638848  	-0.013120 
3913.567664  	-0.012822 
3915.496480  	-0.012583 
3917.425296  	-0.013353 
3919.354112  	-0.013728 
3921.282928  	-0.013329 
3923.211744  	-0.012538 
3925.140560  	-0.013044 
3927.069376  	-0.013178 
3928.998192  	-0.012853 
3930.927008  	-0.012597 
3932.855824  	-0.012912 
3934.784640  	-0.013190 
3936.713456  	-0.013071 
3938.642272  	-0.012935 
3940.571088  	-0.012420 
3942.499904  	-0.012728 
3944.428720  	-0.013162 
3946.357536  	-0.012575 
3948.286352  	-0.012479 
3950.215168  	-0.012917 
3952.143984  	-0.013258 
3954.072800  	-0.013178 
3956.001616  	-0.012999 
3957.930432  	-0.012951 
3959.859248  	-0.012884 
3961.788064  	-0.013024 
3963.716880  	-0.013440 
3965.645696  	-0.013502 
3967.574512  	-0.013235 
3969.503328  	-0.013057 
3971.432144  	-0.013122 
3973.360960  	-0.013194 
3975.289776  	-0.013160 
3977.218592  	-0.013108 
3979.147408  	-0.013167 
3981.076224  	-0.013239 
3983.005040  	-0.013237 
3984.933856  	-0.013224 
3986.862672  	-0.013272 
3988.791488  	-0.013121 
3990.720304  	-0.012940 
3992.649120  	-0.013043 
3994.577936  	-0.013367 
3996.506752  	-0.013278 
3998.435568  	-0.013195 
4000.364384  	-0.013262 