##TITLE=No Description
##DATA TYPE=INFRARED SPECTRUM
##XUNITS=1/CM
##YUNITS=Abs
399.264912  	0.664094 
401.193728  	0.634828 
403.122544  	0.632502 
405.051360  	0.626256 
406.980176  	0.633179 
408.908992  	0.625953 
410.837808  	0.625746 
412.766624  	0.607318 
414.695440  	0.592538 
416.624256  	0.586599 
418.553072  	0.606166 
420.481888  	0.596669 
422.410704  	0.595586 
424.339520  	0.582790 
426.268336  	0.581484 
428.197152  	0.574831 
430.125968  	0.574090 
432.054784  	0.566604 
433.983600  	0.558825 
435.912416  	0.552221 
437.841232  	0.560783 
439.770048  	0.563519 
441.698864  	0.563983 
443.627680  	0.554003 
445.556496  	0.550277 
447.485312  	0.546218 
449.414128  	0.550513 
451.342944  	0.548994 
453.271760  	0.545704 
455.200576  	0.545369 
457.129392  	0.552022 
459.058208  	0.543253 
460.987024  	0.540611 
462.915840  	0.539569 
464.844656  	0.541675 
466.773472  	0.539419 
468.702288  	0.541700 
470.631104  	0.537956 
472.559920  	0.534296 
474.488736  	0.533344 
476.417552  	0.538391 
478.346368  	0.528996 
480.275184  	0.526638 
482.204000  	0.520141 
484.132816  	0.517237 
486.061632  	0.521453 
487.990448  	0.525037 
489.919264  	0.518405 
491.848080  	0.517417 
493.776896  	0.515535 
495.705712  	0.513849 
497.634528  	0.511303 
499.563344  	0.517687 
501.492160  	0.517526 
503.420976  	0.515926 
505.349792  	0.510289 
507.278608  	0.510352 
509.207424  	0.511833 
511.136240  	0.513857 
513.065056  	0.511153 
514.993872  	0.511243 
516.922688  	0.510954 
518.851504  	0.512622 
520.780320  	0.508939 
522.709136  	0.508569 
524.637952  	0.509516 
526.566768  	0.511146 
528.495584  	0.506116 
530.424400  	0.504207 
532.353216  	0.500806 
534.282032  	0.497857 
536.210848  	0.493952 
538.139664  	0.490899 
540.068480  	0.485289 
541.997296  	0.483368 
543.926112  	0.479181 
545.854928  	0.476042 
547.783744  	0.473547 
549.712560  	0.471255 
551.641376  	0.467131 
553.570192  	0.465178 
555.499008  	0.461712 
557.427824  	0.459143 
559.356640  	0.455757 
561.285456  	0.453155 
563.214272  	0.450480 
565.143088  	0.447836 
567.071904  	0.444221 
569.000720  	0.441658 
570.929536  	0.438457 
572.858352  	0.437325 
574.787168  	0.434792 
576.715984  	0.432757 
578.644800  	0.430023 
580.573616  	0.427628 
582.502432  	0.424270 
584.431248  	0.421740 
586.360064  	0.418129 
588.288880  	0.416646 
590.217696  	0.414067 
592.146512  	0.411041 
594.075328  	0.407891 
596.004144  	0.406376 
597.932960  	0.404472 
599.861776  	0.403125 
601.790592  	0.401024 
603.719408  	0.399486 
605.648224  	0.397397 
607.577040  	0.395817 
609.505856  	0.394065 
611.434672  	0.392400 
613.363488  	0.389352 
615.292304  	0.387453 
617.221120  	0.385474 
619.149936  	0.384541 
621.078752  	0.383297 
623.007568  	0.381995 
624.936384  	0.379705 
626.865200  	0.377273 
628.794016  	0.375113 
630.722832  	0.374342 
632.651648  	0.372970 
634.580464  	0.371696 
636.509280  	0.370534 
638.438096  	0.370487 
640.366912  	0.368722 
642.295728  	0.366200 
644.224544  	0.363496 
646.153360  	0.361063 
648.082176  	0.357309 
650.010992  	0.354236 
651.939808  	0.350545 
653.868624  	0.346834 
655.797440  	0.343253 
657.726256  	0.340535 
659.655072  	0.337437 
661.583888  	0.334520 
663.512704  	0.331124 
665.441520  	0.328770 
667.370336  	0.322670 
669.299152  	0.316585 
671.227968  	0.316275 
673.156784  	0.314061 
675.085600  	0.311219 
677.014416  	0.308557 
678.943232  	0.306009 
680.872048  	0.304516 
682.800864  	0.302781 
684.729680  	0.300992 
686.658496  	0.298819 
688.587312  	0.297170 
690.516128  	0.295465 
692.444944  	0.293919 
694.373760  	0.292145 
696.302576  	0.290272 
698.231392  	0.287840 
700.160208  	0.285003 
702.089024  	0.282812 
704.017840  	0.280835 
705.946656  	0.278166 
707.875472  	0.276078 
709.804288  	0.274071 
711.733104  	0.271946 
713.661920  	0.269607 
715.590736  	0.267564 
717.519552  	0.265982 
719.448368  	0.265136 
721.377184  	0.264038 
723.306000  	0.263483 
725.234816  	0.262590 
727.163632  	0.261389 
729.092448  	0.259297 
731.021264  	0.256603 
732.950080  	0.253659 
734.878896  	0.251173 
736.807712  	0.248680 
738.736528  	0.246546 
740.665344  	0.244667 
742.594160  	0.242628 
744.522976  	0.240630 
746.451792  	0.238805 
748.380608  	0.236953 
750.309424  	0.235164 
752.238240  	0.233438 
754.167056  	0.232124 
756.095872  	0.230580 
758.024688  	0.229359 
759.953504  	0.227836 
761.882320  	0.226821 
763.811136  	0.225830 
765.739952  	0.224354 
767.668768  	0.222001 
769.597584  	0.219644 
771.526400  	0.217684 
773.455216  	0.217191 
775.384032  	0.218016 
777.312848  	0.219265 
779.241664  	0.220047 
781.170480  	0.219343 
783.099296  	0.216705 
785.028112  	0.213082 
786.956928  	0.208411 
788.885744  	0.204204 
790.814560  	0.201312 
792.743376  	0.198886 
794.672192  	0.196924 
796.601008  	0.195315 
798.529824  	0.192604 
800.458640  	0.188899 
802.387456  	0.185841 
804.316272  	0.183656 
806.245088  	0.181737 
808.173904  	0.180346 
810.102720  	0.179019 
812.031536  	0.177619 
813.960352  	0.176511 
815.889168  	0.175535 
817.817984  	0.174269 
819.746800  	0.173163 
821.675616  	0.172201 
823.604432  	0.171090 
825.533248  	0.169836 
827.462064  	0.168462 
829.390880  	0.166659 
831.319696  	0.164744 
833.248512  	0.162752 
835.177328  	0.160655 
837.106144  	0.158430 
839.034960  	0.156059 
840.963776  	0.153275 
842.892592  	0.150523 
844.821408  	0.147664 
846.750224  	0.144968 
848.679040  	0.142495 
850.607856  	0.140758 
852.536672  	0.138945 
854.465488  	0.136872 
856.394304  	0.135131 
858.323120  	0.133701 
860.251936  	0.131839 
862.180752  	0.129714 
864.109568  	0.127258 
866.038384  	0.124956 
867.967200  	0.122850 
869.896016  	0.120717 
871.824832  	0.119393 
873.753648  	0.118599 
875.682464  	0.118544 
877.611280  	0.118059 
879.540096  	0.117523 
881.468912  	0.118200 
883.397728  	0.118428 
885.326544  	0.118617 
887.255360  	0.118254 
889.184176  	0.117038 
891.112992  	0.115260 
893.041808  	0.114022 
894.970624  	0.112605 
896.899440  	0.110405 
898.828256  	0.107698 
900.757072  	0.105067 
902.685888  	0.102904 
904.614704  	0.101738 
906.543520  	0.101497 
908.472336  	0.101815 
910.401152  	0.102907 
912.329968  	0.104171 
914.258784  	0.105657 
916.187600  	0.107009 
918.116416  	0.108061 
920.045232  	0.108633 
921.974048  	0.108843 
923.902864  	0.108611 
925.831680  	0.108131 
927.760496  	0.107723 
929.689312  	0.107468 
931.618128  	0.107412 
933.546944  	0.107327 
935.475760  	0.106982 
937.404576  	0.106538 
939.333392  	0.105979 
941.262208  	0.105506 
943.191024  	0.105648 
945.119840  	0.106842 
947.048656  	0.109395 
948.977472  	0.112854 
950.906288  	0.117042 
952.835104  	0.121843 
954.763920  	0.126923 
956.692736  	0.131828 
958.621552  	0.136077 
960.550368  	0.139033 
962.479184  	0.140455 
964.408000  	0.139992 
966.336816  	0.137311 
968.265632  	0.132532 
970.194448  	0.126049 
972.123264  	0.118489 
974.052080  	0.110430 
975.980896  	0.102421 
977.909712  	0.094809 
979.838528  	0.087693 
981.767344  	0.081608 
983.696160  	0.076680 
985.624976  	0.073298 
987.553792  	0.071441 
989.482608  	0.071062 
991.411424  	0.071835 
993.340240  	0.073423 
995.269056  	0.075815 
997.197872  	0.078587 
999.126688  	0.081433 
1001.055504  	0.084261 
1002.984320  	0.087337 
1004.913136  	0.090295 
1006.841952  	0.093163 
1008.770768  	0.095421 
1010.699584  	0.097137 
1012.628400  	0.098033 
1014.557216  	0.098081 
1016.486032  	0.097757 
1018.414848  	0.097615 
1020.343664  	0.097404 
1022.272480  	0.096578 
1024.201296  	0.095300 
1026.130112  	0.092064 
1028.058928  	0.090438 
1029.987744  	0.092567 
1031.916560  	0.093370 
1033.845376  	0.092913 
1035.774192  	0.091733 
1037.703008  	0.091593 
1039.631824  	0.094010 
1041.560640  	0.097915 
1043.489456  	0.103290 
1045.418272  	0.110222 
1047.347088  	0.118368 
1049.275904  	0.126767 
1051.204720  	0.134275 
1053.133536  	0.140112 
1055.062352  	0.143502 
1056.991168  	0.144455 
1058.919984  	0.147088 
1060.848800  	0.150100 
1062.777616  	0.149499 
1064.706432  	0.145300 
1066.635248  	0.142535 
1068.564064  	0.144134 
1070.492880  	0.142886 
1072.421696  	0.138409 
1074.350512  	0.135139 
1076.279328  	0.134240 
1078.208144  	0.135687 
1080.136960  	0.139650 
1082.065776  	0.144881 
1083.994592  	0.149484 
1085.923408  	0.152544 
1087.852224  	0.153556 
1089.781040  	0.153050 
1091.709856  	0.152153 
1093.638672  	0.149120 
1095.567488  	0.143458 
1097.496304  	0.136481 
1099.425120  	0.128935 
1101.353936  	0.121018 
1103.282752  	0.113126 
1105.211568  	0.105687 
1107.140384  	0.098416 
1109.069200  	0.091263 
1110.998016  	0.084767 
1112.926832  	0.079048 
1114.855648  	0.073830 
1116.784464  	0.068768 
1118.713280  	0.063985 
1120.642096  	0.059601 
1122.570912  	0.055495 
1124.499728  	0.051560 
1126.428544  	0.048093 
1128.357360  	0.044902 
1130.286176  	0.042171 
1132.214992  	0.039773 
1134.143808  	0.038083 
1136.072624  	0.036570 
1138.001440  	0.035204 
1139.930256  	0.033637 
1141.859072  	0.032269 
1143.787888  	0.030787 
1145.716704  	0.029237 
1147.645520  	0.027731 
1149.574336  	0.026662 
1151.503152  	0.025601 
1153.431968  	0.024983 
1155.360784  	0.024960 
1157.289600  	0.025376 
1159.218416  	0.026203 
1161.147232  	0.027188 
1163.076048  	0.028085 
1165.004864  	0.029269 
1166.933680  	0.030322 
1168.862496  	0.031573 
1170.791312  	0.032659 
1172.720128  	0.034231 
1174.648944  	0.035481 
1176.577760  	0.036840 
1178.506576  	0.038042 
1180.435392  	0.039441 
1182.364208  	0.040743 
1184.293024  	0.042265 
1186.221840  	0.044067 
1188.150656  	0.046086 
1190.079472  	0.048233 
1192.008288  	0.050865 
1193.937104  	0.054065 
1195.865920  	0.058024 
1197.794736  	0.062294 
1199.723552  	0.067059 
1201.652368  	0.072109 
1203.581184  	0.077267 
1205.510000  	0.082078 
1207.438816  	0.086842 
1209.367632  	0.091662 
1211.296448  	0.095915 
1213.225264  	0.099360 
1215.154080  	0.102201 
1217.082896  	0.104190 
1219.011712  	0.105594 
1220.940528  	0.106835 
1222.869344  	0.107838 
1224.798160  	0.108128 
1226.726976  	0.108126 
1228.655792  	0.108164 
1230.584608  	0.107777 
1232.513424  	0.107052 
1234.442240  	0.106091 
1236.371056  	0.104721 
1238.299872  	0.102621 
1240.228688  	0.098363 
1242.157504  	0.093960 
1244.086320  	0.090664 
1246.015136  	0.086089 
1247.943952  	0.080717 
1249.872768  	0.075336 
1251.801584  	0.070997 
1253.730400  	0.066641 
1255.659216  	0.062198 
1257.588032  	0.058065 
1259.516848  	0.054053 
1261.445664  	0.050397 
1263.374480  	0.047011 
1265.303296  	0.044181 
1267.232112  	0.041910 
1269.160928  	0.040223 
1271.089744  	0.038804 
1273.018560  	0.038101 
1274.947376  	0.038050 
1276.876192  	0.038198 
1278.805008  	0.038091 
1280.733824  	0.037451 
1282.662640  	0.036186 
1284.591456  	0.034673 
1286.520272  	0.033377 
1288.449088  	0.032541 
1290.377904  	0.031953 
1292.306720  	0.031903 
1294.235536  	0.031996 
1296.164352  	0.031616 
1298.093168  	0.030268 
1300.021984  	0.028561 
1301.950800  	0.026611 
1303.879616  	0.024822 
1305.808432  	0.022870 
1307.737248  	0.021044 
1309.666064  	0.019180 
1311.594880  	0.017837 
1313.523696  	0.016716 
1315.452512  	0.016036 
1317.381328  	0.015615 
1319.310144  	0.015285 
1321.238960  	0.015130 
1323.167776  	0.015476 
1325.096592  	0.016004 
1327.025408  	0.016433 
1328.954224  	0.016426 
1330.883040  	0.016114 
1332.811856  	0.015568 
1334.740672  	0.015364 
1336.669488  	0.015439 
1338.598304  	0.015537 
1340.527120  	0.014306 
1342.455936  	0.013146 
1344.384752  	0.012860 
1346.313568  	0.013030 
1348.242384  	0.013344 
1350.171200  	0.014010 
1352.100016  	0.014884 
1354.028832  	0.016056 
1355.957648  	0.016993 
1357.886464  	0.018186 
1359.815280  	0.019722 
1361.744096  	0.020983 
1363.672912  	0.020945 
1365.601728  	0.021572 
1367.530544  	0.022375 
1369.459360  	0.022180 
1371.388176  	0.022070 
1373.316992  	0.021001 
1375.245808  	0.018046 
1377.174624  	0.016606 
1379.103440  	0.014795 
1381.032256  	0.012751 
1382.961072  	0.011353 
1384.889888  	0.011371 
1386.818704  	0.011023 
1388.747520  	0.009658 
1390.676336  	0.008239 
1392.605152  	0.005667 
1394.533968  	0.003643 
1396.462784  	0.006359 
1398.391600  	0.007588 
1400.320416  	0.006397 
1402.249232  	0.006834 
1404.178048  	0.006907 
1406.106864  	0.006749 
1408.035680  	0.008220 
1409.964496  	0.010160 
1411.893312  	0.012194 
1413.822128  	0.014490 
1415.750944  	0.017587 
1417.679760  	0.019397 
1419.608576  	0.017966 
1421.537392  	0.018877 
1423.466208  	0.019734 
1425.395024  	0.018507 
1427.323840  	0.018300 
1429.252656  	0.016613 
1431.181472  	0.015415 
1433.110288  	0.015912 
1435.039104  	0.016733 
1436.967920  	0.014572 
1438.896736  	0.014858 
1440.825552  	0.016290 
1442.754368  	0.016710 
1444.683184  	0.016934 
1446.612000  	0.016788 
1448.540816  	0.015189 
1450.469632  	0.015653 
1452.398448  	0.016587 
1454.327264  	0.017826 
1456.256080  	0.016738 
1458.184896  	0.012543 
1460.113712  	0.014808 
1462.042528  	0.017336 
1463.971344  	0.016859 
1465.900160  	0.016228 
1467.828976  	0.018881 
1469.757792  	0.021760 
1471.686608  	0.022760 
1473.615424  	0.024371 
1475.544240  	0.028907 
1477.473056  	0.032588 
1479.401872  	0.035637 
1481.330688  	0.037632 
1483.259504  	0.039127 
1485.188320  	0.040646 
1487.117136  	0.040369 
1489.045952  	0.039337 
1490.974768  	0.036705 
1492.903584  	0.036672 
1494.832400  	0.035697 
1496.761216  	0.030450 
1498.690032  	0.026442 
1500.618848  	0.025046 
1502.547664  	0.024015 
1504.476480  	0.022048 
1506.405296  	0.015248 
1508.334112  	0.012599 
1510.262928  	0.014968 
1512.191744  	0.014447 
1514.120560  	0.014325 
1516.049376  	0.013494 
1517.978192  	0.011837 
1519.907008  	0.013314 
1521.835824  	0.011171 
1523.764640  	0.014487 
1525.693456  	0.017954 
1527.622272  	0.019192 
1529.551088  	0.020575 
1531.479904  	0.021366 
1533.408720  	0.017457 
1535.337536  	0.015986 
1537.266352  	0.016613 
1539.195168  	0.009577 
1541.123984  	0.002279 
1543.052800  	0.006155 
1544.981616  	0.007666 
1546.910432  	0.008312 
1548.839248  	0.009362 
1550.768064  	0.008993 
1552.696880  	0.009131 
1554.625696  	0.008645 
1556.554512  	0.008780 
1558.483328  	0.003636 
1560.412144  	0.003939 
1562.340960  	0.012308 
1564.269776  	0.015506 
1566.198592  	0.018621 
1568.127408  	0.021200 
1570.056224  	0.022107 
1571.985040  	0.027219 
1573.913856  	0.031111 
1575.842672  	0.029582 
1577.771488  	0.030656 
1579.700304  	0.034110 
1581.629120  	0.034608 
1583.557936  	0.034331 
1585.486752  	0.034729 
1587.415568  	0.035953 
1589.344384  	0.038186 
1591.273200  	0.041353 
1593.202016  	0.045258 
1595.130832  	0.049425 
1597.059648  	0.054127 
1598.988464  	0.058396 
1600.917280  	0.062005 
1602.846096  	0.064285 
1604.774912  	0.065936 
1606.703728  	0.066409 
1608.632544  	0.065812 
1610.561360  	0.064817 
1612.490176  	0.064374 
1614.418992  	0.063454 
1616.347808  	0.059520 
1618.276624  	0.059318 
1620.205440  	0.064009 
1622.134256  	0.065480 
1624.063072  	0.066984 
1625.991888  	0.071806 
1627.920704  	0.076326 
1629.849520  	0.082491 
1631.778336  	0.089453 
1633.707152  	0.093629 
1635.635968  	0.095213 
1637.564784  	0.101762 
1639.493600  	0.109892 
1641.422416  	0.114981 
1643.351232  	0.119257 
1645.280048  	0.120059 
1647.208864  	0.117952 
1649.137680  	0.121160 
1651.066496  	0.124758 
1652.995312  	0.117128 
1654.924128  	0.116656 
1656.852944  	0.121495 
1658.781760  	0.122338 
1660.710576  	0.120776 
1662.639392  	0.116533 
1664.568208  	0.114511 
1666.497024  	0.115021 
1668.425840  	0.111007 
1670.354656  	0.104624 
1672.283472  	0.104028 
1674.212288  	0.103217 
1676.141104  	0.098888 
1678.069920  	0.099921 
1679.998736  	0.100192 
1681.927552  	0.099766 
1683.856368  	0.093675 
1685.785184  	0.092011 
1687.714000  	0.096516 
1689.642816  	0.096872 
1691.571632  	0.096413 
1693.500448  	0.097116 
1695.429264  	0.093090 
1697.358080  	0.090008 
1699.286896  	0.089420 
1701.215712  	0.084047 
1703.144528  	0.086483 
1705.073344  	0.084194 
1707.002160  	0.080019 
1708.930976  	0.078671 
1710.859792  	0.075505 
1712.788608  	0.071505 
1714.717424  	0.065356 
1716.646240  	0.056463 
1718.575056  	0.045369 
1720.503872  	0.041895 
1722.432688  	0.038425 
1724.361504  	0.031780 
1726.290320  	0.026723 
1728.219136  	0.022609 
1730.147952  	0.018336 
1732.076768  	0.015112 
1734.005584  	0.008022 
1735.934400  	0.004247 
1737.863216  	0.006189 
1739.792032  	0.003051 
1741.720848  	0.002523 
1743.649664  	0.002581 
1745.578480  	0.002217 
1747.507296  	0.000892 
1749.436112  	-0.000261 
1751.364928  	-0.001454 
1753.293744  	-0.001248 
1755.222560  	-0.000525 
1757.151376  	-0.001543 
1759.080192  	-0.001614 
1761.009008  	-0.002120 
1762.937824  	-0.003972 
1764.866640  	-0.002803 
1766.795456  	-0.002037 
1768.724272  	-0.002928 
1770.653088  	-0.004603 
1772.581904  	-0.007775 
1774.510720  	-0.006433 
1776.439536  	-0.004287 
1778.368352  	-0.003614 
1780.297168  	-0.004285 
1782.225984  	-0.004700 
1784.154800  	-0.003995 
1786.083616  	-0.004695 
1788.012432  	-0.004081 
1789.941248  	-0.003551 
1791.870064  	-0.005626 
1793.798880  	-0.007182 
1795.727696  	-0.005178 
1797.656512  	-0.005029 
1799.585328  	-0.005310 
1801.514144  	-0.005418 
1803.442960  	-0.005138 
1805.371776  	-0.005289 
1807.300592  	-0.004886 
1809.229408  	-0.005380 
1811.158224  	-0.006020 
1813.087040  	-0.006067 
1815.015856  	-0.005380 
1816.944672  	-0.005376 
1818.873488  	-0.005436 
1820.802304  	-0.005455 
1822.731120  	-0.004781 
1824.659936  	-0.005730 
1826.588752  	-0.006321 
1828.517568  	-0.006529 
1830.446384  	-0.007585 
1832.375200  	-0.006655 
1834.304016  	-0.005591 
1836.232832  	-0.005678 
1838.161648  	-0.005669 
1840.090464  	-0.005631 
1842.019280  	-0.004653 
1843.948096  	-0.006319 
1845.876912  	-0.006989 
1847.805728  	-0.006019 
1849.734544  	-0.005928 
1851.663360  	-0.005937 
1853.592176  	-0.005851 
1855.520992  	-0.005914 
1857.449808  	-0.005870 
1859.378624  	-0.005965 
1861.307440  	-0.006050 
1863.236256  	-0.006117 
1865.165072  	-0.005531 
1867.093888  	-0.005784 
1869.022704  	-0.007016 
1870.951520  	-0.007218 
1872.880336  	-0.006244 
1874.809152  	-0.006208 
1876.737968  	-0.006079 
1878.666784  	-0.006329 
1880.595600  	-0.005860 
1882.524416  	-0.005957 
1884.453232  	-0.005884 
1886.382048  	-0.005880 
1888.310864  	-0.006142 
1890.239680  	-0.007168 
1892.168496  	-0.006432 
1894.097312  	-0.006090 
1896.026128  	-0.006090 
1897.954944  	-0.006343 
1899.883760  	-0.006159 
1901.812576  	-0.006296 
1903.741392  	-0.006384 
1905.670208  	-0.006398 
1907.599024  	-0.006133 
1909.527840  	-0.006598 
1911.456656  	-0.006350 
1913.385472  	-0.006301 
1915.314288  	-0.005639 
1917.243104  	-0.005993 
1919.171920  	-0.006518 
1921.100736  	-0.005854 
1923.029552  	-0.005551 
1924.958368  	-0.006320 
1926.887184  	-0.006443 
1928.816000  	-0.006531 
1930.744816  	-0.006022 
1932.673632  	-0.006201 
1934.602448  	-0.006182 
1936.531264  	-0.005927 
1938.460080  	-0.005107 
1940.388896  	-0.005571 
1942.317712  	-0.006105 
1944.246528  	-0.006468 
1946.175344  	-0.005394 
1948.104160  	-0.005429 
1950.032976  	-0.005420 
1951.961792  	-0.005868 
1953.890608  	-0.005343 
1955.819424  	-0.005713 
1957.748240  	-0.005247 
1959.677056  	-0.005593 
1961.605872  	-0.004783 
1963.534688  	-0.004756 
1965.463504  	-0.004655 
1967.392320  	-0.005528 
1969.321136  	-0.005216 
1971.249952  	-0.004548 
1973.178768  	-0.002873 
1975.107584  	-0.003657 
1977.036400  	-0.003731 
1978.965216  	-0.003394 
1980.894032  	-0.004072 
1982.822848  	-0.005069 
1984.751664  	-0.004746 
1986.680480  	-0.005460 
1988.609296  	-0.005185 
1990.538112  	-0.005742 
1992.466928  	-0.005338 
1994.395744  	-0.005828 
1996.324560  	-0.005798 
1998.253376  	-0.006304 
2000.182192  	-0.006778 
2002.111008  	-0.006483 
2004.039824  	-0.005235 
2005.968640  	-0.005076 
2007.897456  	-0.004641 
2009.826272  	-0.005330 
2011.755088  	-0.004938 
2013.683904  	-0.004916 
2015.612720  	-0.005172 
2017.541536  	-0.005840 
2019.470352  	-0.005074 
2021.399168  	-0.006169 
2023.327984  	-0.005456 
2025.256800  	-0.004449 
2027.185616  	-0.004370 
2029.114432  	-0.004752 
2031.043248  	-0.004334 
2032.972064  	-0.004968 
2034.900880  	-0.004387 
2036.829696  	-0.005044 
2038.758512  	-0.004178 
2040.687328  	-0.004649 
2042.616144  	-0.005081 
2044.544960  	-0.005600 
2046.473776  	-0.005317 
2048.402592  	-0.005066 
2050.331408  	-0.004968 
2052.260224  	-0.006283 
2054.189040  	-0.006848 
2056.117856  	-0.006822 
2058.046672  	-0.006014 
2059.975488  	-0.005812 
2061.904304  	-0.006170 
2063.833120  	-0.006598 
2065.761936  	-0.006491 
2067.690752  	-0.006874 
2069.619568  	-0.006266 
2071.548384  	-0.006206 
2073.477200  	-0.006389 
2075.406016  	-0.006233 
2077.334832  	-0.005711 
2079.263648  	-0.005911 
2081.192464  	-0.006037 
2083.121280  	-0.006309 
2085.050096  	-0.006284 
2086.978912  	-0.006212 
2088.907728  	-0.005738 
2090.836544  	-0.006134 
2092.765360  	-0.006208 
2094.694176  	-0.005865 
2096.622992  	-0.005782 
2098.551808  	-0.006017 
2100.480624  	-0.005834 
2102.409440  	-0.006283 
2104.338256  	-0.006343 
2106.267072  	-0.005905 
2108.195888  	-0.005572 
2110.124704  	-0.005795 
2112.053520  	-0.005762 
2113.982336  	-0.005889 
2115.911152  	-0.005623 
2117.839968  	-0.005729 
2119.768784  	-0.006049 
2121.697600  	-0.006567 
2123.626416  	-0.006295 
2125.555232  	-0.006273 
2127.484048  	-0.006094 
2129.412864  	-0.006549 
2131.341680  	-0.006620 
2133.270496  	-0.006574 
2135.199312  	-0.006229 
2137.128128  	-0.005589 
2139.056944  	-0.005234 
2140.985760  	-0.005597 
2142.914576  	-0.005616 
2144.843392  	-0.005469 
2146.772208  	-0.004912 
2148.701024  	-0.005920 
2150.629840  	-0.005413 
2152.558656  	-0.005002 
2154.487472  	-0.004379 
2156.416288  	-0.004048 
2158.345104  	-0.002883 
2160.273920  	-0.001836 
2162.202736  	-0.002157 
2164.131552  	-0.003465 
2166.060368  	-0.003076 
2167.989184  	-0.002458 
2169.918000  	-0.001963 
2171.846816  	-0.003270 
2173.775632  	-0.003454 
2175.704448  	-0.003290 
2177.633264  	-0.003600 
2179.562080  	-0.004364 
2181.490896  	-0.003807 
2183.419712  	-0.005049 
2185.348528  	-0.005678 
2187.277344  	-0.004809 
2189.206160  	-0.004251 
2191.134976  	-0.004776 
2193.063792  	-0.005087 
2194.992608  	-0.005393 
2196.921424  	-0.004819 
2198.850240  	-0.004595 
2200.779056  	-0.004882 
2202.707872  	-0.005678 
2204.636688  	-0.005710 
2206.565504  	-0.005288 
2208.494320  	-0.005819 
2210.423136  	-0.006546 
2212.351952  	-0.006099 
2214.280768  	-0.006083 
2216.209584  	-0.005733 
2218.138400  	-0.005989 
2220.067216  	-0.005991 
2221.996032  	-0.005858 
2223.924848  	-0.005435 
2225.853664  	-0.005054 
2227.782480  	-0.005263 
2229.711296  	-0.006352 
2231.640112  	-0.007023 
2233.568928  	-0.007070 
2235.497744  	-0.006671 
2237.426560  	-0.007067 
2239.355376  	-0.007072 
2241.284192  	-0.006699 
2243.213008  	-0.006247 
2245.141824  	-0.006605 
2247.070640  	-0.006591 
2248.999456  	-0.006193 
2250.928272  	-0.006307 
2252.857088  	-0.006782 
2254.785904  	-0.007238 
2256.714720  	-0.007910 
2258.643536  	-0.008018 
2260.572352  	-0.007738 
2262.501168  	-0.007368 
2264.429984  	-0.007500 
2266.358800  	-0.007593 
2268.287616  	-0.007511 
2270.216432  	-0.007303 
2272.145248  	-0.007190 
2274.074064  	-0.007324 
2276.002880  	-0.007650 
2277.931696  	-0.007477 
2279.860512  	-0.007189 
2281.789328  	-0.006981 
2283.718144  	-0.006949 
2285.646960  	-0.006840 
2287.575776  	-0.006748 
2289.504592  	-0.007054 
2291.433408  	-0.007271 
2293.362224  	-0.007006 
2295.291040  	-0.006735 
2297.219856  	-0.006443 
2299.148672  	-0.006591 
2301.077488  	-0.006451 
2303.006304  	-0.006245 
2304.935120  	-0.006247 
2306.863936  	-0.006358 
2308.792752  	-0.006580 
2310.721568  	-0.006952 
2312.650384  	-0.007485 
2314.579200  	-0.008110 
2316.508016  	-0.008804 
2318.436832  	-0.009872 
2320.365648  	-0.011296 
2322.294464  	-0.012627 
2324.223280  	-0.014134 
2326.152096  	-0.015936 
2328.080912  	-0.017403 
2330.009728  	-0.019121 
2331.938544  	-0.020696 
2333.867360  	-0.021706 
2335.796176  	-0.022759 
2337.724992  	-0.023833 
2339.653808  	-0.024113 
2341.582624  	-0.024519 
2343.511440  	-0.023894 
2345.440256  	-0.021874 
2347.369072  	-0.017260 
2349.297888  	-0.013414 
2351.226704  	-0.014930 
2353.155520  	-0.019978 
2355.084336  	-0.024256 
2357.013152  	-0.027836 
2358.941968  	-0.029577 
2360.870784  	-0.030754 
2362.799600  	-0.030400 
2364.728416  	-0.029616 
2366.657232  	-0.027109 
2368.586048  	-0.023851 
2370.514864  	-0.020520 
2372.443680  	-0.017316 
2374.372496  	-0.014399 
2376.301312  	-0.011875 
2378.230128  	-0.009813 
2380.158944  	-0.008393 
2382.087760  	-0.007614 
2384.016576  	-0.007496 
2385.945392  	-0.007624 
2387.874208  	-0.007724 
2389.803024  	-0.007724 
2391.731840  	-0.007985 
2393.660656  	-0.008012 
2395.589472  	-0.007996 
2397.518288  	-0.007871 
2399.447104  	-0.008111 
2401.375920  	-0.008295 
2403.304736  	-0.008303 
2405.233552  	-0.008082 
2407.162368  	-0.008001 
2409.091184  	-0.007992 
2411.020000  	-0.008002 
2412.948816  	-0.008122 
2414.877632  	-0.007985 
2416.806448  	-0.007720 
2418.735264  	-0.007947 
2420.664080  	-0.008191 
2422.592896  	-0.008268 
2424.521712  	-0.008227 
2426.450528  	-0.008339 
2428.379344  	-0.008150 
2430.308160  	-0.007845 
2432.236976  	-0.007739 
2434.165792  	-0.007902 
2436.094608  	-0.008040 
2438.023424  	-0.007887 
2439.952240  	-0.007587 
2441.881056  	-0.007595 
2443.809872  	-0.007658 
2445.738688  	-0.007372 
2447.667504  	-0.007251 
2449.596320  	-0.007465 
2451.525136  	-0.007485 
2453.453952  	-0.007477 
2455.382768  	-0.007530 
2457.311584  	-0.007550 
2459.240400  	-0.007656 
2461.169216  	-0.007730 
2463.098032  	-0.007675 
2465.026848  	-0.007693 
2466.955664  	-0.007788 
2468.884480  	-0.007876 
2470.813296  	-0.007820 
2472.742112  	-0.007758 
2474.670928  	-0.007731 
2476.599744  	-0.007789 
2478.528560  	-0.007883 
2480.457376  	-0.007787 
2482.386192  	-0.007612 
2484.315008  	-0.007688 
2486.243824  	-0.007821 
2488.172640  	-0.007718 
2490.101456  	-0.007425 
2492.030272  	-0.007231 
2493.959088  	-0.007145 
2495.887904  	-0.007145 
2497.816720  	-0.007122 
2499.745536  	-0.007091 
2501.674352  	-0.007093 
2503.603168  	-0.006872 
2505.531984  	-0.006863 
2507.460800  	-0.007234 
2509.389616  	-0.007395 
2511.318432  	-0.007220 
2513.247248  	-0.006836 
2515.176064  	-0.006850 
2517.104880  	-0.006904 
2519.033696  	-0.007215 
2520.962512  	-0.007279 
2522.891328  	-0.007106 
2524.820144  	-0.007119 
2526.748960  	-0.007145 
2528.677776  	-0.006850 
2530.606592  	-0.006781 
2532.535408  	-0.006800 
2534.464224  	-0.006839 
2536.393040  	-0.007016 
2538.321856  	-0.007032 
2540.250672  	-0.006803 
2542.179488  	-0.006622 
2544.108304  	-0.006689 
2546.037120  	-0.006673 
2547.965936  	-0.006612 
2549.894752  	-0.006477 
2551.823568  	-0.006465 
2553.752384  	-0.006583 
2555.681200  	-0.006310 
2557.610016  	-0.006333 
2559.538832  	-0.006422 
2561.467648  	-0.006250 
2563.396464  	-0.006137 
2565.325280  	-0.006042 
2567.254096  	-0.006128 
2569.182912  	-0.006275 
2571.111728  	-0.006228 
2573.040544  	-0.006338 
2574.969360  	-0.006236 
2576.898176  	-0.006037 
2578.826992  	-0.005989 
2580.755808  	-0.006072 
2582.684624  	-0.006085 
2584.613440  	-0.006000 
2586.542256  	-0.005985 
2588.471072  	-0.005965 
2590.399888  	-0.005832 
2592.328704  	-0.005903 
2594.257520  	-0.006045 
2596.186336  	-0.006010 
2598.115152  	-0.005881 
2600.043968  	-0.005794 
2601.972784  	-0.005609 
2603.901600  	-0.005668 
2605.830416  	-0.005672 
2607.759232  	-0.005522 
2609.688048  	-0.005441 
2611.616864  	-0.005415 
2613.545680  	-0.005254 
2615.474496  	-0.005168 
2617.403312  	-0.005193 
2619.332128  	-0.005127 
2621.260944  	-0.004998 
2623.189760  	-0.005005 
2625.118576  	-0.005060 
2627.047392  	-0.005157 
2628.976208  	-0.005157 
2630.905024  	-0.005054 
2632.833840  	-0.005001 
2634.762656  	-0.004938 
2636.691472  	-0.004904 
2638.620288  	-0.004863 
2640.549104  	-0.004769 
2642.477920  	-0.004720 
2644.406736  	-0.004604 
2646.335552  	-0.004501 
2648.264368  	-0.004444 
2650.193184  	-0.004473 
2652.122000  	-0.004412 
2654.050816  	-0.004275 
2655.979632  	-0.004202 
2657.908448  	-0.004159 
2659.837264  	-0.004084 
2661.766080  	-0.003959 
2663.694896  	-0.003820 
2665.623712  	-0.003783 
2667.552528  	-0.003703 
2669.481344  	-0.003635 
2671.410160  	-0.003637 
2673.338976  	-0.003602 
2675.267792  	-0.003470 
2677.196608  	-0.003317 
2679.125424  	-0.003206 
2681.054240  	-0.003120 
2682.983056  	-0.002986 
2684.911872  	-0.003039 
2686.840688  	-0.003020 
2688.769504  	-0.002861 
2690.698320  	-0.002868 
2692.627136  	-0.002885 
2694.555952  	-0.002755 
2696.484768  	-0.002772 
2698.413584  	-0.002866 
2700.342400  	-0.002926 
2702.271216  	-0.002814 
2704.200032  	-0.002613 
2706.128848  	-0.002574 
2708.057664  	-0.002585 
2709.986480  	-0.002522 
2711.915296  	-0.002397 
2713.844112  	-0.002264 
2715.772928  	-0.002243 
2717.701744  	-0.002154 
2719.630560  	-0.001989 
2721.559376  	-0.001905 
2723.488192  	-0.001861 
2725.417008  	-0.001817 
2727.345824  	-0.001681 
2729.274640  	-0.001638 
2731.203456  	-0.001621 
2733.132272  	-0.001469 
2735.061088  	-0.001314 
2736.989904  	-0.001217 
2738.918720  	-0.001236 
2740.847536  	-0.001292 
2742.776352  	-0.001372 
2744.705168  	-0.001404 
2746.633984  	-0.001299 
2748.562800  	-0.001175 
2750.491616  	-0.001056 
2752.420432  	-0.000937 
2754.349248  	-0.001004 
2756.278064  	-0.001099 
2758.206880  	-0.001250 
2760.135696  	-0.001338 
2762.064512  	-0.001225 
2763.993328  	-0.001164 
2765.922144  	-0.001237 
2767.850960  	-0.001145 
2769.779776  	-0.001020 
2771.708592  	-0.001010 
2773.637408  	-0.001191 
2775.566224  	-0.001275 
2777.495040  	-0.001309 
2779.423856  	-0.001210 
2781.352672  	-0.001195 
2783.281488  	-0.001235 
2785.210304  	-0.001253 
2787.139120  	-0.001144 
2789.067936  	-0.001088 
2790.996752  	-0.001080 
2792.925568  	-0.001142 
2794.854384  	-0.001128 
2796.783200  	-0.001188 
2798.712016  	-0.001315 
2800.640832  	-0.001386 
2802.569648  	-0.001350 
2804.498464  	-0.001289 
2806.427280  	-0.001385 
2808.356096  	-0.001443 
2810.284912  	-0.001312 
2812.213728  	-0.001285 
2814.142544  	-0.001486 
2816.071360  	-0.001620 
2818.000176  	-0.001729 
2819.928992  	-0.001790 
2821.857808  	-0.001851 
2823.786624  	-0.001926 
2825.715440  	-0.001913 
2827.644256  	-0.002027 
2829.573072  	-0.002184 
2831.501888  	-0.002452 
2833.430704  	-0.002802 
2835.359520  	-0.003055 
2837.288336  	-0.003337 
2839.217152  	-0.003587 
2841.145968  	-0.003857 
2843.074784  	-0.004277 
2845.003600  	-0.004728 
2846.932416  	-0.005088 
2848.861232  	-0.005396 
2850.790048  	-0.005784 
2852.718864  	-0.006302 
2854.647680  	-0.006857 
2856.576496  	-0.007519 
2858.505312  	-0.008198 
2860.434128  	-0.008685 
2862.362944  	-0.009334 
2864.291760  	-0.010210 
2866.220576  	-0.010926 
2868.149392  	-0.011322 
2870.078208  	-0.011733 
2872.007024  	-0.011904 
2873.935840  	-0.011959 
2875.864656  	-0.012160 
2877.793472  	-0.012527 
2879.722288  	-0.012938 
2881.651104  	-0.013610 
2883.579920  	-0.014086 
2885.508736  	-0.014046 
2887.437552  	-0.013841 
2889.366368  	-0.013854 
2891.295184  	-0.014136 
2893.224000  	-0.014411 
2895.152816  	-0.014398 
2897.081632  	-0.014635 
2899.010448  	-0.016355 
2900.939264  	-0.017906 
2902.868080  	-0.016775 
2904.796896  	-0.015507 
2906.725712  	-0.014953 
2908.654528  	-0.014370 
2910.583344  	-0.014013 
2912.512160  	-0.013622 
2914.440976  	-0.012740 
2916.369792  	-0.012186 
2918.298608  	-0.011959 
2920.227424  	-0.011658 
2922.156240  	-0.011243 
2924.085056  	-0.010674 
2926.013872  	-0.009967 
2927.942688  	-0.009247 
2929.871504  	-0.008528 
2931.800320  	-0.007923 
2933.729136  	-0.007373 
2935.657952  	-0.006930 
2937.586768  	-0.006496 
2939.515584  	-0.006103 
2941.444400  	-0.005942 
2943.373216  	-0.005940 
2945.302032  	-0.005778 
2947.230848  	-0.005658 
2949.159664  	-0.005957 
2951.088480  	-0.006590 
2953.017296  	-0.007098 
2954.946112  	-0.007619 
2956.874928  	-0.008368 
2958.803744  	-0.009226 
2960.732560  	-0.009683 
2962.661376  	-0.010184 
2964.590192  	-0.011087 
2966.519008  	-0.012131 
2968.447824  	-0.013141 
2970.376640  	-0.013991 
2972.305456  	-0.014400 
2974.234272  	-0.014161 
2976.163088  	-0.013814 
2978.091904  	-0.013762 
2980.020720  	-0.013706 
2981.949536  	-0.013450 
2983.878352  	-0.013565 
2985.807168  	-0.014474 
2987.735984  	-0.015585 
2989.664800  	-0.015337 
2991.593616  	-0.012272 
2993.522432  	-0.010275 
2995.451248  	-0.009713 
2997.380064  	-0.008929 
2999.308880  	-0.007864 
3001.237696  	-0.006680 
3003.166512  	-0.005182 
3005.095328  	-0.003774 
3007.024144  	-0.002513 
3008.952960  	-0.001238 
3010.881776  	0.000105 
3012.810592  	0.001348 
3014.739408  	0.002499 
3016.668224  	0.003562 
3018.597040  	0.004808 
3020.525856  	0.006014 
3022.454672  	0.006946 
3024.383488  	0.007770 
3026.312304  	0.008608 
3028.241120  	0.009628 
3030.169936  	0.010468 
3032.098752  	0.010906 
3034.027568  	0.011549 
3035.956384  	0.012311 
3037.885200  	0.013024 
3039.814016  	0.013539 
3041.742832  	0.014014 
3043.671648  	0.014514 
3045.600464  	0.014935 
3047.529280  	0.015209 
3049.458096  	0.015659 
3051.386912  	0.016274 
3053.315728  	0.016631 
3055.244544  	0.016908 
3057.173360  	0.017279 
3059.102176  	0.017657 
3061.030992  	0.018097 
3062.959808  	0.018662 
3064.888624  	0.019079 
3066.817440  	0.019363 
3068.746256  	0.019868 
3070.675072  	0.020458 
3072.603888  	0.020774 
3074.532704  	0.021347 
3076.461520  	0.021990 
3078.390336  	0.022348 
3080.319152  	0.022648 
3082.247968  	0.023262 
3084.176784  	0.023834 
3086.105600  	0.024351 
3088.034416  	0.024720 
3089.963232  	0.025188 
3091.892048  	0.025739 
3093.820864  	0.026222 
3095.749680  	0.026652 
3097.678496  	0.027204 
3099.607312  	0.027765 
3101.536128  	0.028240 
3103.464944  	0.028862 
3105.393760  	0.029340 
3107.322576  	0.029714 
3109.251392  	0.030271 
3111.180208  	0.030715 
3113.109024  	0.031205 
3115.037840  	0.031733 
3116.966656  	0.032214 
3118.895472  	0.032743 
3120.824288  	0.033163 
3122.753104  	0.033438 
3124.681920  	0.033814 
3126.610736  	0.034227 
3128.539552  	0.034748 
3130.468368  	0.035279 
3132.397184  	0.035523 
3134.326000  	0.035997 
3136.254816  	0.036525 
3138.183632  	0.036965 
3140.112448  	0.037494 
3142.041264  	0.037988 
3143.970080  	0.038291 
3145.898896  	0.038598 
3147.827712  	0.039110 
3149.756528  	0.039556 
3151.685344  	0.040001 
3153.614160  	0.040564 
3155.542976  	0.041089 
3157.471792  	0.041553 
3159.400608  	0.042081 
3161.329424  	0.042509 
3163.258240  	0.042812 
3165.187056  	0.043221 
3167.115872  	0.043686 
3169.044688  	0.044040 
3170.973504  	0.044431 
3172.902320  	0.044745 
3174.831136  	0.045074 
3176.759952  	0.045396 
3178.688768  	0.045636 
3180.617584  	0.045997 
3182.546400  	0.046561 
3184.475216  	0.046826 
3186.404032  	0.046813 
3188.332848  	0.047019 
3190.261664  	0.047399 
3192.190480  	0.047540 
3194.119296  	0.047432 
3196.048112  	0.047629 
3197.976928  	0.047728 
3199.905744  	0.047904 
3201.834560  	0.047950 
3203.763376  	0.048124 
3205.692192  	0.048175 
3207.621008  	0.047865 
3209.549824  	0.047911 
3211.478640  	0.048111 
3213.407456  	0.047986 
3215.336272  	0.047874 
3217.265088  	0.048119 
3219.193904  	0.048158 
3221.122720  	0.047903 
3223.051536  	0.047816 
3224.980352  	0.047754 
3226.909168  	0.047654 
3228.837984  	0.047518 
3230.766800  	0.047516 
3232.695616  	0.047599 
3234.624432  	0.047499 
3236.553248  	0.047360 
3238.482064  	0.047508 
3240.410880  	0.047669 
3242.339696  	0.047742 
3244.268512  	0.047528 
3246.197328  	0.047466 
3248.126144  	0.047708 
3250.054960  	0.047803 
3251.983776  	0.047986 
3253.912592  	0.048153 
3255.841408  	0.048340 
3257.770224  	0.048604 
3259.699040  	0.048881 
3261.627856  	0.049214 
3263.556672  	0.049322 
3265.485488  	0.049233 
3267.414304  	0.049310 
3269.343120  	0.049819 
3271.271936  	0.050283 
3273.200752  	0.050333 
3275.129568  	0.050302 
3277.058384  	0.050486 
3278.987200  	0.050747 
3280.916016  	0.050953 
3282.844832  	0.051052 
3284.773648  	0.051203 
3286.702464  	0.051435 
3288.631280  	0.051602 
3290.560096  	0.051764 
3292.488912  	0.052180 
3294.417728  	0.052566 
3296.346544  	0.052863 
3298.275360  	0.052996 
3300.204176  	0.053188 
3302.132992  	0.053487 
3304.061808  	0.053705 
3305.990624  	0.054156 
3307.919440  	0.054562 
3309.848256  	0.054753 
3311.777072  	0.055024 
3313.705888  	0.055259 
3315.634704  	0.055743 
3317.563520  	0.056040 
3319.492336  	0.056257 
3321.421152  	0.056575 
3323.349968  	0.056828 
3325.278784  	0.057068 
3327.207600  	0.057316 
3329.136416  	0.057385 
3331.065232  	0.057628 
3332.994048  	0.057966 
3334.922864  	0.058065 
3336.851680  	0.058018 
3338.780496  	0.057989 
3340.709312  	0.058013 
3342.638128  	0.057978 
3344.566944  	0.057770 
3346.495760  	0.057723 
3348.424576  	0.057719 
3350.353392  	0.057584 
3352.282208  	0.057470 
3354.211024  	0.057313 
3356.139840  	0.057085 
3358.068656  	0.057040 
3359.997472  	0.056982 
3361.926288  	0.056787 
3363.855104  	0.056540 
3365.783920  	0.056131 
3367.712736  	0.055886 
3369.641552  	0.055668 
3371.570368  	0.055422 
3373.499184  	0.055304 
3375.428000  	0.055106 
3377.356816  	0.054955 
3379.285632  	0.054965 
3381.214448  	0.054702 
3383.143264  	0.054432 
3385.072080  	0.054133 
3387.000896  	0.053822 
3388.929712  	0.053668 
3390.858528  	0.053529 
3392.787344  	0.053131 
3394.716160  	0.052799 
3396.644976  	0.052617 
3398.573792  	0.052448 
3400.502608  	0.052387 
3402.431424  	0.051942 
3404.360240  	0.051554 
3406.289056  	0.051168 
3408.217872  	0.050781 
3410.146688  	0.050433 
3412.075504  	0.050118 
3414.004320  	0.049887 
3415.933136  	0.049918 
3417.861952  	0.049605 
3419.790768  	0.049114 
3421.719584  	0.048535 
3423.648400  	0.048145 
3425.577216  	0.047800 
3427.506032  	0.047421 
3429.434848  	0.047296 
3431.363664  	0.047174 
3433.292480  	0.046719 
3435.221296  	0.046147 
3437.150112  	0.045739 
3439.078928  	0.045462 
3441.007744  	0.045153 
3442.936560  	0.044904 
3444.865376  	0.044910 
3446.794192  	0.044045 
3448.723008  	0.043093 
3450.651824  	0.042840 
3452.580640  	0.042551 
3454.509456  	0.042349 
3456.438272  	0.041965 
3458.367088  	0.041504 
3460.295904  	0.041109 
3462.224720  	0.040346 
3464.153536  	0.039693 
3466.082352  	0.039290 
3468.011168  	0.038551 
3469.939984  	0.037965 
3471.868800  	0.037574 
3473.797616  	0.037089 
3475.726432  	0.036474 
3477.655248  	0.036047 
3479.584064  	0.035829 
3481.512880  	0.035082 
3483.441696  	0.034215 
3485.370512  	0.033996 
3487.299328  	0.033135 
3489.228144  	0.032319 
3491.156960  	0.031854 
3493.085776  	0.031456 
3495.014592  	0.030938 
3496.943408  	0.030440 
3498.872224  	0.030210 
3500.801040  	0.030268 
3502.729856  	0.029491 
3504.658672  	0.028316 
3506.587488  	0.028232 
3508.516304  	0.028047 
3510.445120  	0.026995 
3512.373936  	0.026311 
3514.302752  	0.026111 
3516.231568  	0.026087 
3518.160384  	0.025866 
3520.089200  	0.025412 
3522.018016  	0.025129 
3523.946832  	0.024730 
3525.875648  	0.024306 
3527.804464  	0.023092 
3529.733280  	0.022112 
3531.662096  	0.021871 
3533.590912  	0.021891 
3535.519728  	0.021822 
3537.448544  	0.021316 
3539.377360  	0.020738 
3541.306176  	0.020528 
3543.234992  	0.020486 
3545.163808  	0.020213 
3547.092624  	0.019128 
3549.021440  	0.018138 
3550.950256  	0.017859 
3552.879072  	0.017023 
3554.807888  	0.016697 
3556.736704  	0.016631 
3558.665520  	0.016440 
3560.594336  	0.016062 
3562.523152  	0.015590 
3564.451968  	0.015885 
3566.380784  	0.015331 
3568.309600  	0.012550 
3570.238416  	0.012377 
3572.167232  	0.012940 
3574.096048  	0.012555 
3576.024864  	0.011870 
3577.953680  	0.011581 
3579.882496  	0.010773 
3581.811312  	0.010253 
3583.740128  	0.010559 
3585.668944  	0.010955 
3587.597760  	0.008392 
3589.526576  	0.006595 
3591.455392  	0.007526 
3593.384208  	0.007572 
3595.313024  	0.006319 
3597.241840  	0.005332 
3599.170656  	0.004508 
3601.099472  	0.003465 
3603.028288  	0.003649 
3604.957104  	0.004396 
3606.885920  	0.003694 
3608.814736  	0.001712 
3610.743552  	0.001849 
3612.672368  	0.001056 
3614.601184  	-0.000450 
3616.530000  	0.000343 
3618.458816  	-0.001770 
3620.387632  	-0.004598 
3622.316448  	-0.003596 
3624.245264  	-0.002392 
3626.174080  	-0.001621 
3628.102896  	-0.004752 
3630.031712  	-0.010426 
3631.960528  	-0.007181 
3633.889344  	-0.006727 
3635.818160  	-0.007322 
3637.746976  	-0.007712 
3639.675792  	-0.007892 
3641.604608  	-0.007740 
3643.533424  	-0.007730 
3645.462240  	-0.007485 
3647.391056  	-0.010626 
3649.319872  	-0.016825 
3651.248688  	-0.019460 
3653.177504  	-0.014854 
3655.106320  	-0.013811 
3657.035136  	-0.017083 
3658.963952  	-0.016214 
3660.892768  	-0.015695 
3662.821584  	-0.015891 
3664.750400  	-0.015423 
3666.679216  	-0.014638 
3668.608032  	-0.016512 
3670.536848  	-0.021764 
3672.465664  	-0.018785 
3674.394480  	-0.018537 
3676.323296  	-0.025840 
3678.252112  	-0.021510 
3680.180928  	-0.019101 
3682.109744  	-0.017887 
3684.038560  	-0.017290 
3685.967376  	-0.016357 
3687.896192  	-0.018911 
3689.825008  	-0.023637 
3691.753824  	-0.022960 
3693.682640  	-0.019830 
3695.611456  	-0.018085 
3697.540272  	-0.017086 
3699.469088  	-0.015907 
3701.397904  	-0.017482 
3703.326720  	-0.017825 
3705.255536  	-0.015480 
3707.184352  	-0.014354 
3709.113168  	-0.015673 
3711.041984  	-0.018967 
3712.970800  	-0.019347 
3714.899616  	-0.015820 
3716.828432  	-0.013926 
3718.757248  	-0.014356 
3720.686064  	-0.014944 
3722.614880  	-0.015794 
3724.543696  	-0.015331 
3726.472512  	-0.015966 
3728.401328  	-0.015529 
3730.330144  	-0.014699 
3732.258960  	-0.016909 
3734.187776  	-0.017309 
3736.116592  	-0.019517 
3738.045408  	-0.018706 
3739.974224  	-0.015422 
3741.903040  	-0.012753 
3743.831856  	-0.015216 
3745.760672  	-0.019897 
3747.689488  	-0.016113 
3749.618304  	-0.018500 
3751.547120  	-0.022211 
3753.475936  	-0.020012 
3755.404752  	-0.015933 
3757.333568  	-0.015165 
3759.262384  	-0.016417 
3761.191200  	-0.016462 
3763.120016  	-0.013671 
3765.048832  	-0.014270 
3766.977648  	-0.014681 
3768.906464  	-0.015173 
3770.835280  	-0.016871 
3772.764096  	-0.014922 
3774.692912  	-0.013547 
3776.621728  	-0.013003 
3778.550544  	-0.014480 
3780.479360  	-0.016436 
3782.408176  	-0.014541 
3784.336992  	-0.014546 
3786.265808  	-0.014726 
3788.194624  	-0.014169 
3790.123440  	-0.013898 
3792.052256  	-0.013751 
3793.981072  	-0.013216 
3795.909888  	-0.014787 
3797.838704  	-0.015334 
3799.767520  	-0.014421 
3801.696336  	-0.019940 
3803.625152  	-0.018395 
3805.553968  	-0.015477 
3807.482784  	-0.018297 
3809.411600  	-0.015906 
3811.340416  	-0.013529 
3813.269232  	-0.012448 
3815.198048  	-0.015168 
3817.126864  	-0.018113 
3819.055680  	-0.015454 
3820.984496  	-0.019906 
3822.913312  	-0.019889 
3824.842128  	-0.015481 
3826.770944  	-0.015813 
3828.699760  	-0.014824 
3830.628576  	-0.014272 
3832.557392  	-0.015382 
3834.486208  	-0.015126 
3836.415024  	-0.016183 
3838.343840  	-0.018953 
3840.272656  	-0.018889 
3842.201472  	-0.016901 
3844.130288  	-0.016561 
3846.059104  	-0.014970 
3847.987920  	-0.013092 
3849.916736  	-0.012315 
3851.845552  	-0.014225 
3853.774368  	-0.023190 
3855.703184  	-0.021148 
3857.632000  	-0.016485 
3859.560816  	-0.013965 
3861.489632  	-0.013761 
3863.418448  	-0.015061 
3865.347264  	-0.016343 
3867.276080  	-0.013887 
3869.204896  	-0.015026 
3871.133712  	-0.017403 
3873.062528  	-0.015558 
3874.991344  	-0.016656 
3876.920160  	-0.013945 
3878.848976  	-0.012466 
3880.777792  	-0.015016 
3882.706608  	-0.014252 
3884.635424  	-0.013723 
3886.564240  	-0.016368 
3888.493056  	-0.014091 
3890.421872  	-0.014050 
3892.350688  	-0.016327 
3894.279504  	-0.014753 
3896.208320  	-0.012727 
3898.137136  	-0.012561 
3900.065952  	-0.013946 
3901.994768  	-0.014428 
3903.923584  	-0.015796 
3905.852400  	-0.016407 
3907.781216  	-0.014864 
3909.710032  	-0.013832 
3911.638848  	-0.013495 
3913.567664  	-0.013019 
3915.496480  	-0.012687 
3917.425296  	-0.013792 
3919.354112  	-0.014442 
3921.282928  	-0.014063 
3923.211744  	-0.013155 
3925.140560  	-0.013748 
3927.069376  	-0.013614 
3928.998192  	-0.012994 
3930.927008  	-0.013028 
3932.855824  	-0.013758 
3934.784640  	-0.013899 
3936.713456  	-0.013583 
3938.642272  	-0.013423 
3940.571088  	-0.012858 
3942.499904  	-0.013220 
3944.428720  	-0.013601 
3946.357536  	-0.012770 
3948.286352  	-0.012848 
3950.215168  	-0.013601 
3952.143984  	-0.013935 
3954.072800  	-0.013732 
3956.001616  	-0.013463 
3957.930432  	-0.013454 
3959.859248  	-0.013355 
3961.788064  	-0.013431 
3963.716880  	-0.013753 
3965.645696  	-0.013888 
3967.574512  	-0.013758 
3969.503328  	-0.013532 
3971.432144  	-0.013607 
3973.360960  	-0.013683 
3975.289776  	-0.013599 
3977.218592  	-0.013530 
3979.147408  	-0.013518 
3981.076224  	-0.013611 
3983.005040  	-0.013679 
3984.933856  	-0.013575 
3986.862672  	-0.013613 
3988.791488  	-0.013499 
3990.720304  	-0.013477 
3992.649120  	-0.013571 
3994.577936  	-0.013691 
3996.506752  	-0.013728 
3998.435568  	-0.013784 
4000.364384  	-0.013738 