##TITLE=No Description
##DATA TYPE=INFRARED SPECTRUM
##XUNITS=1/CM
##YUNITS=Abs
399.264912  	0.618324 
401.193728  	0.591783 
403.122544  	0.584223 
405.051360  	0.585683 
406.980176  	0.610027 
408.908992  	0.612103 
410.837808  	0.602497 
412.766624  	0.590717 
414.695440  	0.591160 
416.624256  	0.579937 
418.553072  	0.586982 
420.481888  	0.587628 
422.410704  	0.582820 
424.339520  	0.569121 
426.268336  	0.559914 
428.197152  	0.552707 
430.125968  	0.557924 
432.054784  	0.556104 
433.983600  	0.556560 
435.912416  	0.551511 
437.841232  	0.551898 
439.770048  	0.545620 
441.698864  	0.544832 
443.627680  	0.544099 
445.556496  	0.541360 
447.485312  	0.537872 
449.414128  	0.542694 
451.342944  	0.536182 
453.271760  	0.532212 
455.200576  	0.533307 
457.129392  	0.536628 
459.058208  	0.530039 
460.987024  	0.534330 
462.915840  	0.537658 
464.844656  	0.536594 
466.773472  	0.527736 
468.702288  	0.526269 
470.631104  	0.531301 
472.559920  	0.529240 
474.488736  	0.519684 
476.417552  	0.523669 
478.346368  	0.522731 
480.275184  	0.522213 
482.204000  	0.519803 
484.132816  	0.518740 
486.061632  	0.514774 
487.990448  	0.515866 
489.919264  	0.513918 
491.848080  	0.514239 
493.776896  	0.514372 
495.705712  	0.513145 
497.634528  	0.508875 
499.563344  	0.508564 
501.492160  	0.505261 
503.420976  	0.505734 
505.349792  	0.507018 
507.278608  	0.508570 
509.207424  	0.507922 
511.136240  	0.510219 
513.065056  	0.508309 
514.993872  	0.507744 
516.922688  	0.507086 
518.851504  	0.509448 
520.780320  	0.507434 
522.709136  	0.507101 
524.637952  	0.507149 
526.566768  	0.507426 
528.495584  	0.505288 
530.424400  	0.504102 
532.353216  	0.499286 
534.282032  	0.495563 
536.210848  	0.490679 
538.139664  	0.486088 
540.068480  	0.479442 
541.997296  	0.476712 
543.926112  	0.474235 
545.854928  	0.470946 
547.783744  	0.465822 
549.712560  	0.462889 
551.641376  	0.459546 
553.570192  	0.456659 
555.499008  	0.454472 
557.427824  	0.451786 
559.356640  	0.446854 
561.285456  	0.444610 
563.214272  	0.441505 
565.143088  	0.438032 
567.071904  	0.434154 
569.000720  	0.431726 
570.929536  	0.428992 
572.858352  	0.427005 
574.787168  	0.424487 
576.715984  	0.422563 
578.644800  	0.418335 
580.573616  	0.414528 
582.502432  	0.410536 
584.431248  	0.407755 
586.360064  	0.404173 
588.288880  	0.401655 
590.217696  	0.399200 
592.146512  	0.397371 
594.075328  	0.394788 
596.004144  	0.393037 
597.932960  	0.390885 
599.861776  	0.389260 
601.790592  	0.386551 
603.719408  	0.384638 
605.648224  	0.383772 
607.577040  	0.382600 
609.505856  	0.380174 
611.434672  	0.378168 
613.363488  	0.376334 
615.292304  	0.375213 
617.221120  	0.373354 
619.149936  	0.372087 
621.078752  	0.370046 
623.007568  	0.368767 
624.936384  	0.367150 
626.865200  	0.366398 
628.794016  	0.364503 
630.722832  	0.363489 
632.651648  	0.363085 
634.580464  	0.363197 
636.509280  	0.362399 
638.438096  	0.361396 
640.366912  	0.360267 
642.295728  	0.358227 
644.224544  	0.355540 
646.153360  	0.352497 
648.082176  	0.348087 
650.010992  	0.344551 
651.939808  	0.341295 
653.868624  	0.338090 
655.797440  	0.334485 
657.726256  	0.330969 
659.655072  	0.327464 
661.583888  	0.324108 
663.512704  	0.320624 
665.441520  	0.318309 
667.370336  	0.312346 
669.299152  	0.305941 
671.227968  	0.305035 
673.156784  	0.302415 
675.085600  	0.299016 
677.014416  	0.296041 
678.943232  	0.293926 
680.872048  	0.292510 
682.800864  	0.290700 
684.729680  	0.288964 
686.658496  	0.287721 
688.587312  	0.286901 
690.516128  	0.284962 
692.444944  	0.283336 
694.373760  	0.282006 
696.302576  	0.279889 
698.231392  	0.277696 
700.160208  	0.275275 
702.089024  	0.273055 
704.017840  	0.271053 
705.946656  	0.268477 
707.875472  	0.265590 
709.804288  	0.263277 
711.733104  	0.261621 
713.661920  	0.259482 
715.590736  	0.257710 
717.519552  	0.256646 
719.448368  	0.256263 
721.377184  	0.255771 
723.306000  	0.255364 
725.234816  	0.254928 
727.163632  	0.254316 
729.092448  	0.252524 
731.021264  	0.249591 
732.950080  	0.246291 
734.878896  	0.243660 
736.807712  	0.240842 
738.736528  	0.238387 
740.665344  	0.236408 
742.594160  	0.234393 
744.522976  	0.232716 
746.451792  	0.230885 
748.380608  	0.229156 
750.309424  	0.227695 
752.238240  	0.226671 
754.167056  	0.225619 
756.095872  	0.223828 
758.024688  	0.222530 
759.953504  	0.221676 
761.882320  	0.221652 
763.811136  	0.221602 
765.739952  	0.220682 
767.668768  	0.218214 
769.597584  	0.215723 
771.526400  	0.213924 
773.455216  	0.213986 
775.384032  	0.216142 
777.312848  	0.219351 
779.241664  	0.222062 
781.170480  	0.222058 
783.099296  	0.218940 
785.028112  	0.213889 
786.956928  	0.208625 
788.885744  	0.204108 
790.814560  	0.200774 
792.743376  	0.198420 
794.672192  	0.196759 
796.601008  	0.195245 
798.529824  	0.192509 
800.458640  	0.188824 
802.387456  	0.185523 
804.316272  	0.183432 
806.245088  	0.181899 
808.173904  	0.180713 
810.102720  	0.179765 
812.031536  	0.179053 
813.960352  	0.178826 
815.889168  	0.178396 
817.817984  	0.177706 
819.746800  	0.177231 
821.675616  	0.176943 
823.604432  	0.176350 
825.533248  	0.175619 
827.462064  	0.174906 
829.390880  	0.173751 
831.319696  	0.172357 
833.248512  	0.170556 
835.177328  	0.168130 
837.106144  	0.165739 
839.034960  	0.163049 
840.963776  	0.159776 
842.892592  	0.156411 
844.821408  	0.153488 
846.750224  	0.150779 
848.679040  	0.148319 
850.607856  	0.146423 
852.536672  	0.144684 
854.465488  	0.143130 
856.394304  	0.141770 
858.323120  	0.140293 
860.251936  	0.138177 
862.180752  	0.135934 
864.109568  	0.133619 
866.038384  	0.131264 
867.967200  	0.129312 
869.896016  	0.127248 
871.824832  	0.126066 
873.753648  	0.125559 
875.682464  	0.125710 
877.611280  	0.125509 
879.540096  	0.125642 
881.468912  	0.127222 
883.397728  	0.128427 
885.326544  	0.129187 
887.255360  	0.129111 
889.184176  	0.127922 
891.112992  	0.126114 
893.041808  	0.124751 
894.970624  	0.122848 
896.899440  	0.119947 
898.828256  	0.116378 
900.757072  	0.113005 
902.685888  	0.110280 
904.614704  	0.108433 
906.543520  	0.108103 
908.472336  	0.108983 
910.401152  	0.110591 
912.329968  	0.112278 
914.258784  	0.114352 
916.187600  	0.116253 
918.116416  	0.117975 
920.045232  	0.119200 
921.974048  	0.119937 
923.902864  	0.120117 
925.831680  	0.119884 
927.760496  	0.119796 
929.689312  	0.120073 
931.618128  	0.120467 
933.546944  	0.120618 
935.475760  	0.120653 
937.404576  	0.120351 
939.333392  	0.119736 
941.262208  	0.119426 
943.191024  	0.120152 
945.119840  	0.122494 
947.048656  	0.126634 
948.977472  	0.132286 
950.906288  	0.139300 
952.835104  	0.147358 
954.763920  	0.155911 
956.692736  	0.164128 
958.621552  	0.171126 
960.550368  	0.176090 
962.479184  	0.178641 
964.408000  	0.178194 
966.336816  	0.174543 
968.265632  	0.168126 
970.194448  	0.159401 
972.123264  	0.148960 
974.052080  	0.137928 
975.980896  	0.127195 
977.909712  	0.116963 
979.838528  	0.107636 
981.767344  	0.099721 
983.696160  	0.093376 
985.624976  	0.089164 
987.553792  	0.086991 
989.482608  	0.086939 
991.411424  	0.088741 
993.340240  	0.091835 
995.269056  	0.096010 
997.197872  	0.100482 
999.126688  	0.105091 
1001.055504  	0.109716 
1002.984320  	0.114614 
1004.913136  	0.119455 
1006.841952  	0.124350 
1008.770768  	0.128198 
1010.699584  	0.130921 
1012.628400  	0.132494 
1014.557216  	0.133001 
1016.486032  	0.133161 
1018.414848  	0.132889 
1020.343664  	0.132435 
1022.272480  	0.131573 
1024.201296  	0.130366 
1026.130112  	0.127117 
1028.058928  	0.125733 
1029.987744  	0.128378 
1031.916560  	0.129815 
1033.845376  	0.130387 
1035.774192  	0.130635 
1037.703008  	0.132102 
1039.631824  	0.136652 
1041.560640  	0.143317 
1043.489456  	0.152424 
1045.418272  	0.163864 
1047.347088  	0.176666 
1049.275904  	0.188916 
1051.204720  	0.198793 
1053.133536  	0.205224 
1055.062352  	0.208499 
1056.991168  	0.208930 
1058.919984  	0.210832 
1060.848800  	0.212698 
1062.777616  	0.211327 
1064.706432  	0.206538 
1066.635248  	0.202972 
1068.564064  	0.202971 
1070.492880  	0.200247 
1072.421696  	0.194504 
1074.350512  	0.190299 
1076.279328  	0.189423 
1078.208144  	0.192155 
1080.136960  	0.197710 
1082.065776  	0.204114 
1083.994592  	0.209337 
1085.923408  	0.211929 
1087.852224  	0.211205 
1089.781040  	0.208259 
1091.709856  	0.204144 
1093.638672  	0.197735 
1095.567488  	0.189023 
1097.496304  	0.178848 
1099.425120  	0.167858 
1101.353936  	0.156658 
1103.282752  	0.145849 
1105.211568  	0.135618 
1107.140384  	0.125549 
1109.069200  	0.116178 
1110.998016  	0.107661 
1112.926832  	0.100028 
1114.855648  	0.093044 
1116.784464  	0.086231 
1118.713280  	0.079962 
1120.642096  	0.074359 
1122.570912  	0.068955 
1124.499728  	0.063603 
1126.428544  	0.058865 
1128.357360  	0.054807 
1130.286176  	0.051753 
1132.214992  	0.048785 
1134.143808  	0.046303 
1136.072624  	0.044329 
1138.001440  	0.042932 
1139.930256  	0.041120 
1141.859072  	0.039154 
1143.787888  	0.037136 
1145.716704  	0.035494 
1147.645520  	0.033655 
1149.574336  	0.032062 
1151.503152  	0.030843 
1153.431968  	0.030265 
1155.360784  	0.030278 
1157.289600  	0.030826 
1159.218416  	0.031882 
1161.147232  	0.033453 
1163.076048  	0.035130 
1165.004864  	0.037036 
1166.933680  	0.038634 
1168.862496  	0.040417 
1170.791312  	0.042210 
1172.720128  	0.044477 
1174.648944  	0.046651 
1176.577760  	0.048978 
1178.506576  	0.051160 
1180.435392  	0.053446 
1182.364208  	0.055601 
1184.293024  	0.058071 
1186.221840  	0.060582 
1188.150656  	0.063389 
1190.079472  	0.066611 
1192.008288  	0.070505 
1193.937104  	0.075383 
1195.865920  	0.081377 
1197.794736  	0.087863 
1199.723552  	0.094871 
1201.652368  	0.102056 
1203.581184  	0.109578 
1205.510000  	0.117016 
1207.438816  	0.124079 
1209.367632  	0.130690 
1211.296448  	0.136619 
1213.225264  	0.141495 
1215.154080  	0.145395 
1217.082896  	0.148181 
1219.011712  	0.150237 
1220.940528  	0.151834 
1222.869344  	0.152896 
1224.798160  	0.153271 
1226.726976  	0.153207 
1228.655792  	0.152819 
1230.584608  	0.151829 
1232.513424  	0.150609 
1234.442240  	0.148813 
1236.371056  	0.146339 
1238.299872  	0.142860 
1240.228688  	0.137033 
1242.157504  	0.131138 
1244.086320  	0.126441 
1246.015136  	0.120362 
1247.943952  	0.113265 
1249.872768  	0.106169 
1251.801584  	0.100204 
1253.730400  	0.094239 
1255.659216  	0.088231 
1257.588032  	0.082640 
1259.516848  	0.077135 
1261.445664  	0.072110 
1263.374480  	0.067640 
1265.303296  	0.063954 
1267.232112  	0.060949 
1269.160928  	0.058667 
1271.089744  	0.056879 
1273.018560  	0.055851 
1274.947376  	0.055590 
1276.876192  	0.055684 
1278.805008  	0.055515 
1280.733824  	0.054681 
1282.662640  	0.053051 
1284.591456  	0.051052 
1286.520272  	0.049304 
1288.449088  	0.048147 
1290.377904  	0.047605 
1292.306720  	0.047857 
1294.235536  	0.047999 
1296.164352  	0.047388 
1298.093168  	0.045535 
1300.021984  	0.043105 
1301.950800  	0.040487 
1303.879616  	0.038089 
1305.808432  	0.035454 
1307.737248  	0.032814 
1309.666064  	0.030188 
1311.594880  	0.028385 
1313.523696  	0.026822 
1315.452512  	0.025706 
1317.381328  	0.025090 
1319.310144  	0.024774 
1321.238960  	0.024695 
1323.167776  	0.025265 
1325.096592  	0.025974 
1327.025408  	0.026499 
1328.954224  	0.026492 
1330.883040  	0.026123 
1332.811856  	0.025400 
1334.740672  	0.025027 
1336.669488  	0.024962 
1338.598304  	0.025052 
1340.527120  	0.023641 
1342.455936  	0.022396 
1344.384752  	0.022186 
1346.313568  	0.022377 
1348.242384  	0.022714 
1350.171200  	0.023636 
1352.100016  	0.024891 
1354.028832  	0.026363 
1355.957648  	0.027663 
1357.886464  	0.029376 
1359.815280  	0.031373 
1361.744096  	0.033071 
1363.672912  	0.033533 
1365.601728  	0.034617 
1367.530544  	0.035851 
1369.459360  	0.036060 
1371.388176  	0.036129 
1373.316992  	0.035026 
1375.245808  	0.031763 
1377.174624  	0.029859 
1379.103440  	0.027410 
1381.032256  	0.024871 
1382.961072  	0.023061 
1384.889888  	0.022774 
1386.818704  	0.022030 
1388.747520  	0.020281 
1390.676336  	0.018698 
1392.605152  	0.016158 
1394.533968  	0.014039 
1396.462784  	0.016516 
1398.391600  	0.017769 
1400.320416  	0.016618 
1402.249232  	0.017137 
1404.178048  	0.017431 
1406.106864  	0.017491 
1408.035680  	0.019239 
1409.964496  	0.021514 
1411.893312  	0.023930 
1413.822128  	0.026624 
1415.750944  	0.030158 
1417.679760  	0.032269 
1419.608576  	0.030825 
1421.537392  	0.031623 
1423.466208  	0.032414 
1425.395024  	0.030893 
1427.323840  	0.030456 
1429.252656  	0.028263 
1431.181472  	0.026491 
1433.110288  	0.026770 
1435.039104  	0.027742 
1436.967920  	0.025769 
1438.896736  	0.026340 
1440.825552  	0.028053 
1442.754368  	0.028710 
1444.683184  	0.029092 
1446.612000  	0.029042 
1448.540816  	0.027364 
1450.469632  	0.027986 
1452.398448  	0.029168 
1454.327264  	0.030654 
1456.256080  	0.029444 
1458.184896  	0.024790 
1460.113712  	0.027177 
1462.042528  	0.029827 
1463.971344  	0.029414 
1465.900160  	0.028660 
1467.828976  	0.031478 
1469.757792  	0.035054 
1471.686608  	0.036911 
1473.615424  	0.039567 
1475.544240  	0.045347 
1477.473056  	0.050301 
1479.401872  	0.054354 
1481.330688  	0.057183 
1483.259504  	0.059155 
1485.188320  	0.061138 
1487.117136  	0.061136 
1489.045952  	0.060011 
1490.974768  	0.056551 
1492.903584  	0.056031 
1494.832400  	0.054496 
1496.761216  	0.047968 
1498.690032  	0.042439 
1500.618848  	0.039762 
1502.547664  	0.037823 
1504.476480  	0.035423 
1506.405296  	0.027743 
1508.334112  	0.023626 
1510.262928  	0.025661 
1512.191744  	0.024953 
1514.120560  	0.024783 
1516.049376  	0.024106 
1517.978192  	0.022577 
1519.907008  	0.024311 
1521.835824  	0.022649 
1523.764640  	0.026687 
1525.693456  	0.030930 
1527.622272  	0.032522 
1529.551088  	0.033753 
1531.479904  	0.034394 
1533.408720  	0.029931 
1535.337536  	0.027389 
1537.266352  	0.027759 
1539.195168  	0.020503 
1541.123984  	0.012098 
1543.052800  	0.015100 
1544.981616  	0.016020 
1546.910432  	0.016575 
1548.839248  	0.017605 
1550.768064  	0.017161 
1552.696880  	0.017498 
1554.625696  	0.017498 
1556.554512  	0.018262 
1558.483328  	0.014232 
1560.412144  	0.014362 
1562.340960  	0.023341 
1564.269776  	0.027363 
1566.198592  	0.031526 
1568.127408  	0.035156 
1570.056224  	0.037553 
1571.985040  	0.043948 
1573.913856  	0.049127 
1575.842672  	0.048452 
1577.771488  	0.049727 
1579.700304  	0.053039 
1581.629120  	0.053385 
1583.557936  	0.052883 
1585.486752  	0.053355 
1587.415568  	0.055202 
1589.344384  	0.058608 
1591.273200  	0.063277 
1593.202016  	0.068871 
1595.130832  	0.074683 
1597.059648  	0.081107 
1598.988464  	0.086997 
1600.917280  	0.092101 
1602.846096  	0.095407 
1604.774912  	0.097698 
1606.703728  	0.098219 
1608.632544  	0.097344 
1610.561360  	0.095858 
1612.490176  	0.095106 
1614.418992  	0.093907 
1616.347808  	0.089605 
1618.276624  	0.088993 
1620.205440  	0.094482 
1622.134256  	0.097041 
1624.063072  	0.099819 
1625.991888  	0.105925 
1627.920704  	0.112077 
1629.849520  	0.119907 
1631.778336  	0.129044 
1633.707152  	0.135395 
1635.635968  	0.138704 
1637.564784  	0.146418 
1639.493600  	0.155973 
1641.422416  	0.161954 
1643.351232  	0.167056 
1645.280048  	0.168050 
1647.208864  	0.165157 
1649.137680  	0.168188 
1651.066496  	0.172649 
1652.995312  	0.163548 
1654.924128  	0.160983 
1656.852944  	0.165642 
1658.781760  	0.165886 
1660.710576  	0.163680 
1662.639392  	0.158324 
1664.568208  	0.154866 
1666.497024  	0.154798 
1668.425840  	0.149706 
1670.354656  	0.141660 
1672.283472  	0.139973 
1674.212288  	0.138387 
1676.141104  	0.132587 
1678.069920  	0.133134 
1679.998736  	0.133016 
1681.927552  	0.132573 
1683.856368  	0.125813 
1685.785184  	0.123175 
1687.714000  	0.127856 
1689.642816  	0.127998 
1691.571632  	0.127249 
1693.500448  	0.128063 
1695.429264  	0.123746 
1697.358080  	0.120236 
1699.286896  	0.119647 
1701.215712  	0.112850 
1703.144528  	0.114844 
1705.073344  	0.111899 
1707.002160  	0.106567 
1708.930976  	0.104235 
1710.859792  	0.099808 
1712.788608  	0.094547 
1714.717424  	0.087009 
1716.646240  	0.076261 
1718.575056  	0.062315 
1720.503872  	0.056859 
1722.432688  	0.051997 
1724.361504  	0.043584 
1726.290320  	0.037088 
1728.219136  	0.031853 
1730.147952  	0.026603 
1732.076768  	0.022739 
1734.005584  	0.015121 
1735.934400  	0.010289 
1737.863216  	0.011977 
1739.792032  	0.008284 
1741.720848  	0.007289 
1743.649664  	0.007021 
1745.578480  	0.006604 
1747.507296  	0.005276 
1749.436112  	0.004089 
1751.364928  	0.002633 
1753.293744  	0.002660 
1755.222560  	0.003153 
1757.151376  	0.001912 
1759.080192  	0.001589 
1761.009008  	0.001143 
1762.937824  	-0.000588 
1764.866640  	0.000592 
1766.795456  	0.001351 
1768.724272  	0.000436 
1770.653088  	-0.001302 
1772.581904  	-0.004644 
1774.510720  	-0.003591 
1776.439536  	-0.001571 
1778.368352  	-0.000906 
1780.297168  	-0.001329 
1782.225984  	-0.001886 
1784.154800  	-0.001337 
1786.083616  	-0.002053 
1788.012432  	-0.001458 
1789.941248  	-0.000983 
1791.870064  	-0.003029 
1793.798880  	-0.004753 
1795.727696  	-0.002647 
1797.656512  	-0.002511 
1799.585328  	-0.002843 
1801.514144  	-0.003027 
1803.442960  	-0.002730 
1805.371776  	-0.002945 
1807.300592  	-0.002645 
1809.229408  	-0.003133 
1811.158224  	-0.003741 
1813.087040  	-0.004065 
1815.015856  	-0.003351 
1816.944672  	-0.003291 
1818.873488  	-0.003319 
1820.802304  	-0.003361 
1822.731120  	-0.002571 
1824.659936  	-0.003629 
1826.588752  	-0.004445 
1828.517568  	-0.004701 
1830.446384  	-0.005756 
1832.375200  	-0.004751 
1834.304016  	-0.003479 
1836.232832  	-0.003664 
1838.161648  	-0.003673 
1840.090464  	-0.003687 
1842.019280  	-0.002789 
1843.948096  	-0.004465 
1845.876912  	-0.004954 
1847.805728  	-0.003960 
1849.734544  	-0.003875 
1851.663360  	-0.003974 
1853.592176  	-0.004045 
1855.520992  	-0.004227 
1857.449808  	-0.003869 
1859.378624  	-0.003889 
1861.307440  	-0.003938 
1863.236256  	-0.004143 
1865.165072  	-0.003771 
1867.093888  	-0.004017 
1869.022704  	-0.005157 
1870.951520  	-0.005506 
1872.880336  	-0.004313 
1874.809152  	-0.004332 
1876.737968  	-0.004517 
1878.666784  	-0.004837 
1880.595600  	-0.004188 
1882.524416  	-0.004348 
1884.453232  	-0.004385 
1886.382048  	-0.004478 
1888.310864  	-0.004304 
1890.239680  	-0.005270 
1892.168496  	-0.004619 
1894.097312  	-0.004290 
1896.026128  	-0.004385 
1897.954944  	-0.004741 
1899.883760  	-0.004544 
1901.812576  	-0.004612 
1903.741392  	-0.004487 
1905.670208  	-0.004435 
1907.599024  	-0.003830 
1909.527840  	-0.004397 
1911.456656  	-0.004462 
1913.385472  	-0.004432 
1915.314288  	-0.003658 
1917.243104  	-0.003948 
1919.171920  	-0.004747 
1921.100736  	-0.004325 
1923.029552  	-0.003905 
1924.958368  	-0.004250 
1926.887184  	-0.004210 
1928.816000  	-0.004989 
1930.744816  	-0.004860 
1932.673632  	-0.004918 
1934.602448  	-0.004412 
1936.531264  	-0.004230 
1938.460080  	-0.003790 
1940.388896  	-0.003567 
1942.317712  	-0.003801 
1944.246528  	-0.004678 
1946.175344  	-0.003600 
1948.104160  	-0.003815 
1950.032976  	-0.003657 
1951.961792  	-0.003986 
1953.890608  	-0.003980 
1955.819424  	-0.004356 
1957.748240  	-0.003376 
1959.677056  	-0.004050 
1961.605872  	-0.003592 
1963.534688  	-0.003353 
1965.463504  	-0.002457 
1967.392320  	-0.003971 
1969.321136  	-0.004050 
1971.249952  	-0.003455 
1973.178768  	-0.002812 
1975.107584  	-0.003775 
1977.036400  	-0.003040 
1978.965216  	-0.002487 
1980.894032  	-0.002706 
1982.822848  	-0.003570 
1984.751664  	-0.003095 
1986.680480  	-0.004085 
1988.609296  	-0.003697 
1990.538112  	-0.003566 
1992.466928  	-0.003042 
1994.395744  	-0.004007 
1996.324560  	-0.003705 
1998.253376  	-0.003926 
2000.182192  	-0.004171 
2002.111008  	-0.004272 
2004.039824  	-0.003245 
2005.968640  	-0.003912 
2007.897456  	-0.003253 
2009.826272  	-0.004143 
2011.755088  	-0.003838 
2013.683904  	-0.004530 
2015.612720  	-0.003963 
2017.541536  	-0.003967 
2019.470352  	-0.003376 
2021.399168  	-0.004353 
2023.327984  	-0.004642 
2025.256800  	-0.003444 
2027.185616  	-0.002278 
2029.114432  	-0.002751 
2031.043248  	-0.001932 
2032.972064  	-0.002303 
2034.900880  	-0.002002 
2036.829696  	-0.002889 
2038.758512  	-0.002245 
2040.687328  	-0.002619 
2042.616144  	-0.002023 
2044.544960  	-0.002518 
2046.473776  	-0.002703 
2048.402592  	-0.003155 
2050.331408  	-0.003082 
2052.260224  	-0.003911 
2054.189040  	-0.003982 
2056.117856  	-0.003687 
2058.046672  	-0.003642 
2059.975488  	-0.004626 
2061.904304  	-0.004882 
2063.833120  	-0.004717 
2065.761936  	-0.004760 
2067.690752  	-0.005013 
2069.619568  	-0.004140 
2071.548384  	-0.004082 
2073.477200  	-0.004446 
2075.406016  	-0.004405 
2077.334832  	-0.004058 
2079.263648  	-0.004351 
2081.192464  	-0.004059 
2083.121280  	-0.003839 
2085.050096  	-0.003993 
2086.978912  	-0.004223 
2088.907728  	-0.003866 
2090.836544  	-0.004040 
2092.765360  	-0.003764 
2094.694176  	-0.003513 
2096.622992  	-0.003535 
2098.551808  	-0.004030 
2100.480624  	-0.003971 
2102.409440  	-0.004216 
2104.338256  	-0.004143 
2106.267072  	-0.003895 
2108.195888  	-0.003367 
2110.124704  	-0.003338 
2112.053520  	-0.003331 
2113.982336  	-0.003608 
2115.911152  	-0.003492 
2117.839968  	-0.003260 
2119.768784  	-0.003413 
2121.697600  	-0.003957 
2123.626416  	-0.003909 
2125.555232  	-0.004314 
2127.484048  	-0.004067 
2129.412864  	-0.004392 
2131.341680  	-0.004460 
2133.270496  	-0.004092 
2135.199312  	-0.003536 
2137.128128  	-0.003410 
2139.056944  	-0.002562 
2140.985760  	-0.002834 
2142.914576  	-0.003037 
2144.843392  	-0.003188 
2146.772208  	-0.002884 
2148.701024  	-0.003197 
2150.629840  	-0.002533 
2152.558656  	-0.002530 
2154.487472  	-0.002169 
2156.416288  	-0.002174 
2158.345104  	-0.001870 
2160.273920  	-0.000758 
2162.202736  	-0.000167 
2164.131552  	-0.001000 
2166.060368  	-0.000541 
2167.989184  	-0.000851 
2169.918000  	-0.000841 
2171.846816  	-0.002394 
2173.775632  	-0.001670 
2175.704448  	-0.000948 
2177.633264  	-0.001178 
2179.562080  	-0.001912 
2181.490896  	-0.001754 
2183.419712  	-0.002868 
2185.348528  	-0.002965 
2187.277344  	-0.002700 
2189.206160  	-0.002473 
2191.134976  	-0.003019 
2193.063792  	-0.003032 
2194.992608  	-0.003059 
2196.921424  	-0.003037 
2198.850240  	-0.002651 
2200.779056  	-0.002741 
2202.707872  	-0.003622 
2204.636688  	-0.003500 
2206.565504  	-0.003301 
2208.494320  	-0.002908 
2210.423136  	-0.003803 
2212.351952  	-0.004025 
2214.280768  	-0.003829 
2216.209584  	-0.003474 
2218.138400  	-0.003919 
2220.067216  	-0.003779 
2221.996032  	-0.003664 
2223.924848  	-0.003074 
2225.853664  	-0.002914 
2227.782480  	-0.003068 
2229.711296  	-0.003887 
2231.640112  	-0.004534 
2233.568928  	-0.004934 
2235.497744  	-0.004166 
2237.426560  	-0.004271 
2239.355376  	-0.004439 
2241.284192  	-0.004522 
2243.213008  	-0.004310 
2245.141824  	-0.004377 
2247.070640  	-0.004211 
2248.999456  	-0.004281 
2250.928272  	-0.004547 
2252.857088  	-0.004775 
2254.785904  	-0.004818 
2256.714720  	-0.005260 
2258.643536  	-0.005690 
2260.572352  	-0.006009 
2262.501168  	-0.005341 
2264.429984  	-0.004922 
2266.358800  	-0.005050 
2268.287616  	-0.005284 
2270.216432  	-0.005348 
2272.145248  	-0.005203 
2274.074064  	-0.005164 
2276.002880  	-0.005175 
2277.931696  	-0.004802 
2279.860512  	-0.004619 
2281.789328  	-0.004645 
2283.718144  	-0.004941 
2285.646960  	-0.004716 
2287.575776  	-0.004341 
2289.504592  	-0.004451 
2291.433408  	-0.004904 
2293.362224  	-0.004852 
2295.291040  	-0.004588 
2297.219856  	-0.004049 
2299.148672  	-0.003968 
2301.077488  	-0.003956 
2303.006304  	-0.004086 
2304.935120  	-0.003812 
2306.863936  	-0.003570 
2308.792752  	-0.003561 
2310.721568  	-0.004077 
2312.650384  	-0.004645 
2314.579200  	-0.005166 
2316.508016  	-0.005629 
2318.436832  	-0.006316 
2320.365648  	-0.007586 
2322.294464  	-0.009086 
2324.223280  	-0.010610 
2326.152096  	-0.012390 
2328.080912  	-0.013646 
2330.009728  	-0.015294 
2331.938544  	-0.017023 
2333.867360  	-0.018131 
2335.796176  	-0.018985 
2337.724992  	-0.019810 
2339.653808  	-0.019799 
2341.582624  	-0.020292 
2343.511440  	-0.019989 
2345.440256  	-0.018253 
2347.369072  	-0.013886 
2349.297888  	-0.010180 
2351.226704  	-0.011635 
2353.155520  	-0.016481 
2355.084336  	-0.020194 
2357.013152  	-0.023211 
2358.941968  	-0.025055 
2360.870784  	-0.026232 
2362.799600  	-0.025648 
2364.728416  	-0.024957 
2366.657232  	-0.022775 
2368.586048  	-0.019683 
2370.514864  	-0.016944 
2372.443680  	-0.014517 
2374.372496  	-0.011580 
2376.301312  	-0.008684 
2378.230128  	-0.006725 
2380.158944  	-0.005717 
2382.087760  	-0.005180 
2384.016576  	-0.005177 
2385.945392  	-0.005362 
2387.874208  	-0.005509 
2389.803024  	-0.005665 
2391.731840  	-0.006075 
2393.660656  	-0.006087 
2395.589472  	-0.005859 
2397.518288  	-0.005619 
2399.447104  	-0.005831 
2401.375920  	-0.005832 
2403.304736  	-0.005943 
2405.233552  	-0.005866 
2407.162368  	-0.005891 
2409.091184  	-0.005985 
2411.020000  	-0.005956 
2412.948816  	-0.005821 
2414.877632  	-0.005716 
2416.806448  	-0.005632 
2418.735264  	-0.005794 
2420.664080  	-0.005866 
2422.592896  	-0.005867 
2424.521712  	-0.005879 
2426.450528  	-0.006036 
2428.379344  	-0.005821 
2430.308160  	-0.005532 
2432.236976  	-0.005434 
2434.165792  	-0.005560 
2436.094608  	-0.005660 
2438.023424  	-0.005607 
2439.952240  	-0.005410 
2441.881056  	-0.005439 
2443.809872  	-0.005341 
2445.738688  	-0.005174 
2447.667504  	-0.005175 
2449.596320  	-0.005338 
2451.525136  	-0.005107 
2453.453952  	-0.005106 
2455.382768  	-0.005255 
2457.311584  	-0.005387 
2459.240400  	-0.005476 
2461.169216  	-0.005449 
2463.098032  	-0.005437 
2465.026848  	-0.005493 
2466.955664  	-0.005462 
2468.884480  	-0.005690 
2470.813296  	-0.005760 
2472.742112  	-0.005704 
2474.670928  	-0.005636 
2476.599744  	-0.005741 
2478.528560  	-0.005629 
2480.457376  	-0.005541 
2482.386192  	-0.005401 
2484.315008  	-0.005265 
2486.243824  	-0.005491 
2488.172640  	-0.005590 
2490.101456  	-0.005115 
2492.030272  	-0.004898 
2493.959088  	-0.004905 
2495.887904  	-0.004911 
2497.816720  	-0.004975 
2499.745536  	-0.004854 
2501.674352  	-0.004784 
2503.603168  	-0.004586 
2505.531984  	-0.004387 
2507.460800  	-0.004593 
2509.389616  	-0.004673 
2511.318432  	-0.004753 
2513.247248  	-0.004686 
2515.176064  	-0.004649 
2517.104880  	-0.004666 
2519.033696  	-0.004823 
2520.962512  	-0.004751 
2522.891328  	-0.004490 
2524.820144  	-0.004343 
2526.748960  	-0.004276 
2528.677776  	-0.004232 
2530.606592  	-0.004316 
2532.535408  	-0.004277 
2534.464224  	-0.004379 
2536.393040  	-0.004438 
2538.321856  	-0.004384 
2540.250672  	-0.004223 
2542.179488  	-0.004167 
2544.108304  	-0.004225 
2546.037120  	-0.004137 
2547.965936  	-0.003815 
2549.894752  	-0.003719 
2551.823568  	-0.003810 
2553.752384  	-0.003727 
2555.681200  	-0.003288 
2557.610016  	-0.003268 
2559.538832  	-0.003442 
2561.467648  	-0.003405 
2563.396464  	-0.003038 
2565.325280  	-0.002908 
2567.254096  	-0.002975 
2569.182912  	-0.003180 
2571.111728  	-0.003298 
2573.040544  	-0.003337 
2574.969360  	-0.003031 
2576.898176  	-0.002654 
2578.826992  	-0.002678 
2580.755808  	-0.002790 
2582.684624  	-0.002658 
2584.613440  	-0.002685 
2586.542256  	-0.002694 
2588.471072  	-0.002660 
2590.399888  	-0.002586 
2592.328704  	-0.002486 
2594.257520  	-0.002668 
2596.186336  	-0.002734 
2598.115152  	-0.002427 
2600.043968  	-0.002218 
2601.972784  	-0.002041 
2603.901600  	-0.002230 
2605.830416  	-0.002212 
2607.759232  	-0.001957 
2609.688048  	-0.001800 
2611.616864  	-0.001816 
2613.545680  	-0.001822 
2615.474496  	-0.001731 
2617.403312  	-0.001532 
2619.332128  	-0.001505 
2621.260944  	-0.001436 
2623.189760  	-0.001372 
2625.118576  	-0.001342 
2627.047392  	-0.001298 
2628.976208  	-0.001182 
2630.905024  	-0.000999 
2632.833840  	-0.000868 
2634.762656  	-0.000882 
2636.691472  	-0.001010 
2638.620288  	-0.000962 
2640.549104  	-0.000733 
2642.477920  	-0.000597 
2644.406736  	-0.000463 
2646.335552  	-0.000355 
2648.264368  	-0.000239 
2650.193184  	-0.000225 
2652.122000  	-0.000102 
2654.050816  	0.000025 
2655.979632  	0.000163 
2657.908448  	0.000281 
2659.837264  	0.000410 
2661.766080  	0.000562 
2663.694896  	0.000637 
2665.623712  	0.000634 
2667.552528  	0.000780 
2669.481344  	0.000976 
2671.410160  	0.001039 
2673.338976  	0.001103 
2675.267792  	0.001243 
2677.196608  	0.001388 
2679.125424  	0.001527 
2681.054240  	0.001649 
2682.983056  	0.001749 
2684.911872  	0.001711 
2686.840688  	0.001724 
2688.769504  	0.001821 
2690.698320  	0.001942 
2692.627136  	0.001975 
2694.555952  	0.001998 
2696.484768  	0.002018 
2698.413584  	0.002102 
2700.342400  	0.002151 
2702.271216  	0.002298 
2704.200032  	0.002515 
2706.128848  	0.002586 
2708.057664  	0.002540 
2709.986480  	0.002636 
2711.915296  	0.002722 
2713.844112  	0.002845 
2715.772928  	0.002930 
2717.701744  	0.003044 
2719.630560  	0.003184 
2721.559376  	0.003308 
2723.488192  	0.003544 
2725.417008  	0.003698 
2727.345824  	0.003750 
2729.274640  	0.003800 
2731.203456  	0.003953 
2733.132272  	0.004144 
2735.061088  	0.004202 
2736.989904  	0.004278 
2738.918720  	0.004334 
2740.847536  	0.004358 
2742.776352  	0.004250 
2744.705168  	0.004363 
2746.633984  	0.004517 
2748.562800  	0.004577 
2750.491616  	0.004591 
2752.420432  	0.004732 
2754.349248  	0.004653 
2756.278064  	0.004521 
2758.206880  	0.004509 
2760.135696  	0.004507 
2762.064512  	0.004509 
2763.993328  	0.004507 
2765.922144  	0.004535 
2767.850960  	0.004545 
2769.779776  	0.004546 
2771.708592  	0.004664 
2773.637408  	0.004664 
2775.566224  	0.004579 
2777.495040  	0.004393 
2779.423856  	0.004421 
2781.352672  	0.004591 
2783.281488  	0.004578 
2785.210304  	0.004540 
2787.139120  	0.004572 
2789.067936  	0.004552 
2790.996752  	0.004533 
2792.925568  	0.004457 
2794.854384  	0.004475 
2796.783200  	0.004464 
2798.712016  	0.004392 
2800.640832  	0.004340 
2802.569648  	0.004478 
2804.498464  	0.004551 
2806.427280  	0.004469 
2808.356096  	0.004331 
2810.284912  	0.004291 
2812.213728  	0.004208 
2814.142544  	0.004181 
2816.071360  	0.004234 
2818.000176  	0.004121 
2819.928992  	0.003990 
2821.857808  	0.003866 
2823.786624  	0.003679 
2825.715440  	0.003642 
2827.644256  	0.003530 
2829.573072  	0.003400 
2831.501888  	0.003141 
2833.430704  	0.002839 
2835.359520  	0.002529 
2837.288336  	0.002270 
2839.217152  	0.001965 
2841.145968  	0.001576 
2843.074784  	0.001167 
2845.003600  	0.000754 
2846.932416  	0.000336 
2848.861232  	-0.000006 
2850.790048  	-0.000371 
2852.718864  	-0.000873 
2854.647680  	-0.001396 
2856.576496  	-0.001994 
2858.505312  	-0.002636 
2860.434128  	-0.003180 
2862.362944  	-0.003904 
2864.291760  	-0.004695 
2866.220576  	-0.005367 
2868.149392  	-0.005813 
2870.078208  	-0.006082 
2872.007024  	-0.006116 
2873.935840  	-0.006108 
2875.864656  	-0.006204 
2877.793472  	-0.006433 
2879.722288  	-0.006715 
2881.651104  	-0.007106 
2883.579920  	-0.007352 
2885.508736  	-0.007250 
2887.437552  	-0.007006 
2889.366368  	-0.007018 
2891.295184  	-0.007356 
2893.224000  	-0.007517 
2895.152816  	-0.007463 
2897.081632  	-0.007861 
2899.010448  	-0.009685 
2900.939264  	-0.011203 
2902.868080  	-0.009867 
2904.796896  	-0.008509 
2906.725712  	-0.007950 
2908.654528  	-0.007397 
2910.583344  	-0.007089 
2912.512160  	-0.006618 
2914.440976  	-0.005623 
2916.369792  	-0.004883 
2918.298608  	-0.004380 
2920.227424  	-0.004064 
2922.156240  	-0.003610 
2924.085056  	-0.002939 
2926.013872  	-0.002035 
2927.942688  	-0.001068 
2929.871504  	-0.000183 
2931.800320  	0.000619 
2933.729136  	0.001323 
2935.657952  	0.001805 
2937.586768  	0.002427 
2939.515584  	0.003050 
2941.444400  	0.003296 
2943.373216  	0.003358 
2945.302032  	0.003697 
2947.230848  	0.003907 
2949.159664  	0.003613 
2951.088480  	0.003013 
2953.017296  	0.002483 
2954.946112  	0.001880 
2956.874928  	0.001116 
2958.803744  	0.000300 
2960.732560  	-0.000221 
2962.661376  	-0.000761 
2964.590192  	-0.001739 
2966.519008  	-0.002803 
2968.447824  	-0.003706 
2970.376640  	-0.004576 
2972.305456  	-0.005019 
2974.234272  	-0.004733 
2976.163088  	-0.004392 
2978.091904  	-0.004429 
2980.020720  	-0.004536 
2981.949536  	-0.004223 
2983.878352  	-0.004288 
2985.807168  	-0.005317 
2987.735984  	-0.006380 
2989.664800  	-0.006041 
2991.593616  	-0.002898 
2993.522432  	-0.000889 
2995.451248  	-0.000432 
2997.380064  	0.000374 
2999.308880  	0.001646 
3001.237696  	0.002967 
3003.166512  	0.004328 
3005.095328  	0.005742 
3007.024144  	0.007246 
3008.952960  	0.008619 
3010.881776  	0.009968 
3012.810592  	0.011357 
3014.739408  	0.012701 
3016.668224  	0.013836 
3018.597040  	0.014999 
3020.525856  	0.016189 
3022.454672  	0.017239 
3024.383488  	0.018324 
3026.312304  	0.019284 
3028.241120  	0.020347 
3030.169936  	0.021346 
3032.098752  	0.022001 
3034.027568  	0.022645 
3035.956384  	0.023378 
3037.885200  	0.024278 
3039.814016  	0.025006 
3041.742832  	0.025544 
3043.671648  	0.026062 
3045.600464  	0.026656 
3047.529280  	0.027237 
3049.458096  	0.027761 
3051.386912  	0.028391 
3053.315728  	0.028986 
3055.244544  	0.029422 
3057.173360  	0.030006 
3059.102176  	0.030560 
3061.030992  	0.031151 
3062.959808  	0.031761 
3064.888624  	0.032243 
3066.817440  	0.032924 
3068.746256  	0.033783 
3070.675072  	0.034510 
3072.603888  	0.035078 
3074.532704  	0.035759 
3076.461520  	0.036442 
3078.390336  	0.037126 
3080.319152  	0.037863 
3082.247968  	0.038702 
3084.176784  	0.039450 
3086.105600  	0.040112 
3088.034416  	0.040754 
3089.963232  	0.041430 
3091.892048  	0.042022 
3093.820864  	0.042656 
3095.749680  	0.043248 
3097.678496  	0.043933 
3099.607312  	0.044733 
3101.536128  	0.045663 
3103.464944  	0.046598 
3105.393760  	0.047124 
3107.322576  	0.047706 
3109.251392  	0.048564 
3111.180208  	0.049164 
3113.109024  	0.049798 
3115.037840  	0.050534 
3116.966656  	0.051176 
3118.895472  	0.051821 
3120.824288  	0.052625 
3122.753104  	0.053238 
3124.681920  	0.053561 
3126.610736  	0.053934 
3128.539552  	0.054770 
3130.468368  	0.055639 
3132.397184  	0.056106 
3134.326000  	0.056613 
3136.254816  	0.057125 
3138.183632  	0.057848 
3140.112448  	0.058473 
3142.041264  	0.058920 
3143.970080  	0.059437 
3145.898896  	0.060116 
3147.827712  	0.060749 
3149.756528  	0.061263 
3151.685344  	0.061716 
3153.614160  	0.062422 
3155.542976  	0.063081 
3157.471792  	0.063640 
3159.400608  	0.064318 
3161.329424  	0.065017 
3163.258240  	0.065526 
3165.187056  	0.066038 
3167.115872  	0.066561 
3169.044688  	0.066953 
3170.973504  	0.067317 
3172.902320  	0.067713 
3174.831136  	0.068134 
3176.759952  	0.068750 
3178.688768  	0.069094 
3180.617584  	0.069445 
3182.546400  	0.069873 
3184.475216  	0.070261 
3186.404032  	0.070306 
3188.332848  	0.070479 
3190.261664  	0.070850 
3192.190480  	0.071135 
3194.119296  	0.071115 
3196.048112  	0.071255 
3197.976928  	0.071161 
3199.905744  	0.071202 
3201.834560  	0.071156 
3203.763376  	0.071163 
3205.692192  	0.071294 
3207.621008  	0.071298 
3209.549824  	0.071168 
3211.478640  	0.071147 
3213.407456  	0.071006 
3215.336272  	0.070841 
3217.265088  	0.071005 
3219.193904  	0.070827 
3221.122720  	0.070387 
3223.051536  	0.070382 
3224.980352  	0.070561 
3226.909168  	0.070441 
3228.837984  	0.070056 
3230.766800  	0.069868 
3232.695616  	0.069804 
3234.624432  	0.069765 
3236.553248  	0.069738 
3238.482064  	0.069845 
3240.410880  	0.069985 
3242.339696  	0.070092 
3244.268512  	0.069934 
3246.197328  	0.069952 
3248.126144  	0.070329 
3250.054960  	0.070567 
3251.983776  	0.070808 
3253.912592  	0.070905 
3255.841408  	0.071018 
3257.770224  	0.071319 
3259.699040  	0.071586 
3261.627856  	0.071787 
3263.556672  	0.071955 
3265.485488  	0.072048 
3267.414304  	0.072402 
3269.343120  	0.072961 
3271.271936  	0.073281 
3273.200752  	0.073256 
3275.129568  	0.073286 
3277.058384  	0.073681 
3278.987200  	0.073941 
3280.916016  	0.074155 
3282.844832  	0.074349 
3284.773648  	0.074522 
3286.702464  	0.074819 
3288.631280  	0.075049 
3290.560096  	0.075343 
3292.488912  	0.075739 
3294.417728  	0.076012 
3296.346544  	0.076299 
3298.275360  	0.076406 
3300.204176  	0.076702 
3302.132992  	0.077129 
3304.061808  	0.077479 
3305.990624  	0.078070 
3307.919440  	0.078414 
3309.848256  	0.078514 
3311.777072  	0.078859 
3313.705888  	0.079187 
3315.634704  	0.079698 
3317.563520  	0.079937 
3319.492336  	0.080215 
3321.421152  	0.080513 
3323.349968  	0.080813 
3325.278784  	0.081111 
3327.207600  	0.081209 
3329.136416  	0.081034 
3331.065232  	0.081244 
3332.994048  	0.081668 
3334.922864  	0.081766 
3336.851680  	0.081623 
3338.780496  	0.081509 
3340.709312  	0.081539 
3342.638128  	0.081595 
3344.566944  	0.081483 
3346.495760  	0.081292 
3348.424576  	0.080970 
3350.353392  	0.080573 
3352.282208  	0.080241 
3354.211024  	0.080084 
3356.139840  	0.079953 
3358.068656  	0.079814 
3359.997472  	0.079685 
3361.926288  	0.079377 
3363.855104  	0.078969 
3365.783920  	0.078662 
3367.712736  	0.078216 
3369.641552  	0.077837 
3371.570368  	0.077479 
3373.499184  	0.077244 
3375.428000  	0.076886 
3377.356816  	0.076550 
3379.285632  	0.076470 
3381.214448  	0.076228 
3383.143264  	0.075942 
3385.072080  	0.075443 
3387.000896  	0.075051 
3388.929712  	0.074795 
3390.858528  	0.074672 
3392.787344  	0.074241 
3394.716160  	0.073733 
3396.644976  	0.073415 
3398.573792  	0.073057 
3400.502608  	0.072778 
3402.431424  	0.072367 
3404.360240  	0.071866 
3406.289056  	0.071407 
3408.217872  	0.071067 
3410.146688  	0.070551 
3412.075504  	0.070097 
3414.004320  	0.069676 
3415.933136  	0.069326 
3417.861952  	0.068815 
3419.790768  	0.068388 
3421.719584  	0.067920 
3423.648400  	0.067494 
3425.577216  	0.066883 
3427.506032  	0.066338 
3429.434848  	0.066046 
3431.363664  	0.065522 
3433.292480  	0.064897 
3435.221296  	0.064285 
3437.150112  	0.063835 
3439.078928  	0.063536 
3441.007744  	0.062904 
3442.936560  	0.062294 
3444.865376  	0.062091 
3446.794192  	0.061041 
3448.723008  	0.060086 
3450.651824  	0.059913 
3452.580640  	0.059476 
3454.509456  	0.059053 
3456.438272  	0.058479 
3458.367088  	0.057961 
3460.295904  	0.057370 
3462.224720  	0.056526 
3464.153536  	0.055637 
3466.082352  	0.054998 
3468.011168  	0.054205 
3469.939984  	0.053601 
3471.868800  	0.053099 
3473.797616  	0.052485 
3475.726432  	0.051691 
3477.655248  	0.051090 
3479.584064  	0.050618 
3481.512880  	0.049527 
3483.441696  	0.048432 
3485.370512  	0.047975 
3487.299328  	0.047137 
3489.228144  	0.046487 
3491.156960  	0.045878 
3493.085776  	0.045134 
3495.014592  	0.044329 
3496.943408  	0.043595 
3498.872224  	0.043202 
3500.801040  	0.043137 
3502.729856  	0.041971 
3504.658672  	0.040540 
3506.587488  	0.040490 
3508.516304  	0.040300 
3510.445120  	0.039097 
3512.373936  	0.038341 
3514.302752  	0.037799 
3516.231568  	0.037643 
3518.160384  	0.037364 
3520.089200  	0.036845 
3522.018016  	0.036496 
3523.946832  	0.035872 
3525.875648  	0.035090 
3527.804464  	0.033895 
3529.733280  	0.032892 
3531.662096  	0.032511 
3533.590912  	0.032216 
3535.519728  	0.031793 
3537.448544  	0.031020 
3539.377360  	0.030383 
3541.306176  	0.030195 
3543.234992  	0.030381 
3545.163808  	0.030090 
3547.092624  	0.028681 
3549.021440  	0.027615 
3550.950256  	0.027305 
3552.879072  	0.026173 
3554.807888  	0.025606 
3556.736704  	0.025518 
3558.665520  	0.025471 
3560.594336  	0.025054 
3562.523152  	0.024316 
3564.451968  	0.024442 
3566.380784  	0.023354 
3568.309600  	0.020254 
3570.238416  	0.020191 
3572.167232  	0.020573 
3574.096048  	0.019871 
3576.024864  	0.018996 
3577.953680  	0.018693 
3579.882496  	0.018147 
3581.811312  	0.017701 
3583.740128  	0.017624 
3585.668944  	0.017758 
3587.597760  	0.015112 
3589.526576  	0.013256 
3591.455392  	0.014144 
3593.384208  	0.014084 
3595.313024  	0.012422 
3597.241840  	0.011174 
3599.170656  	0.010271 
3601.099472  	0.009023 
3603.028288  	0.009009 
3604.957104  	0.009765 
3606.885920  	0.009339 
3608.814736  	0.007106 
3610.743552  	0.006824 
3612.672368  	0.005822 
3614.601184  	0.004112 
3616.530000  	0.004640 
3618.458816  	0.002393 
3620.387632  	-0.000324 
3622.316448  	0.000737 
3624.245264  	0.001804 
3626.174080  	0.002361 
3628.102896  	-0.000967 
3630.031712  	-0.007170 
3631.960528  	-0.003980 
3633.889344  	-0.003571 
3635.818160  	-0.004364 
3637.746976  	-0.004782 
3639.675792  	-0.005043 
3641.604608  	-0.005162 
3643.533424  	-0.005422 
3645.462240  	-0.005166 
3647.391056  	-0.008427 
3649.319872  	-0.014635 
3651.248688  	-0.017414 
3653.177504  	-0.013026 
3655.106320  	-0.011994 
3657.035136  	-0.015845 
3658.963952  	-0.015224 
3660.892768  	-0.014523 
3662.821584  	-0.014705 
3664.750400  	-0.014432 
3666.679216  	-0.013620 
3668.608032  	-0.015419 
3670.536848  	-0.020598 
3672.465664  	-0.017874 
3674.394480  	-0.017643 
3676.323296  	-0.025035 
3678.252112  	-0.020722 
3680.180928  	-0.018311 
3682.109744  	-0.017217 
3684.038560  	-0.016891 
3685.967376  	-0.015911 
3687.896192  	-0.018116 
3689.825008  	-0.022864 
3691.753824  	-0.022417 
3693.682640  	-0.019329 
3695.611456  	-0.017480 
3697.540272  	-0.016621 
3699.469088  	-0.015224 
3701.397904  	-0.016454 
3703.326720  	-0.017139 
3705.255536  	-0.015113 
3707.184352  	-0.013995 
3709.113168  	-0.015316 
3711.041984  	-0.018718 
3712.970800  	-0.019280 
3714.899616  	-0.015520 
3716.828432  	-0.013556 
3718.757248  	-0.013831 
3720.686064  	-0.014327 
3722.614880  	-0.015245 
3724.543696  	-0.014626 
3726.472512  	-0.015307 
3728.401328  	-0.015044 
3730.330144  	-0.013881 
3732.258960  	-0.015580 
3734.187776  	-0.015999 
3736.116592  	-0.018814 
3738.045408  	-0.018506 
3739.974224  	-0.015080 
3741.903040  	-0.012304 
3743.831856  	-0.014848 
3745.760672  	-0.019913 
3747.689488  	-0.015704 
3749.618304  	-0.017729 
3751.547120  	-0.021738 
3753.475936  	-0.019947 
3755.404752  	-0.015598 
3757.333568  	-0.014633 
3759.262384  	-0.015967 
3761.191200  	-0.016245 
3763.120016  	-0.013345 
3765.048832  	-0.013908 
3766.977648  	-0.014425 
3768.906464  	-0.014844 
3770.835280  	-0.016602 
3772.764096  	-0.014724 
3774.692912  	-0.013483 
3776.621728  	-0.012971 
3778.550544  	-0.014290 
3780.479360  	-0.016335 
3782.408176  	-0.014329 
3784.336992  	-0.014336 
3786.265808  	-0.014532 
3788.194624  	-0.013892 
3790.123440  	-0.013639 
3792.052256  	-0.013460 
3793.981072  	-0.012777 
3795.909888  	-0.014467 
3797.838704  	-0.015107 
3799.767520  	-0.014033 
3801.696336  	-0.019626 
3803.625152  	-0.018158 
3805.553968  	-0.015054 
3807.482784  	-0.018198 
3809.411600  	-0.016079 
3811.340416  	-0.013395 
3813.269232  	-0.012017 
3815.198048  	-0.014488 
3817.126864  	-0.017702 
3819.055680  	-0.014843 
3820.984496  	-0.019119 
3822.913312  	-0.019361 
3824.842128  	-0.014719 
3826.770944  	-0.015178 
3828.699760  	-0.014622 
3830.628576  	-0.014238 
3832.557392  	-0.015338 
3834.486208  	-0.014876 
3836.415024  	-0.015603 
3838.343840  	-0.018181 
3840.272656  	-0.018369 
3842.201472  	-0.016379 
3844.130288  	-0.016231 
3846.059104  	-0.014883 
3847.987920  	-0.012941 
3849.916736  	-0.011916 
3851.845552  	-0.013475 
3853.774368  	-0.022761 
3855.703184  	-0.020980 
3857.632000  	-0.016169 
3859.560816  	-0.013438 
3861.489632  	-0.013136 
3863.418448  	-0.014549 
3865.347264  	-0.016111 
3867.276080  	-0.013630 
3869.204896  	-0.014485 
3871.133712  	-0.017125 
3873.062528  	-0.015236 
3874.991344  	-0.016164 
3876.920160  	-0.013528 
3878.848976  	-0.012139 
3880.777792  	-0.014490 
3882.706608  	-0.013548 
3884.635424  	-0.013081 
3886.564240  	-0.016148 
3888.493056  	-0.013803 
3890.421872  	-0.013756 
3892.350688  	-0.016209 
3894.279504  	-0.014610 
3896.208320  	-0.012463 
3898.137136  	-0.012033 
3900.065952  	-0.013306 
3901.994768  	-0.013931 
3903.923584  	-0.015543 
3905.852400  	-0.016238 
3907.781216  	-0.014707 
3909.710032  	-0.013630 
3911.638848  	-0.013340 
3913.567664  	-0.012783 
3915.496480  	-0.012198 
3917.425296  	-0.013315 
3919.354112  	-0.013977 
3921.282928  	-0.013530 
3923.211744  	-0.012710 
3925.140560  	-0.013483 
3927.069376  	-0.013366 
3928.998192  	-0.012892 
3930.927008  	-0.012932 
3932.855824  	-0.013520 
3934.784640  	-0.013705 
3936.713456  	-0.013258 
3938.642272  	-0.012897 
3940.571088  	-0.012291 
3942.499904  	-0.012766 
3944.428720  	-0.013287 
3946.357536  	-0.012370 
3948.286352  	-0.012471 
3950.215168  	-0.013324 
3952.143984  	-0.013574 
3954.072800  	-0.013365 
3956.001616  	-0.013094 
3957.930432  	-0.013136 
3959.859248  	-0.013091 
3961.788064  	-0.013278 
3963.716880  	-0.013631 
3965.645696  	-0.013560 
3967.574512  	-0.013334 
3969.503328  	-0.013148 
3971.432144  	-0.013253 
3973.360960  	-0.013296 
3975.289776  	-0.013411 
3977.218592  	-0.013432 
3979.147408  	-0.013344 
3981.076224  	-0.013359 
3983.005040  	-0.013286 
3984.933856  	-0.013192 
3986.862672  	-0.013309 
3988.791488  	-0.013197 
3990.720304  	-0.013185 
3992.649120  	-0.013232 
3994.577936  	-0.013360 
3996.506752  	-0.013330 
3998.435568  	-0.013201 
4000.364384  	-0.013191 