##TITLE=No Description
##DATA TYPE=INFRARED SPECTRUM
##XUNITS=1/CM
##YUNITS=Abs
399.264912  	0.657160 
401.193728  	0.646469 
403.122544  	0.641005 
405.051360  	0.633925 
406.980176  	0.634700 
408.908992  	0.622141 
410.837808  	0.626668 
412.766624  	0.615953 
414.695440  	0.607470 
416.624256  	0.598542 
418.553072  	0.582273 
420.481888  	0.567821 
422.410704  	0.582711 
424.339520  	0.588717 
426.268336  	0.585099 
428.197152  	0.570683 
430.125968  	0.577592 
432.054784  	0.578603 
433.983600  	0.579598 
435.912416  	0.567253 
437.841232  	0.563482 
439.770048  	0.565883 
441.698864  	0.565207 
443.627680  	0.561990 
445.556496  	0.567664 
447.485312  	0.559450 
449.414128  	0.556040 
451.342944  	0.554856 
453.271760  	0.553635 
455.200576  	0.547904 
457.129392  	0.549072 
459.058208  	0.546274 
460.987024  	0.551588 
462.915840  	0.549805 
464.844656  	0.547888 
466.773472  	0.545894 
468.702288  	0.546738 
470.631104  	0.542030 
472.559920  	0.542726 
474.488736  	0.536786 
476.417552  	0.537525 
478.346368  	0.535155 
480.275184  	0.537715 
482.204000  	0.532459 
484.132816  	0.528013 
486.061632  	0.525247 
487.990448  	0.530915 
489.919264  	0.529478 
491.848080  	0.529005 
493.776896  	0.523556 
495.705712  	0.521473 
497.634528  	0.520678 
499.563344  	0.524239 
501.492160  	0.522084 
503.420976  	0.520596 
505.349792  	0.519326 
507.278608  	0.521634 
509.207424  	0.520823 
511.136240  	0.522768 
513.065056  	0.521382 
514.993872  	0.521719 
516.922688  	0.519900 
518.851504  	0.520149 
520.780320  	0.518625 
522.709136  	0.518638 
524.637952  	0.517084 
526.566768  	0.515818 
528.495584  	0.515783 
530.424400  	0.516808 
532.353216  	0.511360 
534.282032  	0.507737 
536.210848  	0.503571 
538.139664  	0.498826 
540.068480  	0.493420 
541.997296  	0.489753 
543.926112  	0.485385 
545.854928  	0.482537 
547.783744  	0.479343 
549.712560  	0.477015 
551.641376  	0.472983 
553.570192  	0.469900 
555.499008  	0.465293 
557.427824  	0.462122 
559.356640  	0.458346 
561.285456  	0.456248 
563.214272  	0.453957 
565.143088  	0.452406 
567.071904  	0.448717 
569.000720  	0.445155 
570.929536  	0.442596 
572.858352  	0.440824 
574.787168  	0.437618 
576.715984  	0.435550 
578.644800  	0.432047 
580.573616  	0.429108 
582.502432  	0.424950 
584.431248  	0.422108 
586.360064  	0.419004 
588.288880  	0.417192 
590.217696  	0.415415 
592.146512  	0.412976 
594.075328  	0.409221 
596.004144  	0.407154 
597.932960  	0.404424 
599.861776  	0.401948 
601.790592  	0.399489 
603.719408  	0.398380 
605.648224  	0.397261 
607.577040  	0.396710 
609.505856  	0.395351 
611.434672  	0.393236 
613.363488  	0.390209 
615.292304  	0.389006 
617.221120  	0.387242 
619.149936  	0.385187 
621.078752  	0.383504 
623.007568  	0.382975 
624.936384  	0.381375 
626.865200  	0.379796 
628.794016  	0.377706 
630.722832  	0.376725 
632.651648  	0.375698 
634.580464  	0.374576 
636.509280  	0.373709 
638.438096  	0.373035 
640.366912  	0.371346 
642.295728  	0.369706 
644.224544  	0.367334 
646.153360  	0.364432 
648.082176  	0.360479 
650.010992  	0.357214 
651.939808  	0.354093 
653.868624  	0.350516 
655.797440  	0.346342 
657.726256  	0.342823 
659.655072  	0.339446 
661.583888  	0.335994 
663.512704  	0.331965 
665.441520  	0.329074 
667.370336  	0.324227 
669.299152  	0.319199 
671.227968  	0.317515 
673.156784  	0.314811 
675.085600  	0.312097 
677.014416  	0.310035 
678.943232  	0.307630 
680.872048  	0.305842 
682.800864  	0.303492 
684.729680  	0.301186 
686.658496  	0.299705 
688.587312  	0.298784 
690.516128  	0.296478 
692.444944  	0.294642 
694.373760  	0.292909 
696.302576  	0.290775 
698.231392  	0.288283 
700.160208  	0.285760 
702.089024  	0.283407 
704.017840  	0.281297 
705.946656  	0.278645 
707.875472  	0.276220 
709.804288  	0.274402 
711.733104  	0.272311 
713.661920  	0.269902 
715.590736  	0.268431 
717.519552  	0.267286 
719.448368  	0.266668 
721.377184  	0.265827 
723.306000  	0.265142 
725.234816  	0.264768 
727.163632  	0.263764 
729.092448  	0.261429 
731.021264  	0.258387 
732.950080  	0.255540 
734.878896  	0.252983 
736.807712  	0.250332 
738.736528  	0.248062 
740.665344  	0.245972 
742.594160  	0.244103 
744.522976  	0.242415 
746.451792  	0.240434 
748.380608  	0.238266 
750.309424  	0.236634 
752.238240  	0.235173 
754.167056  	0.233691 
756.095872  	0.231822 
758.024688  	0.230520 
759.953504  	0.229513 
761.882320  	0.229350 
763.811136  	0.228986 
765.739952  	0.227635 
767.668768  	0.225139 
769.597584  	0.222546 
771.526400  	0.220859 
773.455216  	0.221174 
775.384032  	0.222757 
777.312848  	0.225135 
779.241664  	0.227267 
781.170480  	0.227127 
783.099296  	0.223777 
785.028112  	0.219011 
786.956928  	0.214173 
788.885744  	0.209838 
790.814560  	0.206673 
792.743376  	0.204364 
794.672192  	0.202345 
796.601008  	0.200913 
798.529824  	0.198413 
800.458640  	0.194611 
802.387456  	0.191036 
804.316272  	0.188709 
806.245088  	0.187157 
808.173904  	0.185696 
810.102720  	0.184253 
812.031536  	0.183187 
813.960352  	0.182612 
815.889168  	0.182039 
817.817984  	0.181224 
819.746800  	0.180562 
821.675616  	0.179796 
823.604432  	0.178775 
825.533248  	0.177302 
827.462064  	0.176230 
829.390880  	0.174932 
831.319696  	0.173391 
833.248512  	0.171568 
835.177328  	0.169316 
837.106144  	0.166860 
839.034960  	0.164159 
840.963776  	0.161281 
842.892592  	0.158180 
844.821408  	0.155032 
846.750224  	0.152352 
848.679040  	0.149860 
850.607856  	0.147795 
852.536672  	0.146126 
854.465488  	0.144536 
856.394304  	0.142990 
858.323120  	0.141599 
860.251936  	0.139396 
862.180752  	0.137020 
864.109568  	0.134363 
866.038384  	0.131685 
867.967200  	0.129722 
869.896016  	0.127930 
871.824832  	0.126406 
873.753648  	0.125522 
875.682464  	0.125733 
877.611280  	0.125613 
879.540096  	0.125253 
881.468912  	0.126324 
883.397728  	0.127074 
885.326544  	0.127534 
887.255360  	0.127275 
889.184176  	0.125857 
891.112992  	0.123949 
893.041808  	0.122680 
894.970624  	0.120900 
896.899440  	0.118196 
898.828256  	0.115066 
900.757072  	0.112126 
902.685888  	0.109764 
904.614704  	0.108229 
906.543520  	0.108021 
908.472336  	0.108731 
910.401152  	0.109856 
912.329968  	0.111299 
914.258784  	0.113238 
916.187600  	0.115015 
918.116416  	0.116438 
920.045232  	0.117353 
921.974048  	0.117906 
923.902864  	0.117928 
925.831680  	0.117346 
927.760496  	0.116997 
929.689312  	0.117153 
931.618128  	0.117502 
933.546944  	0.117582 
935.475760  	0.117509 
937.404576  	0.117164 
939.333392  	0.116580 
941.262208  	0.116127 
943.191024  	0.116724 
945.119840  	0.118846 
947.048656  	0.122307 
948.977472  	0.127028 
950.906288  	0.132869 
952.835104  	0.139380 
954.763920  	0.146302 
956.692736  	0.152941 
958.621552  	0.158669 
960.550368  	0.162596 
962.479184  	0.164638 
964.408000  	0.164203 
966.336816  	0.160978 
968.265632  	0.155133 
970.194448  	0.147269 
972.123264  	0.138214 
974.052080  	0.128480 
975.980896  	0.118731 
977.909712  	0.109496 
979.838528  	0.101296 
981.767344  	0.094273 
983.696160  	0.088551 
985.624976  	0.084658 
987.553792  	0.082565 
989.482608  	0.082312 
991.411424  	0.083669 
993.340240  	0.086231 
995.269056  	0.089724 
997.197872  	0.093603 
999.126688  	0.097632 
1001.055504  	0.101673 
1002.984320  	0.105735 
1004.913136  	0.109797 
1006.841952  	0.113845 
1008.770768  	0.117067 
1010.699584  	0.119315 
1012.628400  	0.120500 
1014.557216  	0.120867 
1016.486032  	0.120875 
1018.414848  	0.120642 
1020.343664  	0.120206 
1022.272480  	0.119619 
1024.201296  	0.118334 
1026.130112  	0.115009 
1028.058928  	0.113497 
1029.987744  	0.115902 
1031.916560  	0.116944 
1033.845376  	0.116952 
1035.774192  	0.116571 
1037.703008  	0.117480 
1039.631824  	0.121242 
1041.560640  	0.126383 
1043.489456  	0.133390 
1045.418272  	0.142789 
1047.347088  	0.153538 
1049.275904  	0.164349 
1051.204720  	0.173509 
1053.133536  	0.180152 
1055.062352  	0.184172 
1056.991168  	0.185483 
1058.919984  	0.188057 
1060.848800  	0.190762 
1062.777616  	0.189837 
1064.706432  	0.185190 
1066.635248  	0.181660 
1068.564064  	0.182183 
1070.492880  	0.180031 
1072.421696  	0.174918 
1074.350512  	0.171187 
1076.279328  	0.170253 
1078.208144  	0.172296 
1080.136960  	0.176678 
1082.065776  	0.182249 
1083.994592  	0.186919 
1085.923408  	0.189804 
1087.852224  	0.190264 
1089.781040  	0.188650 
1091.709856  	0.185938 
1093.638672  	0.181048 
1095.567488  	0.173615 
1097.496304  	0.164884 
1099.425120  	0.155376 
1101.353936  	0.145757 
1103.282752  	0.136005 
1105.211568  	0.126546 
1107.140384  	0.117510 
1109.069200  	0.108860 
1110.998016  	0.101063 
1112.926832  	0.094044 
1114.855648  	0.087639 
1116.784464  	0.081543 
1118.713280  	0.075793 
1120.642096  	0.070491 
1122.570912  	0.065496 
1124.499728  	0.060608 
1126.428544  	0.056336 
1128.357360  	0.052448 
1130.286176  	0.049239 
1132.214992  	0.046520 
1134.143808  	0.044236 
1136.072624  	0.042210 
1138.001440  	0.040867 
1139.930256  	0.039233 
1141.859072  	0.037401 
1143.787888  	0.035428 
1145.716704  	0.033771 
1147.645520  	0.032104 
1149.574336  	0.030706 
1151.503152  	0.029467 
1153.431968  	0.028936 
1155.360784  	0.028936 
1157.289600  	0.029432 
1159.218416  	0.030315 
1161.147232  	0.031546 
1163.076048  	0.032895 
1165.004864  	0.034524 
1166.933680  	0.035886 
1168.862496  	0.037600 
1170.791312  	0.039153 
1172.720128  	0.041063 
1174.648944  	0.042831 
1176.577760  	0.044634 
1178.506576  	0.046359 
1180.435392  	0.048229 
1182.364208  	0.049879 
1184.293024  	0.051897 
1186.221840  	0.054101 
1188.150656  	0.056573 
1190.079472  	0.059339 
1192.008288  	0.062926 
1193.937104  	0.067148 
1195.865920  	0.072140 
1197.794736  	0.077655 
1199.723552  	0.083954 
1201.652368  	0.090297 
1203.581184  	0.096732 
1205.510000  	0.102979 
1207.438816  	0.109164 
1209.367632  	0.115091 
1211.296448  	0.120261 
1213.225264  	0.124631 
1215.154080  	0.128255 
1217.082896  	0.130900 
1219.011712  	0.132702 
1220.940528  	0.134239 
1222.869344  	0.135387 
1224.798160  	0.135805 
1226.726976  	0.135817 
1228.655792  	0.135610 
1230.584608  	0.135039 
1232.513424  	0.134041 
1234.442240  	0.132636 
1236.371056  	0.130755 
1238.299872  	0.127777 
1240.228688  	0.122371 
1242.157504  	0.117144 
1244.086320  	0.113156 
1246.015136  	0.107777 
1247.943952  	0.101361 
1249.872768  	0.094742 
1251.801584  	0.089213 
1253.730400  	0.083917 
1255.659216  	0.078647 
1257.588032  	0.073568 
1259.516848  	0.068611 
1261.445664  	0.064104 
1263.374480  	0.059995 
1265.303296  	0.056455 
1267.232112  	0.053604 
1269.160928  	0.051592 
1271.089744  	0.049981 
1273.018560  	0.048994 
1274.947376  	0.048654 
1276.876192  	0.048702 
1278.805008  	0.048537 
1280.733824  	0.047594 
1282.662640  	0.045962 
1284.591456  	0.044229 
1286.520272  	0.042740 
1288.449088  	0.041701 
1290.377904  	0.041020 
1292.306720  	0.040949 
1294.235536  	0.040972 
1296.164352  	0.040436 
1298.093168  	0.038716 
1300.021984  	0.036598 
1301.950800  	0.034298 
1303.879616  	0.032172 
1305.808432  	0.029833 
1307.737248  	0.027540 
1309.666064  	0.025286 
1311.594880  	0.023744 
1313.523696  	0.022507 
1315.452512  	0.021638 
1317.381328  	0.021139 
1319.310144  	0.020902 
1321.238960  	0.020792 
1323.167776  	0.021237 
1325.096592  	0.021846 
1327.025408  	0.022280 
1328.954224  	0.022281 
1330.883040  	0.021958 
1332.811856  	0.021227 
1334.740672  	0.020906 
1336.669488  	0.021060 
1338.598304  	0.021294 
1340.527120  	0.019813 
1342.455936  	0.018363 
1344.384752  	0.018059 
1346.313568  	0.018304 
1348.242384  	0.018716 
1350.171200  	0.019532 
1352.100016  	0.020650 
1354.028832  	0.022124 
1355.957648  	0.023357 
1357.886464  	0.024882 
1359.815280  	0.026662 
1361.744096  	0.028306 
1363.672912  	0.028680 
1365.601728  	0.029477 
1367.530544  	0.030518 
1369.459360  	0.030560 
1371.388176  	0.030409 
1373.316992  	0.029345 
1375.245808  	0.026189 
1377.174624  	0.024324 
1379.103440  	0.022096 
1381.032256  	0.019696 
1382.961072  	0.017962 
1384.889888  	0.017873 
1386.818704  	0.017427 
1388.747520  	0.015676 
1390.676336  	0.014028 
1392.605152  	0.011411 
1394.533968  	0.009349 
1396.462784  	0.012001 
1398.391600  	0.013275 
1400.320416  	0.012142 
1402.249232  	0.012604 
1404.178048  	0.012897 
1406.106864  	0.012895 
1408.035680  	0.014553 
1409.964496  	0.016697 
1411.893312  	0.018947 
1413.822128  	0.021511 
1415.750944  	0.024973 
1417.679760  	0.027138 
1419.608576  	0.025697 
1421.537392  	0.026354 
1423.466208  	0.027146 
1425.395024  	0.025781 
1427.323840  	0.025354 
1429.252656  	0.023345 
1431.181472  	0.021883 
1433.110288  	0.022290 
1435.039104  	0.023185 
1436.967920  	0.021219 
1438.896736  	0.021500 
1440.825552  	0.022888 
1442.754368  	0.023398 
1444.683184  	0.023690 
1446.612000  	0.023560 
1448.540816  	0.021989 
1450.469632  	0.022545 
1452.398448  	0.023590 
1454.327264  	0.024953 
1456.256080  	0.023872 
1458.184896  	0.019534 
1460.113712  	0.021820 
1462.042528  	0.024402 
1463.971344  	0.024012 
1465.900160  	0.023475 
1467.828976  	0.026244 
1469.757792  	0.029591 
1471.686608  	0.031423 
1473.615424  	0.033980 
1475.544240  	0.039294 
1477.473056  	0.043716 
1479.401872  	0.047241 
1481.330688  	0.049628 
1483.259504  	0.051305 
1485.188320  	0.052978 
1487.117136  	0.052848 
1489.045952  	0.051799 
1490.974768  	0.048572 
1492.903584  	0.048056 
1494.832400  	0.046651 
1496.761216  	0.040631 
1498.690032  	0.035798 
1500.618848  	0.033737 
1502.547664  	0.032084 
1504.476480  	0.029686 
1506.405296  	0.022672 
1508.334112  	0.019689 
1510.262928  	0.021629 
1512.191744  	0.020806 
1514.120560  	0.020461 
1516.049376  	0.019647 
1517.978192  	0.017912 
1519.907008  	0.019479 
1521.835824  	0.017853 
1523.764640  	0.021473 
1525.693456  	0.025352 
1527.622272  	0.026798 
1529.551088  	0.028068 
1531.479904  	0.028820 
1533.408720  	0.024710 
1535.337536  	0.022626 
1537.266352  	0.023008 
1539.195168  	0.015840 
1541.123984  	0.007969 
1543.052800  	0.011560 
1544.981616  	0.012844 
1546.910432  	0.013160 
1548.839248  	0.014091 
1550.768064  	0.013707 
1552.696880  	0.013855 
1554.625696  	0.013632 
1556.554512  	0.013912 
1558.483328  	0.009566 
1560.412144  	0.010194 
1562.340960  	0.018689 
1564.269776  	0.022341 
1566.198592  	0.026148 
1568.127408  	0.029397 
1570.056224  	0.031425 
1571.985040  	0.037395 
1573.913856  	0.042000 
1575.842672  	0.041045 
1577.771488  	0.042326 
1579.700304  	0.045499 
1581.629120  	0.045845 
1583.557936  	0.045515 
1585.486752  	0.046021 
1587.415568  	0.047636 
1589.344384  	0.050657 
1591.273200  	0.054741 
1593.202016  	0.059784 
1595.130832  	0.065136 
1597.059648  	0.070904 
1598.988464  	0.076060 
1600.917280  	0.080490 
1602.846096  	0.083409 
1604.774912  	0.085480 
1606.703728  	0.085862 
1608.632544  	0.085033 
1610.561360  	0.083651 
1612.490176  	0.083012 
1614.418992  	0.081863 
1616.347808  	0.077746 
1618.276624  	0.077459 
1620.205440  	0.082633 
1622.134256  	0.084818 
1624.063072  	0.087504 
1625.991888  	0.093301 
1627.920704  	0.098964 
1629.849520  	0.106304 
1631.778336  	0.114626 
1633.707152  	0.120189 
1635.635968  	0.123286 
1637.564784  	0.131027 
1639.493600  	0.140072 
1641.422416  	0.145815 
1643.351232  	0.150579 
1645.280048  	0.151667 
1647.208864  	0.149271 
1649.137680  	0.152371 
1651.066496  	0.156433 
1652.995312  	0.148133 
1654.924128  	0.146509 
1656.852944  	0.150895 
1658.781760  	0.151066 
1660.710576  	0.148969 
1662.639392  	0.144198 
1664.568208  	0.141227 
1666.497024  	0.141235 
1668.425840  	0.136747 
1670.354656  	0.129597 
1672.283472  	0.128252 
1674.212288  	0.126860 
1676.141104  	0.121878 
1678.069920  	0.122689 
1679.998736  	0.122956 
1681.927552  	0.122528 
1683.856368  	0.116193 
1685.785184  	0.114031 
1687.714000  	0.118433 
1689.642816  	0.118612 
1691.571632  	0.117769 
1693.500448  	0.118275 
1695.429264  	0.113979 
1697.358080  	0.110446 
1699.286896  	0.109427 
1701.215712  	0.102881 
1703.144528  	0.104792 
1705.073344  	0.101952 
1707.002160  	0.096795 
1708.930976  	0.094515 
1710.859792  	0.090352 
1712.788608  	0.085387 
1714.717424  	0.078323 
1716.646240  	0.068222 
1718.575056  	0.055382 
1720.503872  	0.050675 
1722.432688  	0.046435 
1724.361504  	0.038844 
1726.290320  	0.032870 
1728.219136  	0.027992 
1730.147952  	0.023176 
1732.076768  	0.019561 
1734.005584  	0.012303 
1735.934400  	0.007848 
1737.863216  	0.009374 
1739.792032  	0.005896 
1741.720848  	0.005089 
1743.649664  	0.005061 
1745.578480  	0.004623 
1747.507296  	0.003273 
1749.436112  	0.002179 
1751.364928  	0.000684 
1753.293744  	0.000619 
1755.222560  	0.001228 
1757.151376  	0.000302 
1759.080192  	0.000088 
1761.009008  	-0.000504 
1762.937824  	-0.002235 
1764.866640  	-0.001171 
1766.795456  	-0.000449 
1768.724272  	-0.001244 
1770.653088  	-0.003117 
1772.581904  	-0.006436 
1774.510720  	-0.005156 
1776.439536  	-0.003058 
1778.368352  	-0.002420 
1780.297168  	-0.002928 
1782.225984  	-0.003459 
1784.154800  	-0.002838 
1786.083616  	-0.003490 
1788.012432  	-0.002897 
1789.941248  	-0.002419 
1791.870064  	-0.004433 
1793.798880  	-0.006045 
1795.727696  	-0.004006 
1797.656512  	-0.003991 
1799.585328  	-0.004264 
1801.514144  	-0.004125 
1803.442960  	-0.003983 
1805.371776  	-0.004292 
1807.300592  	-0.003802 
1809.229408  	-0.004257 
1811.158224  	-0.004901 
1813.087040  	-0.005072 
1815.015856  	-0.004418 
1816.944672  	-0.004350 
1818.873488  	-0.004393 
1820.802304  	-0.004476 
1822.731120  	-0.003720 
1824.659936  	-0.004666 
1826.588752  	-0.005238 
1828.517568  	-0.005548 
1830.446384  	-0.006562 
1832.375200  	-0.005582 
1834.304016  	-0.004456 
1836.232832  	-0.004749 
1838.161648  	-0.004718 
1840.090464  	-0.004822 
1842.019280  	-0.004034 
1843.948096  	-0.005798 
1845.876912  	-0.006212 
1847.805728  	-0.005199 
1849.734544  	-0.005115 
1851.663360  	-0.005129 
1853.592176  	-0.005083 
1855.520992  	-0.005347 
1857.449808  	-0.005012 
1859.378624  	-0.004985 
1861.307440  	-0.005188 
1863.236256  	-0.005575 
1865.165072  	-0.005198 
1867.093888  	-0.005193 
1869.022704  	-0.006008 
1870.951520  	-0.006197 
1872.880336  	-0.005307 
1874.809152  	-0.005486 
1876.737968  	-0.005476 
1878.666784  	-0.005626 
1880.595600  	-0.005216 
1882.524416  	-0.005648 
1884.453232  	-0.005697 
1886.382048  	-0.005611 
1888.310864  	-0.005407 
1890.239680  	-0.006203 
1892.168496  	-0.005548 
1894.097312  	-0.005402 
1896.026128  	-0.005500 
1897.954944  	-0.005743 
1899.883760  	-0.005597 
1901.812576  	-0.006218 
1903.741392  	-0.006303 
1905.670208  	-0.005868 
1907.599024  	-0.005208 
1909.527840  	-0.005651 
1911.456656  	-0.005509 
1913.385472  	-0.005668 
1915.314288  	-0.004980 
1917.243104  	-0.005050 
1919.171920  	-0.005602 
1921.100736  	-0.005455 
1923.029552  	-0.005131 
1924.958368  	-0.005378 
1926.887184  	-0.005251 
1928.816000  	-0.005627 
1930.744816  	-0.005385 
1932.673632  	-0.005561 
1934.602448  	-0.005285 
1936.531264  	-0.005228 
1938.460080  	-0.004597 
1940.388896  	-0.004756 
1942.317712  	-0.005231 
1944.246528  	-0.005661 
1946.175344  	-0.004757 
1948.104160  	-0.005108 
1950.032976  	-0.004984 
1951.961792  	-0.005066 
1953.890608  	-0.004465 
1955.819424  	-0.005212 
1957.748240  	-0.005231 
1959.677056  	-0.005397 
1961.605872  	-0.004006 
1963.534688  	-0.004073 
1965.463504  	-0.004171 
1967.392320  	-0.004940 
1969.321136  	-0.004234 
1971.249952  	-0.004329 
1973.178768  	-0.003743 
1975.107584  	-0.003921 
1977.036400  	-0.002907 
1978.965216  	-0.002155 
1980.894032  	-0.002697 
1982.822848  	-0.003670 
1984.751664  	-0.003599 
1986.680480  	-0.004597 
1988.609296  	-0.003949 
1990.538112  	-0.004233 
1992.466928  	-0.004166 
1994.395744  	-0.005350 
1996.324560  	-0.006227 
1998.253376  	-0.006584 
2000.182192  	-0.006034 
2002.111008  	-0.005694 
2004.039824  	-0.004417 
2005.968640  	-0.004751 
2007.897456  	-0.004262 
2009.826272  	-0.004981 
2011.755088  	-0.004458 
2013.683904  	-0.004349 
2015.612720  	-0.003551 
2017.541536  	-0.004129 
2019.470352  	-0.004504 
2021.399168  	-0.006291 
2023.327984  	-0.005868 
2025.256800  	-0.004724 
2027.185616  	-0.003501 
2029.114432  	-0.003838 
2031.043248  	-0.003567 
2032.972064  	-0.003947 
2034.900880  	-0.003360 
2036.829696  	-0.005208 
2038.758512  	-0.005125 
2040.687328  	-0.005134 
2042.616144  	-0.004153 
2044.544960  	-0.004459 
2046.473776  	-0.004515 
2048.402592  	-0.005024 
2050.331408  	-0.004824 
2052.260224  	-0.005054 
2054.189040  	-0.004998 
2056.117856  	-0.005849 
2058.046672  	-0.005885 
2059.975488  	-0.006145 
2061.904304  	-0.006204 
2063.833120  	-0.006038 
2065.761936  	-0.005715 
2067.690752  	-0.005903 
2069.619568  	-0.005612 
2071.548384  	-0.005655 
2073.477200  	-0.005478 
2075.406016  	-0.005337 
2077.334832  	-0.004965 
2079.263648  	-0.005136 
2081.192464  	-0.005394 
2083.121280  	-0.005945 
2085.050096  	-0.005877 
2086.978912  	-0.005621 
2088.907728  	-0.005221 
2090.836544  	-0.005546 
2092.765360  	-0.005658 
2094.694176  	-0.005599 
2096.622992  	-0.005640 
2098.551808  	-0.005696 
2100.480624  	-0.004936 
2102.409440  	-0.005131 
2104.338256  	-0.005605 
2106.267072  	-0.005673 
2108.195888  	-0.005312 
2110.124704  	-0.005238 
2112.053520  	-0.004929 
2113.982336  	-0.005246 
2115.911152  	-0.005395 
2117.839968  	-0.005223 
2119.768784  	-0.005249 
2121.697600  	-0.005533 
2123.626416  	-0.005168 
2125.555232  	-0.005401 
2127.484048  	-0.005585 
2129.412864  	-0.005698 
2131.341680  	-0.005430 
2133.270496  	-0.005582 
2135.199312  	-0.004824 
2137.128128  	-0.004578 
2139.056944  	-0.004393 
2140.985760  	-0.004673 
2142.914576  	-0.004594 
2144.843392  	-0.004187 
2146.772208  	-0.004074 
2148.701024  	-0.005189 
2150.629840  	-0.005046 
2152.558656  	-0.004608 
2154.487472  	-0.003996 
2156.416288  	-0.003622 
2158.345104  	-0.002933 
2160.273920  	-0.002084 
2162.202736  	-0.001050 
2164.131552  	-0.001681 
2166.060368  	-0.002693 
2167.989184  	-0.002899 
2169.918000  	-0.002108 
2171.846816  	-0.003462 
2173.775632  	-0.003474 
2175.704448  	-0.002796 
2177.633264  	-0.002791 
2179.562080  	-0.004006 
2181.490896  	-0.004364 
2183.419712  	-0.005270 
2185.348528  	-0.004522 
2187.277344  	-0.003847 
2189.206160  	-0.003949 
2191.134976  	-0.004293 
2193.063792  	-0.004586 
2194.992608  	-0.005236 
2196.921424  	-0.004942 
2198.850240  	-0.004603 
2200.779056  	-0.004031 
2202.707872  	-0.004668 
2204.636688  	-0.005326 
2206.565504  	-0.004668 
2208.494320  	-0.003947 
2210.423136  	-0.004739 
2212.351952  	-0.005154 
2214.280768  	-0.005495 
2216.209584  	-0.005772 
2218.138400  	-0.006534 
2220.067216  	-0.006183 
2221.996032  	-0.005193 
2223.924848  	-0.004558 
2225.853664  	-0.004568 
2227.782480  	-0.004385 
2229.711296  	-0.005478 
2231.640112  	-0.006490 
2233.568928  	-0.006606 
2235.497744  	-0.006308 
2237.426560  	-0.006499 
2239.355376  	-0.006260 
2241.284192  	-0.006079 
2243.213008  	-0.006165 
2245.141824  	-0.006379 
2247.070640  	-0.006033 
2248.999456  	-0.006077 
2250.928272  	-0.006246 
2252.857088  	-0.006575 
2254.785904  	-0.006657 
2256.714720  	-0.007108 
2258.643536  	-0.007243 
2260.572352  	-0.007430 
2262.501168  	-0.007326 
2264.429984  	-0.007134 
2266.358800  	-0.006995 
2268.287616  	-0.007053 
2270.216432  	-0.006827 
2272.145248  	-0.006847 
2274.074064  	-0.007008 
2276.002880  	-0.007058 
2277.931696  	-0.006821 
2279.860512  	-0.006681 
2281.789328  	-0.006484 
2283.718144  	-0.006436 
2285.646960  	-0.006073 
2287.575776  	-0.005678 
2289.504592  	-0.005656 
2291.433408  	-0.005839 
2293.362224  	-0.005775 
2295.291040  	-0.005364 
2297.219856  	-0.004809 
2299.148672  	-0.004776 
2301.077488  	-0.004659 
2303.006304  	-0.004371 
2304.935120  	-0.003748 
2306.863936  	-0.003353 
2308.792752  	-0.003074 
2310.721568  	-0.003124 
2312.650384  	-0.003420 
2314.579200  	-0.004020 
2316.508016  	-0.004587 
2318.436832  	-0.005031 
2320.365648  	-0.005814 
2322.294464  	-0.006669 
2324.223280  	-0.007748 
2326.152096  	-0.009380 
2328.080912  	-0.010510 
2330.009728  	-0.011663 
2331.938544  	-0.013184 
2333.867360  	-0.014533 
2335.796176  	-0.015683 
2337.724992  	-0.016858 
2339.653808  	-0.016743 
2341.582624  	-0.016568 
2343.511440  	-0.015877 
2345.440256  	-0.014718 
2347.369072  	-0.011312 
2349.297888  	-0.007969 
2351.226704  	-0.008829 
2353.155520  	-0.012694 
2355.084336  	-0.015736 
2357.013152  	-0.017908 
2358.941968  	-0.019041 
2360.870784  	-0.020131 
2362.799600  	-0.019817 
2364.728416  	-0.019097 
2366.657232  	-0.017869 
2368.586048  	-0.016058 
2370.514864  	-0.013881 
2372.443680  	-0.011753 
2374.372496  	-0.009522 
2376.301312  	-0.007673 
2378.230128  	-0.006388 
2380.158944  	-0.005746 
2382.087760  	-0.005794 
2384.016576  	-0.006282 
2385.945392  	-0.006864 
2387.874208  	-0.007368 
2389.803024  	-0.007540 
2391.731840  	-0.007638 
2393.660656  	-0.007602 
2395.589472  	-0.007461 
2397.518288  	-0.007173 
2399.447104  	-0.007392 
2401.375920  	-0.007597 
2403.304736  	-0.007780 
2405.233552  	-0.007724 
2407.162368  	-0.007743 
2409.091184  	-0.007707 
2411.020000  	-0.007858 
2412.948816  	-0.007854 
2414.877632  	-0.007667 
2416.806448  	-0.007313 
2418.735264  	-0.007442 
2420.664080  	-0.007821 
2422.592896  	-0.007868 
2424.521712  	-0.007677 
2426.450528  	-0.007755 
2428.379344  	-0.007676 
2430.308160  	-0.007459 
2432.236976  	-0.007338 
2434.165792  	-0.007486 
2436.094608  	-0.007449 
2438.023424  	-0.007175 
2439.952240  	-0.006782 
2441.881056  	-0.006914 
2443.809872  	-0.007335 
2445.738688  	-0.007278 
2447.667504  	-0.006983 
2449.596320  	-0.006882 
2451.525136  	-0.006693 
2453.453952  	-0.006972 
2455.382768  	-0.007141 
2457.311584  	-0.007187 
2459.240400  	-0.007121 
2461.169216  	-0.007098 
2463.098032  	-0.007247 
2465.026848  	-0.007309 
2466.955664  	-0.007292 
2468.884480  	-0.007408 
2470.813296  	-0.007448 
2472.742112  	-0.007415 
2474.670928  	-0.007296 
2476.599744  	-0.007290 
2478.528560  	-0.007141 
2480.457376  	-0.007047 
2482.386192  	-0.007171 
2484.315008  	-0.007139 
2486.243824  	-0.007012 
2488.172640  	-0.006975 
2490.101456  	-0.006776 
2492.030272  	-0.006603 
2493.959088  	-0.006650 
2495.887904  	-0.006728 
2497.816720  	-0.006622 
2499.745536  	-0.006518 
2501.674352  	-0.006283 
2503.603168  	-0.006039 
2505.531984  	-0.006216 
2507.460800  	-0.006647 
2509.389616  	-0.006566 
2511.318432  	-0.006453 
2513.247248  	-0.006406 
2515.176064  	-0.006346 
2517.104880  	-0.006386 
2519.033696  	-0.006692 
2520.962512  	-0.006573 
2522.891328  	-0.006194 
2524.820144  	-0.006307 
2526.748960  	-0.006303 
2528.677776  	-0.006056 
2530.606592  	-0.006217 
2532.535408  	-0.006282 
2534.464224  	-0.006313 
2536.393040  	-0.006359 
2538.321856  	-0.006222 
2540.250672  	-0.006033 
2542.179488  	-0.005937 
2544.108304  	-0.005953 
2546.037120  	-0.006081 
2547.965936  	-0.005953 
2549.894752  	-0.005841 
2551.823568  	-0.005915 
2553.752384  	-0.005735 
2555.681200  	-0.005349 
2557.610016  	-0.005318 
2559.538832  	-0.005390 
2561.467648  	-0.005355 
2563.396464  	-0.005265 
2565.325280  	-0.005115 
2567.254096  	-0.005141 
2569.182912  	-0.005183 
2571.111728  	-0.005113 
2573.040544  	-0.005192 
2574.969360  	-0.005189 
2576.898176  	-0.004942 
2578.826992  	-0.004941 
2580.755808  	-0.005059 
2582.684624  	-0.005144 
2584.613440  	-0.005277 
2586.542256  	-0.005197 
2588.471072  	-0.004891 
2590.399888  	-0.004906 
2592.328704  	-0.005026 
2594.257520  	-0.005099 
2596.186336  	-0.005009 
2598.115152  	-0.004718 
2600.043968  	-0.004615 
2601.972784  	-0.004500 
2603.901600  	-0.004485 
2605.830416  	-0.004378 
2607.759232  	-0.004295 
2609.688048  	-0.004257 
2611.616864  	-0.004213 
2613.545680  	-0.004074 
2615.474496  	-0.003953 
2617.403312  	-0.003871 
2619.332128  	-0.003852 
2621.260944  	-0.003828 
2623.189760  	-0.003809 
2625.118576  	-0.003755 
2627.047392  	-0.003670 
2628.976208  	-0.003557 
2630.905024  	-0.003452 
2632.833840  	-0.003484 
2634.762656  	-0.003430 
2636.691472  	-0.003338 
2638.620288  	-0.003222 
2640.549104  	-0.003218 
2642.477920  	-0.003301 
2644.406736  	-0.003183 
2646.335552  	-0.003087 
2648.264368  	-0.003057 
2650.193184  	-0.002941 
2652.122000  	-0.002719 
2654.050816  	-0.002555 
2655.979632  	-0.002537 
2657.908448  	-0.002545 
2659.837264  	-0.002350 
2661.766080  	-0.002230 
2663.694896  	-0.002175 
2665.623712  	-0.002160 
2667.552528  	-0.002062 
2669.481344  	-0.001930 
2671.410160  	-0.001873 
2673.338976  	-0.001797 
2675.267792  	-0.001634 
2677.196608  	-0.001463 
2679.125424  	-0.001393 
2681.054240  	-0.001306 
2682.983056  	-0.001188 
2684.911872  	-0.001234 
2686.840688  	-0.001153 
2688.769504  	-0.001096 
2690.698320  	-0.001111 
2692.627136  	-0.001066 
2694.555952  	-0.001006 
2696.484768  	-0.000962 
2698.413584  	-0.000858 
2700.342400  	-0.000815 
2702.271216  	-0.000697 
2704.200032  	-0.000479 
2706.128848  	-0.000375 
2708.057664  	-0.000505 
2709.986480  	-0.000533 
2711.915296  	-0.000392 
2713.844112  	-0.000231 
2715.772928  	-0.000123 
2717.701744  	-0.000028 
2719.630560  	0.000154 
2721.559376  	0.000317 
2723.488192  	0.000370 
2725.417008  	0.000503 
2727.345824  	0.000666 
2729.274640  	0.000691 
2731.203456  	0.000771 
2733.132272  	0.000929 
2735.061088  	0.001023 
2736.989904  	0.001117 
2738.918720  	0.001193 
2740.847536  	0.001211 
2742.776352  	0.001205 
2744.705168  	0.001296 
2746.633984  	0.001335 
2748.562800  	0.001301 
2750.491616  	0.001292 
2752.420432  	0.001479 
2754.349248  	0.001533 
2756.278064  	0.001459 
2758.206880  	0.001332 
2760.135696  	0.001319 
2762.064512  	0.001320 
2763.993328  	0.001359 
2765.922144  	0.001406 
2767.850960  	0.001497 
2769.779776  	0.001599 
2771.708592  	0.001552 
2773.637408  	0.001324 
2775.566224  	0.001242 
2777.495040  	0.001296 
2779.423856  	0.001413 
2781.352672  	0.001469 
2783.281488  	0.001426 
2785.210304  	0.001436 
2787.139120  	0.001565 
2789.067936  	0.001609 
2790.996752  	0.001624 
2792.925568  	0.001605 
2794.854384  	0.001492 
2796.783200  	0.001378 
2798.712016  	0.001328 
2800.640832  	0.001261 
2802.569648  	0.001310 
2804.498464  	0.001368 
2806.427280  	0.001375 
2808.356096  	0.001425 
2810.284912  	0.001477 
2812.213728  	0.001419 
2814.142544  	0.001319 
2816.071360  	0.001240 
2818.000176  	0.001143 
2819.928992  	0.001093 
2821.857808  	0.000983 
2823.786624  	0.000847 
2825.715440  	0.000797 
2827.644256  	0.000741 
2829.573072  	0.000630 
2831.501888  	0.000289 
2833.430704  	-0.000085 
2835.359520  	-0.000439 
2837.288336  	-0.000727 
2839.217152  	-0.000947 
2841.145968  	-0.001215 
2843.074784  	-0.001543 
2845.003600  	-0.001984 
2846.932416  	-0.002442 
2848.861232  	-0.002831 
2850.790048  	-0.003268 
2852.718864  	-0.003753 
2854.647680  	-0.004249 
2856.576496  	-0.004870 
2858.505312  	-0.005527 
2860.434128  	-0.006132 
2862.362944  	-0.006816 
2864.291760  	-0.007615 
2866.220576  	-0.008360 
2868.149392  	-0.008712 
2870.078208  	-0.009010 
2872.007024  	-0.009213 
2873.935840  	-0.009209 
2875.864656  	-0.009280 
2877.793472  	-0.009531 
2879.722288  	-0.009848 
2881.651104  	-0.010362 
2883.579920  	-0.010678 
2885.508736  	-0.010575 
2887.437552  	-0.010411 
2889.366368  	-0.010346 
2891.295184  	-0.010658 
2893.224000  	-0.010942 
2895.152816  	-0.010902 
2897.081632  	-0.011213 
2899.010448  	-0.013023 
2900.939264  	-0.014563 
2902.868080  	-0.013243 
2904.796896  	-0.011918 
2906.725712  	-0.011378 
2908.654528  	-0.010835 
2910.583344  	-0.010546 
2912.512160  	-0.010135 
2914.440976  	-0.009179 
2916.369792  	-0.008452 
2918.298608  	-0.008080 
2920.227424  	-0.007695 
2922.156240  	-0.007203 
2924.085056  	-0.006579 
2926.013872  	-0.005738 
2927.942688  	-0.004852 
2929.871504  	-0.004052 
2931.800320  	-0.003293 
2933.729136  	-0.002750 
2935.657952  	-0.002301 
2937.586768  	-0.001650 
2939.515584  	-0.000999 
2941.444400  	-0.000809 
2943.373216  	-0.000932 
2945.302032  	-0.000870 
2947.230848  	-0.000624 
2949.159664  	-0.000792 
2951.088480  	-0.001333 
2953.017296  	-0.001855 
2954.946112  	-0.002593 
2956.874928  	-0.003329 
2958.803744  	-0.004055 
2960.732560  	-0.004667 
2962.661376  	-0.005239 
2964.590192  	-0.006092 
2966.519008  	-0.007273 
2968.447824  	-0.008281 
2970.376640  	-0.009031 
2972.305456  	-0.009574 
2974.234272  	-0.009272 
2976.163088  	-0.008890 
2978.091904  	-0.008914 
2980.020720  	-0.008863 
2981.949536  	-0.008553 
2983.878352  	-0.008702 
2985.807168  	-0.009830 
2987.735984  	-0.010846 
2989.664800  	-0.010404 
2991.593616  	-0.007449 
2993.522432  	-0.005477 
2995.451248  	-0.004930 
2997.380064  	-0.004090 
2999.308880  	-0.002887 
3001.237696  	-0.001550 
3003.166512  	-0.000206 
3005.095328  	0.001074 
3007.024144  	0.002478 
3008.952960  	0.003926 
3010.881776  	0.005349 
3012.810592  	0.006668 
3014.739408  	0.007881 
3016.668224  	0.008989 
3018.597040  	0.010186 
3020.525856  	0.011463 
3022.454672  	0.012576 
3024.383488  	0.013490 
3026.312304  	0.014319 
3028.241120  	0.015315 
3030.169936  	0.016224 
3032.098752  	0.016909 
3034.027568  	0.017635 
3035.956384  	0.018404 
3037.885200  	0.019279 
3039.814016  	0.019941 
3041.742832  	0.020388 
3043.671648  	0.020762 
3045.600464  	0.021289 
3047.529280  	0.021733 
3049.458096  	0.022201 
3051.386912  	0.022812 
3053.315728  	0.023266 
3055.244544  	0.023611 
3057.173360  	0.024088 
3059.102176  	0.024530 
3061.030992  	0.024987 
3062.959808  	0.025653 
3064.888624  	0.026184 
3066.817440  	0.026596 
3068.746256  	0.027344 
3070.675072  	0.028105 
3072.603888  	0.028655 
3074.532704  	0.029277 
3076.461520  	0.029855 
3078.390336  	0.030324 
3080.319152  	0.030683 
3082.247968  	0.031378 
3084.176784  	0.032098 
3086.105600  	0.032898 
3088.034416  	0.033528 
3089.963232  	0.034078 
3091.892048  	0.034593 
3093.820864  	0.035119 
3095.749680  	0.035743 
3097.678496  	0.036445 
3099.607312  	0.037150 
3101.536128  	0.037919 
3103.464944  	0.038577 
3105.393760  	0.038990 
3107.322576  	0.039525 
3109.251392  	0.040261 
3111.180208  	0.040825 
3113.109024  	0.041378 
3115.037840  	0.041863 
3116.966656  	0.042395 
3118.895472  	0.042985 
3120.824288  	0.043625 
3122.753104  	0.044178 
3124.681920  	0.044638 
3126.610736  	0.045086 
3128.539552  	0.045878 
3130.468368  	0.046621 
3132.397184  	0.046838 
3134.326000  	0.047272 
3136.254816  	0.047851 
3138.183632  	0.048449 
3140.112448  	0.048999 
3142.041264  	0.049373 
3143.970080  	0.049921 
3145.898896  	0.050574 
3147.827712  	0.051089 
3149.756528  	0.051532 
3151.685344  	0.051874 
3153.614160  	0.052640 
3155.542976  	0.053405 
3157.471792  	0.053896 
3159.400608  	0.054375 
3161.329424  	0.055026 
3163.258240  	0.055494 
3165.187056  	0.055926 
3167.115872  	0.056397 
3169.044688  	0.056782 
3170.973504  	0.057159 
3172.902320  	0.057581 
3174.831136  	0.058170 
3176.759952  	0.058772 
3178.688768  	0.059009 
3180.617584  	0.059273 
3182.546400  	0.059625 
3184.475216  	0.059879 
3186.404032  	0.060126 
3188.332848  	0.060471 
3190.261664  	0.060712 
3192.190480  	0.060926 
3194.119296  	0.060994 
3196.048112  	0.061263 
3197.976928  	0.061137 
3199.905744  	0.061164 
3201.834560  	0.061373 
3203.763376  	0.061419 
3205.692192  	0.061529 
3207.621008  	0.061508 
3209.549824  	0.061325 
3211.478640  	0.061316 
3213.407456  	0.061438 
3215.336272  	0.061282 
3217.265088  	0.061090 
3219.193904  	0.061016 
3221.122720  	0.060931 
3223.051536  	0.060846 
3224.980352  	0.060952 
3226.909168  	0.060932 
3228.837984  	0.060705 
3230.766800  	0.060526 
3232.695616  	0.060607 
3234.624432  	0.060527 
3236.553248  	0.060428 
3238.482064  	0.060539 
3240.410880  	0.060662 
3242.339696  	0.060661 
3244.268512  	0.060356 
3246.197328  	0.060443 
3248.126144  	0.060879 
3250.054960  	0.061064 
3251.983776  	0.061283 
3253.912592  	0.061543 
3255.841408  	0.061643 
3257.770224  	0.061846 
3259.699040  	0.062121 
3261.627856  	0.062376 
3263.556672  	0.062481 
3265.485488  	0.062602 
3267.414304  	0.062918 
3269.343120  	0.063252 
3271.271936  	0.063488 
3273.200752  	0.063413 
3275.129568  	0.063503 
3277.058384  	0.064018 
3278.987200  	0.064322 
3280.916016  	0.064394 
3282.844832  	0.064596 
3284.773648  	0.064835 
3286.702464  	0.065077 
3288.631280  	0.065369 
3290.560096  	0.065606 
3292.488912  	0.065831 
3294.417728  	0.066086 
3296.346544  	0.066517 
3298.275360  	0.066782 
3300.204176  	0.067059 
3302.132992  	0.067348 
3304.061808  	0.067540 
3305.990624  	0.067948 
3307.919440  	0.068319 
3309.848256  	0.068670 
3311.777072  	0.069245 
3313.705888  	0.069621 
3315.634704  	0.069952 
3317.563520  	0.070267 
3319.492336  	0.070499 
3321.421152  	0.070754 
3323.349968  	0.071142 
3325.278784  	0.071521 
3327.207600  	0.071749 
3329.136416  	0.071746 
3331.065232  	0.071904 
3332.994048  	0.072213 
3334.922864  	0.072420 
3336.851680  	0.072430 
3338.780496  	0.072330 
3340.709312  	0.072285 
3342.638128  	0.072330 
3344.566944  	0.072061 
3346.495760  	0.071916 
3348.424576  	0.071794 
3350.353392  	0.071669 
3352.282208  	0.071637 
3354.211024  	0.071538 
3356.139840  	0.071305 
3358.068656  	0.071000 
3359.997472  	0.070638 
3361.926288  	0.070491 
3363.855104  	0.070323 
3365.783920  	0.069844 
3367.712736  	0.069511 
3369.641552  	0.069243 
3371.570368  	0.068966 
3373.499184  	0.068732 
3375.428000  	0.068268 
3377.356816  	0.068038 
3379.285632  	0.068021 
3381.214448  	0.067807 
3383.143264  	0.067446 
3385.072080  	0.067029 
3387.000896  	0.066663 
3388.929712  	0.066369 
3390.858528  	0.066217 
3392.787344  	0.065929 
3394.716160  	0.065578 
3396.644976  	0.065329 
3398.573792  	0.064912 
3400.502608  	0.064659 
3402.431424  	0.064425 
3404.360240  	0.063861 
3406.289056  	0.063187 
3408.217872  	0.062842 
3410.146688  	0.062539 
3412.075504  	0.062451 
3414.004320  	0.062166 
3415.933136  	0.061851 
3417.861952  	0.061388 
3419.790768  	0.060860 
3421.719584  	0.060147 
3423.648400  	0.059773 
3425.577216  	0.059530 
3427.506032  	0.059038 
3429.434848  	0.058621 
3431.363664  	0.058245 
3433.292480  	0.057822 
3435.221296  	0.057168 
3437.150112  	0.056698 
3439.078928  	0.056500 
3441.007744  	0.056109 
3442.936560  	0.055571 
3444.865376  	0.055208 
3446.794192  	0.054384 
3448.723008  	0.053441 
3450.651824  	0.053163 
3452.580640  	0.052954 
3454.509456  	0.052566 
3456.438272  	0.051864 
3458.367088  	0.051430 
3460.295904  	0.051054 
3462.224720  	0.050088 
3464.153536  	0.049130 
3466.082352  	0.048759 
3468.011168  	0.048066 
3469.939984  	0.047425 
3471.868800  	0.046911 
3473.797616  	0.046155 
3475.726432  	0.045384 
3477.655248  	0.044812 
3479.584064  	0.044573 
3481.512880  	0.043881 
3483.441696  	0.042769 
3485.370512  	0.042261 
3487.299328  	0.041350 
3489.228144  	0.040658 
3491.156960  	0.040087 
3493.085776  	0.039508 
3495.014592  	0.038839 
3496.943408  	0.038083 
3498.872224  	0.037712 
3500.801040  	0.037782 
3502.729856  	0.036852 
3504.658672  	0.035412 
3506.587488  	0.035287 
3508.516304  	0.035099 
3510.445120  	0.034128 
3512.373936  	0.033595 
3514.302752  	0.033060 
3516.231568  	0.032709 
3518.160384  	0.032257 
3520.089200  	0.031689 
3522.018016  	0.031481 
3523.946832  	0.031150 
3525.875648  	0.030581 
3527.804464  	0.029255 
3529.733280  	0.028246 
3531.662096  	0.027912 
3533.590912  	0.027768 
3535.519728  	0.027667 
3537.448544  	0.027008 
3539.377360  	0.026362 
3541.306176  	0.026087 
3543.234992  	0.026073 
3545.163808  	0.025935 
3547.092624  	0.024745 
3549.021440  	0.023574 
3550.950256  	0.023162 
3552.879072  	0.022331 
3554.807888  	0.021808 
3556.736704  	0.021506 
3558.665520  	0.021356 
3560.594336  	0.021056 
3562.523152  	0.020520 
3564.451968  	0.020685 
3566.380784  	0.020013 
3568.309600  	0.017211 
3570.238416  	0.016908 
3572.167232  	0.017319 
3574.096048  	0.016648 
3576.024864  	0.015840 
3577.953680  	0.015517 
3579.882496  	0.014957 
3581.811312  	0.014453 
3583.740128  	0.014440 
3585.668944  	0.014543 
3587.597760  	0.012273 
3589.526576  	0.010629 
3591.455392  	0.011128 
3593.384208  	0.010894 
3595.313024  	0.009721 
3597.241840  	0.008814 
3599.170656  	0.007885 
3601.099472  	0.006779 
3603.028288  	0.006711 
3604.957104  	0.007322 
3606.885920  	0.006841 
3608.814736  	0.004834 
3610.743552  	0.004446 
3612.672368  	0.003569 
3614.601184  	0.002112 
3616.530000  	0.002472 
3618.458816  	0.000513 
3620.387632  	-0.001939 
3622.316448  	-0.001033 
3624.245264  	-0.000135 
3626.174080  	0.000395 
3628.102896  	-0.002619 
3630.031712  	-0.008092 
3631.960528  	-0.005431 
3633.889344  	-0.005165 
3635.818160  	-0.005899 
3637.746976  	-0.006444 
3639.675792  	-0.006643 
3641.604608  	-0.006739 
3643.533424  	-0.006932 
3645.462240  	-0.006966 
3647.391056  	-0.010355 
3649.319872  	-0.015906 
3651.248688  	-0.017810 
3653.177504  	-0.013869 
3655.106320  	-0.013381 
3657.035136  	-0.016855 
3658.963952  	-0.016399 
3660.892768  	-0.015896 
3662.821584  	-0.015988 
3664.750400  	-0.015686 
3666.679216  	-0.015190 
3668.608032  	-0.017255 
3670.536848  	-0.021661 
3672.465664  	-0.018998 
3674.394480  	-0.019159 
3676.323296  	-0.025533 
3678.252112  	-0.021420 
3680.180928  	-0.019036 
3682.109744  	-0.018008 
3684.038560  	-0.017693 
3685.967376  	-0.017108 
3687.896192  	-0.019864 
3689.825008  	-0.024149 
3691.753824  	-0.022916 
3693.682640  	-0.019775 
3695.611456  	-0.018218 
3697.540272  	-0.017346 
3699.469088  	-0.016489 
3701.397904  	-0.017820 
3703.326720  	-0.017731 
3705.255536  	-0.015558 
3707.184352  	-0.014669 
3709.113168  	-0.016197 
3711.041984  	-0.019447 
3712.970800  	-0.019365 
3714.899616  	-0.015731 
3716.828432  	-0.014182 
3718.757248  	-0.014556 
3720.686064  	-0.014992 
3722.614880  	-0.015502 
3724.543696  	-0.014965 
3726.472512  	-0.015626 
3728.401328  	-0.015407 
3730.330144  	-0.015025 
3732.258960  	-0.017031 
3734.187776  	-0.017364 
3736.116592  	-0.019475 
3738.045408  	-0.018574 
3739.974224  	-0.015604 
3741.903040  	-0.013523 
3743.831856  	-0.015853 
3745.760672  	-0.019694 
3747.689488  	-0.016554 
3749.618304  	-0.019048 
3751.547120  	-0.022373 
3753.475936  	-0.020051 
3755.404752  	-0.016190 
3757.333568  	-0.015564 
3759.262384  	-0.016987 
3761.191200  	-0.016927 
3763.120016  	-0.014278 
3765.048832  	-0.014767 
3766.977648  	-0.015124 
3768.906464  	-0.015665 
3770.835280  	-0.017135 
3772.764096  	-0.015362 
3774.692912  	-0.014039 
3776.621728  	-0.013712 
3778.550544  	-0.015389 
3780.479360  	-0.017059 
3782.408176  	-0.015098 
3784.336992  	-0.015106 
3786.265808  	-0.015264 
3788.194624  	-0.014684 
3790.123440  	-0.014580 
3792.052256  	-0.014541 
3793.981072  	-0.014033 
3795.909888  	-0.015544 
3797.838704  	-0.015908 
3799.767520  	-0.015490 
3801.696336  	-0.020692 
3803.625152  	-0.018831 
3805.553968  	-0.016291 
3807.482784  	-0.018792 
3809.411600  	-0.016525 
3811.340416  	-0.014288 
3813.269232  	-0.013380 
3815.198048  	-0.015966 
3817.126864  	-0.018470 
3819.055680  	-0.016060 
3820.984496  	-0.019963 
3822.913312  	-0.019617 
3824.842128  	-0.015704 
3826.770944  	-0.016159 
3828.699760  	-0.015302 
3830.628576  	-0.014962 
3832.557392  	-0.016103 
3834.486208  	-0.015979 
3836.415024  	-0.016967 
3838.343840  	-0.019363 
3840.272656  	-0.019088 
3842.201472  	-0.017049 
3844.130288  	-0.016713 
3846.059104  	-0.015314 
3847.987920  	-0.013770 
3849.916736  	-0.013236 
3851.845552  	-0.015124 
3853.774368  	-0.022995 
3855.703184  	-0.020985 
3857.632000  	-0.016762 
3859.560816  	-0.014402 
3861.489632  	-0.014120 
3863.418448  	-0.015428 
3865.347264  	-0.016695 
3867.276080  	-0.014533 
3869.204896  	-0.015520 
3871.133712  	-0.017378 
3873.062528  	-0.015584 
3874.991344  	-0.016419 
3876.920160  	-0.014214 
3878.848976  	-0.013071 
3880.777792  	-0.015079 
3882.706608  	-0.014231 
3884.635424  	-0.014060 
3886.564240  	-0.016412 
3888.493056  	-0.014361 
3890.421872  	-0.014406 
3892.350688  	-0.016348 
3894.279504  	-0.014936 
3896.208320  	-0.013196 
3898.137136  	-0.013085 
3900.065952  	-0.014183 
3901.994768  	-0.014368 
3903.923584  	-0.015598 
3905.852400  	-0.016341 
3907.781216  	-0.015141 
3909.710032  	-0.014326 
3911.638848  	-0.014124 
3913.567664  	-0.013672 
3915.496480  	-0.013271 
3917.425296  	-0.014091 
3919.354112  	-0.014465 
3921.282928  	-0.014168 
3923.211744  	-0.013531 
3925.140560  	-0.013991 
3927.069376  	-0.013932 
3928.998192  	-0.013554 
3930.927008  	-0.013512 
3932.855824  	-0.014006 
3934.784640  	-0.014204 
3936.713456  	-0.013951 
3938.642272  	-0.013694 
3940.571088  	-0.013147 
3942.499904  	-0.013510 
3944.428720  	-0.014010 
3946.357536  	-0.013316 
3948.286352  	-0.013268 
3950.215168  	-0.014042 
3952.143984  	-0.014363 
3954.072800  	-0.014172 
3956.001616  	-0.013942 
3957.930432  	-0.014020 
3959.859248  	-0.013975 
3961.788064  	-0.013965 
3963.716880  	-0.014321 
3965.645696  	-0.014437 
3967.574512  	-0.014162 
3969.503328  	-0.013964 
3971.432144  	-0.014073 
3973.360960  	-0.014133 
3975.289776  	-0.014217 
3977.218592  	-0.014207 
3979.147408  	-0.014131 
3981.076224  	-0.014199 
3983.005040  	-0.014193 
3984.933856  	-0.014090 
3986.862672  	-0.014166 
3988.791488  	-0.013913 
3990.720304  	-0.013787 
3992.649120  	-0.013960 
3994.577936  	-0.014119 
3996.506752  	-0.014121 
3998.435568  	-0.014132 
4000.364384  	-0.014138 