##TITLE=No Description
##DATA TYPE=INFRARED SPECTRUM
##XUNITS=1/CM
##YUNITS=Abs
399.264912  	0.611745 
401.193728  	0.617497 
403.122544  	0.622547 
405.051360  	0.603298 
406.980176  	0.595760 
408.908992  	0.582880 
410.837808  	0.574407 
412.766624  	0.575761 
414.695440  	0.585077 
416.624256  	0.571794 
418.553072  	0.569627 
420.481888  	0.571272 
422.410704  	0.570673 
424.339520  	0.562740 
426.268336  	0.561519 
428.197152  	0.550972 
430.125968  	0.545473 
432.054784  	0.547507 
433.983600  	0.556549 
435.912416  	0.549080 
437.841232  	0.547756 
439.770048  	0.542882 
441.698864  	0.539451 
443.627680  	0.537386 
445.556496  	0.538220 
447.485312  	0.532217 
449.414128  	0.527619 
451.342944  	0.523114 
453.271760  	0.526864 
455.200576  	0.532485 
457.129392  	0.537814 
459.058208  	0.531941 
460.987024  	0.532636 
462.915840  	0.534200 
464.844656  	0.534286 
466.773472  	0.523936 
468.702288  	0.527078 
470.631104  	0.530832 
472.559920  	0.529966 
474.488736  	0.524481 
476.417552  	0.527980 
478.346368  	0.526183 
480.275184  	0.525636 
482.204000  	0.519061 
484.132816  	0.519545 
486.061632  	0.518781 
487.990448  	0.521079 
489.919264  	0.520139 
491.848080  	0.519945 
493.776896  	0.514401 
495.705712  	0.513045 
497.634528  	0.511960 
499.563344  	0.512598 
501.492160  	0.509443 
503.420976  	0.507432 
505.349792  	0.504393 
507.278608  	0.507188 
509.207424  	0.507445 
511.136240  	0.509418 
513.065056  	0.509631 
514.993872  	0.509626 
516.922688  	0.508528 
518.851504  	0.512522 
520.780320  	0.510671 
522.709136  	0.508449 
524.637952  	0.505317 
526.566768  	0.506152 
528.495584  	0.504662 
530.424400  	0.503297 
532.353216  	0.498602 
534.282032  	0.493673 
536.210848  	0.488601 
538.139664  	0.486881 
540.068480  	0.481996 
541.997296  	0.477075 
543.926112  	0.472219 
545.854928  	0.469175 
547.783744  	0.464347 
549.712560  	0.461113 
551.641376  	0.458476 
553.570192  	0.454909 
555.499008  	0.450619 
557.427824  	0.449244 
559.356640  	0.445011 
561.285456  	0.441433 
563.214272  	0.437729 
565.143088  	0.434750 
567.071904  	0.430873 
569.000720  	0.427549 
570.929536  	0.424513 
572.858352  	0.422123 
574.787168  	0.418841 
576.715984  	0.417302 
578.644800  	0.414356 
580.573616  	0.409902 
582.502432  	0.404598 
584.431248  	0.402325 
586.360064  	0.399807 
588.288880  	0.397462 
590.217696  	0.395056 
592.146512  	0.392921 
594.075328  	0.390186 
596.004144  	0.388102 
597.932960  	0.386182 
599.861776  	0.384731 
601.790592  	0.382250 
603.719408  	0.380191 
605.648224  	0.378498 
607.577040  	0.377291 
609.505856  	0.375162 
611.434672  	0.373828 
613.363488  	0.372007 
615.292304  	0.371537 
617.221120  	0.370143 
619.149936  	0.368027 
621.078752  	0.365821 
623.007568  	0.364670 
624.936384  	0.363370 
626.865200  	0.362287 
628.794016  	0.360342 
630.722832  	0.359658 
632.651648  	0.359268 
634.580464  	0.359395 
636.509280  	0.359542 
638.438096  	0.359545 
640.366912  	0.358128 
642.295728  	0.356619 
644.224544  	0.353743 
646.153360  	0.350179 
648.082176  	0.345779 
650.010992  	0.342208 
651.939808  	0.339013 
653.868624  	0.335854 
655.797440  	0.331644 
657.726256  	0.327893 
659.655072  	0.324343 
661.583888  	0.320440 
663.512704  	0.316554 
665.441520  	0.313570 
667.370336  	0.307221 
669.299152  	0.301700 
671.227968  	0.300294 
673.156784  	0.297692 
675.085600  	0.295007 
677.014416  	0.292645 
678.943232  	0.290526 
680.872048  	0.288318 
682.800864  	0.286510 
684.729680  	0.285358 
686.658496  	0.283849 
688.587312  	0.282826 
690.516128  	0.281135 
692.444944  	0.280085 
694.373760  	0.278753 
696.302576  	0.276907 
698.231392  	0.274610 
700.160208  	0.272202 
702.089024  	0.270056 
704.017840  	0.267882 
705.946656  	0.265049 
707.875472  	0.262472 
709.804288  	0.260119 
711.733104  	0.258304 
713.661920  	0.256323 
715.590736  	0.254601 
717.519552  	0.253513 
719.448368  	0.253505 
721.377184  	0.253706 
723.306000  	0.254108 
725.234816  	0.254124 
727.163632  	0.253296 
729.092448  	0.251010 
731.021264  	0.248184 
732.950080  	0.245072 
734.878896  	0.242024 
736.807712  	0.238950 
738.736528  	0.236746 
740.665344  	0.234727 
742.594160  	0.232836 
744.522976  	0.231145 
746.451792  	0.229602 
748.380608  	0.228149 
750.309424  	0.226815 
752.238240  	0.225466 
754.167056  	0.224813 
756.095872  	0.223896 
758.024688  	0.222689 
759.953504  	0.221767 
761.882320  	0.222108 
763.811136  	0.222436 
765.739952  	0.221273 
767.668768  	0.218970 
769.597584  	0.216673 
771.526400  	0.215203 
773.455216  	0.216071 
775.384032  	0.218831 
777.312848  	0.222918 
779.241664  	0.226513 
781.170480  	0.226976 
783.099296  	0.223681 
785.028112  	0.218432 
786.956928  	0.212848 
788.885744  	0.207889 
790.814560  	0.204215 
792.743376  	0.201832 
794.672192  	0.200369 
796.601008  	0.199654 
798.529824  	0.197059 
800.458640  	0.192899 
802.387456  	0.189481 
804.316272  	0.187430 
806.245088  	0.186026 
808.173904  	0.185180 
810.102720  	0.184548 
812.031536  	0.184091 
813.960352  	0.184071 
815.889168  	0.183778 
817.817984  	0.183595 
819.746800  	0.183420 
821.675616  	0.182986 
823.604432  	0.182545 
825.533248  	0.182052 
827.462064  	0.181194 
829.390880  	0.180043 
831.319696  	0.178697 
833.248512  	0.177070 
835.177328  	0.174901 
837.106144  	0.172408 
839.034960  	0.169613 
840.963776  	0.166283 
842.892592  	0.162815 
844.821408  	0.159805 
846.750224  	0.157010 
848.679040  	0.154590 
850.607856  	0.152679 
852.536672  	0.151065 
854.465488  	0.149641 
856.394304  	0.148179 
858.323120  	0.146701 
860.251936  	0.144582 
862.180752  	0.142326 
864.109568  	0.140057 
866.038384  	0.137638 
867.967200  	0.135576 
869.896016  	0.133827 
871.824832  	0.132592 
873.753648  	0.132003 
875.682464  	0.132504 
877.611280  	0.132928 
879.540096  	0.133418 
881.468912  	0.135186 
883.397728  	0.136320 
885.326544  	0.136882 
887.255360  	0.137083 
889.184176  	0.135945 
891.112992  	0.133809 
893.041808  	0.132137 
894.970624  	0.130191 
896.899440  	0.127384 
898.828256  	0.123612 
900.757072  	0.119779 
902.685888  	0.116821 
904.614704  	0.114980 
906.543520  	0.114737 
908.472336  	0.115674 
910.401152  	0.117723 
912.329968  	0.120316 
914.258784  	0.122935 
916.187600  	0.125226 
918.116416  	0.127218 
920.045232  	0.128554 
921.974048  	0.129307 
923.902864  	0.129576 
925.831680  	0.129267 
927.760496  	0.129146 
929.689312  	0.129393 
931.618128  	0.129945 
933.546944  	0.130310 
935.475760  	0.130526 
937.404576  	0.130344 
939.333392  	0.130021 
941.262208  	0.130041 
943.191024  	0.131090 
945.119840  	0.134086 
947.048656  	0.139027 
948.977472  	0.145674 
950.906288  	0.153797 
952.835104  	0.162732 
954.763920  	0.172181 
956.692736  	0.180900 
958.621552  	0.188486 
960.550368  	0.193882 
962.479184  	0.196462 
964.408000  	0.195832 
966.336816  	0.191856 
968.265632  	0.184543 
970.194448  	0.174945 
972.123264  	0.163622 
974.052080  	0.151734 
975.980896  	0.140297 
977.909712  	0.129516 
979.838528  	0.119816 
981.767344  	0.111623 
983.696160  	0.105220 
985.624976  	0.100996 
987.553792  	0.099162 
989.482608  	0.099730 
991.411424  	0.102382 
993.340240  	0.106402 
995.269056  	0.111492 
997.197872  	0.117210 
999.126688  	0.122924 
1001.055504  	0.128614 
1002.984320  	0.134399 
1004.913136  	0.140150 
1006.841952  	0.145562 
1008.770768  	0.150184 
1010.699584  	0.153489 
1012.628400  	0.155309 
1014.557216  	0.155961 
1016.486032  	0.156051 
1018.414848  	0.155675 
1020.343664  	0.155295 
1022.272480  	0.154556 
1024.201296  	0.153308 
1026.130112  	0.150200 
1028.058928  	0.148712 
1029.987744  	0.151393 
1031.916560  	0.153182 
1033.845376  	0.153914 
1035.774192  	0.154534 
1037.703008  	0.156533 
1039.631824  	0.161832 
1041.560640  	0.169156 
1043.489456  	0.179024 
1045.418272  	0.191222 
1047.347088  	0.204902 
1049.275904  	0.217986 
1051.204720  	0.228698 
1053.133536  	0.235536 
1055.062352  	0.238944 
1056.991168  	0.239259 
1058.919984  	0.240772 
1060.848800  	0.242130 
1062.777616  	0.240032 
1064.706432  	0.234552 
1066.635248  	0.230045 
1068.564064  	0.228976 
1070.492880  	0.225328 
1072.421696  	0.218832 
1074.350512  	0.214031 
1076.279328  	0.212777 
1078.208144  	0.215243 
1080.136960  	0.220266 
1082.065776  	0.226172 
1083.994592  	0.230285 
1085.923408  	0.232241 
1087.852224  	0.231288 
1089.781040  	0.227748 
1091.709856  	0.222724 
1093.638672  	0.215570 
1095.567488  	0.205734 
1097.496304  	0.194977 
1099.425120  	0.183477 
1101.353936  	0.171655 
1103.282752  	0.159997 
1105.211568  	0.149025 
1107.140384  	0.138543 
1109.069200  	0.128360 
1110.998016  	0.118993 
1112.926832  	0.110689 
1114.855648  	0.103075 
1116.784464  	0.095939 
1118.713280  	0.089222 
1120.642096  	0.082774 
1122.570912  	0.076786 
1124.499728  	0.071146 
1126.428544  	0.066131 
1128.357360  	0.061421 
1130.286176  	0.057724 
1132.214992  	0.054617 
1134.143808  	0.051937 
1136.072624  	0.049704 
1138.001440  	0.047933 
1139.930256  	0.045829 
1141.859072  	0.043672 
1143.787888  	0.041557 
1145.716704  	0.039570 
1147.645520  	0.037630 
1149.574336  	0.036042 
1151.503152  	0.034686 
1153.431968  	0.034184 
1155.360784  	0.034327 
1157.289600  	0.035038 
1159.218416  	0.036320 
1161.147232  	0.038188 
1163.076048  	0.040209 
1165.004864  	0.042420 
1166.933680  	0.044381 
1168.862496  	0.046497 
1170.791312  	0.048602 
1172.720128  	0.051239 
1174.648944  	0.053791 
1176.577760  	0.056406 
1178.506576  	0.058821 
1180.435392  	0.061401 
1182.364208  	0.063908 
1184.293024  	0.066692 
1186.221840  	0.069653 
1188.150656  	0.073144 
1190.079472  	0.076990 
1192.008288  	0.081739 
1193.937104  	0.087670 
1195.865920  	0.094392 
1197.794736  	0.101665 
1199.723552  	0.109837 
1201.652368  	0.118221 
1203.581184  	0.126504 
1205.510000  	0.134733 
1207.438816  	0.142583 
1209.367632  	0.149850 
1211.296448  	0.156246 
1213.225264  	0.161526 
1215.154080  	0.165710 
1217.082896  	0.168752 
1219.011712  	0.170630 
1220.940528  	0.172288 
1222.869344  	0.173327 
1224.798160  	0.173408 
1226.726976  	0.172891 
1228.655792  	0.172278 
1230.584608  	0.170974 
1232.513424  	0.169135 
1234.442240  	0.166703 
1236.371056  	0.163660 
1238.299872  	0.159478 
1240.228688  	0.152892 
1242.157504  	0.146441 
1244.086320  	0.141284 
1246.015136  	0.134498 
1247.943952  	0.126756 
1249.872768  	0.119249 
1251.801584  	0.112848 
1253.730400  	0.106201 
1255.659216  	0.099659 
1257.588032  	0.093671 
1259.516848  	0.087809 
1261.445664  	0.082396 
1263.374480  	0.077663 
1265.303296  	0.073524 
1267.232112  	0.070228 
1269.160928  	0.067730 
1271.089744  	0.065788 
1273.018560  	0.064748 
1274.947376  	0.064365 
1276.876192  	0.064290 
1278.805008  	0.063921 
1280.733824  	0.062934 
1282.662640  	0.061168 
1284.591456  	0.058986 
1286.520272  	0.057051 
1288.449088  	0.055752 
1290.377904  	0.055004 
1292.306720  	0.055096 
1294.235536  	0.055161 
1296.164352  	0.054369 
1298.093168  	0.052291 
1300.021984  	0.049674 
1301.950800  	0.046970 
1303.879616  	0.044349 
1305.808432  	0.041445 
1307.737248  	0.038666 
1309.666064  	0.035992 
1311.594880  	0.033981 
1313.523696  	0.032457 
1315.452512  	0.031377 
1317.381328  	0.030730 
1319.310144  	0.030501 
1321.238960  	0.030549 
1323.167776  	0.031143 
1325.096592  	0.031907 
1327.025408  	0.032505 
1328.954224  	0.032538 
1330.883040  	0.032187 
1332.811856  	0.031416 
1334.740672  	0.030903 
1336.669488  	0.030788 
1338.598304  	0.030853 
1340.527120  	0.029644 
1342.455936  	0.028171 
1344.384752  	0.027708 
1346.313568  	0.027874 
1348.242384  	0.028396 
1350.171200  	0.029551 
1352.100016  	0.030995 
1354.028832  	0.032683 
1355.957648  	0.034338 
1357.886464  	0.036222 
1359.815280  	0.038305 
1361.744096  	0.040331 
1363.672912  	0.041563 
1365.601728  	0.042565 
1367.530544  	0.043625 
1369.459360  	0.043924 
1371.388176  	0.043549 
1373.316992  	0.042323 
1375.245808  	0.039475 
1377.174624  	0.037148 
1379.103440  	0.034433 
1381.032256  	0.031553 
1382.961072  	0.029396 
1384.889888  	0.028583 
1386.818704  	0.027999 
1388.747520  	0.026527 
1390.676336  	0.024328 
1392.605152  	0.020997 
1394.533968  	0.019066 
1396.462784  	0.022061 
1398.391600  	0.023295 
1400.320416  	0.022713 
1402.249232  	0.022893 
1404.178048  	0.023297 
1406.106864  	0.023969 
1408.035680  	0.025791 
1409.964496  	0.028133 
1411.893312  	0.030862 
1413.822128  	0.033581 
1415.750944  	0.036931 
1417.679760  	0.039073 
1419.608576  	0.038847 
1421.537392  	0.039354 
1423.466208  	0.039566 
1425.395024  	0.038228 
1427.323840  	0.037066 
1429.252656  	0.034745 
1431.181472  	0.033231 
1433.110288  	0.033263 
1435.039104  	0.033594 
1436.967920  	0.032903 
1438.896736  	0.033729 
1440.825552  	0.034788 
1442.754368  	0.035304 
1444.683184  	0.035462 
1446.612000  	0.035220 
1448.540816  	0.034171 
1450.469632  	0.034668 
1452.398448  	0.035467 
1454.327264  	0.036122 
1456.256080  	0.035018 
1458.184896  	0.033011 
1460.113712  	0.034949 
1462.042528  	0.036524 
1463.971344  	0.035993 
1465.900160  	0.036530 
1467.828976  	0.039335 
1469.757792  	0.042164 
1471.686608  	0.044466 
1473.615424  	0.049772 
1475.544240  	0.056100 
1477.473056  	0.061543 
1479.401872  	0.065225 
1481.330688  	0.068079 
1483.259504  	0.069961 
1485.188320  	0.071129 
1487.117136  	0.070774 
1489.045952  	0.069940 
1490.974768  	0.067360 
1492.903584  	0.065674 
1494.832400  	0.062475 
1496.761216  	0.056082 
1498.690032  	0.050747 
1500.618848  	0.047623 
1502.547664  	0.044363 
1504.476480  	0.040065 
1506.405296  	0.032910 
1508.334112  	0.031579 
1510.262928  	0.032546 
1512.191744  	0.031041 
1514.120560  	0.030005 
1516.049376  	0.028987 
1517.978192  	0.028100 
1519.907008  	0.029092 
1521.835824  	0.029074 
1523.764640  	0.033448 
1525.693456  	0.037623 
1527.622272  	0.040000 
1529.551088  	0.040910 
1531.479904  	0.040548 
1533.408720  	0.036633 
1535.337536  	0.034332 
1537.266352  	0.032538 
1539.195168  	0.024457 
1541.123984  	0.017731 
1543.052800  	0.020986 
1544.981616  	0.022093 
1546.910432  	0.022032 
1548.839248  	0.022348 
1550.768064  	0.022391 
1552.696880  	0.022182 
1554.625696  	0.022253 
1556.554512  	0.021847 
1558.483328  	0.018570 
1560.412144  	0.023957 
1562.340960  	0.031385 
1564.269776  	0.034946 
1566.198592  	0.039701 
1568.127408  	0.043177 
1570.056224  	0.047832 
1571.985040  	0.054805 
1573.913856  	0.058769 
1575.842672  	0.059078 
1577.771488  	0.062504 
1579.700304  	0.064737 
1581.629120  	0.064698 
1583.557936  	0.064119 
1585.486752  	0.064840 
1587.415568  	0.066992 
1589.344384  	0.071008 
1591.273200  	0.076199 
1593.202016  	0.082529 
1595.130832  	0.089323 
1597.059648  	0.096586 
1598.988464  	0.102612 
1600.917280  	0.107795 
1602.846096  	0.111093 
1604.774912  	0.113281 
1606.703728  	0.113462 
1608.632544  	0.112715 
1610.561360  	0.111037 
1612.490176  	0.109781 
1614.418992  	0.107313 
1616.347808  	0.104349 
1618.276624  	0.106168 
1620.205440  	0.110259 
1622.134256  	0.112201 
1624.063072  	0.117417 
1625.991888  	0.123752 
1627.920704  	0.130851 
1629.849520  	0.139973 
1631.778336  	0.148124 
1633.707152  	0.152682 
1635.635968  	0.158768 
1637.564784  	0.169739 
1639.493600  	0.177352 
1641.422416  	0.182299 
1643.351232  	0.185428 
1645.280048  	0.184946 
1647.208864  	0.184845 
1649.137680  	0.187151 
1651.066496  	0.186118 
1652.995312  	0.178998 
1654.924128  	0.181335 
1656.852944  	0.182333 
1658.781760  	0.180566 
1660.710576  	0.176915 
1662.639392  	0.171815 
1664.568208  	0.168765 
1666.497024  	0.166422 
1668.425840  	0.160616 
1670.354656  	0.154376 
1672.283472  	0.152238 
1674.212288  	0.149416 
1676.141104  	0.145663 
1678.069920  	0.145145 
1679.998736  	0.144076 
1681.927552  	0.141862 
1683.856368  	0.136288 
1685.785184  	0.136971 
1687.714000  	0.139336 
1689.642816  	0.139000 
1691.571632  	0.137751 
1693.500448  	0.136182 
1695.429264  	0.131429 
1697.358080  	0.128665 
1699.286896  	0.126218 
1701.215712  	0.122359 
1703.144528  	0.122184 
1705.073344  	0.118264 
1707.002160  	0.113134 
1708.930976  	0.109707 
1710.859792  	0.104399 
1712.788608  	0.097984 
1714.717424  	0.089659 
1716.646240  	0.078965 
1718.575056  	0.066975 
1720.503872  	0.060921 
1722.432688  	0.055100 
1724.361504  	0.046821 
1726.290320  	0.039955 
1728.219136  	0.034081 
1730.147952  	0.028812 
1732.076768  	0.024208 
1734.005584  	0.017262 
1735.934400  	0.013370 
1737.863216  	0.013662 
1739.792032  	0.010191 
1741.720848  	0.009246 
1743.649664  	0.008996 
1745.578480  	0.008316 
1747.507296  	0.006625 
1749.436112  	0.005716 
1751.364928  	0.004827 
1753.293744  	0.004598 
1755.222560  	0.004525 
1757.151376  	0.003808 
1759.080192  	0.003421 
1761.009008  	0.002754 
1762.937824  	0.001333 
1764.866640  	0.002005 
1766.795456  	0.002279 
1768.724272  	0.001595 
1770.653088  	-0.000545 
1772.581904  	-0.003031 
1774.510720  	-0.001485 
1776.439536  	0.000262 
1778.368352  	0.000629 
1780.297168  	0.000201 
1782.225984  	-0.000293 
1784.154800  	0.000112 
1786.083616  	-0.000497 
1788.012432  	-0.000246 
1789.941248  	-0.000109 
1791.870064  	-0.001706 
1793.798880  	-0.002744 
1795.727696  	-0.001116 
1797.656512  	-0.001410 
1799.585328  	-0.001708 
1801.514144  	-0.001253 
1803.442960  	-0.001048 
1805.371776  	-0.001554 
1807.300592  	-0.001345 
1809.229408  	-0.001984 
1811.158224  	-0.002398 
1813.087040  	-0.002398 
1815.015856  	-0.001930 
1816.944672  	-0.001849 
1818.873488  	-0.001872 
1820.802304  	-0.002047 
1822.731120  	-0.001663 
1824.659936  	-0.002392 
1826.588752  	-0.002847 
1828.517568  	-0.003569 
1830.446384  	-0.004025 
1832.375200  	-0.003078 
1834.304016  	-0.002268 
1836.232832  	-0.002300 
1838.161648  	-0.002137 
1840.090464  	-0.002286 
1842.019280  	-0.001912 
1843.948096  	-0.003315 
1845.876912  	-0.003377 
1847.805728  	-0.002590 
1849.734544  	-0.002478 
1851.663360  	-0.002657 
1853.592176  	-0.002605 
1855.520992  	-0.002734 
1857.449808  	-0.002519 
1859.378624  	-0.002712 
1861.307440  	-0.002783 
1863.236256  	-0.003023 
1865.165072  	-0.002781 
1867.093888  	-0.003097 
1869.022704  	-0.003729 
1870.951520  	-0.003666 
1872.880336  	-0.002926 
1874.809152  	-0.003143 
1876.737968  	-0.003139 
1878.666784  	-0.003311 
1880.595600  	-0.002729 
1882.524416  	-0.003058 
1884.453232  	-0.003112 
1886.382048  	-0.003372 
1888.310864  	-0.003387 
1890.239680  	-0.003811 
1892.168496  	-0.003239 
1894.097312  	-0.003155 
1896.026128  	-0.003018 
1897.954944  	-0.003210 
1899.883760  	-0.003027 
1901.812576  	-0.003265 
1903.741392  	-0.003352 
1905.670208  	-0.003371 
1907.599024  	-0.003009 
1909.527840  	-0.003180 
1911.456656  	-0.002784 
1913.385472  	-0.002984 
1915.314288  	-0.003024 
1917.243104  	-0.003892 
1919.171920  	-0.003895 
1921.100736  	-0.003438 
1923.029552  	-0.002995 
1924.958368  	-0.003402 
1926.887184  	-0.003290 
1928.816000  	-0.003553 
1930.744816  	-0.003418 
1932.673632  	-0.003443 
1934.602448  	-0.003546 
1936.531264  	-0.003727 
1938.460080  	-0.002981 
1940.388896  	-0.003228 
1942.317712  	-0.003619 
1944.246528  	-0.003859 
1946.175344  	-0.002657 
1948.104160  	-0.002864 
1950.032976  	-0.003142 
1951.961792  	-0.003503 
1953.890608  	-0.003309 
1955.819424  	-0.003737 
1957.748240  	-0.002827 
1959.677056  	-0.003253 
1961.605872  	-0.003376 
1963.534688  	-0.004182 
1965.463504  	-0.003594 
1967.392320  	-0.004406 
1969.321136  	-0.004132 
1971.249952  	-0.003444 
1973.178768  	-0.001567 
1975.107584  	-0.002284 
1977.036400  	-0.001783 
1978.965216  	-0.001022 
1980.894032  	-0.002025 
1982.822848  	-0.003162 
1984.751664  	-0.002119 
1986.680480  	-0.003048 
1988.609296  	-0.002971 
1990.538112  	-0.003235 
1992.466928  	-0.002371 
1994.395744  	-0.002715 
1996.324560  	-0.002762 
1998.253376  	-0.003543 
2000.182192  	-0.003689 
2002.111008  	-0.003571 
2004.039824  	-0.002513 
2005.968640  	-0.003318 
2007.897456  	-0.003124 
2009.826272  	-0.003674 
2011.755088  	-0.003235 
2013.683904  	-0.003703 
2015.612720  	-0.003170 
2017.541536  	-0.003261 
2019.470352  	-0.002691 
2021.399168  	-0.004001 
2023.327984  	-0.003041 
2025.256800  	-0.001827 
2027.185616  	-0.000951 
2029.114432  	-0.001407 
2031.043248  	-0.001392 
2032.972064  	-0.002121 
2034.900880  	-0.002283 
2036.829696  	-0.003313 
2038.758512  	-0.002664 
2040.687328  	-0.003211 
2042.616144  	-0.002966 
2044.544960  	-0.002822 
2046.473776  	-0.002356 
2048.402592  	-0.002092 
2050.331408  	-0.002198 
2052.260224  	-0.003567 
2054.189040  	-0.003240 
2056.117856  	-0.003123 
2058.046672  	-0.003023 
2059.975488  	-0.002999 
2061.904304  	-0.002484 
2063.833120  	-0.002187 
2065.761936  	-0.002185 
2067.690752  	-0.003111 
2069.619568  	-0.003055 
2071.548384  	-0.003084 
2073.477200  	-0.002878 
2075.406016  	-0.002679 
2077.334832  	-0.002344 
2079.263648  	-0.002285 
2081.192464  	-0.001873 
2083.121280  	-0.002107 
2085.050096  	-0.002467 
2086.978912  	-0.002731 
2088.907728  	-0.002552 
2090.836544  	-0.002596 
2092.765360  	-0.002223 
2094.694176  	-0.001885 
2096.622992  	-0.002030 
2098.551808  	-0.002822 
2100.480624  	-0.002520 
2102.409440  	-0.002421 
2104.338256  	-0.002359 
2106.267072  	-0.002169 
2108.195888  	-0.002079 
2110.124704  	-0.002414 
2112.053520  	-0.002281 
2113.982336  	-0.002298 
2115.911152  	-0.002150 
2117.839968  	-0.002071 
2119.768784  	-0.002174 
2121.697600  	-0.002504 
2123.626416  	-0.002448 
2125.555232  	-0.002684 
2127.484048  	-0.002739 
2129.412864  	-0.003161 
2131.341680  	-0.002821 
2133.270496  	-0.003017 
2135.199312  	-0.002764 
2137.128128  	-0.002483 
2139.056944  	-0.002166 
2140.985760  	-0.001832 
2142.914576  	-0.001530 
2144.843392  	-0.002188 
2146.772208  	-0.002345 
2148.701024  	-0.003006 
2150.629840  	-0.002303 
2152.558656  	-0.002057 
2154.487472  	-0.001744 
2156.416288  	-0.002326 
2158.345104  	-0.001703 
2160.273920  	-0.000374 
2162.202736  	0.000358 
2164.131552  	-0.000419 
2166.060368  	-0.000649 
2167.989184  	-0.000183 
2169.918000  	0.001465 
2171.846816  	0.000725 
2173.775632  	-0.000198 
2175.704448  	-0.001022 
2177.633264  	-0.000867 
2179.562080  	-0.000984 
2181.490896  	-0.000548 
2183.419712  	-0.001079 
2185.348528  	-0.001777 
2187.277344  	-0.002009 
2189.206160  	-0.001749 
2191.134976  	-0.001938 
2193.063792  	-0.001745 
2194.992608  	-0.002195 
2196.921424  	-0.002100 
2198.850240  	-0.001807 
2200.779056  	-0.001545 
2202.707872  	-0.001342 
2204.636688  	-0.001360 
2206.565504  	-0.001695 
2208.494320  	-0.001720 
2210.423136  	-0.002253 
2212.351952  	-0.002240 
2214.280768  	-0.002779 
2216.209584  	-0.002416 
2218.138400  	-0.002256 
2220.067216  	-0.002251 
2221.996032  	-0.002713 
2223.924848  	-0.002433 
2225.853664  	-0.002065 
2227.782480  	-0.001887 
2229.711296  	-0.002569 
2231.640112  	-0.002948 
2233.568928  	-0.003343 
2235.497744  	-0.002914 
2237.426560  	-0.002857 
2239.355376  	-0.002765 
2241.284192  	-0.002746 
2243.213008  	-0.002411 
2245.141824  	-0.002420 
2247.070640  	-0.002275 
2248.999456  	-0.002443 
2250.928272  	-0.002729 
2252.857088  	-0.003208 
2254.785904  	-0.003075 
2256.714720  	-0.003159 
2258.643536  	-0.003302 
2260.572352  	-0.003704 
2262.501168  	-0.003592 
2264.429984  	-0.003534 
2266.358800  	-0.003508 
2268.287616  	-0.003521 
2270.216432  	-0.003661 
2272.145248  	-0.003595 
2274.074064  	-0.003248 
2276.002880  	-0.003098 
2277.931696  	-0.002761 
2279.860512  	-0.002907 
2281.789328  	-0.002888 
2283.718144  	-0.002666 
2285.646960  	-0.002342 
2287.575776  	-0.002431 
2289.504592  	-0.002681 
2291.433408  	-0.003030 
2293.362224  	-0.002925 
2295.291040  	-0.002478 
2297.219856  	-0.001969 
2299.148672  	-0.001924 
2301.077488  	-0.001709 
2303.006304  	-0.001636 
2304.935120  	-0.001557 
2306.863936  	-0.001387 
2308.792752  	-0.001223 
2310.721568  	-0.001551 
2312.650384  	-0.002095 
2314.579200  	-0.002558 
2316.508016  	-0.003181 
2318.436832  	-0.003940 
2320.365648  	-0.004981 
2322.294464  	-0.006184 
2324.223280  	-0.007438 
2326.152096  	-0.009259 
2328.080912  	-0.010649 
2330.009728  	-0.012280 
2331.938544  	-0.014088 
2333.867360  	-0.015583 
2335.796176  	-0.016659 
2337.724992  	-0.017597 
2339.653808  	-0.017601 
2341.582624  	-0.017640 
2343.511440  	-0.016704 
2345.440256  	-0.014714 
2347.369072  	-0.010529 
2349.297888  	-0.007757 
2351.226704  	-0.009593 
2353.155520  	-0.014059 
2355.084336  	-0.017767 
2357.013152  	-0.020651 
2358.941968  	-0.021959 
2360.870784  	-0.023065 
2362.799600  	-0.022706 
2364.728416  	-0.021799 
2366.657232  	-0.019815 
2368.586048  	-0.016741 
2370.514864  	-0.013552 
2372.443680  	-0.010781 
2374.372496  	-0.008107 
2376.301312  	-0.005836 
2378.230128  	-0.003988 
2380.158944  	-0.002946 
2382.087760  	-0.002617 
2384.016576  	-0.002804 
2385.945392  	-0.003174 
2387.874208  	-0.003529 
2389.803024  	-0.003832 
2391.731840  	-0.003996 
2393.660656  	-0.004023 
2395.589472  	-0.004118 
2397.518288  	-0.004032 
2399.447104  	-0.004048 
2401.375920  	-0.004028 
2403.304736  	-0.004175 
2405.233552  	-0.004093 
2407.162368  	-0.004132 
2409.091184  	-0.004075 
2411.020000  	-0.004180 
2412.948816  	-0.004248 
2414.877632  	-0.004145 
2416.806448  	-0.003954 
2418.735264  	-0.004192 
2420.664080  	-0.004331 
2422.592896  	-0.004184 
2424.521712  	-0.004037 
2426.450528  	-0.004071 
2428.379344  	-0.003973 
2430.308160  	-0.003762 
2432.236976  	-0.003524 
2434.165792  	-0.003732 
2436.094608  	-0.003790 
2438.023424  	-0.003566 
2439.952240  	-0.003302 
2441.881056  	-0.003251 
2443.809872  	-0.003336 
2445.738688  	-0.003307 
2447.667504  	-0.003251 
2449.596320  	-0.003323 
2451.525136  	-0.003233 
2453.453952  	-0.003265 
2455.382768  	-0.003378 
2457.311584  	-0.003497 
2459.240400  	-0.003568 
2461.169216  	-0.003503 
2463.098032  	-0.003498 
2465.026848  	-0.003592 
2466.955664  	-0.003671 
2468.884480  	-0.003715 
2470.813296  	-0.003674 
2472.742112  	-0.003629 
2474.670928  	-0.003456 
2476.599744  	-0.003367 
2478.528560  	-0.003348 
2480.457376  	-0.003510 
2482.386192  	-0.003595 
2484.315008  	-0.003412 
2486.243824  	-0.003365 
2488.172640  	-0.003361 
2490.101456  	-0.003085 
2492.030272  	-0.003099 
2493.959088  	-0.003040 
2495.887904  	-0.003040 
2497.816720  	-0.003053 
2499.745536  	-0.002867 
2501.674352  	-0.002680 
2503.603168  	-0.002630 
2505.531984  	-0.002668 
2507.460800  	-0.002925 
2509.389616  	-0.002911 
2511.318432  	-0.002872 
2513.247248  	-0.002836 
2515.176064  	-0.002713 
2517.104880  	-0.002572 
2519.033696  	-0.002769 
2520.962512  	-0.002540 
2522.891328  	-0.002296 
2524.820144  	-0.002312 
2526.748960  	-0.002429 
2528.677776  	-0.002317 
2530.606592  	-0.002277 
2532.535408  	-0.002413 
2534.464224  	-0.002468 
2536.393040  	-0.002425 
2538.321856  	-0.002301 
2540.250672  	-0.002006 
2542.179488  	-0.002008 
2544.108304  	-0.002039 
2546.037120  	-0.001915 
2547.965936  	-0.001886 
2549.894752  	-0.001887 
2551.823568  	-0.001850 
2553.752384  	-0.001923 
2555.681200  	-0.001666 
2557.610016  	-0.001523 
2559.538832  	-0.001458 
2561.467648  	-0.001352 
2563.396464  	-0.001075 
2565.325280  	-0.000946 
2567.254096  	-0.001043 
2569.182912  	-0.001246 
2571.111728  	-0.001207 
2573.040544  	-0.001063 
2574.969360  	-0.000855 
2576.898176  	-0.000598 
2578.826992  	-0.000743 
2580.755808  	-0.000950 
2582.684624  	-0.000843 
2584.613440  	-0.000798 
2586.542256  	-0.000773 
2588.471072  	-0.000672 
2590.399888  	-0.000468 
2592.328704  	-0.000473 
2594.257520  	-0.000565 
2596.186336  	-0.000521 
2598.115152  	-0.000341 
2600.043968  	-0.000374 
2601.972784  	-0.000217 
2603.901600  	-0.000121 
2605.830416  	0.000066 
2607.759232  	0.000206 
2609.688048  	0.000215 
2611.616864  	0.000305 
2613.545680  	0.000414 
2615.474496  	0.000602 
2617.403312  	0.000750 
2619.332128  	0.000794 
2621.260944  	0.000774 
2623.189760  	0.000832 
2625.118576  	0.001068 
2627.047392  	0.001133 
2628.976208  	0.001163 
2630.905024  	0.001270 
2632.833840  	0.001415 
2634.762656  	0.001501 
2636.691472  	0.001508 
2638.620288  	0.001586 
2640.549104  	0.001717 
2642.477920  	0.001809 
2644.406736  	0.001988 
2646.335552  	0.002102 
2648.264368  	0.002171 
2650.193184  	0.002202 
2652.122000  	0.002433 
2654.050816  	0.002662 
2655.979632  	0.002758 
2657.908448  	0.002824 
2659.837264  	0.002964 
2661.766080  	0.003101 
2663.694896  	0.003208 
2665.623712  	0.003210 
2667.552528  	0.003245 
2669.481344  	0.003361 
2671.410160  	0.003491 
2673.338976  	0.003621 
2675.267792  	0.003779 
2677.196608  	0.003864 
2679.125424  	0.003917 
2681.054240  	0.004084 
2682.983056  	0.004290 
2684.911872  	0.004324 
2686.840688  	0.004400 
2688.769504  	0.004481 
2690.698320  	0.004501 
2692.627136  	0.004565 
2694.555952  	0.004654 
2696.484768  	0.004678 
2698.413584  	0.004761 
2700.342400  	0.004829 
2702.271216  	0.005083 
2704.200032  	0.005341 
2706.128848  	0.005352 
2708.057664  	0.005299 
2709.986480  	0.005360 
2711.915296  	0.005403 
2713.844112  	0.005586 
2715.772928  	0.005724 
2717.701744  	0.005840 
2719.630560  	0.006022 
2721.559376  	0.006114 
2723.488192  	0.006246 
2725.417008  	0.006500 
2727.345824  	0.006690 
2729.274640  	0.006807 
2731.203456  	0.006870 
2733.132272  	0.007008 
2735.061088  	0.007110 
2736.989904  	0.007222 
2738.918720  	0.007313 
2740.847536  	0.007385 
2742.776352  	0.007383 
2744.705168  	0.007470 
2746.633984  	0.007579 
2748.562800  	0.007631 
2750.491616  	0.007666 
2752.420432  	0.007746 
2754.349248  	0.007743 
2756.278064  	0.007756 
2758.206880  	0.007687 
2760.135696  	0.007607 
2762.064512  	0.007625 
2763.993328  	0.007732 
2765.922144  	0.007725 
2767.850960  	0.007749 
2769.779776  	0.007757 
2771.708592  	0.007797 
2773.637408  	0.007793 
2775.566224  	0.007744 
2777.495040  	0.007648 
2779.423856  	0.007626 
2781.352672  	0.007667 
2783.281488  	0.007724 
2785.210304  	0.007810 
2787.139120  	0.007876 
2789.067936  	0.007951 
2790.996752  	0.007984 
2792.925568  	0.007758 
2794.854384  	0.007716 
2796.783200  	0.007768 
2798.712016  	0.007728 
2800.640832  	0.007677 
2802.569648  	0.007778 
2804.498464  	0.007854 
2806.427280  	0.007846 
2808.356096  	0.007796 
2810.284912  	0.007824 
2812.213728  	0.007857 
2814.142544  	0.007798 
2816.071360  	0.007730 
2818.000176  	0.007613 
2819.928992  	0.007537 
2821.857808  	0.007475 
2823.786624  	0.007319 
2825.715440  	0.007282 
2827.644256  	0.007178 
2829.573072  	0.007006 
2831.501888  	0.006729 
2833.430704  	0.006433 
2835.359520  	0.006056 
2837.288336  	0.005763 
2839.217152  	0.005530 
2841.145968  	0.005164 
2843.074784  	0.004739 
2845.003600  	0.004304 
2846.932416  	0.003903 
2848.861232  	0.003564 
2850.790048  	0.003094 
2852.718864  	0.002561 
2854.647680  	0.002072 
2856.576496  	0.001469 
2858.505312  	0.000866 
2860.434128  	0.000350 
2862.362944  	-0.000329 
2864.291760  	-0.001133 
2866.220576  	-0.001720 
2868.149392  	-0.001992 
2870.078208  	-0.002248 
2872.007024  	-0.002359 
2873.935840  	-0.002261 
2875.864656  	-0.002274 
2877.793472  	-0.002484 
2879.722288  	-0.002758 
2881.651104  	-0.003124 
2883.579920  	-0.003338 
2885.508736  	-0.003196 
2887.437552  	-0.002870 
2889.366368  	-0.002814 
2891.295184  	-0.003134 
2893.224000  	-0.003367 
2895.152816  	-0.003408 
2897.081632  	-0.003719 
2899.010448  	-0.005350 
2900.939264  	-0.006790 
2902.868080  	-0.005508 
2904.796896  	-0.004204 
2906.725712  	-0.003671 
2908.654528  	-0.003070 
2910.583344  	-0.002689 
2912.512160  	-0.002193 
2914.440976  	-0.001185 
2916.369792  	-0.000354 
2918.298608  	0.000139 
2920.227424  	0.000483 
2922.156240  	0.001156 
2924.085056  	0.002133 
2926.013872  	0.003109 
2927.942688  	0.004025 
2929.871504  	0.004888 
2931.800320  	0.005694 
2933.729136  	0.006486 
2935.657952  	0.007109 
2937.586768  	0.007779 
2939.515584  	0.008518 
2941.444400  	0.008738 
2943.373216  	0.008721 
2945.302032  	0.009030 
2947.230848  	0.009320 
2949.159664  	0.009074 
2951.088480  	0.008431 
2953.017296  	0.007812 
2954.946112  	0.007141 
2956.874928  	0.006426 
2958.803744  	0.005727 
2960.732560  	0.005246 
2962.661376  	0.004630 
2964.590192  	0.003673 
2966.519008  	0.002415 
2968.447824  	0.001348 
2970.376640  	0.000477 
2972.305456  	-0.000047 
2974.234272  	0.000267 
2976.163088  	0.000606 
2978.091904  	0.000527 
2980.020720  	0.000535 
2981.949536  	0.000935 
2983.878352  	0.000831 
2985.807168  	-0.000188 
2987.735984  	-0.001169 
2989.664800  	-0.000845 
2991.593616  	0.002181 
2993.522432  	0.004250 
2995.451248  	0.004800 
2997.380064  	0.005603 
2999.308880  	0.006828 
3001.237696  	0.008223 
3003.166512  	0.009826 
3005.095328  	0.011222 
3007.024144  	0.012572 
3008.952960  	0.013972 
3010.881776  	0.015384 
3012.810592  	0.016812 
3014.739408  	0.018153 
3016.668224  	0.019365 
3018.597040  	0.020665 
3020.525856  	0.021947 
3022.454672  	0.023081 
3024.383488  	0.024181 
3026.312304  	0.025153 
3028.241120  	0.026181 
3030.169936  	0.027206 
3032.098752  	0.027951 
3034.027568  	0.028672 
3035.956384  	0.029583 
3037.885200  	0.030542 
3039.814016  	0.031218 
3041.742832  	0.031783 
3043.671648  	0.032236 
3045.600464  	0.032750 
3047.529280  	0.033332 
3049.458096  	0.034109 
3051.386912  	0.034922 
3053.315728  	0.035466 
3055.244544  	0.035919 
3057.173360  	0.036565 
3059.102176  	0.037172 
3061.030992  	0.037694 
3062.959808  	0.038399 
3064.888624  	0.039114 
3066.817440  	0.039780 
3068.746256  	0.040590 
3070.675072  	0.041394 
3072.603888  	0.042108 
3074.532704  	0.042865 
3076.461520  	0.043555 
3078.390336  	0.044194 
3080.319152  	0.044905 
3082.247968  	0.045719 
3084.176784  	0.046577 
3086.105600  	0.047340 
3088.034416  	0.048114 
3089.963232  	0.048795 
3091.892048  	0.049331 
3093.820864  	0.050147 
3095.749680  	0.051148 
3097.678496  	0.051966 
3099.607312  	0.052595 
3101.536128  	0.053509 
3103.464944  	0.054527 
3105.393760  	0.055193 
3107.322576  	0.055837 
3109.251392  	0.056547 
3111.180208  	0.057196 
3113.109024  	0.057905 
3115.037840  	0.058581 
3116.966656  	0.059159 
3118.895472  	0.059799 
3120.824288  	0.060553 
3122.753104  	0.061193 
3124.681920  	0.061705 
3126.610736  	0.062266 
3128.539552  	0.063000 
3130.468368  	0.063643 
3132.397184  	0.064112 
3134.326000  	0.064622 
3136.254816  	0.065217 
3138.183632  	0.065984 
3140.112448  	0.066695 
3142.041264  	0.067288 
3143.970080  	0.067921 
3145.898896  	0.068519 
3147.827712  	0.069055 
3149.756528  	0.069649 
3151.685344  	0.070175 
3153.614160  	0.070716 
3155.542976  	0.071320 
3157.471792  	0.071985 
3159.400608  	0.072626 
3161.329424  	0.073327 
3163.258240  	0.073877 
3165.187056  	0.074400 
3167.115872  	0.075004 
3169.044688  	0.075365 
3170.973504  	0.075806 
3172.902320  	0.076109 
3174.831136  	0.076508 
3176.759952  	0.077028 
3178.688768  	0.077425 
3180.617584  	0.077776 
3182.546400  	0.078087 
3184.475216  	0.078353 
3186.404032  	0.078491 
3188.332848  	0.078691 
3190.261664  	0.079019 
3192.190480  	0.079210 
3194.119296  	0.079165 
3196.048112  	0.079407 
3197.976928  	0.079554 
3199.905744  	0.079378 
3201.834560  	0.079148 
3203.763376  	0.079154 
3205.692192  	0.079150 
3207.621008  	0.079130 
3209.549824  	0.079204 
3211.478640  	0.079280 
3213.407456  	0.079258 
3215.336272  	0.079100 
3217.265088  	0.078805 
3219.193904  	0.078593 
3221.122720  	0.078555 
3223.051536  	0.078494 
3224.980352  	0.078285 
3226.909168  	0.078164 
3228.837984  	0.078079 
3230.766800  	0.077922 
3232.695616  	0.077920 
3234.624432  	0.077795 
3236.553248  	0.077775 
3238.482064  	0.077958 
3240.410880  	0.078053 
3242.339696  	0.078023 
3244.268512  	0.077921 
3246.197328  	0.078032 
3248.126144  	0.078181 
3250.054960  	0.078332 
3251.983776  	0.078540 
3253.912592  	0.078731 
3255.841408  	0.078880 
3257.770224  	0.079276 
3259.699040  	0.079634 
3261.627856  	0.079902 
3263.556672  	0.080098 
3265.485488  	0.080111 
3267.414304  	0.080338 
3269.343120  	0.080767 
3271.271936  	0.081092 
3273.200752  	0.081101 
3275.129568  	0.081050 
3277.058384  	0.081254 
3278.987200  	0.081588 
3280.916016  	0.082017 
3282.844832  	0.082214 
3284.773648  	0.082159 
3286.702464  	0.082311 
3288.631280  	0.082723 
3290.560096  	0.082982 
3292.488912  	0.083288 
3294.417728  	0.083496 
3296.346544  	0.083810 
3298.275360  	0.084007 
3300.204176  	0.084273 
3302.132992  	0.084792 
3304.061808  	0.084986 
3305.990624  	0.085210 
3307.919440  	0.085551 
3309.848256  	0.085921 
3311.777072  	0.086345 
3313.705888  	0.086643 
3315.634704  	0.086925 
3317.563520  	0.087351 
3319.492336  	0.087730 
3321.421152  	0.087911 
3323.349968  	0.088066 
3325.278784  	0.088260 
3327.207600  	0.088547 
3329.136416  	0.088530 
3331.065232  	0.088643 
3332.994048  	0.088915 
3334.922864  	0.089033 
3336.851680  	0.089119 
3338.780496  	0.089043 
3340.709312  	0.088815 
3342.638128  	0.088643 
3344.566944  	0.088272 
3346.495760  	0.088017 
3348.424576  	0.087725 
3350.353392  	0.087364 
3352.282208  	0.087299 
3354.211024  	0.087057 
3356.139840  	0.086738 
3358.068656  	0.086433 
3359.997472  	0.086191 
3361.926288  	0.085877 
3363.855104  	0.085360 
3365.783920  	0.084899 
3367.712736  	0.084588 
3369.641552  	0.084396 
3371.570368  	0.084029 
3373.499184  	0.083581 
3375.428000  	0.083137 
3377.356816  	0.082764 
3379.285632  	0.082673 
3381.214448  	0.082309 
3383.143264  	0.081800 
3385.072080  	0.081559 
3387.000896  	0.081116 
3388.929712  	0.080645 
3390.858528  	0.080288 
3392.787344  	0.080029 
3394.716160  	0.079590 
3396.644976  	0.079209 
3398.573792  	0.078778 
3400.502608  	0.078321 
3402.431424  	0.077838 
3404.360240  	0.077307 
3406.289056  	0.076651 
3408.217872  	0.076099 
3410.146688  	0.075645 
3412.075504  	0.075284 
3414.004320  	0.074884 
3415.933136  	0.074610 
3417.861952  	0.074023 
3419.790768  	0.073396 
3421.719584  	0.072892 
3423.648400  	0.072532 
3425.577216  	0.072066 
3427.506032  	0.071557 
3429.434848  	0.070887 
3431.363664  	0.070279 
3433.292480  	0.069812 
3435.221296  	0.069323 
3437.150112  	0.068710 
3439.078928  	0.068310 
3441.007744  	0.067804 
3442.936560  	0.067247 
3444.865376  	0.066859 
3446.794192  	0.066221 
3448.723008  	0.065507 
3450.651824  	0.064702 
3452.580640  	0.063982 
3454.509456  	0.063465 
3456.438272  	0.063027 
3458.367088  	0.062528 
3460.295904  	0.061819 
3462.224720  	0.060927 
3464.153536  	0.060096 
3466.082352  	0.059396 
3468.011168  	0.058469 
3469.939984  	0.057692 
3471.868800  	0.057020 
3473.797616  	0.056280 
3475.726432  	0.055710 
3477.655248  	0.055125 
3479.584064  	0.054446 
3481.512880  	0.053505 
3483.441696  	0.052601 
3485.370512  	0.051983 
3487.299328  	0.051022 
3489.228144  	0.050381 
3491.156960  	0.049754 
3493.085776  	0.049038 
3495.014592  	0.048353 
3496.943408  	0.047575 
3498.872224  	0.046904 
3500.801040  	0.046674 
3502.729856  	0.045983 
3504.658672  	0.044898 
3506.587488  	0.044331 
3508.516304  	0.044046 
3510.445120  	0.043237 
3512.373936  	0.042305 
3514.302752  	0.041834 
3516.231568  	0.041587 
3518.160384  	0.040942 
3520.089200  	0.040175 
3522.018016  	0.039618 
3523.946832  	0.039442 
3525.875648  	0.038673 
3527.804464  	0.037433 
3529.733280  	0.036776 
3531.662096  	0.036411 
3533.590912  	0.035915 
3535.519728  	0.035530 
3537.448544  	0.035067 
3539.377360  	0.034288 
3541.306176  	0.033565 
3543.234992  	0.033106 
3545.163808  	0.033196 
3547.092624  	0.032569 
3549.021440  	0.031260 
3550.950256  	0.030475 
3552.879072  	0.029805 
3554.807888  	0.029210 
3556.736704  	0.028672 
3558.665520  	0.028431 
3560.594336  	0.027998 
3562.523152  	0.027087 
3564.451968  	0.026760 
3566.380784  	0.026598 
3568.309600  	0.025211 
3570.238416  	0.024347 
3572.167232  	0.024055 
3574.096048  	0.023198 
3576.024864  	0.022289 
3577.953680  	0.021858 
3579.882496  	0.021186 
3581.811312  	0.020428 
3583.740128  	0.019828 
3585.668944  	0.019529 
3587.597760  	0.018437 
3589.526576  	0.017401 
3591.455392  	0.016772 
3593.384208  	0.016215 
3595.313024  	0.015402 
3597.241840  	0.014237 
3599.170656  	0.012974 
3601.099472  	0.012124 
3603.028288  	0.011924 
3604.957104  	0.011712 
3606.885920  	0.010912 
3608.814736  	0.009726 
3610.743552  	0.009329 
3612.672368  	0.008224 
3614.601184  	0.006852 
3616.530000  	0.006435 
3618.458816  	0.004529 
3620.387632  	0.003419 
3622.316448  	0.003937 
3624.245264  	0.003663 
3626.174080  	0.002909 
3628.102896  	0.000208 
3630.031712  	-0.002566 
3631.960528  	-0.000967 
3633.889344  	-0.001011 
3635.818160  	-0.001773 
3637.746976  	-0.002516 
3639.675792  	-0.002867 
3641.604608  	-0.003144 
3643.533424  	-0.003779 
3645.462240  	-0.004904 
3647.391056  	-0.007918 
3649.319872  	-0.012306 
3651.248688  	-0.013081 
3653.177504  	-0.010411 
3655.106320  	-0.010662 
3657.035136  	-0.012961 
3658.963952  	-0.012774 
3660.892768  	-0.012577 
3662.821584  	-0.012731 
3664.750400  	-0.012745 
3666.679216  	-0.013094 
3668.608032  	-0.015391 
3670.536848  	-0.018428 
3672.465664  	-0.016752 
3674.394480  	-0.017896 
3676.323296  	-0.021740 
3678.252112  	-0.018119 
3680.180928  	-0.016291 
3682.109744  	-0.015474 
3684.038560  	-0.015285 
3685.967376  	-0.015499 
3687.896192  	-0.018330 
3689.825008  	-0.021215 
3691.753824  	-0.019501 
3693.682640  	-0.016982 
3695.611456  	-0.015786 
3697.540272  	-0.014873 
3699.469088  	-0.014214 
3701.397904  	-0.015366 
3703.326720  	-0.015245 
3705.255536  	-0.013658 
3707.184352  	-0.013392 
3709.113168  	-0.015013 
3711.041984  	-0.017173 
3712.970800  	-0.015977 
3714.899616  	-0.013116 
3716.828432  	-0.012318 
3718.757248  	-0.012908 
3720.686064  	-0.013519 
3722.614880  	-0.013917 
3724.543696  	-0.013229 
3726.472512  	-0.013192 
3728.401328  	-0.013164 
3730.330144  	-0.013693 
3732.258960  	-0.015535 
3734.187776  	-0.015493 
3736.116592  	-0.016158 
3738.045408  	-0.015532 
3739.974224  	-0.013621 
3741.903040  	-0.012688 
3743.831856  	-0.014678 
3745.760672  	-0.016545 
3747.689488  	-0.014868 
3749.618304  	-0.017462 
3751.547120  	-0.019077 
3753.475936  	-0.016326 
3755.404752  	-0.013667 
3757.333568  	-0.013157 
3759.262384  	-0.013979 
3761.191200  	-0.013676 
3763.120016  	-0.012007 
3765.048832  	-0.012558 
3766.977648  	-0.012718 
3768.906464  	-0.013329 
3770.835280  	-0.013957 
3772.764096  	-0.012528 
3774.692912  	-0.011764 
3776.621728  	-0.011699 
3778.550544  	-0.013033 
3780.479360  	-0.014029 
3782.408176  	-0.012658 
3784.336992  	-0.012597 
3786.265808  	-0.012416 
3788.194624  	-0.012122 
3790.123440  	-0.012214 
3792.052256  	-0.011976 
3793.981072  	-0.011940 
3795.909888  	-0.013374 
3797.838704  	-0.013760 
3799.767520  	-0.014223 
3801.696336  	-0.017758 
3803.625152  	-0.015758 
3805.553968  	-0.014225 
3807.482784  	-0.015461 
3809.411600  	-0.013297 
3811.340416  	-0.011857 
3813.269232  	-0.011708 
3815.198048  	-0.014162 
3817.126864  	-0.015808 
3819.055680  	-0.014846 
3820.984496  	-0.017663 
3822.913312  	-0.016253 
3824.842128  	-0.013532 
3826.770944  	-0.013778 
3828.699760  	-0.013205 
3830.628576  	-0.013257 
3832.557392  	-0.014068 
3834.486208  	-0.014153 
3836.415024  	-0.015171 
3838.343840  	-0.016569 
3840.272656  	-0.015865 
3842.201472  	-0.014210 
3844.130288  	-0.013737 
3846.059104  	-0.012660 
3847.987920  	-0.011848 
3849.916736  	-0.012114 
3851.845552  	-0.014543 
3853.774368  	-0.019543 
3855.703184  	-0.016784 
3857.632000  	-0.013650 
3859.560816  	-0.012277 
3861.489632  	-0.012439 
3863.418448  	-0.013440 
3865.347264  	-0.013917 
3867.276080  	-0.012741 
3869.204896  	-0.013698 
3871.133712  	-0.014232 
3873.062528  	-0.013272 
3874.991344  	-0.013645 
3876.920160  	-0.012027 
3878.848976  	-0.011436 
3880.777792  	-0.012499 
3882.706608  	-0.012034 
3884.635424  	-0.012180 
3886.564240  	-0.013172 
3888.493056  	-0.012071 
3890.421872  	-0.012491 
3892.350688  	-0.013484 
3894.279504  	-0.012249 
3896.208320  	-0.011304 
3898.137136  	-0.011339 
3900.065952  	-0.011996 
3901.994768  	-0.012108 
3903.923584  	-0.012891 
3905.852400  	-0.013300 
3907.781216  	-0.012418 
3909.710032  	-0.011720 
3911.638848  	-0.011582 
3913.567664  	-0.011365 
3915.496480  	-0.011220 
3917.425296  	-0.011631 
3919.354112  	-0.011913 
3921.282928  	-0.011711 
3923.211744  	-0.011240 
3925.140560  	-0.011403 
3927.069376  	-0.011523 
3928.998192  	-0.011364 
3930.927008  	-0.011061 
3932.855824  	-0.011007 
3934.784640  	-0.011389 
3936.713456  	-0.011508 
3938.642272  	-0.011228 
3940.571088  	-0.010859 
3942.499904  	-0.010981 
3944.428720  	-0.011209 
3946.357536  	-0.010800 
3948.286352  	-0.010752 
3950.215168  	-0.011282 
3952.143984  	-0.011627 
3954.072800  	-0.011503 
3956.001616  	-0.011259 
3957.930432  	-0.011452 
3959.859248  	-0.011412 
3961.788064  	-0.011321 
3963.716880  	-0.011664 
3965.645696  	-0.011910 
3967.574512  	-0.011730 
3969.503328  	-0.011520 
3971.432144  	-0.011440 
3973.360960  	-0.011448 
3975.289776  	-0.011529 
3977.218592  	-0.011488 
3979.147408  	-0.011445 
3981.076224  	-0.011544 
3983.005040  	-0.011534 
3984.933856  	-0.011381 
3986.862672  	-0.011409 
3988.791488  	-0.011386 
3990.720304  	-0.011277 
3992.649120  	-0.011326 
3994.577936  	-0.011457 
3996.506752  	-0.011473 
3998.435568  	-0.011410 
4000.364384  	-0.011360 