##TITLE=No Description
##DATA TYPE=INFRARED SPECTRUM
##XUNITS=1/CM
##YUNITS=Abs
399.264912  	0.624231 
401.193728  	0.615163 
403.122544  	0.628699 
405.051360  	0.632706 
406.980176  	0.628023 
408.908992  	0.608992 
410.837808  	0.622171 
412.766624  	0.611881 
414.695440  	0.596821 
416.624256  	0.582309 
418.553072  	0.581625 
420.481888  	0.576291 
422.410704  	0.585916 
424.339520  	0.583019 
426.268336  	0.577449 
428.197152  	0.563400 
430.125968  	0.569487 
432.054784  	0.576378 
433.983600  	0.575580 
435.912416  	0.569963 
437.841232  	0.571307 
439.770048  	0.561584 
441.698864  	0.555111 
443.627680  	0.551557 
445.556496  	0.553552 
447.485312  	0.551645 
449.414128  	0.551374 
451.342944  	0.551698 
453.271760  	0.553217 
455.200576  	0.547339 
457.129392  	0.546122 
459.058208  	0.544825 
460.987024  	0.548569 
462.915840  	0.544935 
464.844656  	0.545052 
466.773472  	0.544460 
468.702288  	0.546602 
470.631104  	0.541696 
472.559920  	0.538785 
474.488736  	0.538534 
476.417552  	0.540553 
478.346368  	0.533511 
480.275184  	0.534470 
482.204000  	0.529611 
484.132816  	0.532135 
486.061632  	0.537246 
487.990448  	0.541436 
489.919264  	0.538280 
491.848080  	0.532193 
493.776896  	0.524707 
495.705712  	0.526562 
497.634528  	0.527302 
499.563344  	0.526356 
501.492160  	0.522761 
503.420976  	0.524875 
505.349792  	0.523620 
507.278608  	0.522319 
509.207424  	0.521802 
511.136240  	0.524429 
513.065056  	0.522851 
514.993872  	0.524189 
516.922688  	0.526141 
518.851504  	0.529138 
520.780320  	0.526654 
522.709136  	0.527741 
524.637952  	0.526926 
526.566768  	0.523695 
528.495584  	0.520881 
530.424400  	0.521433 
532.353216  	0.516092 
534.282032  	0.510293 
536.210848  	0.503078 
538.139664  	0.498336 
540.068480  	0.496353 
541.997296  	0.494095 
543.926112  	0.488536 
545.854928  	0.485517 
547.783744  	0.481023 
549.712560  	0.477584 
551.641376  	0.474035 
553.570192  	0.472736 
555.499008  	0.469318 
557.427824  	0.465671 
559.356640  	0.461810 
561.285456  	0.459412 
563.214272  	0.454870 
565.143088  	0.452241 
567.071904  	0.449264 
569.000720  	0.446321 
570.929536  	0.441800 
572.858352  	0.439825 
574.787168  	0.438702 
576.715984  	0.436675 
578.644800  	0.432272 
580.573616  	0.428850 
582.502432  	0.424253 
584.431248  	0.420805 
586.360064  	0.418724 
588.288880  	0.417722 
590.217696  	0.414694 
592.146512  	0.411897 
594.075328  	0.408609 
596.004144  	0.406590 
597.932960  	0.405049 
599.861776  	0.403183 
601.790592  	0.399885 
603.719408  	0.398038 
605.648224  	0.396818 
607.577040  	0.395464 
609.505856  	0.393601 
611.434672  	0.392222 
613.363488  	0.390524 
615.292304  	0.389201 
617.221120  	0.387336 
619.149936  	0.386021 
621.078752  	0.383835 
623.007568  	0.382327 
624.936384  	0.380376 
626.865200  	0.378768 
628.794016  	0.377332 
630.722832  	0.376878 
632.651648  	0.375967 
634.580464  	0.375186 
636.509280  	0.373945 
638.438096  	0.373690 
640.366912  	0.372482 
642.295728  	0.370188 
644.224544  	0.367216 
646.153360  	0.364232 
648.082176  	0.360239 
650.010992  	0.357047 
651.939808  	0.354119 
653.868624  	0.350797 
655.797440  	0.346737 
657.726256  	0.343203 
659.655072  	0.339789 
661.583888  	0.335739 
663.512704  	0.332125 
665.441520  	0.329629 
667.370336  	0.323265 
669.299152  	0.316936 
671.227968  	0.316454 
673.156784  	0.313757 
675.085600  	0.310261 
677.014416  	0.307506 
678.943232  	0.304816 
680.872048  	0.303176 
682.800864  	0.301546 
684.729680  	0.299433 
686.658496  	0.297834 
688.587312  	0.296766 
690.516128  	0.294636 
692.444944  	0.292744 
694.373760  	0.291400 
696.302576  	0.289605 
698.231392  	0.287570 
700.160208  	0.285529 
702.089024  	0.283317 
704.017840  	0.280562 
705.946656  	0.277777 
707.875472  	0.275289 
709.804288  	0.273003 
711.733104  	0.270910 
713.661920  	0.268613 
715.590736  	0.267082 
717.519552  	0.266203 
719.448368  	0.265675 
721.377184  	0.264756 
723.306000  	0.264558 
725.234816  	0.264068 
727.163632  	0.263268 
729.092448  	0.261400 
731.021264  	0.258490 
732.950080  	0.255550 
734.878896  	0.252695 
736.807712  	0.249943 
738.736528  	0.247501 
740.665344  	0.245196 
742.594160  	0.243107 
744.522976  	0.241301 
746.451792  	0.239421 
748.380608  	0.237501 
750.309424  	0.235987 
752.238240  	0.234694 
754.167056  	0.233463 
756.095872  	0.232093 
758.024688  	0.230858 
759.953504  	0.229762 
761.882320  	0.229743 
763.811136  	0.229729 
765.739952  	0.228297 
767.668768  	0.225452 
769.597584  	0.222786 
771.526400  	0.221245 
773.455216  	0.221638 
775.384032  	0.223562 
777.312848  	0.226372 
779.241664  	0.228939 
781.170480  	0.228523 
783.099296  	0.225459 
785.028112  	0.220599 
786.956928  	0.215376 
788.885744  	0.210865 
790.814560  	0.206937 
792.743376  	0.204293 
794.672192  	0.202866 
796.601008  	0.201854 
798.529824  	0.198896 
800.458640  	0.194827 
802.387456  	0.191664 
804.316272  	0.189528 
806.245088  	0.187588 
808.173904  	0.186249 
810.102720  	0.185220 
812.031536  	0.184330 
813.960352  	0.184027 
815.889168  	0.183580 
817.817984  	0.182723 
819.746800  	0.182327 
821.675616  	0.182015 
823.604432  	0.181480 
825.533248  	0.180710 
827.462064  	0.179806 
829.390880  	0.178619 
831.319696  	0.177013 
833.248512  	0.175088 
835.177328  	0.172775 
837.106144  	0.170398 
839.034960  	0.167498 
840.963776  	0.164110 
842.892592  	0.160806 
844.821408  	0.157882 
846.750224  	0.155069 
848.679040  	0.152428 
850.607856  	0.150479 
852.536672  	0.148701 
854.465488  	0.146998 
856.394304  	0.145574 
858.323120  	0.144200 
860.251936  	0.142513 
862.180752  	0.140391 
864.109568  	0.137656 
866.038384  	0.134973 
867.967200  	0.132742 
869.896016  	0.130782 
871.824832  	0.129554 
873.753648  	0.128831 
875.682464  	0.128915 
877.611280  	0.128829 
879.540096  	0.129208 
881.468912  	0.130846 
883.397728  	0.131710 
885.326544  	0.132160 
887.255360  	0.132148 
889.184176  	0.131143 
891.112992  	0.129109 
893.041808  	0.127707 
894.970624  	0.125960 
896.899440  	0.123096 
898.828256  	0.119470 
900.757072  	0.116014 
902.685888  	0.113241 
904.614704  	0.111549 
906.543520  	0.111313 
908.472336  	0.111881 
910.401152  	0.113330 
912.329968  	0.115192 
914.258784  	0.117293 
916.187600  	0.119087 
918.116416  	0.120540 
920.045232  	0.121597 
921.974048  	0.122161 
923.902864  	0.122437 
925.831680  	0.122222 
927.760496  	0.122139 
929.689312  	0.122290 
931.618128  	0.122555 
933.546944  	0.122645 
935.475760  	0.122817 
937.404576  	0.122451 
939.333392  	0.121810 
941.262208  	0.121595 
943.191024  	0.122187 
945.119840  	0.124449 
947.048656  	0.128516 
948.977472  	0.134069 
950.906288  	0.140928 
952.835104  	0.148815 
954.763920  	0.157223 
956.692736  	0.165261 
958.621552  	0.172380 
960.550368  	0.177456 
962.479184  	0.180065 
964.408000  	0.179541 
966.336816  	0.175959 
968.265632  	0.169495 
970.194448  	0.160606 
972.123264  	0.150204 
974.052080  	0.139125 
975.980896  	0.128294 
977.909712  	0.118113 
979.838528  	0.108828 
981.767344  	0.100851 
983.696160  	0.094389 
985.624976  	0.090056 
987.553792  	0.087924 
989.482608  	0.087708 
991.411424  	0.089203 
993.340240  	0.092145 
995.269056  	0.096033 
997.197872  	0.100193 
999.126688  	0.104690 
1001.055504  	0.109316 
1002.984320  	0.114059 
1004.913136  	0.118757 
1006.841952  	0.123451 
1008.770768  	0.127336 
1010.699584  	0.130137 
1012.628400  	0.131624 
1014.557216  	0.132218 
1016.486032  	0.132278 
1018.414848  	0.131978 
1020.343664  	0.131661 
1022.272480  	0.130813 
1024.201296  	0.129437 
1026.130112  	0.126166 
1028.058928  	0.124729 
1029.987744  	0.127418 
1031.916560  	0.128848 
1033.845376  	0.129309 
1035.774192  	0.129480 
1037.703008  	0.130903 
1039.631824  	0.135511 
1041.560640  	0.142237 
1043.489456  	0.151240 
1045.418272  	0.162537 
1047.347088  	0.175266 
1049.275904  	0.187420 
1051.204720  	0.197448 
1053.133536  	0.204104 
1055.062352  	0.207322 
1056.991168  	0.207690 
1058.919984  	0.209708 
1060.848800  	0.212004 
1062.777616  	0.210988 
1064.706432  	0.206317 
1066.635248  	0.202961 
1068.564064  	0.203174 
1070.492880  	0.200193 
1072.421696  	0.194358 
1074.350512  	0.190187 
1076.279328  	0.189414 
1078.208144  	0.192349 
1080.136960  	0.197904 
1082.065776  	0.204709 
1083.994592  	0.210254 
1085.923408  	0.213012 
1087.852224  	0.212376 
1089.781040  	0.209521 
1091.709856  	0.205640 
1093.638672  	0.199330 
1095.567488  	0.190369 
1097.496304  	0.180224 
1099.425120  	0.169158 
1101.353936  	0.157859 
1103.282752  	0.146881 
1105.211568  	0.136607 
1107.140384  	0.126785 
1109.069200  	0.117182 
1110.998016  	0.108355 
1112.926832  	0.100609 
1114.855648  	0.093590 
1116.784464  	0.087078 
1118.713280  	0.080958 
1120.642096  	0.075159 
1122.570912  	0.069878 
1124.499728  	0.064790 
1126.428544  	0.060049 
1128.357360  	0.055759 
1130.286176  	0.052476 
1132.214992  	0.049649 
1134.143808  	0.047294 
1136.072624  	0.045194 
1138.001440  	0.043602 
1139.930256  	0.041719 
1141.859072  	0.039888 
1143.787888  	0.037973 
1145.716704  	0.036291 
1147.645520  	0.034535 
1149.574336  	0.032935 
1151.503152  	0.031562 
1153.431968  	0.030961 
1155.360784  	0.031089 
1157.289600  	0.031775 
1159.218416  	0.032761 
1161.147232  	0.034133 
1163.076048  	0.035647 
1165.004864  	0.037439 
1166.933680  	0.039016 
1168.862496  	0.040859 
1170.791312  	0.042750 
1172.720128  	0.045018 
1174.648944  	0.047029 
1176.577760  	0.049200 
1178.506576  	0.051267 
1180.435392  	0.053425 
1182.364208  	0.055435 
1184.293024  	0.057807 
1186.221840  	0.060180 
1188.150656  	0.062941 
1190.079472  	0.066136 
1192.008288  	0.070084 
1193.937104  	0.074874 
1195.865920  	0.080706 
1197.794736  	0.086969 
1199.723552  	0.093880 
1201.652368  	0.101128 
1203.581184  	0.108412 
1205.510000  	0.115558 
1207.438816  	0.122548 
1209.367632  	0.129019 
1211.296448  	0.134812 
1213.225264  	0.139805 
1215.154080  	0.143668 
1217.082896  	0.146405 
1219.011712  	0.148429 
1220.940528  	0.150138 
1222.869344  	0.151340 
1224.798160  	0.151622 
1226.726976  	0.151473 
1228.655792  	0.151134 
1230.584608  	0.150316 
1232.513424  	0.149135 
1234.442240  	0.147408 
1236.371056  	0.144894 
1238.299872  	0.141291 
1240.228688  	0.135524 
1242.157504  	0.129722 
1244.086320  	0.125019 
1246.015136  	0.118889 
1247.943952  	0.111827 
1249.872768  	0.104762 
1251.801584  	0.098913 
1253.730400  	0.093070 
1255.659216  	0.087135 
1257.588032  	0.081521 
1259.516848  	0.076162 
1261.445664  	0.071285 
1263.374480  	0.066767 
1265.303296  	0.063018 
1267.232112  	0.059935 
1269.160928  	0.057635 
1271.089744  	0.055872 
1273.018560  	0.054942 
1274.947376  	0.054697 
1276.876192  	0.054800 
1278.805008  	0.054654 
1280.733824  	0.053781 
1282.662640  	0.052167 
1284.591456  	0.050200 
1286.520272  	0.048499 
1288.449088  	0.047375 
1290.377904  	0.046813 
1292.306720  	0.047056 
1294.235536  	0.047202 
1296.164352  	0.046496 
1298.093168  	0.044700 
1300.021984  	0.042422 
1301.950800  	0.039843 
1303.879616  	0.037448 
1305.808432  	0.034831 
1307.737248  	0.032234 
1309.666064  	0.029693 
1311.594880  	0.027816 
1313.523696  	0.026260 
1315.452512  	0.025336 
1317.381328  	0.024747 
1319.310144  	0.024378 
1321.238960  	0.024280 
1323.167776  	0.024830 
1325.096592  	0.025463 
1327.025408  	0.025996 
1328.954224  	0.026020 
1330.883040  	0.025675 
1332.811856  	0.024915 
1334.740672  	0.024537 
1336.669488  	0.024569 
1338.598304  	0.024576 
1340.527120  	0.023076 
1342.455936  	0.021850 
1344.384752  	0.021531 
1346.313568  	0.021709 
1348.242384  	0.022198 
1350.171200  	0.023127 
1352.100016  	0.024308 
1354.028832  	0.025746 
1355.957648  	0.027010 
1357.886464  	0.028686 
1359.815280  	0.030672 
1361.744096  	0.032419 
1363.672912  	0.032751 
1365.601728  	0.033760 
1367.530544  	0.035064 
1369.459360  	0.035266 
1371.388176  	0.035312 
1373.316992  	0.034220 
1375.245808  	0.030971 
1377.174624  	0.029115 
1379.103440  	0.026747 
1381.032256  	0.024269 
1382.961072  	0.022485 
1384.889888  	0.022318 
1386.818704  	0.021729 
1388.747520  	0.019912 
1390.676336  	0.018219 
1392.605152  	0.015593 
1394.533968  	0.013448 
1396.462784  	0.015910 
1398.391600  	0.017141 
1400.320416  	0.016064 
1402.249232  	0.016659 
1404.178048  	0.016969 
1406.106864  	0.016983 
1408.035680  	0.018668 
1409.964496  	0.020865 
1411.893312  	0.023230 
1413.822128  	0.025938 
1415.750944  	0.029485 
1417.679760  	0.031629 
1419.608576  	0.030167 
1421.537392  	0.030967 
1423.466208  	0.031788 
1425.395024  	0.030349 
1427.323840  	0.029980 
1429.252656  	0.027836 
1431.181472  	0.026002 
1433.110288  	0.026292 
1435.039104  	0.027397 
1436.967920  	0.025372 
1438.896736  	0.025807 
1440.825552  	0.027449 
1442.754368  	0.028064 
1444.683184  	0.028438 
1446.612000  	0.028375 
1448.540816  	0.026814 
1450.469632  	0.027353 
1452.398448  	0.028520 
1454.327264  	0.030179 
1456.256080  	0.029066 
1458.184896  	0.024100 
1460.113712  	0.026295 
1462.042528  	0.029071 
1463.971344  	0.028780 
1465.900160  	0.027908 
1467.828976  	0.030629 
1469.757792  	0.034150 
1471.686608  	0.036017 
1473.615424  	0.038554 
1475.544240  	0.044217 
1477.473056  	0.049044 
1479.401872  	0.052984 
1481.330688  	0.055752 
1483.259504  	0.057789 
1485.188320  	0.059822 
1487.117136  	0.059886 
1489.045952  	0.058820 
1490.974768  	0.055428 
1492.903584  	0.055002 
1494.832400  	0.053644 
1496.761216  	0.047212 
1498.690032  	0.041647 
1500.618848  	0.038984 
1502.547664  	0.037152 
1504.476480  	0.034878 
1506.405296  	0.027303 
1508.334112  	0.023203 
1510.262928  	0.025311 
1512.191744  	0.024572 
1514.120560  	0.024321 
1516.049376  	0.023614 
1517.978192  	0.022033 
1519.907008  	0.023873 
1521.835824  	0.022222 
1523.764640  	0.026112 
1525.693456  	0.030302 
1527.622272  	0.031829 
1529.551088  	0.033141 
1531.479904  	0.033947 
1533.408720  	0.029410 
1535.337536  	0.026799 
1537.266352  	0.027299 
1539.195168  	0.020111 
1541.123984  	0.011510 
1543.052800  	0.014692 
1544.981616  	0.015774 
1546.910432  	0.016276 
1548.839248  	0.017278 
1550.768064  	0.016730 
1552.696880  	0.017097 
1554.625696  	0.017091 
1556.554512  	0.017915 
1558.483328  	0.013994 
1560.412144  	0.013755 
1562.340960  	0.022587 
1564.269776  	0.026642 
1566.198592  	0.030814 
1568.127408  	0.034405 
1570.056224  	0.036435 
1571.985040  	0.042649 
1573.913856  	0.047975 
1575.842672  	0.047265 
1577.771488  	0.048304 
1579.700304  	0.051608 
1581.629120  	0.051969 
1583.557936  	0.051537 
1585.486752  	0.052064 
1587.415568  	0.053809 
1589.344384  	0.057010 
1591.273200  	0.061499 
1593.202016  	0.067066 
1595.130832  	0.072852 
1597.059648  	0.079257 
1598.988464  	0.085109 
1600.917280  	0.090137 
1602.846096  	0.093397 
1604.774912  	0.095766 
1606.703728  	0.096423 
1608.632544  	0.095586 
1610.561360  	0.094052 
1612.490176  	0.093373 
1614.418992  	0.092455 
1616.347808  	0.088123 
1618.276624  	0.087162 
1620.205440  	0.092608 
1622.134256  	0.094990 
1624.063072  	0.097417 
1625.991888  	0.103614 
1627.920704  	0.109846 
1629.849520  	0.117579 
1631.778336  	0.126751 
1633.707152  	0.133559 
1635.635968  	0.136881 
1637.564784  	0.144184 
1639.493600  	0.154019 
1641.422416  	0.160177 
1643.351232  	0.165588 
1645.280048  	0.167136 
1647.208864  	0.164073 
1649.137680  	0.167028 
1651.066496  	0.172396 
1652.995312  	0.163315 
1654.924128  	0.160049 
1656.852944  	0.165327 
1658.781760  	0.166068 
1660.710576  	0.164118 
1662.639392  	0.158657 
1664.568208  	0.155027 
1666.497024  	0.155417 
1668.425840  	0.150566 
1670.354656  	0.141922 
1672.283472  	0.140115 
1674.212288  	0.138726 
1676.141104  	0.132692 
1678.069920  	0.133418 
1679.998736  	0.133374 
1681.927552  	0.133149 
1683.856368  	0.126611 
1685.785184  	0.123472 
1687.714000  	0.128277 
1689.642816  	0.128469 
1691.571632  	0.127714 
1693.500448  	0.128798 
1695.429264  	0.124575 
1697.358080  	0.121020 
1699.286896  	0.120710 
1701.215712  	0.113306 
1703.144528  	0.115651 
1705.073344  	0.113138 
1707.002160  	0.107744 
1708.930976  	0.105447 
1710.859792  	0.101130 
1712.788608  	0.095972 
1714.717424  	0.088415 
1716.646240  	0.077737 
1718.575056  	0.063505 
1720.503872  	0.057769 
1722.432688  	0.052898 
1724.361504  	0.044443 
1726.290320  	0.037822 
1728.219136  	0.032462 
1730.147952  	0.027216 
1732.076768  	0.023267 
1734.005584  	0.015400 
1735.934400  	0.010712 
1737.863216  	0.012420 
1739.792032  	0.008565 
1741.720848  	0.007446 
1743.649664  	0.007222 
1745.578480  	0.006800 
1747.507296  	0.005409 
1749.436112  	0.004265 
1751.364928  	0.002668 
1753.293744  	0.002708 
1755.222560  	0.003379 
1757.151376  	0.002195 
1759.080192  	0.001954 
1761.009008  	0.001479 
1762.937824  	-0.000496 
1764.866640  	0.000612 
1766.795456  	0.001406 
1768.724272  	0.000687 
1770.653088  	-0.000804 
1772.581904  	-0.004261 
1774.510720  	-0.003341 
1776.439536  	-0.001285 
1778.368352  	-0.000738 
1780.297168  	-0.001179 
1782.225984  	-0.001662 
1784.154800  	-0.001114 
1786.083616  	-0.001961 
1788.012432  	-0.001327 
1789.941248  	-0.000743 
1791.870064  	-0.002694 
1793.798880  	-0.004445 
1795.727696  	-0.002501 
1797.656512  	-0.002394 
1799.585328  	-0.002605 
1801.514144  	-0.002731 
1803.442960  	-0.002518 
1805.371776  	-0.002745 
1807.300592  	-0.002358 
1809.229408  	-0.002861 
1811.158224  	-0.003483 
1813.087040  	-0.003672 
1815.015856  	-0.002981 
1816.944672  	-0.002980 
1818.873488  	-0.002957 
1820.802304  	-0.002965 
1822.731120  	-0.002260 
1824.659936  	-0.003199 
1826.588752  	-0.003657 
1828.517568  	-0.003885 
1830.446384  	-0.005111 
1832.375200  	-0.004187 
1834.304016  	-0.003128 
1836.232832  	-0.003352 
1838.161648  	-0.003255 
1840.090464  	-0.003314 
1842.019280  	-0.002416 
1843.948096  	-0.004111 
1845.876912  	-0.004450 
1847.805728  	-0.003452 
1849.734544  	-0.003371 
1851.663360  	-0.003573 
1853.592176  	-0.003732 
1855.520992  	-0.003951 
1857.449808  	-0.003646 
1859.378624  	-0.003707 
1861.307440  	-0.003761 
1863.236256  	-0.003803 
1865.165072  	-0.003399 
1867.093888  	-0.003716 
1869.022704  	-0.004653 
1870.951520  	-0.004776 
1872.880336  	-0.003856 
1874.809152  	-0.003865 
1876.737968  	-0.003863 
1878.666784  	-0.004198 
1880.595600  	-0.003768 
1882.524416  	-0.004193 
1884.453232  	-0.004035 
1886.382048  	-0.004138 
1888.310864  	-0.003923 
1890.239680  	-0.004723 
1892.168496  	-0.004135 
1894.097312  	-0.003827 
1896.026128  	-0.003872 
1897.954944  	-0.004107 
1899.883760  	-0.003890 
1901.812576  	-0.004296 
1903.741392  	-0.004331 
1905.670208  	-0.004200 
1907.599024  	-0.003689 
1909.527840  	-0.004025 
1911.456656  	-0.003755 
1913.385472  	-0.003739 
1915.314288  	-0.003048 
1917.243104  	-0.003623 
1919.171920  	-0.004192 
1921.100736  	-0.003848 
1923.029552  	-0.003629 
1924.958368  	-0.004279 
1926.887184  	-0.004095 
1928.816000  	-0.004282 
1930.744816  	-0.004031 
1932.673632  	-0.004568 
1934.602448  	-0.004530 
1936.531264  	-0.004120 
1938.460080  	-0.003463 
1940.388896  	-0.003639 
1942.317712  	-0.003918 
1944.246528  	-0.004795 
1946.175344  	-0.003687 
1948.104160  	-0.003894 
1950.032976  	-0.004127 
1951.961792  	-0.003999 
1953.890608  	-0.003280 
1955.819424  	-0.003529 
1957.748240  	-0.002649 
1959.677056  	-0.003330 
1961.605872  	-0.002948 
1963.534688  	-0.003501 
1965.463504  	-0.002784 
1967.392320  	-0.002768 
1969.321136  	-0.002381 
1971.249952  	-0.002592 
1973.178768  	-0.001720 
1975.107584  	-0.002618 
1977.036400  	-0.001957 
1978.965216  	-0.000754 
1980.894032  	-0.001216 
1982.822848  	-0.003078 
1984.751664  	-0.003053 
1986.680480  	-0.003712 
1988.609296  	-0.002969 
1990.538112  	-0.003189 
1992.466928  	-0.002932 
1994.395744  	-0.003653 
1996.324560  	-0.003469 
1998.253376  	-0.003617 
2000.182192  	-0.004286 
2002.111008  	-0.004327 
2004.039824  	-0.002674 
2005.968640  	-0.002606 
2007.897456  	-0.002693 
2009.826272  	-0.003750 
2011.755088  	-0.003101 
2013.683904  	-0.003528 
2015.612720  	-0.003086 
2017.541536  	-0.002913 
2019.470352  	-0.001745 
2021.399168  	-0.003592 
2023.327984  	-0.003951 
2025.256800  	-0.002807 
2027.185616  	-0.001169 
2029.114432  	-0.001628 
2031.043248  	-0.002069 
2032.972064  	-0.003160 
2034.900880  	-0.002947 
2036.829696  	-0.003192 
2038.758512  	-0.002363 
2040.687328  	-0.003522 
2042.616144  	-0.002585 
2044.544960  	-0.002829 
2046.473776  	-0.003349 
2048.402592  	-0.003593 
2050.331408  	-0.002896 
2052.260224  	-0.003271 
2054.189040  	-0.003843 
2056.117856  	-0.004418 
2058.046672  	-0.003790 
2059.975488  	-0.004283 
2061.904304  	-0.004421 
2063.833120  	-0.004443 
2065.761936  	-0.004194 
2067.690752  	-0.004529 
2069.619568  	-0.004309 
2071.548384  	-0.004313 
2073.477200  	-0.004430 
2075.406016  	-0.004304 
2077.334832  	-0.003769 
2079.263648  	-0.003544 
2081.192464  	-0.003275 
2083.121280  	-0.003747 
2085.050096  	-0.003998 
2086.978912  	-0.004138 
2088.907728  	-0.003864 
2090.836544  	-0.003905 
2092.765360  	-0.003853 
2094.694176  	-0.003876 
2096.622992  	-0.003528 
2098.551808  	-0.003614 
2100.480624  	-0.003615 
2102.409440  	-0.003743 
2104.338256  	-0.003665 
2106.267072  	-0.003359 
2108.195888  	-0.003007 
2110.124704  	-0.003288 
2112.053520  	-0.003375 
2113.982336  	-0.003753 
2115.911152  	-0.003627 
2117.839968  	-0.003449 
2119.768784  	-0.003663 
2121.697600  	-0.003980 
2123.626416  	-0.003467 
2125.555232  	-0.003788 
2127.484048  	-0.003813 
2129.412864  	-0.004568 
2131.341680  	-0.004811 
2133.270496  	-0.004709 
2135.199312  	-0.003632 
2137.128128  	-0.002848 
2139.056944  	-0.002651 
2140.985760  	-0.003310 
2142.914576  	-0.003306 
2144.843392  	-0.003356 
2146.772208  	-0.003147 
2148.701024  	-0.003735 
2150.629840  	-0.003295 
2152.558656  	-0.002512 
2154.487472  	-0.002084 
2156.416288  	-0.003311 
2158.345104  	-0.002467 
2160.273920  	-0.000742 
2162.202736  	-0.000496 
2164.131552  	-0.001345 
2166.060368  	-0.001589 
2167.989184  	-0.001283 
2169.918000  	-0.000140 
2171.846816  	-0.001158 
2173.775632  	-0.001629 
2175.704448  	-0.001639 
2177.633264  	-0.001346 
2179.562080  	-0.002140 
2181.490896  	-0.002492 
2183.419712  	-0.003486 
2185.348528  	-0.003313 
2187.277344  	-0.003459 
2189.206160  	-0.003271 
2191.134976  	-0.002928 
2193.063792  	-0.002494 
2194.992608  	-0.002971 
2196.921424  	-0.002754 
2198.850240  	-0.002965 
2200.779056  	-0.002987 
2202.707872  	-0.003166 
2204.636688  	-0.002892 
2206.565504  	-0.002978 
2208.494320  	-0.002912 
2210.423136  	-0.003331 
2212.351952  	-0.003604 
2214.280768  	-0.003957 
2216.209584  	-0.003498 
2218.138400  	-0.004137 
2220.067216  	-0.003794 
2221.996032  	-0.003743 
2223.924848  	-0.003351 
2225.853664  	-0.002971 
2227.782480  	-0.002947 
2229.711296  	-0.003861 
2231.640112  	-0.004519 
2233.568928  	-0.004791 
2235.497744  	-0.004620 
2237.426560  	-0.004799 
2239.355376  	-0.004267 
2241.284192  	-0.003898 
2243.213008  	-0.004245 
2245.141824  	-0.004865 
2247.070640  	-0.004595 
2248.999456  	-0.004503 
2250.928272  	-0.004910 
2252.857088  	-0.005205 
2254.785904  	-0.005098 
2256.714720  	-0.005562 
2258.643536  	-0.005475 
2260.572352  	-0.005362 
2262.501168  	-0.005434 
2264.429984  	-0.005811 
2266.358800  	-0.005550 
2268.287616  	-0.005545 
2270.216432  	-0.005300 
2272.145248  	-0.005316 
2274.074064  	-0.005275 
2276.002880  	-0.005123 
2277.931696  	-0.005013 
2279.860512  	-0.005197 
2281.789328  	-0.005189 
2283.718144  	-0.005196 
2285.646960  	-0.004835 
2287.575776  	-0.004615 
2289.504592  	-0.004804 
2291.433408  	-0.005033 
2293.362224  	-0.004738 
2295.291040  	-0.004470 
2297.219856  	-0.004177 
2299.148672  	-0.004219 
2301.077488  	-0.004174 
2303.006304  	-0.004000 
2304.935120  	-0.003748 
2306.863936  	-0.003752 
2308.792752  	-0.003719 
2310.721568  	-0.004089 
2312.650384  	-0.004572 
2314.579200  	-0.005065 
2316.508016  	-0.005777 
2318.436832  	-0.006775 
2320.365648  	-0.008091 
2322.294464  	-0.009463 
2324.223280  	-0.010605 
2326.152096  	-0.012106 
2328.080912  	-0.013477 
2330.009728  	-0.015248 
2331.938544  	-0.017110 
2333.867360  	-0.018394 
2335.796176  	-0.019149 
2337.724992  	-0.020182 
2339.653808  	-0.020409 
2341.582624  	-0.020755 
2343.511440  	-0.020086 
2345.440256  	-0.018331 
2347.369072  	-0.014033 
2349.297888  	-0.010305 
2351.226704  	-0.011727 
2353.155520  	-0.016723 
2355.084336  	-0.020693 
2357.013152  	-0.023740 
2358.941968  	-0.025459 
2360.870784  	-0.026623 
2362.799600  	-0.026485 
2364.728416  	-0.025680 
2366.657232  	-0.023242 
2368.586048  	-0.020210 
2370.514864  	-0.017239 
2372.443680  	-0.014418 
2374.372496  	-0.011629 
2376.301312  	-0.009276 
2378.230128  	-0.007257 
2380.158944  	-0.005981 
2382.087760  	-0.005379 
2384.016576  	-0.005213 
2385.945392  	-0.005224 
2387.874208  	-0.005448 
2389.803024  	-0.005573 
2391.731840  	-0.005823 
2393.660656  	-0.005890 
2395.589472  	-0.005847 
2397.518288  	-0.005706 
2399.447104  	-0.005804 
2401.375920  	-0.005913 
2403.304736  	-0.006171 
2405.233552  	-0.006091 
2407.162368  	-0.006145 
2409.091184  	-0.006144 
2411.020000  	-0.006149 
2412.948816  	-0.006126 
2414.877632  	-0.005948 
2416.806448  	-0.005777 
2418.735264  	-0.005999 
2420.664080  	-0.006034 
2422.592896  	-0.005939 
2424.521712  	-0.005868 
2426.450528  	-0.006174 
2428.379344  	-0.006056 
2430.308160  	-0.005777 
2432.236976  	-0.005820 
2434.165792  	-0.005985 
2436.094608  	-0.005751 
2438.023424  	-0.005444 
2439.952240  	-0.005357 
2441.881056  	-0.005486 
2443.809872  	-0.005596 
2445.738688  	-0.005522 
2447.667504  	-0.005233 
2449.596320  	-0.005232 
2451.525136  	-0.005193 
2453.453952  	-0.005316 
2455.382768  	-0.005411 
2457.311584  	-0.005489 
2459.240400  	-0.005535 
2461.169216  	-0.005494 
2463.098032  	-0.005691 
2465.026848  	-0.005751 
2466.955664  	-0.005591 
2468.884480  	-0.005754 
2470.813296  	-0.005864 
2472.742112  	-0.005907 
2474.670928  	-0.005778 
2476.599744  	-0.005658 
2478.528560  	-0.005550 
2480.457376  	-0.005557 
2482.386192  	-0.005496 
2484.315008  	-0.005446 
2486.243824  	-0.005565 
2488.172640  	-0.005665 
2490.101456  	-0.005309 
2492.030272  	-0.004993 
2493.959088  	-0.004810 
2495.887904  	-0.004836 
2497.816720  	-0.004940 
2499.745536  	-0.004911 
2501.674352  	-0.004649 
2503.603168  	-0.004494 
2505.531984  	-0.004658 
2507.460800  	-0.004864 
2509.389616  	-0.004774 
2511.318432  	-0.004703 
2513.247248  	-0.004679 
2515.176064  	-0.004780 
2517.104880  	-0.004722 
2519.033696  	-0.004743 
2520.962512  	-0.004741 
2522.891328  	-0.004684 
2524.820144  	-0.004727 
2526.748960  	-0.004742 
2528.677776  	-0.004310 
2530.606592  	-0.004278 
2532.535408  	-0.004423 
2534.464224  	-0.004583 
2536.393040  	-0.004510 
2538.321856  	-0.004160 
2540.250672  	-0.003923 
2542.179488  	-0.003971 
2544.108304  	-0.004000 
2546.037120  	-0.004063 
2547.965936  	-0.004133 
2549.894752  	-0.004152 
2551.823568  	-0.004036 
2553.752384  	-0.003868 
2555.681200  	-0.003690 
2557.610016  	-0.003720 
2559.538832  	-0.003653 
2561.467648  	-0.003426 
2563.396464  	-0.003414 
2565.325280  	-0.003457 
2567.254096  	-0.003299 
2569.182912  	-0.003195 
2571.111728  	-0.003208 
2573.040544  	-0.003340 
2574.969360  	-0.003233 
2576.898176  	-0.002989 
2578.826992  	-0.002944 
2580.755808  	-0.003038 
2582.684624  	-0.002880 
2584.613440  	-0.002862 
2586.542256  	-0.002869 
2588.471072  	-0.002738 
2590.399888  	-0.002665 
2592.328704  	-0.002905 
2594.257520  	-0.003080 
2596.186336  	-0.002890 
2598.115152  	-0.002603 
2600.043968  	-0.002574 
2601.972784  	-0.002502 
2603.901600  	-0.002513 
2605.830416  	-0.002392 
2607.759232  	-0.002220 
2609.688048  	-0.002107 
2611.616864  	-0.002032 
2613.545680  	-0.001845 
2615.474496  	-0.001676 
2617.403312  	-0.001587 
2619.332128  	-0.001604 
2621.260944  	-0.001550 
2623.189760  	-0.001564 
2625.118576  	-0.001535 
2627.047392  	-0.001411 
2628.976208  	-0.001313 
2630.905024  	-0.001247 
2632.833840  	-0.001181 
2634.762656  	-0.001079 
2636.691472  	-0.001008 
2638.620288  	-0.000997 
2640.549104  	-0.000982 
2642.477920  	-0.001031 
2644.406736  	-0.000814 
2646.335552  	-0.000618 
2648.264368  	-0.000514 
2650.193184  	-0.000463 
2652.122000  	-0.000353 
2654.050816  	-0.000156 
2655.979632  	-0.000013 
2657.908448  	0.000065 
2659.837264  	0.000233 
2661.766080  	0.000334 
2663.694896  	0.000449 
2665.623712  	0.000442 
2667.552528  	0.000533 
2669.481344  	0.000718 
2671.410160  	0.000807 
2673.338976  	0.000792 
2675.267792  	0.000912 
2677.196608  	0.001124 
2679.125424  	0.001216 
2681.054240  	0.001316 
2682.983056  	0.001519 
2684.911872  	0.001514 
2686.840688  	0.001637 
2688.769504  	0.001698 
2690.698320  	0.001654 
2692.627136  	0.001730 
2694.555952  	0.001747 
2696.484768  	0.001764 
2698.413584  	0.001877 
2700.342400  	0.001960 
2702.271216  	0.002145 
2704.200032  	0.002282 
2706.128848  	0.002317 
2708.057664  	0.002342 
2709.986480  	0.002368 
2711.915296  	0.002423 
2713.844112  	0.002650 
2715.772928  	0.002736 
2717.701744  	0.002770 
2719.630560  	0.002970 
2721.559376  	0.003086 
2723.488192  	0.003219 
2725.417008  	0.003421 
2727.345824  	0.003488 
2729.274640  	0.003607 
2731.203456  	0.003764 
2733.132272  	0.003894 
2735.061088  	0.003969 
2736.989904  	0.004054 
2738.918720  	0.004024 
2740.847536  	0.004099 
2742.776352  	0.004162 
2744.705168  	0.004228 
2746.633984  	0.004330 
2748.562800  	0.004352 
2750.491616  	0.004436 
2752.420432  	0.004659 
2754.349248  	0.004609 
2756.278064  	0.004463 
2758.206880  	0.004319 
2760.135696  	0.004317 
2762.064512  	0.004464 
2763.993328  	0.004638 
2765.922144  	0.004580 
2767.850960  	0.004427 
2769.779776  	0.004374 
2771.708592  	0.004378 
2773.637408  	0.004290 
2775.566224  	0.004258 
2777.495040  	0.004285 
2779.423856  	0.004412 
2781.352672  	0.004441 
2783.281488  	0.004334 
2785.210304  	0.004323 
2787.139120  	0.004376 
2789.067936  	0.004413 
2790.996752  	0.004448 
2792.925568  	0.004276 
2794.854384  	0.004177 
2796.783200  	0.004191 
2798.712016  	0.004166 
2800.640832  	0.004151 
2802.569648  	0.004235 
2804.498464  	0.004232 
2806.427280  	0.004163 
2808.356096  	0.004086 
2810.284912  	0.004116 
2812.213728  	0.004212 
2814.142544  	0.004182 
2816.071360  	0.004099 
2818.000176  	0.003882 
2819.928992  	0.003755 
2821.857808  	0.003733 
2823.786624  	0.003546 
2825.715440  	0.003416 
2827.644256  	0.003327 
2829.573072  	0.003220 
2831.501888  	0.002981 
2833.430704  	0.002687 
2835.359520  	0.002361 
2837.288336  	0.002011 
2839.217152  	0.001696 
2841.145968  	0.001447 
2843.074784  	0.001186 
2845.003600  	0.000738 
2846.932416  	0.000194 
2848.861232  	-0.000162 
2850.790048  	-0.000554 
2852.718864  	-0.001085 
2854.647680  	-0.001611 
2856.576496  	-0.002159 
2858.505312  	-0.002801 
2860.434128  	-0.003412 
2862.362944  	-0.004135 
2864.291760  	-0.004899 
2866.220576  	-0.005498 
2868.149392  	-0.005894 
2870.078208  	-0.006206 
2872.007024  	-0.006399 
2873.935840  	-0.006340 
2875.864656  	-0.006296 
2877.793472  	-0.006546 
2879.722288  	-0.006925 
2881.651104  	-0.007306 
2883.579920  	-0.007616 
2885.508736  	-0.007576 
2887.437552  	-0.007378 
2889.366368  	-0.007355 
2891.295184  	-0.007559 
2893.224000  	-0.007817 
2895.152816  	-0.007773 
2897.081632  	-0.008083 
2899.010448  	-0.009821 
2900.939264  	-0.011329 
2902.868080  	-0.010041 
2904.796896  	-0.008743 
2906.725712  	-0.008293 
2908.654528  	-0.007716 
2910.583344  	-0.007385 
2912.512160  	-0.006905 
2914.440976  	-0.005813 
2916.369792  	-0.005029 
2918.298608  	-0.004655 
2920.227424  	-0.004299 
2922.156240  	-0.003734 
2924.085056  	-0.003128 
2926.013872  	-0.002404 
2927.942688  	-0.001430 
2929.871504  	-0.000472 
2931.800320  	0.000300 
2933.729136  	0.001045 
2935.657952  	0.001580 
2937.586768  	0.002123 
2939.515584  	0.002734 
2941.444400  	0.003049 
2943.373216  	0.003100 
2945.302032  	0.003285 
2947.230848  	0.003345 
2949.159664  	0.003071 
2951.088480  	0.002686 
2953.017296  	0.002166 
2954.946112  	0.001506 
2956.874928  	0.000820 
2958.803744  	0.000070 
2960.732560  	-0.000490 
2962.661376  	-0.001101 
2964.590192  	-0.001920 
2966.519008  	-0.003087 
2968.447824  	-0.004152 
2970.376640  	-0.004995 
2972.305456  	-0.005546 
2974.234272  	-0.005264 
2976.163088  	-0.004797 
2978.091904  	-0.004769 
2980.020720  	-0.004804 
2981.949536  	-0.004586 
2983.878352  	-0.004747 
2985.807168  	-0.005566 
2987.735984  	-0.006618 
2989.664800  	-0.006421 
2991.593616  	-0.003393 
2993.522432  	-0.001312 
2995.451248  	-0.000716 
2997.380064  	0.000128 
2999.308880  	0.001267 
3001.237696  	0.002545 
3003.166512  	0.004016 
3005.095328  	0.005319 
3007.024144  	0.006643 
3008.952960  	0.008081 
3010.881776  	0.009557 
3012.810592  	0.010885 
3014.739408  	0.012151 
3016.668224  	0.013300 
3018.597040  	0.014574 
3020.525856  	0.015723 
3022.454672  	0.016754 
3024.383488  	0.017800 
3026.312304  	0.018766 
3028.241120  	0.019843 
3030.169936  	0.020760 
3032.098752  	0.021389 
3034.027568  	0.022094 
3035.956384  	0.022928 
3037.885200  	0.023791 
3039.814016  	0.024435 
3041.742832  	0.025055 
3043.671648  	0.025584 
3045.600464  	0.026140 
3047.529280  	0.026635 
3049.458096  	0.027179 
3051.386912  	0.027798 
3053.315728  	0.028301 
3055.244544  	0.028827 
3057.173360  	0.029419 
3059.102176  	0.030010 
3061.030992  	0.030632 
3062.959808  	0.031198 
3064.888624  	0.031711 
3066.817440  	0.032436 
3068.746256  	0.033217 
3070.675072  	0.033868 
3072.603888  	0.034517 
3074.532704  	0.035182 
3076.461520  	0.035787 
3078.390336  	0.036472 
3080.319152  	0.037156 
3082.247968  	0.037906 
3084.176784  	0.038659 
3086.105600  	0.039394 
3088.034416  	0.040127 
3089.963232  	0.040852 
3091.892048  	0.041371 
3093.820864  	0.042029 
3095.749680  	0.042729 
3097.678496  	0.043522 
3099.607312  	0.044241 
3101.536128  	0.045013 
3103.464944  	0.045905 
3105.393760  	0.046642 
3107.322576  	0.047226 
3109.251392  	0.047871 
3111.180208  	0.048662 
3113.109024  	0.049436 
3115.037840  	0.050086 
3116.966656  	0.050725 
3118.895472  	0.051311 
3120.824288  	0.051840 
3122.753104  	0.052311 
3124.681920  	0.052872 
3126.610736  	0.053602 
3128.539552  	0.054265 
3130.468368  	0.054854 
3132.397184  	0.055512 
3134.326000  	0.056163 
3136.254816  	0.056596 
3138.183632  	0.057220 
3140.112448  	0.057793 
3142.041264  	0.058347 
3143.970080  	0.058894 
3145.898896  	0.059490 
3147.827712  	0.060219 
3149.756528  	0.060777 
3151.685344  	0.061203 
3153.614160  	0.061901 
3155.542976  	0.062677 
3157.471792  	0.063414 
3159.400608  	0.064011 
3161.329424  	0.064579 
3163.258240  	0.065041 
3165.187056  	0.065613 
3167.115872  	0.066233 
3169.044688  	0.066646 
3170.973504  	0.067122 
3172.902320  	0.067548 
3174.831136  	0.067981 
3176.759952  	0.068488 
3178.688768  	0.068829 
3180.617584  	0.069250 
3182.546400  	0.069792 
3184.475216  	0.070076 
3186.404032  	0.070118 
3188.332848  	0.070372 
3190.261664  	0.070815 
3192.190480  	0.071164 
3194.119296  	0.071126 
3196.048112  	0.071189 
3197.976928  	0.071088 
3199.905744  	0.071147 
3201.834560  	0.071256 
3203.763376  	0.071323 
3205.692192  	0.071294 
3207.621008  	0.071138 
3209.549824  	0.071095 
3211.478640  	0.071044 
3213.407456  	0.071062 
3215.336272  	0.070935 
3217.265088  	0.070780 
3219.193904  	0.070710 
3221.122720  	0.070629 
3223.051536  	0.070548 
3224.980352  	0.070387 
3226.909168  	0.070253 
3228.837984  	0.070119 
3230.766800  	0.070150 
3232.695616  	0.070209 
3234.624432  	0.070247 
3236.553248  	0.070144 
3238.482064  	0.070165 
3240.410880  	0.070268 
3242.339696  	0.070305 
3244.268512  	0.070085 
3246.197328  	0.070129 
3248.126144  	0.070551 
3250.054960  	0.070776 
3251.983776  	0.071101 
3253.912592  	0.071244 
3255.841408  	0.071352 
3257.770224  	0.071826 
3259.699040  	0.072238 
3261.627856  	0.072460 
3263.556672  	0.072592 
3265.485488  	0.072686 
3267.414304  	0.072916 
3269.343120  	0.073316 
3271.271936  	0.073691 
3273.200752  	0.073621 
3275.129568  	0.073596 
3277.058384  	0.073933 
3278.987200  	0.074161 
3280.916016  	0.074399 
3282.844832  	0.074694 
3284.773648  	0.074913 
3286.702464  	0.075195 
3288.631280  	0.075506 
3290.560096  	0.075845 
3292.488912  	0.076177 
3294.417728  	0.076485 
3296.346544  	0.076918 
3298.275360  	0.077194 
3300.204176  	0.077504 
3302.132992  	0.077804 
3304.061808  	0.078026 
3305.990624  	0.078510 
3307.919440  	0.078926 
3309.848256  	0.079171 
3311.777072  	0.079469 
3313.705888  	0.079668 
3315.634704  	0.080193 
3317.563520  	0.080612 
3319.492336  	0.081036 
3321.421152  	0.081354 
3323.349968  	0.081544 
3325.278784  	0.081869 
3327.207600  	0.082230 
3329.136416  	0.082364 
3331.065232  	0.082449 
3332.994048  	0.082583 
3334.922864  	0.082826 
3336.851680  	0.082841 
3338.780496  	0.082724 
3340.709312  	0.082746 
3342.638128  	0.082748 
3344.566944  	0.082462 
3346.495760  	0.082339 
3348.424576  	0.082303 
3350.353392  	0.081985 
3352.282208  	0.081583 
3354.211024  	0.081538 
3356.139840  	0.081343 
3358.068656  	0.081066 
3359.997472  	0.080985 
3361.926288  	0.080593 
3363.855104  	0.080120 
3365.783920  	0.079707 
3367.712736  	0.079330 
3369.641552  	0.079136 
3371.570368  	0.078955 
3373.499184  	0.078662 
3375.428000  	0.078321 
3377.356816  	0.078046 
3379.285632  	0.077908 
3381.214448  	0.077624 
3383.143264  	0.077334 
3385.072080  	0.076961 
3387.000896  	0.076592 
3388.929712  	0.076275 
3390.858528  	0.075996 
3392.787344  	0.075513 
3394.716160  	0.075084 
3396.644976  	0.074785 
3398.573792  	0.074393 
3400.502608  	0.074114 
3402.431424  	0.073557 
3404.360240  	0.073057 
3406.289056  	0.072685 
3408.217872  	0.072158 
3410.146688  	0.071598 
3412.075504  	0.071327 
3414.004320  	0.070928 
3415.933136  	0.070626 
3417.861952  	0.070427 
3419.790768  	0.069864 
3421.719584  	0.069056 
3423.648400  	0.068676 
3425.577216  	0.068221 
3427.506032  	0.067821 
3429.434848  	0.067447 
3431.363664  	0.066843 
3433.292480  	0.066320 
3435.221296  	0.065780 
3437.150112  	0.065211 
3439.078928  	0.064941 
3441.007744  	0.064549 
3442.936560  	0.063849 
3444.865376  	0.063592 
3446.794192  	0.062743 
3448.723008  	0.061586 
3450.651824  	0.061357 
3452.580640  	0.060865 
3454.509456  	0.060345 
3456.438272  	0.059676 
3458.367088  	0.059065 
3460.295904  	0.058571 
3462.224720  	0.057811 
3464.153536  	0.057171 
3466.082352  	0.056559 
3468.011168  	0.055485 
3469.939984  	0.054728 
3471.868800  	0.054270 
3473.797616  	0.053644 
3475.726432  	0.052747 
3477.655248  	0.052112 
3479.584064  	0.051788 
3481.512880  	0.050863 
3483.441696  	0.049748 
3485.370512  	0.049319 
3487.299328  	0.048420 
3489.228144  	0.047633 
3491.156960  	0.047015 
3493.085776  	0.046208 
3495.014592  	0.045363 
3496.943408  	0.044686 
3498.872224  	0.044240 
3500.801040  	0.044143 
3502.729856  	0.043070 
3504.658672  	0.041566 
3506.587488  	0.041689 
3508.516304  	0.041565 
3510.445120  	0.040281 
3512.373936  	0.039420 
3514.302752  	0.038949 
3516.231568  	0.038629 
3518.160384  	0.038199 
3520.089200  	0.037690 
3522.018016  	0.037310 
3523.946832  	0.036694 
3525.875648  	0.035900 
3527.804464  	0.034583 
3529.733280  	0.033537 
3531.662096  	0.033158 
3533.590912  	0.033105 
3535.519728  	0.032776 
3537.448544  	0.032049 
3539.377360  	0.031418 
3541.306176  	0.031210 
3543.234992  	0.031279 
3545.163808  	0.030809 
3547.092624  	0.029308 
3549.021440  	0.028360 
3550.950256  	0.028211 
3552.879072  	0.027046 
3554.807888  	0.026463 
3556.736704  	0.026233 
3558.665520  	0.025928 
3560.594336  	0.025556 
3562.523152  	0.025151 
3564.451968  	0.025406 
3566.380784  	0.024145 
3568.309600  	0.020769 
3570.238416  	0.020786 
3572.167232  	0.021214 
3574.096048  	0.020635 
3576.024864  	0.019826 
3577.953680  	0.019441 
3579.882496  	0.018874 
3581.811312  	0.018295 
3583.740128  	0.018381 
3585.668944  	0.018622 
3587.597760  	0.015448 
3589.526576  	0.013257 
3591.455392  	0.014335 
3593.384208  	0.014463 
3595.313024  	0.012944 
3597.241840  	0.011711 
3599.170656  	0.010745 
3601.099472  	0.009409 
3603.028288  	0.009458 
3604.957104  	0.010322 
3606.885920  	0.009648 
3608.814736  	0.007191 
3610.743552  	0.007088 
3612.672368  	0.006272 
3614.601184  	0.004457 
3616.530000  	0.005282 
3618.458816  	0.002954 
3620.387632  	-0.000093 
3622.316448  	0.001017 
3624.245264  	0.002246 
3626.174080  	0.003094 
3628.102896  	-0.000093 
3630.031712  	-0.006752 
3631.960528  	-0.003497 
3633.889344  	-0.003087 
3635.818160  	-0.003893 
3637.746976  	-0.004335 
3639.675792  	-0.004751 
3641.604608  	-0.005001 
3643.533424  	-0.005040 
3645.462240  	-0.004759 
3647.391056  	-0.008167 
3649.319872  	-0.014571 
3651.248688  	-0.017287 
3653.177504  	-0.012741 
3655.106320  	-0.011749 
3657.035136  	-0.015502 
3658.963952  	-0.014799 
3660.892768  	-0.014248 
3662.821584  	-0.014480 
3664.750400  	-0.014047 
3666.679216  	-0.013188 
3668.608032  	-0.015070 
3670.536848  	-0.020432 
3672.465664  	-0.017628 
3674.394480  	-0.017522 
3676.323296  	-0.025282 
3678.252112  	-0.020791 
3680.180928  	-0.018180 
3682.109744  	-0.016959 
3684.038560  	-0.016456 
3685.967376  	-0.015474 
3687.896192  	-0.018077 
3689.825008  	-0.022892 
3691.753824  	-0.022141 
3693.682640  	-0.018944 
3695.611456  	-0.017092 
3697.540272  	-0.016157 
3699.469088  	-0.014842 
3701.397904  	-0.016326 
3703.326720  	-0.016887 
3705.255536  	-0.014751 
3707.184352  	-0.013741 
3709.113168  	-0.014946 
3711.041984  	-0.018230 
3712.970800  	-0.018959 
3714.899616  	-0.015381 
3716.828432  	-0.013321 
3718.757248  	-0.013540 
3720.686064  	-0.014087 
3722.614880  	-0.015055 
3724.543696  	-0.014551 
3726.472512  	-0.015108 
3728.401328  	-0.014633 
3730.330144  	-0.013644 
3732.258960  	-0.015613 
3734.187776  	-0.016136 
3736.116592  	-0.019088 
3738.045408  	-0.018320 
3739.974224  	-0.014850 
3741.903040  	-0.012079 
3743.831856  	-0.014664 
3745.760672  	-0.019346 
3747.689488  	-0.015077 
3749.618304  	-0.017523 
3751.547120  	-0.021596 
3753.475936  	-0.019780 
3755.404752  	-0.015493 
3757.333568  	-0.014474 
3759.262384  	-0.015776 
3761.191200  	-0.016044 
3763.120016  	-0.013106 
3765.048832  	-0.013689 
3766.977648  	-0.014223 
3768.906464  	-0.014645 
3770.835280  	-0.016516 
3772.764096  	-0.014608 
3774.692912  	-0.013075 
3776.621728  	-0.012522 
3778.550544  	-0.014063 
3780.479360  	-0.016233 
3782.408176  	-0.014258 
3784.336992  	-0.014246 
3786.265808  	-0.014538 
3788.194624  	-0.013836 
3790.123440  	-0.013632 
3792.052256  	-0.013494 
3793.981072  	-0.012782 
3795.909888  	-0.014276 
3797.838704  	-0.014557 
3799.767520  	-0.013747 
3801.696336  	-0.019618 
3803.625152  	-0.018092 
3805.553968  	-0.015011 
3807.482784  	-0.017997 
3809.411600  	-0.015729 
3811.340416  	-0.013295 
3813.269232  	-0.011964 
3815.198048  	-0.014563 
3817.126864  	-0.017682 
3819.055680  	-0.014717 
3820.984496  	-0.019076 
3822.913312  	-0.019358 
3824.842128  	-0.014910 
3826.770944  	-0.015452 
3828.699760  	-0.014551 
3830.628576  	-0.014012 
3832.557392  	-0.015222 
3834.486208  	-0.014866 
3836.415024  	-0.015640 
3838.343840  	-0.018308 
3840.272656  	-0.018394 
3842.201472  	-0.016409 
3844.130288  	-0.016212 
3846.059104  	-0.014753 
3847.987920  	-0.012814 
3849.916736  	-0.011773 
3851.845552  	-0.013142 
3853.774368  	-0.022678 
3855.703184  	-0.020855 
3857.632000  	-0.016030 
3859.560816  	-0.013432 
3861.489632  	-0.013090 
3863.418448  	-0.014336 
3865.347264  	-0.015890 
3867.276080  	-0.013456 
3869.204896  	-0.014499 
3871.133712  	-0.017112 
3873.062528  	-0.015018 
3874.991344  	-0.016110 
3876.920160  	-0.013404 
3878.848976  	-0.011943 
3880.777792  	-0.014565 
3882.706608  	-0.013707 
3884.635424  	-0.013213 
3886.564240  	-0.016119 
3888.493056  	-0.013632 
3890.421872  	-0.013478 
3892.350688  	-0.015971 
3894.279504  	-0.014475 
3896.208320  	-0.012312 
3898.137136  	-0.011929 
3900.065952  	-0.013336 
3901.994768  	-0.013630 
3903.923584  	-0.015052 
3905.852400  	-0.016030 
3907.781216  	-0.014541 
3909.710032  	-0.013511 
3911.638848  	-0.013242 
3913.567664  	-0.012686 
3915.496480  	-0.012171 
3917.425296  	-0.013188 
3919.354112  	-0.013721 
3921.282928  	-0.013335 
3923.211744  	-0.012522 
3925.140560  	-0.013412 
3927.069376  	-0.013361 
3928.998192  	-0.012746 
3930.927008  	-0.012709 
3932.855824  	-0.013403 
3934.784640  	-0.013568 
3936.713456  	-0.013124 
3938.642272  	-0.012718 
3940.571088  	-0.012147 
3942.499904  	-0.012745 
3944.428720  	-0.013318 
3946.357536  	-0.012553 
3948.286352  	-0.012668 
3950.215168  	-0.013285 
3952.143984  	-0.013474 
3954.072800  	-0.013413 
3956.001616  	-0.013126 
3957.930432  	-0.012998 
3959.859248  	-0.013005 
3961.788064  	-0.013205 
3963.716880  	-0.013572 
3965.645696  	-0.013559 
3967.574512  	-0.013391 
3969.503328  	-0.013276 
3971.432144  	-0.013149 
3973.360960  	-0.013054 
3975.289776  	-0.013198 
3977.218592  	-0.013246 
3979.147408  	-0.013246 
3981.076224  	-0.013175 
3983.005040  	-0.013228 
3984.933856  	-0.013226 
3986.862672  	-0.013289 
3988.791488  	-0.013075 
3990.720304  	-0.012840 
3992.649120  	-0.012958 
3994.577936  	-0.013288 
3996.506752  	-0.013382 
3998.435568  	-0.013322 
4000.364384  	-0.013181 