##TITLE=No Description
##DATA TYPE=INFRARED SPECTRUM
##XUNITS=1/CM
##YUNITS=Abs
399.264912  	0.573039 
401.193728  	0.578883 
403.122544  	0.598314 
405.051360  	0.593400 
406.980176  	0.597732 
408.908992  	0.597956 
410.837808  	0.601558 
412.766624  	0.596296 
414.695440  	0.593968 
416.624256  	0.582944 
418.553072  	0.583421 
420.481888  	0.574646 
422.410704  	0.577561 
424.339520  	0.572172 
426.268336  	0.572214 
428.197152  	0.564856 
430.125968  	0.562523 
432.054784  	0.554410 
433.983600  	0.552301 
435.912416  	0.548116 
437.841232  	0.550597 
439.770048  	0.546665 
441.698864  	0.547719 
443.627680  	0.542313 
445.556496  	0.540580 
447.485312  	0.538405 
449.414128  	0.536349 
451.342944  	0.534439 
453.271760  	0.538967 
455.200576  	0.537442 
457.129392  	0.537732 
459.058208  	0.537919 
460.987024  	0.539113 
462.915840  	0.538357 
464.844656  	0.543840 
466.773472  	0.537695 
468.702288  	0.536618 
470.631104  	0.538752 
472.559920  	0.540522 
474.488736  	0.534712 
476.417552  	0.533500 
478.346368  	0.525888 
480.275184  	0.523646 
482.204000  	0.521819 
484.132816  	0.523889 
486.061632  	0.523127 
487.990448  	0.524711 
489.919264  	0.524409 
491.848080  	0.524731 
493.776896  	0.522374 
495.705712  	0.521044 
497.634528  	0.520258 
499.563344  	0.522728 
501.492160  	0.519731 
503.420976  	0.517264 
505.349792  	0.513189 
507.278608  	0.515897 
509.207424  	0.515939 
511.136240  	0.519304 
513.065056  	0.520656 
514.993872  	0.521995 
516.922688  	0.520581 
518.851504  	0.524235 
520.780320  	0.523086 
522.709136  	0.521320 
524.637952  	0.520991 
526.566768  	0.522344 
528.495584  	0.519145 
530.424400  	0.516196 
532.353216  	0.510396 
534.282032  	0.505620 
536.210848  	0.500081 
538.139664  	0.495924 
540.068480  	0.491000 
541.997296  	0.487993 
543.926112  	0.483142 
545.854928  	0.479191 
547.783744  	0.475950 
549.712560  	0.474113 
551.641376  	0.468729 
553.570192  	0.464794 
555.499008  	0.460960 
557.427824  	0.457838 
559.356640  	0.453821 
561.285456  	0.450625 
563.214272  	0.447301 
565.143088  	0.444609 
567.071904  	0.440129 
569.000720  	0.436965 
570.929536  	0.433117 
572.858352  	0.430552 
574.787168  	0.428489 
576.715984  	0.425867 
578.644800  	0.422397 
580.573616  	0.419640 
582.502432  	0.414553 
584.431248  	0.411152 
586.360064  	0.408092 
588.288880  	0.405204 
590.217696  	0.402142 
592.146512  	0.399988 
594.075328  	0.397515 
596.004144  	0.395201 
597.932960  	0.392650 
599.861776  	0.391179 
601.790592  	0.389119 
603.719408  	0.388126 
605.648224  	0.386128 
607.577040  	0.384712 
609.505856  	0.383642 
611.434672  	0.382408 
613.363488  	0.379489 
615.292304  	0.377417 
617.221120  	0.375859 
619.149936  	0.375128 
621.078752  	0.373673 
623.007568  	0.372253 
624.936384  	0.370735 
626.865200  	0.369556 
628.794016  	0.368320 
630.722832  	0.368300 
632.651648  	0.368231 
634.580464  	0.367549 
636.509280  	0.366465 
638.438096  	0.366258 
640.366912  	0.365319 
642.295728  	0.363750 
644.224544  	0.361274 
646.153360  	0.358521 
648.082176  	0.353774 
650.010992  	0.349450 
651.939808  	0.345821 
653.868624  	0.342619 
655.797440  	0.339046 
657.726256  	0.335128 
659.655072  	0.331053 
661.583888  	0.326954 
663.512704  	0.323253 
665.441520  	0.320688 
667.370336  	0.314635 
669.299152  	0.307617 
671.227968  	0.305537 
673.156784  	0.302957 
675.085600  	0.300820 
677.014416  	0.298371 
678.943232  	0.295761 
680.872048  	0.293918 
682.800864  	0.291731 
684.729680  	0.290117 
686.658496  	0.289175 
688.587312  	0.288165 
690.516128  	0.286287 
692.444944  	0.284725 
694.373760  	0.283374 
696.302576  	0.281514 
698.231392  	0.279483 
700.160208  	0.277237 
702.089024  	0.274973 
704.017840  	0.272644 
705.946656  	0.270084 
707.875472  	0.267808 
709.804288  	0.265410 
711.733104  	0.263346 
713.661920  	0.261275 
715.590736  	0.259938 
717.519552  	0.259230 
719.448368  	0.259531 
721.377184  	0.259459 
723.306000  	0.259662 
725.234816  	0.259910 
727.163632  	0.259439 
729.092448  	0.257173 
731.021264  	0.253938 
732.950080  	0.250714 
734.878896  	0.247647 
736.807712  	0.244305 
738.736528  	0.241851 
740.665344  	0.239872 
742.594160  	0.238147 
744.522976  	0.236534 
746.451792  	0.234858 
748.380608  	0.233298 
750.309424  	0.231929 
752.238240  	0.230577 
754.167056  	0.229692 
756.095872  	0.228492 
758.024688  	0.227571 
759.953504  	0.227015 
761.882320  	0.227308 
763.811136  	0.227804 
765.739952  	0.226955 
767.668768  	0.224115 
769.597584  	0.221147 
771.526400  	0.219935 
773.455216  	0.221079 
775.384032  	0.223967 
777.312848  	0.228406 
779.241664  	0.232458 
781.170480  	0.233119 
783.099296  	0.229167 
785.028112  	0.223440 
786.956928  	0.217737 
788.885744  	0.212804 
790.814560  	0.209125 
792.743376  	0.206993 
794.672192  	0.205713 
796.601008  	0.204674 
798.529824  	0.201831 
800.458640  	0.197567 
802.387456  	0.194060 
804.316272  	0.192015 
806.245088  	0.190579 
808.173904  	0.189413 
810.102720  	0.189060 
812.031536  	0.188853 
813.960352  	0.188845 
815.889168  	0.188958 
817.817984  	0.188735 
819.746800  	0.188591 
821.675616  	0.188757 
823.604432  	0.188490 
825.533248  	0.188040 
827.462064  	0.187579 
829.390880  	0.186608 
831.319696  	0.185259 
833.248512  	0.183341 
835.177328  	0.181113 
837.106144  	0.178557 
839.034960  	0.175447 
840.963776  	0.171757 
842.892592  	0.168136 
844.821408  	0.164849 
846.750224  	0.161757 
848.679040  	0.159053 
850.607856  	0.156944 
852.536672  	0.155633 
854.465488  	0.154270 
856.394304  	0.153058 
858.323120  	0.151628 
860.251936  	0.149828 
862.180752  	0.147718 
864.109568  	0.145119 
866.038384  	0.142557 
867.967200  	0.140365 
869.896016  	0.138499 
871.824832  	0.137423 
873.753648  	0.137036 
875.682464  	0.137389 
877.611280  	0.137806 
879.540096  	0.138549 
881.468912  	0.140570 
883.397728  	0.141992 
885.326544  	0.143068 
887.255360  	0.143316 
889.184176  	0.142143 
891.112992  	0.140015 
893.041808  	0.138358 
894.970624  	0.136185 
896.899440  	0.132923 
898.828256  	0.128873 
900.757072  	0.125009 
902.685888  	0.121837 
904.614704  	0.119955 
906.543520  	0.119668 
908.472336  	0.120627 
910.401152  	0.122687 
912.329968  	0.125153 
914.258784  	0.127874 
916.187600  	0.130348 
918.116416  	0.132443 
920.045232  	0.134078 
921.974048  	0.134939 
923.902864  	0.135174 
925.831680  	0.135099 
927.760496  	0.135177 
929.689312  	0.135291 
931.618128  	0.135826 
933.546944  	0.136393 
935.475760  	0.136597 
937.404576  	0.136349 
939.333392  	0.135854 
941.262208  	0.135866 
943.191024  	0.136973 
945.119840  	0.140215 
947.048656  	0.145617 
948.977472  	0.152927 
950.906288  	0.161895 
952.835104  	0.171986 
954.763920  	0.182856 
956.692736  	0.192993 
958.621552  	0.201700 
960.550368  	0.207747 
962.479184  	0.210742 
964.408000  	0.210101 
966.336816  	0.205744 
968.265632  	0.197641 
970.194448  	0.186945 
972.123264  	0.174562 
974.052080  	0.161518 
975.980896  	0.148767 
977.909712  	0.136752 
979.838528  	0.125954 
981.767344  	0.116774 
983.696160  	0.109710 
985.624976  	0.105031 
987.553792  	0.102979 
989.482608  	0.103600 
991.411424  	0.106411 
993.340240  	0.110757 
995.269056  	0.116131 
997.197872  	0.121998 
999.126688  	0.128073 
1001.055504  	0.134448 
1002.984320  	0.140969 
1004.913136  	0.147383 
1006.841952  	0.153476 
1008.770768  	0.158564 
1010.699584  	0.162253 
1012.628400  	0.164445 
1014.557216  	0.165370 
1016.486032  	0.165535 
1018.414848  	0.165122 
1020.343664  	0.164701 
1022.272480  	0.163958 
1024.201296  	0.162693 
1026.130112  	0.159502 
1028.058928  	0.158261 
1029.987744  	0.161170 
1031.916560  	0.163176 
1033.845376  	0.164441 
1035.774192  	0.165576 
1037.703008  	0.168126 
1039.631824  	0.174278 
1041.560640  	0.183007 
1043.489456  	0.194750 
1045.418272  	0.208907 
1047.347088  	0.224727 
1049.275904  	0.239534 
1051.204720  	0.251189 
1053.133536  	0.258773 
1055.062352  	0.262280 
1056.991168  	0.262523 
1058.919984  	0.263982 
1060.848800  	0.265281 
1062.777616  	0.263165 
1064.706432  	0.257386 
1066.635248  	0.252850 
1068.564064  	0.251700 
1070.492880  	0.247516 
1072.421696  	0.240280 
1074.350512  	0.235293 
1076.279328  	0.234088 
1078.208144  	0.236991 
1080.136960  	0.242654 
1082.065776  	0.249482 
1083.994592  	0.254508 
1085.923408  	0.256569 
1087.852224  	0.254295 
1089.781040  	0.249669 
1091.709856  	0.243820 
1093.638672  	0.235538 
1095.567488  	0.224215 
1097.496304  	0.211687 
1099.425120  	0.198163 
1101.353936  	0.184912 
1103.282752  	0.172308 
1105.211568  	0.160214 
1107.140384  	0.148488 
1109.069200  	0.137340 
1110.998016  	0.127379 
1112.926832  	0.118280 
1114.855648  	0.109849 
1116.784464  	0.102297 
1118.713280  	0.095103 
1120.642096  	0.088264 
1122.570912  	0.082060 
1124.499728  	0.076053 
1126.428544  	0.070676 
1128.357360  	0.065918 
1130.286176  	0.061872 
1132.214992  	0.058352 
1134.143808  	0.055663 
1136.072624  	0.053330 
1138.001440  	0.051498 
1139.930256  	0.049329 
1141.859072  	0.046979 
1143.787888  	0.044763 
1145.716704  	0.042692 
1147.645520  	0.040530 
1149.574336  	0.038922 
1151.503152  	0.037591 
1153.431968  	0.036979 
1155.360784  	0.037087 
1157.289600  	0.037992 
1159.218416  	0.039235 
1161.147232  	0.041097 
1163.076048  	0.043190 
1165.004864  	0.045555 
1166.933680  	0.047658 
1168.862496  	0.049845 
1170.791312  	0.052088 
1172.720128  	0.054857 
1174.648944  	0.057522 
1176.577760  	0.060351 
1178.506576  	0.063000 
1180.435392  	0.065737 
1182.364208  	0.068457 
1184.293024  	0.071520 
1186.221840  	0.074632 
1188.150656  	0.078107 
1190.079472  	0.082002 
1192.008288  	0.087155 
1193.937104  	0.093554 
1195.865920  	0.100773 
1197.794736  	0.108592 
1199.723552  	0.117498 
1201.652368  	0.126429 
1203.581184  	0.135301 
1205.510000  	0.144270 
1207.438816  	0.153041 
1209.367632  	0.161106 
1211.296448  	0.167993 
1213.225264  	0.173995 
1215.154080  	0.178740 
1217.082896  	0.182238 
1219.011712  	0.184484 
1220.940528  	0.186422 
1222.869344  	0.187648 
1224.798160  	0.187982 
1226.726976  	0.187553 
1228.655792  	0.186783 
1230.584608  	0.185445 
1232.513424  	0.183482 
1234.442240  	0.180929 
1236.371056  	0.177664 
1238.299872  	0.172961 
1240.228688  	0.165919 
1242.157504  	0.158938 
1244.086320  	0.153089 
1246.015136  	0.145710 
1247.943952  	0.137498 
1249.872768  	0.129270 
1251.801584  	0.122079 
1253.730400  	0.114932 
1255.659216  	0.108019 
1257.588032  	0.101420 
1259.516848  	0.095134 
1261.445664  	0.089285 
1263.374480  	0.084046 
1265.303296  	0.079614 
1267.232112  	0.075950 
1269.160928  	0.073167 
1271.089744  	0.071067 
1273.018560  	0.069841 
1274.947376  	0.069408 
1276.876192  	0.069430 
1278.805008  	0.069182 
1280.733824  	0.068201 
1282.662640  	0.066252 
1284.591456  	0.063847 
1286.520272  	0.061753 
1288.449088  	0.060387 
1290.377904  	0.059736 
1292.306720  	0.059952 
1294.235536  	0.060098 
1296.164352  	0.059256 
1298.093168  	0.057107 
1300.021984  	0.054349 
1301.950800  	0.051324 
1303.879616  	0.048439 
1305.808432  	0.045351 
1307.737248  	0.042238 
1309.666064  	0.039188 
1311.594880  	0.037015 
1313.523696  	0.035278 
1315.452512  	0.033997 
1317.381328  	0.033251 
1319.310144  	0.033106 
1321.238960  	0.033176 
1323.167776  	0.033830 
1325.096592  	0.034663 
1327.025408  	0.035270 
1328.954224  	0.035271 
1330.883040  	0.034926 
1332.811856  	0.034136 
1334.740672  	0.033500 
1336.669488  	0.033247 
1338.598304  	0.033246 
1340.527120  	0.032051 
1342.455936  	0.030778 
1344.384752  	0.030406 
1346.313568  	0.030588 
1348.242384  	0.031155 
1350.171200  	0.032304 
1352.100016  	0.033758 
1354.028832  	0.035495 
1355.957648  	0.037159 
1357.886464  	0.039086 
1359.815280  	0.041243 
1361.744096  	0.043353 
1363.672912  	0.044631 
1365.601728  	0.045871 
1367.530544  	0.047166 
1369.459360  	0.047701 
1371.388176  	0.047562 
1373.316992  	0.046243 
1375.245808  	0.043097 
1377.174624  	0.040703 
1379.103440  	0.037953 
1381.032256  	0.035088 
1382.961072  	0.032949 
1384.889888  	0.032188 
1386.818704  	0.031512 
1388.747520  	0.029747 
1390.676336  	0.027528 
1392.605152  	0.024281 
1394.533968  	0.022165 
1396.462784  	0.024952 
1398.391600  	0.026297 
1400.320416  	0.025723 
1402.249232  	0.025976 
1404.178048  	0.026436 
1406.106864  	0.026988 
1408.035680  	0.028765 
1409.964496  	0.031066 
1411.893312  	0.033788 
1413.822128  	0.036719 
1415.750944  	0.040188 
1417.679760  	0.042413 
1419.608576  	0.042212 
1421.537392  	0.042799 
1423.466208  	0.042991 
1425.395024  	0.041477 
1427.323840  	0.040264 
1429.252656  	0.037845 
1431.181472  	0.036134 
1433.110288  	0.036105 
1435.039104  	0.036633 
1436.967920  	0.035880 
1438.896736  	0.036785 
1440.825552  	0.038068 
1442.754368  	0.038646 
1444.683184  	0.038747 
1446.612000  	0.038592 
1448.540816  	0.037591 
1450.469632  	0.038173 
1452.398448  	0.039013 
1454.327264  	0.039758 
1456.256080  	0.038737 
1458.184896  	0.036252 
1460.113712  	0.038016 
1462.042528  	0.039688 
1463.971344  	0.039228 
1465.900160  	0.039519 
1467.828976  	0.042341 
1469.757792  	0.045544 
1471.686608  	0.047971 
1473.615424  	0.052896 
1475.544240  	0.059429 
1477.473056  	0.065285 
1479.401872  	0.069457 
1481.330688  	0.072749 
1483.259504  	0.075006 
1485.188320  	0.076597 
1487.117136  	0.076309 
1489.045952  	0.075362 
1490.974768  	0.072492 
1492.903584  	0.070994 
1494.832400  	0.068074 
1496.761216  	0.061357 
1498.690032  	0.055348 
1500.618848  	0.051789 
1502.547664  	0.048422 
1504.476480  	0.044195 
1506.405296  	0.036682 
1508.334112  	0.034391 
1510.262928  	0.035341 
1512.191744  	0.033956 
1514.120560  	0.032988 
1516.049376  	0.032042 
1517.978192  	0.031025 
1519.907008  	0.032300 
1521.835824  	0.032395 
1523.764640  	0.036838 
1525.693456  	0.041207 
1527.622272  	0.043503 
1529.551088  	0.044569 
1531.479904  	0.044283 
1533.408720  	0.040004 
1535.337536  	0.037245 
1537.266352  	0.035631 
1539.195168  	0.027592 
1541.123984  	0.020445 
1543.052800  	0.023361 
1544.981616  	0.024242 
1546.910432  	0.024280 
1548.839248  	0.024701 
1550.768064  	0.024597 
1552.696880  	0.024386 
1554.625696  	0.024453 
1556.554512  	0.024341 
1558.483328  	0.021303 
1560.412144  	0.025768 
1562.340960  	0.033526 
1564.269776  	0.037557 
1566.198592  	0.042557 
1568.127408  	0.046253 
1570.056224  	0.050816 
1571.985040  	0.058030 
1573.913856  	0.062628 
1575.842672  	0.063053 
1577.771488  	0.066101 
1579.700304  	0.068613 
1581.629120  	0.068627 
1583.557936  	0.068074 
1585.486752  	0.068824 
1587.415568  	0.070964 
1589.344384  	0.075145 
1591.273200  	0.080746 
1593.202016  	0.087624 
1595.130832  	0.094919 
1597.059648  	0.102717 
1598.988464  	0.109396 
1600.917280  	0.115286 
1602.846096  	0.119176 
1604.774912  	0.121839 
1606.703728  	0.122187 
1608.632544  	0.121246 
1610.561360  	0.119427 
1612.490176  	0.118148 
1614.418992  	0.115874 
1616.347808  	0.112369 
1618.276624  	0.113162 
1620.205440  	0.117945 
1622.134256  	0.120379 
1624.063072  	0.125292 
1625.991888  	0.132343 
1627.920704  	0.140098 
1629.849520  	0.149721 
1631.778336  	0.159350 
1633.707152  	0.165682 
1635.635968  	0.171877 
1637.564784  	0.182573 
1639.493600  	0.191788 
1641.422416  	0.197686 
1643.351232  	0.202024 
1645.280048  	0.202414 
1647.208864  	0.201195 
1649.137680  	0.203481 
1651.066496  	0.204786 
1652.995312  	0.196765 
1654.924128  	0.196485 
1656.852944  	0.198705 
1658.781760  	0.197393 
1660.710576  	0.193764 
1662.639392  	0.188167 
1664.568208  	0.184452 
1666.497024  	0.182409 
1668.425840  	0.176242 
1670.354656  	0.168510 
1672.283472  	0.165881 
1674.212288  	0.163210 
1676.141104  	0.158196 
1678.069920  	0.157616 
1679.998736  	0.156610 
1681.927552  	0.154914 
1683.856368  	0.149028 
1685.785184  	0.148272 
1687.714000  	0.151307 
1689.642816  	0.151078 
1691.571632  	0.149823 
1693.500448  	0.148964 
1695.429264  	0.144292 
1697.358080  	0.140999 
1699.286896  	0.139210 
1701.215712  	0.134224 
1703.144528  	0.134334 
1705.073344  	0.130533 
1707.002160  	0.124939 
1708.930976  	0.121271 
1710.859792  	0.115569 
1712.788608  	0.108708 
1714.717424  	0.099687 
1716.646240  	0.088132 
1718.575056  	0.074678 
1720.503872  	0.067808 
1722.432688  	0.061411 
1724.361504  	0.052321 
1726.290320  	0.044742 
1728.219136  	0.038320 
1730.147952  	0.032614 
1732.076768  	0.027718 
1734.005584  	0.020723 
1735.934400  	0.016404 
1737.863216  	0.016693 
1739.792032  	0.013100 
1741.720848  	0.011919 
1743.649664  	0.011434 
1745.578480  	0.010622 
1747.507296  	0.008825 
1749.436112  	0.007825 
1751.364928  	0.006900 
1753.293744  	0.006746 
1755.222560  	0.006701 
1757.151376  	0.006024 
1759.080192  	0.005446 
1761.009008  	0.004700 
1762.937824  	0.003235 
1764.866640  	0.003870 
1766.795456  	0.004251 
1768.724272  	0.003695 
1770.653088  	0.001462 
1772.581904  	-0.001156 
1774.510720  	0.000177 
1776.439536  	0.001860 
1778.368352  	0.002204 
1780.297168  	0.001836 
1782.225984  	0.001428 
1784.154800  	0.001893 
1786.083616  	0.001313 
1788.012432  	0.001494 
1789.941248  	0.001542 
1791.870064  	0.000118 
1793.798880  	-0.000880 
1795.727696  	0.000607 
1797.656512  	0.000292 
1799.585328  	0.000091 
1801.514144  	0.000493 
1803.442960  	0.000522 
1805.371776  	-0.000089 
1807.300592  	0.000164 
1809.229408  	-0.000344 
1811.158224  	-0.000700 
1813.087040  	-0.000805 
1815.015856  	-0.000369 
1816.944672  	-0.000385 
1818.873488  	-0.000481 
1820.802304  	-0.000643 
1822.731120  	0.000090 
1824.659936  	-0.000560 
1826.588752  	-0.001120 
1828.517568  	-0.001868 
1830.446384  	-0.002327 
1832.375200  	-0.001418 
1834.304016  	-0.000742 
1836.232832  	-0.000886 
1838.161648  	-0.000837 
1840.090464  	-0.001068 
1842.019280  	-0.000611 
1843.948096  	-0.001943 
1845.876912  	-0.001891 
1847.805728  	-0.001085 
1849.734544  	-0.001061 
1851.663360  	-0.001252 
1853.592176  	-0.001109 
1855.520992  	-0.001296 
1857.449808  	-0.001129 
1859.378624  	-0.001242 
1861.307440  	-0.001156 
1863.236256  	-0.001416 
1865.165072  	-0.001218 
1867.093888  	-0.001693 
1869.022704  	-0.002219 
1870.951520  	-0.002009 
1872.880336  	-0.001404 
1874.809152  	-0.001694 
1876.737968  	-0.001813 
1878.666784  	-0.001946 
1880.595600  	-0.001385 
1882.524416  	-0.001601 
1884.453232  	-0.001703 
1886.382048  	-0.002032 
1888.310864  	-0.001696 
1890.239680  	-0.001915 
1892.168496  	-0.001455 
1894.097312  	-0.001553 
1896.026128  	-0.001725 
1897.954944  	-0.001769 
1899.883760  	-0.001361 
1901.812576  	-0.001733 
1903.741392  	-0.001926 
1905.670208  	-0.002061 
1907.599024  	-0.001612 
1909.527840  	-0.001991 
1911.456656  	-0.001943 
1913.385472  	-0.001862 
1915.314288  	-0.001351 
1917.243104  	-0.001888 
1919.171920  	-0.001927 
1921.100736  	-0.001321 
1923.029552  	-0.000912 
1924.958368  	-0.001830 
1926.887184  	-0.001797 
1928.816000  	-0.002152 
1930.744816  	-0.001986 
1932.673632  	-0.002075 
1934.602448  	-0.001950 
1936.531264  	-0.001941 
1938.460080  	-0.001270 
1940.388896  	-0.001830 
1942.317712  	-0.002284 
1944.246528  	-0.002530 
1946.175344  	-0.001814 
1948.104160  	-0.002750 
1950.032976  	-0.002596 
1951.961792  	-0.002289 
1953.890608  	-0.001692 
1955.819424  	-0.002198 
1957.748240  	-0.001906 
1959.677056  	-0.002742 
1961.605872  	-0.002272 
1963.534688  	-0.002180 
1965.463504  	-0.001109 
1967.392320  	-0.001906 
1969.321136  	-0.002006 
1971.249952  	-0.002506 
1973.178768  	-0.001508 
1975.107584  	-0.001406 
1977.036400  	-0.000886 
1978.965216  	-0.000481 
1980.894032  	-0.000068 
1982.822848  	-0.000232 
1984.751664  	-0.000133 
1986.680480  	-0.001429 
1988.609296  	-0.000661 
1990.538112  	-0.000739 
1992.466928  	-0.000559 
1994.395744  	-0.001515 
1996.324560  	-0.001334 
1998.253376  	-0.001850 
2000.182192  	-0.002561 
2002.111008  	-0.002820 
2004.039824  	-0.001802 
2005.968640  	-0.002016 
2007.897456  	-0.001331 
2009.826272  	-0.001591 
2011.755088  	-0.000873 
2013.683904  	-0.001459 
2015.612720  	-0.001340 
2017.541536  	-0.001813 
2019.470352  	-0.000391 
2021.399168  	-0.000977 
2023.327984  	-0.000938 
2025.256800  	-0.000424 
2027.185616  	0.000735 
2029.114432  	0.000727 
2031.043248  	0.000886 
2032.972064  	-0.000058 
2034.900880  	0.000325 
2036.829696  	-0.000283 
2038.758512  	0.001090 
2040.687328  	0.000896 
2042.616144  	0.000582 
2044.544960  	-0.000140 
2046.473776  	0.000155 
2048.402592  	-0.000052 
2050.331408  	-0.000495 
2052.260224  	-0.001722 
2054.189040  	-0.001726 
2056.117856  	-0.001587 
2058.046672  	-0.001180 
2059.975488  	-0.001590 
2061.904304  	-0.002002 
2063.833120  	-0.001992 
2065.761936  	-0.001316 
2067.690752  	-0.001295 
2069.619568  	-0.001258 
2071.548384  	-0.001202 
2073.477200  	-0.001317 
2075.406016  	-0.001707 
2077.334832  	-0.001174 
2079.263648  	-0.000778 
2081.192464  	-0.000327 
2083.121280  	-0.000484 
2085.050096  	-0.000929 
2086.978912  	-0.001422 
2088.907728  	-0.000855 
2090.836544  	-0.000948 
2092.765360  	-0.001324 
2094.694176  	-0.001261 
2096.622992  	-0.000951 
2098.551808  	-0.001047 
2100.480624  	-0.000555 
2102.409440  	-0.000760 
2104.338256  	-0.000938 
2106.267072  	-0.000639 
2108.195888  	-0.000403 
2110.124704  	-0.000626 
2112.053520  	-0.000226 
2113.982336  	-0.000286 
2115.911152  	-0.000257 
2117.839968  	-0.000708 
2119.768784  	-0.000871 
2121.697600  	-0.001601 
2123.626416  	-0.001518 
2125.555232  	-0.001433 
2127.484048  	-0.001342 
2129.412864  	-0.001463 
2131.341680  	-0.001460 
2133.270496  	-0.002375 
2135.199312  	-0.001817 
2137.128128  	-0.001188 
2139.056944  	-0.000875 
2140.985760  	-0.001476 
2142.914576  	-0.001406 
2144.843392  	-0.000987 
2146.772208  	-0.000536 
2148.701024  	-0.000774 
2150.629840  	-0.000383 
2152.558656  	-0.000625 
2154.487472  	-0.000502 
2156.416288  	-0.001522 
2158.345104  	-0.000657 
2160.273920  	0.001588 
2162.202736  	0.002639 
2164.131552  	0.001180 
2166.060368  	0.000579 
2167.989184  	0.000488 
2169.918000  	0.001504 
2171.846816  	0.000813 
2173.775632  	0.000850 
2175.704448  	0.001212 
2177.633264  	0.001389 
2179.562080  	0.000912 
2181.490896  	0.001044 
2183.419712  	-0.000422 
2185.348528  	-0.000542 
2187.277344  	-0.000085 
2189.206160  	0.000416 
2191.134976  	0.000399 
2193.063792  	0.000161 
2194.992608  	-0.000385 
2196.921424  	0.000125 
2198.850240  	0.000576 
2200.779056  	0.000501 
2202.707872  	-0.000265 
2204.636688  	-0.000293 
2206.565504  	0.000489 
2208.494320  	0.000653 
2210.423136  	-0.000477 
2212.351952  	-0.000740 
2214.280768  	-0.000981 
2216.209584  	-0.000503 
2218.138400  	-0.000778 
2220.067216  	-0.000433 
2221.996032  	-0.000337 
2223.924848  	-0.000178 
2225.853664  	-0.000232 
2227.782480  	0.000038 
2229.711296  	-0.000824 
2231.640112  	-0.001672 
2233.568928  	-0.001543 
2235.497744  	-0.001043 
2237.426560  	-0.000922 
2239.355376  	-0.000885 
2241.284192  	-0.001192 
2243.213008  	-0.001265 
2245.141824  	-0.001315 
2247.070640  	-0.000659 
2248.999456  	-0.000729 
2250.928272  	-0.001316 
2252.857088  	-0.001750 
2254.785904  	-0.001417 
2256.714720  	-0.001553 
2258.643536  	-0.001814 
2260.572352  	-0.002519 
2262.501168  	-0.002597 
2264.429984  	-0.002328 
2266.358800  	-0.001980 
2268.287616  	-0.002086 
2270.216432  	-0.002142 
2272.145248  	-0.001966 
2274.074064  	-0.001761 
2276.002880  	-0.001888 
2277.931696  	-0.001551 
2279.860512  	-0.001214 
2281.789328  	-0.000951 
2283.718144  	-0.001010 
2285.646960  	-0.000864 
2287.575776  	-0.000704 
2289.504592  	-0.000816 
2291.433408  	-0.001166 
2293.362224  	-0.001231 
2295.291040  	-0.000989 
2297.219856  	-0.000555 
2299.148672  	-0.000435 
2301.077488  	-0.000355 
2303.006304  	-0.000667 
2304.935120  	-0.000675 
2306.863936  	-0.000469 
2308.792752  	-0.000497 
2310.721568  	-0.000906 
2312.650384  	-0.001254 
2314.579200  	-0.001915 
2316.508016  	-0.002551 
2318.436832  	-0.003426 
2320.365648  	-0.004603 
2322.294464  	-0.005912 
2324.223280  	-0.007157 
2326.152096  	-0.008996 
2328.080912  	-0.010953 
2330.009728  	-0.012697 
2331.938544  	-0.013968 
2333.867360  	-0.015290 
2335.796176  	-0.016529 
2337.724992  	-0.017406 
2339.653808  	-0.017251 
2341.582624  	-0.017444 
2343.511440  	-0.016670 
2345.440256  	-0.014449 
2347.369072  	-0.010310 
2349.297888  	-0.007760 
2351.226704  	-0.009856 
2353.155520  	-0.014869 
2355.084336  	-0.018670 
2357.013152  	-0.021741 
2358.941968  	-0.023480 
2360.870784  	-0.024603 
2362.799600  	-0.023652 
2364.728416  	-0.021981 
2366.657232  	-0.019834 
2368.586048  	-0.016916 
2370.514864  	-0.013853 
2372.443680  	-0.010926 
2374.372496  	-0.007788 
2376.301312  	-0.005190 
2378.230128  	-0.003236 
2380.158944  	-0.002146 
2382.087760  	-0.001522 
2384.016576  	-0.001537 
2385.945392  	-0.001815 
2387.874208  	-0.002006 
2389.803024  	-0.002177 
2391.731840  	-0.002445 
2393.660656  	-0.002505 
2395.589472  	-0.002415 
2397.518288  	-0.002263 
2399.447104  	-0.002431 
2401.375920  	-0.002516 
2403.304736  	-0.002559 
2405.233552  	-0.002550 
2407.162368  	-0.002651 
2409.091184  	-0.002397 
2411.020000  	-0.002224 
2412.948816  	-0.002194 
2414.877632  	-0.002130 
2416.806448  	-0.002055 
2418.735264  	-0.002215 
2420.664080  	-0.002376 
2422.592896  	-0.002421 
2424.521712  	-0.002294 
2426.450528  	-0.002460 
2428.379344  	-0.002511 
2430.308160  	-0.002366 
2432.236976  	-0.002233 
2434.165792  	-0.002215 
2436.094608  	-0.002275 
2438.023424  	-0.002144 
2439.952240  	-0.001823 
2441.881056  	-0.001923 
2443.809872  	-0.002023 
2445.738688  	-0.001819 
2447.667504  	-0.001629 
2449.596320  	-0.001650 
2451.525136  	-0.001487 
2453.453952  	-0.001519 
2455.382768  	-0.001755 
2457.311584  	-0.001872 
2459.240400  	-0.001771 
2461.169216  	-0.001783 
2463.098032  	-0.001998 
2465.026848  	-0.002001 
2466.955664  	-0.001895 
2468.884480  	-0.002131 
2470.813296  	-0.002041 
2472.742112  	-0.002022 
2474.670928  	-0.002085 
2476.599744  	-0.002004 
2478.528560  	-0.001846 
2480.457376  	-0.001968 
2482.386192  	-0.001938 
2484.315008  	-0.001698 
2486.243824  	-0.001657 
2488.172640  	-0.001673 
2490.101456  	-0.001399 
2492.030272  	-0.001230 
2493.959088  	-0.001160 
2495.887904  	-0.001241 
2497.816720  	-0.001237 
2499.745536  	-0.001136 
2501.674352  	-0.000984 
2503.603168  	-0.000784 
2505.531984  	-0.000759 
2507.460800  	-0.000954 
2509.389616  	-0.000897 
2511.318432  	-0.000904 
2513.247248  	-0.000701 
2515.176064  	-0.000603 
2517.104880  	-0.000686 
2519.033696  	-0.000753 
2520.962512  	-0.000788 
2522.891328  	-0.000850 
2524.820144  	-0.000849 
2526.748960  	-0.000639 
2528.677776  	-0.000339 
2530.606592  	-0.000464 
2532.535408  	-0.000561 
2534.464224  	-0.000506 
2536.393040  	-0.000466 
2538.321856  	-0.000464 
2540.250672  	-0.000291 
2542.179488  	-0.000207 
2544.108304  	-0.000173 
2546.037120  	-0.000125 
2547.965936  	-0.000021 
2549.894752  	-0.000059 
2551.823568  	-0.000216 
2553.752384  	-0.000024 
2555.681200  	0.000462 
2557.610016  	0.000458 
2559.538832  	0.000580 
2561.467648  	0.000827 
2563.396464  	0.000829 
2565.325280  	0.000816 
2567.254096  	0.000860 
2569.182912  	0.000833 
2571.111728  	0.000782 
2573.040544  	0.000822 
2574.969360  	0.001173 
2576.898176  	0.001466 
2578.826992  	0.001369 
2580.755808  	0.001248 
2582.684624  	0.001324 
2584.613440  	0.001371 
2586.542256  	0.001378 
2588.471072  	0.001514 
2590.399888  	0.001691 
2592.328704  	0.001711 
2594.257520  	0.001659 
2596.186336  	0.001702 
2598.115152  	0.001823 
2600.043968  	0.001856 
2601.972784  	0.002008 
2603.901600  	0.002202 
2605.830416  	0.002375 
2607.759232  	0.002372 
2609.688048  	0.002368 
2611.616864  	0.002626 
2613.545680  	0.002893 
2615.474496  	0.002952 
2617.403312  	0.003019 
2619.332128  	0.003117 
2621.260944  	0.003128 
2623.189760  	0.003124 
2625.118576  	0.003228 
2627.047392  	0.003255 
2628.976208  	0.003360 
2630.905024  	0.003450 
2632.833840  	0.003530 
2634.762656  	0.003692 
2636.691472  	0.003773 
2638.620288  	0.003815 
2640.549104  	0.003982 
2642.477920  	0.004089 
2644.406736  	0.004208 
2646.335552  	0.004357 
2648.264368  	0.004453 
2650.193184  	0.004462 
2652.122000  	0.004491 
2654.050816  	0.004621 
2655.979632  	0.004789 
2657.908448  	0.004939 
2659.837264  	0.005064 
2661.766080  	0.005130 
2663.694896  	0.005225 
2665.623712  	0.005268 
2667.552528  	0.005422 
2669.481344  	0.005618 
2671.410160  	0.005748 
2673.338976  	0.005761 
2675.267792  	0.005888 
2677.196608  	0.006067 
2679.125424  	0.006177 
2681.054240  	0.006298 
2682.983056  	0.006404 
2684.911872  	0.006464 
2686.840688  	0.006603 
2688.769504  	0.006782 
2690.698320  	0.006883 
2692.627136  	0.006892 
2694.555952  	0.006974 
2696.484768  	0.007048 
2698.413584  	0.007092 
2700.342400  	0.007186 
2702.271216  	0.007408 
2704.200032  	0.007562 
2706.128848  	0.007587 
2708.057664  	0.007574 
2709.986480  	0.007640 
2711.915296  	0.007733 
2713.844112  	0.007980 
2715.772928  	0.008132 
2717.701744  	0.008217 
2719.630560  	0.008382 
2721.559376  	0.008515 
2723.488192  	0.008645 
2725.417008  	0.008826 
2727.345824  	0.008950 
2729.274640  	0.009160 
2731.203456  	0.009359 
2733.132272  	0.009479 
2735.061088  	0.009570 
2736.989904  	0.009651 
2738.918720  	0.009713 
2740.847536  	0.009741 
2742.776352  	0.009780 
2744.705168  	0.009879 
2746.633984  	0.010015 
2748.562800  	0.010144 
2750.491616  	0.010285 
2752.420432  	0.010397 
2754.349248  	0.010319 
2756.278064  	0.010230 
2758.206880  	0.010144 
2760.135696  	0.010186 
2762.064512  	0.010198 
2763.993328  	0.010169 
2765.922144  	0.010210 
2767.850960  	0.010305 
2769.779776  	0.010283 
2771.708592  	0.010303 
2773.637408  	0.010266 
2775.566224  	0.010202 
2777.495040  	0.010111 
2779.423856  	0.010139 
2781.352672  	0.010228 
2783.281488  	0.010218 
2785.210304  	0.010167 
2787.139120  	0.010174 
2789.067936  	0.010234 
2790.996752  	0.010264 
2792.925568  	0.010134 
2794.854384  	0.010076 
2796.783200  	0.010038 
2798.712016  	0.009942 
2800.640832  	0.009914 
2802.569648  	0.010090 
2804.498464  	0.010191 
2806.427280  	0.010157 
2808.356096  	0.010090 
2810.284912  	0.010065 
2812.213728  	0.009958 
2814.142544  	0.009928 
2816.071360  	0.009852 
2818.000176  	0.009654 
2819.928992  	0.009612 
2821.857808  	0.009612 
2823.786624  	0.009517 
2825.715440  	0.009373 
2827.644256  	0.009200 
2829.573072  	0.009053 
2831.501888  	0.008812 
2833.430704  	0.008434 
2835.359520  	0.008106 
2837.288336  	0.007814 
2839.217152  	0.007455 
2841.145968  	0.007198 
2843.074784  	0.006922 
2845.003600  	0.006452 
2846.932416  	0.006019 
2848.861232  	0.005720 
2850.790048  	0.005302 
2852.718864  	0.004725 
2854.647680  	0.004187 
2856.576496  	0.003645 
2858.505312  	0.002993 
2860.434128  	0.002369 
2862.362944  	0.001669 
2864.291760  	0.000919 
2866.220576  	0.000317 
2868.149392  	0.000091 
2870.078208  	-0.000101 
2872.007024  	-0.000219 
2873.935840  	-0.000228 
2875.864656  	-0.000316 
2877.793472  	-0.000452 
2879.722288  	-0.000624 
2881.651104  	-0.000962 
2883.579920  	-0.001233 
2885.508736  	-0.001017 
2887.437552  	-0.000690 
2889.366368  	-0.000674 
2891.295184  	-0.000908 
2893.224000  	-0.001079 
2895.152816  	-0.000994 
2897.081632  	-0.001331 
2899.010448  	-0.003122 
2900.939264  	-0.004719 
2902.868080  	-0.003435 
2904.796896  	-0.002020 
2906.725712  	-0.001438 
2908.654528  	-0.000859 
2910.583344  	-0.000502 
2912.512160  	0.000128 
2914.440976  	0.001275 
2916.369792  	0.002083 
2918.298608  	0.002538 
2920.227424  	0.002928 
2922.156240  	0.003549 
2924.085056  	0.004372 
2926.013872  	0.005350 
2927.942688  	0.006328 
2929.871504  	0.007324 
2931.800320  	0.008263 
2933.729136  	0.009112 
2935.657952  	0.009754 
2937.586768  	0.010400 
2939.515584  	0.011097 
2941.444400  	0.011464 
2943.373216  	0.011559 
2945.302032  	0.011841 
2947.230848  	0.012020 
2949.159664  	0.011727 
2951.088480  	0.011243 
2953.017296  	0.010843 
2954.946112  	0.010231 
2956.874928  	0.009469 
2958.803744  	0.008597 
2960.732560  	0.008045 
2962.661376  	0.007564 
2964.590192  	0.006581 
2966.519008  	0.005304 
2968.447824  	0.004299 
2970.376640  	0.003527 
2972.305456  	0.002919 
2974.234272  	0.003155 
2976.163088  	0.003533 
2978.091904  	0.003464 
2980.020720  	0.003361 
2981.949536  	0.003673 
2983.878352  	0.003665 
2985.807168  	0.002724 
2987.735984  	0.001604 
2989.664800  	0.001867 
2991.593616  	0.004996 
2993.522432  	0.007065 
2995.451248  	0.007670 
2997.380064  	0.008456 
2999.308880  	0.009731 
3001.237696  	0.011169 
3003.166512  	0.012709 
3005.095328  	0.014084 
3007.024144  	0.015420 
3008.952960  	0.016942 
3010.881776  	0.018420 
3012.810592  	0.019751 
3014.739408  	0.021081 
3016.668224  	0.022380 
3018.597040  	0.023679 
3020.525856  	0.024950 
3022.454672  	0.026081 
3024.383488  	0.027239 
3026.312304  	0.028346 
3028.241120  	0.029368 
3030.169936  	0.030271 
3032.098752  	0.031076 
3034.027568  	0.031847 
3035.956384  	0.032798 
3037.885200  	0.033730 
3039.814016  	0.034441 
3041.742832  	0.035076 
3043.671648  	0.035694 
3045.600464  	0.036386 
3047.529280  	0.036852 
3049.458096  	0.037436 
3051.386912  	0.038316 
3053.315728  	0.039000 
3055.244544  	0.039495 
3057.173360  	0.040084 
3059.102176  	0.040639 
3061.030992  	0.041388 
3062.959808  	0.042252 
3064.888624  	0.042992 
3066.817440  	0.043676 
3068.746256  	0.044465 
3070.675072  	0.045323 
3072.603888  	0.046093 
3074.532704  	0.046853 
3076.461520  	0.047691 
3078.390336  	0.048504 
3080.319152  	0.049224 
3082.247968  	0.050074 
3084.176784  	0.050970 
3086.105600  	0.051964 
3088.034416  	0.052729 
3089.963232  	0.053470 
3091.892048  	0.054242 
3093.820864  	0.054977 
3095.749680  	0.055741 
3097.678496  	0.056637 
3099.607312  	0.057642 
3101.536128  	0.058710 
3103.464944  	0.059741 
3105.393760  	0.060530 
3107.322576  	0.061237 
3109.251392  	0.061988 
3111.180208  	0.062765 
3113.109024  	0.063517 
3115.037840  	0.064205 
3116.966656  	0.064914 
3118.895472  	0.065585 
3120.824288  	0.066312 
3122.753104  	0.067112 
3124.681920  	0.067672 
3126.610736  	0.068210 
3128.539552  	0.069047 
3130.468368  	0.069840 
3132.397184  	0.070430 
3134.326000  	0.071236 
3136.254816  	0.071972 
3138.183632  	0.072578 
3140.112448  	0.073154 
3142.041264  	0.073839 
3143.970080  	0.074450 
3145.898896  	0.074952 
3147.827712  	0.075568 
3149.756528  	0.076203 
3151.685344  	0.076853 
3153.614160  	0.077759 
3155.542976  	0.078641 
3157.471792  	0.079367 
3159.400608  	0.080071 
3161.329424  	0.080694 
3163.258240  	0.081247 
3165.187056  	0.081840 
3167.115872  	0.082331 
3169.044688  	0.082734 
3170.973504  	0.083322 
3172.902320  	0.083942 
3174.831136  	0.084430 
3176.759952  	0.084887 
3178.688768  	0.085293 
3180.617584  	0.085667 
3182.546400  	0.086033 
3184.475216  	0.086319 
3186.404032  	0.086369 
3188.332848  	0.086555 
3190.261664  	0.086908 
3192.190480  	0.087286 
3194.119296  	0.087178 
3196.048112  	0.087148 
3197.976928  	0.087274 
3199.905744  	0.087379 
3201.834560  	0.087366 
3203.763376  	0.087441 
3205.692192  	0.087429 
3207.621008  	0.087181 
3209.549824  	0.086953 
3211.478640  	0.086928 
3213.407456  	0.086881 
3215.336272  	0.086718 
3217.265088  	0.086617 
3219.193904  	0.086503 
3221.122720  	0.086366 
3223.051536  	0.086263 
3224.980352  	0.086072 
3226.909168  	0.085955 
3228.837984  	0.085786 
3230.766800  	0.085722 
3232.695616  	0.085788 
3234.624432  	0.085685 
3236.553248  	0.085531 
3238.482064  	0.085472 
3240.410880  	0.085491 
3242.339696  	0.085640 
3244.268512  	0.085427 
3246.197328  	0.085494 
3248.126144  	0.085936 
3250.054960  	0.086161 
3251.983776  	0.086377 
3253.912592  	0.086575 
3255.841408  	0.086778 
3257.770224  	0.087089 
3259.699040  	0.087341 
3261.627856  	0.087657 
3263.556672  	0.087892 
3265.485488  	0.088041 
3267.414304  	0.088272 
3269.343120  	0.088642 
3271.271936  	0.089071 
3273.200752  	0.089236 
3275.129568  	0.089413 
3277.058384  	0.089737 
3278.987200  	0.089847 
3280.916016  	0.090078 
3282.844832  	0.090307 
3284.773648  	0.090467 
3286.702464  	0.090618 
3288.631280  	0.090929 
3290.560096  	0.091276 
3292.488912  	0.091688 
3294.417728  	0.092012 
3296.346544  	0.092290 
3298.275360  	0.092581 
3300.204176  	0.093033 
3302.132992  	0.093494 
3304.061808  	0.093865 
3305.990624  	0.094159 
3307.919440  	0.094392 
3309.848256  	0.094694 
3311.777072  	0.095068 
3313.705888  	0.095515 
3315.634704  	0.096098 
3317.563520  	0.096450 
3319.492336  	0.096742 
3321.421152  	0.096966 
3323.349968  	0.097108 
3325.278784  	0.097400 
3327.207600  	0.097665 
3329.136416  	0.097696 
3331.065232  	0.097847 
3332.994048  	0.098039 
3334.922864  	0.098294 
3336.851680  	0.098333 
3338.780496  	0.098013 
3340.709312  	0.097858 
3342.638128  	0.097842 
3344.566944  	0.097368 
3346.495760  	0.097058 
3348.424576  	0.096788 
3350.353392  	0.096550 
3352.282208  	0.096492 
3354.211024  	0.096224 
3356.139840  	0.095918 
3358.068656  	0.095679 
3359.997472  	0.095280 
3361.926288  	0.094850 
3363.855104  	0.094421 
3365.783920  	0.094063 
3367.712736  	0.093688 
3369.641552  	0.093231 
3371.570368  	0.092797 
3373.499184  	0.092436 
3375.428000  	0.092057 
3377.356816  	0.091708 
3379.285632  	0.091380 
3381.214448  	0.090918 
3383.143264  	0.090462 
3385.072080  	0.090105 
3387.000896  	0.089685 
3388.929712  	0.089269 
3390.858528  	0.089058 
3392.787344  	0.088710 
3394.716160  	0.088210 
3396.644976  	0.087920 
3398.573792  	0.087442 
3400.502608  	0.086860 
3402.431424  	0.086362 
3404.360240  	0.085879 
3406.289056  	0.085149 
3408.217872  	0.084657 
3410.146688  	0.084148 
3412.075504  	0.083826 
3414.004320  	0.083373 
3415.933136  	0.083070 
3417.861952  	0.082505 
3419.790768  	0.081776 
3421.719584  	0.081096 
3423.648400  	0.080593 
3425.577216  	0.079989 
3427.506032  	0.079373 
3429.434848  	0.078949 
3431.363664  	0.078450 
3433.292480  	0.077797 
3435.221296  	0.077251 
3437.150112  	0.076719 
3439.078928  	0.076173 
3441.007744  	0.075590 
3442.936560  	0.075066 
3444.865376  	0.074548 
3446.794192  	0.073540 
3448.723008  	0.072619 
3450.651824  	0.072128 
3452.580640  	0.071532 
3454.509456  	0.071189 
3456.438272  	0.070618 
3458.367088  	0.069780 
3460.295904  	0.068944 
3462.224720  	0.068112 
3464.153536  	0.067269 
3466.082352  	0.066454 
3468.011168  	0.065407 
3469.939984  	0.064685 
3471.868800  	0.064049 
3473.797616  	0.063256 
3475.726432  	0.062497 
3477.655248  	0.061757 
3479.584064  	0.061136 
3481.512880  	0.060301 
3483.441696  	0.059198 
3485.370512  	0.058463 
3487.299328  	0.057477 
3489.228144  	0.056612 
3491.156960  	0.055864 
3493.085776  	0.055052 
3495.014592  	0.054165 
3496.943408  	0.053394 
3498.872224  	0.052839 
3500.801040  	0.052686 
3502.729856  	0.051827 
3504.658672  	0.050483 
3506.587488  	0.049976 
3508.516304  	0.049684 
3510.445120  	0.048609 
3512.373936  	0.047600 
3514.302752  	0.047034 
3516.231568  	0.046735 
3518.160384  	0.046194 
3520.089200  	0.045407 
3522.018016  	0.044801 
3523.946832  	0.044493 
3525.875648  	0.043748 
3527.804464  	0.042431 
3529.733280  	0.041640 
3531.662096  	0.041285 
3533.590912  	0.040678 
3535.519728  	0.040179 
3537.448544  	0.039586 
3539.377360  	0.038740 
3541.306176  	0.038266 
3543.234992  	0.038276 
3545.163808  	0.038094 
3547.092624  	0.036998 
3549.021440  	0.035735 
3550.950256  	0.035045 
3552.879072  	0.034064 
3554.807888  	0.033535 
3556.736704  	0.033054 
3558.665520  	0.032655 
3560.594336  	0.032145 
3562.523152  	0.031310 
3564.451968  	0.031069 
3566.380784  	0.030777 
3568.309600  	0.028879 
3570.238416  	0.028019 
3572.167232  	0.027646 
3574.096048  	0.026785 
3576.024864  	0.025940 
3577.953680  	0.025548 
3579.882496  	0.025026 
3581.811312  	0.024398 
3583.740128  	0.023759 
3585.668944  	0.023587 
3587.597760  	0.022332 
3589.526576  	0.020721 
3591.455392  	0.020195 
3593.384208  	0.019588 
3595.313024  	0.018434 
3597.241840  	0.017191 
3599.170656  	0.016009 
3601.099472  	0.015187 
3603.028288  	0.014990 
3604.957104  	0.014900 
3606.885920  	0.014178 
3608.814736  	0.012750 
3610.743552  	0.012107 
3612.672368  	0.011087 
3614.601184  	0.009695 
3616.530000  	0.009515 
3618.458816  	0.007730 
3620.387632  	0.005944 
3622.316448  	0.006074 
3624.245264  	0.006083 
3626.174080  	0.005589 
3628.102896  	0.003204 
3630.031712  	-0.000072 
3631.960528  	0.001240 
3633.889344  	0.001250 
3635.818160  	0.000506 
3637.746976  	-0.000248 
3639.675792  	-0.000661 
3641.604608  	-0.001149 
3643.533424  	-0.001879 
3645.462240  	-0.002810 
3647.391056  	-0.005933 
3649.319872  	-0.010403 
3651.248688  	-0.011302 
3653.177504  	-0.008659 
3655.106320  	-0.008683 
3657.035136  	-0.011136 
3658.963952  	-0.010929 
3660.892768  	-0.010835 
3662.821584  	-0.011127 
3664.750400  	-0.011103 
3666.679216  	-0.011365 
3668.608032  	-0.013528 
3670.536848  	-0.016809 
3672.465664  	-0.015401 
3674.394480  	-0.016019 
3676.323296  	-0.019829 
3678.252112  	-0.016488 
3680.180928  	-0.014438 
3682.109744  	-0.013886 
3684.038560  	-0.014097 
3685.967376  	-0.014244 
3687.896192  	-0.016563 
3689.825008  	-0.019262 
3691.753824  	-0.017829 
3693.682640  	-0.015621 
3695.611456  	-0.014401 
3697.540272  	-0.013471 
3699.469088  	-0.012852 
3701.397904  	-0.013737 
3703.326720  	-0.013644 
3705.255536  	-0.012309 
3707.184352  	-0.011721 
3709.113168  	-0.013197 
3711.041984  	-0.015542 
3712.970800  	-0.014447 
3714.899616  	-0.011658 
3716.828432  	-0.010810 
3718.757248  	-0.011216 
3720.686064  	-0.011679 
3722.614880  	-0.012176 
3724.543696  	-0.011928 
3726.472512  	-0.011938 
3728.401328  	-0.011886 
3730.330144  	-0.012357 
3732.258960  	-0.014017 
3734.187776  	-0.014129 
3736.116592  	-0.014851 
3738.045408  	-0.014281 
3739.974224  	-0.012375 
3741.903040  	-0.011146 
3743.831856  	-0.012830 
3745.760672  	-0.015384 
3747.689488  	-0.013655 
3749.618304  	-0.015559 
3751.547120  	-0.017214 
3753.475936  	-0.015010 
3755.404752  	-0.012529 
3757.333568  	-0.011976 
3759.262384  	-0.012469 
3761.191200  	-0.012152 
3763.120016  	-0.010649 
3765.048832  	-0.011076 
3766.977648  	-0.011364 
3768.906464  	-0.011885 
3770.835280  	-0.012606 
3772.764096  	-0.011201 
3774.692912  	-0.010341 
3776.621728  	-0.010291 
3778.550544  	-0.011482 
3780.479360  	-0.012455 
3782.408176  	-0.011125 
3784.336992  	-0.010984 
3786.265808  	-0.010972 
3788.194624  	-0.010543 
3790.123440  	-0.010545 
3792.052256  	-0.010618 
3793.981072  	-0.010668 
3795.909888  	-0.011787 
3797.838704  	-0.012064 
3799.767520  	-0.012359 
3801.696336  	-0.015591 
3803.625152  	-0.014142 
3805.553968  	-0.012695 
3807.482784  	-0.013971 
3809.411600  	-0.012050 
3811.340416  	-0.010483 
3813.269232  	-0.010408 
3815.198048  	-0.012675 
3817.126864  	-0.014257 
3819.055680  	-0.013116 
3820.984496  	-0.015654 
3822.913312  	-0.014675 
3824.842128  	-0.011945 
3826.770944  	-0.011990 
3828.699760  	-0.011538 
3830.628576  	-0.011679 
3832.557392  	-0.012459 
3834.486208  	-0.012526 
3836.415024  	-0.013577 
3838.343840  	-0.015050 
3840.272656  	-0.014504 
3842.201472  	-0.012968 
3844.130288  	-0.012369 
3846.059104  	-0.011242 
3847.987920  	-0.010447 
3849.916736  	-0.010700 
3851.845552  	-0.012785 
3853.774368  	-0.017415 
3855.703184  	-0.015092 
3857.632000  	-0.012137 
3859.560816  	-0.010867 
3861.489632  	-0.011037 
3863.418448  	-0.012038 
3865.347264  	-0.012609 
3867.276080  	-0.011315 
3869.204896  	-0.012028 
3871.133712  	-0.012768 
3873.062528  	-0.011679 
3874.991344  	-0.012058 
3876.920160  	-0.010641 
3878.848976  	-0.009934 
3880.777792  	-0.010898 
3882.706608  	-0.010435 
3884.635424  	-0.010378 
3886.564240  	-0.011570 
3888.493056  	-0.010661 
3890.421872  	-0.010922 
3892.350688  	-0.012093 
3894.279504  	-0.011002 
3896.208320  	-0.009926 
3898.137136  	-0.009801 
3900.065952  	-0.010540 
3901.994768  	-0.010645 
3903.923584  	-0.011363 
3905.852400  	-0.011662 
3907.781216  	-0.010763 
3909.710032  	-0.010262 
3911.638848  	-0.010107 
3913.567664  	-0.009996 
3915.496480  	-0.009693 
3917.425296  	-0.010000 
3919.354112  	-0.010488 
3921.282928  	-0.010364 
3923.211744  	-0.009770 
3925.140560  	-0.009819 
3927.069376  	-0.009964 
3928.998192  	-0.009917 
3930.927008  	-0.009630 
3932.855824  	-0.009722 
3934.784640  	-0.010069 
3936.713456  	-0.009998 
3938.642272  	-0.009760 
3940.571088  	-0.009368 
3942.499904  	-0.009442 
3944.428720  	-0.009885 
3946.357536  	-0.009599 
3948.286352  	-0.009390 
3950.215168  	-0.009856 
3952.143984  	-0.010089 
3954.072800  	-0.009976 
3956.001616  	-0.009803 
3957.930432  	-0.009905 
3959.859248  	-0.009904 
3961.788064  	-0.009737 
3963.716880  	-0.010038 
3965.645696  	-0.010272 
3967.574512  	-0.010075 
3969.503328  	-0.009810 
3971.432144  	-0.009952 
3973.360960  	-0.010024 
3975.289776  	-0.010056 
3977.218592  	-0.009995 
3979.147408  	-0.009933 
3981.076224  	-0.010011 
3983.005040  	-0.009953 
3984.933856  	-0.009926 
3986.862672  	-0.009986 
3988.791488  	-0.009807 
3990.720304  	-0.009732 
3992.649120  	-0.009863 
3994.577936  	-0.009963 
3996.506752  	-0.010017 
3998.435568  	-0.010008 
4000.364384  	-0.010000 