##TITLE=No Description
##DATA TYPE=INFRARED SPECTRUM
##XUNITS=1/CM
##YUNITS=Abs
399.264912  	0.640733 
401.193728  	0.614525 
403.122544  	0.619494 
405.051360  	0.613724 
406.980176  	0.612547 
408.908992  	0.612218 
410.837808  	0.617650 
412.766624  	0.604828 
414.695440  	0.600745 
416.624256  	0.586671 
418.553072  	0.581210 
420.481888  	0.568577 
422.410704  	0.569510 
424.339520  	0.575105 
426.268336  	0.576170 
428.197152  	0.575752 
430.125968  	0.578565 
432.054784  	0.572525 
433.983600  	0.573103 
435.912416  	0.568397 
437.841232  	0.564889 
439.770048  	0.559176 
441.698864  	0.558418 
443.627680  	0.555335 
445.556496  	0.558774 
447.485312  	0.550801 
449.414128  	0.546925 
451.342944  	0.552837 
453.271760  	0.557788 
455.200576  	0.553867 
457.129392  	0.558799 
459.058208  	0.556177 
460.987024  	0.554990 
462.915840  	0.549492 
464.844656  	0.549961 
466.773472  	0.546732 
468.702288  	0.544756 
470.631104  	0.541533 
472.559920  	0.545611 
474.488736  	0.543594 
476.417552  	0.547365 
478.346368  	0.542938 
480.275184  	0.539997 
482.204000  	0.535854 
484.132816  	0.533408 
486.061632  	0.535949 
487.990448  	0.542609 
489.919264  	0.537381 
491.848080  	0.533478 
493.776896  	0.525768 
495.705712  	0.523171 
497.634528  	0.523003 
499.563344  	0.525426 
501.492160  	0.522606 
503.420976  	0.524387 
505.349792  	0.526209 
507.278608  	0.529068 
509.207424  	0.527511 
511.136240  	0.526016 
513.065056  	0.524906 
514.993872  	0.528197 
516.922688  	0.530104 
518.851504  	0.532396 
520.780320  	0.530410 
522.709136  	0.530106 
524.637952  	0.528739 
526.566768  	0.526660 
528.495584  	0.523093 
530.424400  	0.523551 
532.353216  	0.520176 
534.282032  	0.515908 
536.210848  	0.510988 
538.139664  	0.506335 
540.068480  	0.500679 
541.997296  	0.497130 
543.926112  	0.491857 
545.854928  	0.489494 
547.783744  	0.485743 
549.712560  	0.482125 
551.641376  	0.478324 
553.570192  	0.476185 
555.499008  	0.472955 
557.427824  	0.469409 
559.356640  	0.464115 
561.285456  	0.461922 
563.214272  	0.458707 
565.143088  	0.455564 
567.071904  	0.452254 
569.000720  	0.449871 
570.929536  	0.445858 
572.858352  	0.442625 
574.787168  	0.439465 
576.715984  	0.438403 
578.644800  	0.435383 
580.573616  	0.432300 
582.502432  	0.427325 
584.431248  	0.424150 
586.360064  	0.420694 
588.288880  	0.418301 
590.217696  	0.415350 
592.146512  	0.413099 
594.075328  	0.410519 
596.004144  	0.407423 
597.932960  	0.404873 
599.861776  	0.404243 
601.790592  	0.402555 
603.719408  	0.400930 
605.648224  	0.398876 
607.577040  	0.397441 
609.505856  	0.395537 
611.434672  	0.394448 
613.363488  	0.392486 
615.292304  	0.390858 
617.221120  	0.388915 
619.149936  	0.387166 
621.078752  	0.385330 
623.007568  	0.384712 
624.936384  	0.383220 
626.865200  	0.380823 
628.794016  	0.378948 
630.722832  	0.378555 
632.651648  	0.378000 
634.580464  	0.377521 
636.509280  	0.376810 
638.438096  	0.376106 
640.366912  	0.374523 
642.295728  	0.373069 
644.224544  	0.370279 
646.153360  	0.367360 
648.082176  	0.362973 
650.010992  	0.359186 
651.939808  	0.355692 
653.868624  	0.352945 
655.797440  	0.348949 
657.726256  	0.344895 
659.655072  	0.341379 
661.583888  	0.337924 
663.512704  	0.334230 
665.441520  	0.330820 
667.370336  	0.324149 
669.299152  	0.318642 
671.227968  	0.316963 
673.156784  	0.313955 
675.085600  	0.311338 
677.014416  	0.308793 
678.943232  	0.306452 
680.872048  	0.304649 
682.800864  	0.302821 
684.729680  	0.300815 
686.658496  	0.298972 
688.587312  	0.298082 
690.516128  	0.296618 
692.444944  	0.295285 
694.373760  	0.293569 
696.302576  	0.291455 
698.231392  	0.288875 
700.160208  	0.286455 
702.089024  	0.284218 
704.017840  	0.282126 
705.946656  	0.279564 
707.875472  	0.277320 
709.804288  	0.275056 
711.733104  	0.272896 
713.661920  	0.270426 
715.590736  	0.268839 
717.519552  	0.268079 
719.448368  	0.267364 
721.377184  	0.266839 
723.306000  	0.266989 
725.234816  	0.266980 
727.163632  	0.266533 
729.092448  	0.264185 
731.021264  	0.260625 
732.950080  	0.257446 
734.878896  	0.254733 
736.807712  	0.252009 
738.736528  	0.249575 
740.665344  	0.246983 
742.594160  	0.245007 
744.522976  	0.243412 
746.451792  	0.241902 
748.380608  	0.240044 
750.309424  	0.238536 
752.238240  	0.237239 
754.167056  	0.235999 
756.095872  	0.234387 
758.024688  	0.233115 
759.953504  	0.232335 
761.882320  	0.232525 
763.811136  	0.232715 
765.739952  	0.231628 
767.668768  	0.229043 
769.597584  	0.226114 
771.526400  	0.224328 
773.455216  	0.224834 
775.384032  	0.226915 
777.312848  	0.230454 
779.241664  	0.233743 
781.170480  	0.234009 
783.099296  	0.230493 
785.028112  	0.225122 
786.956928  	0.219238 
788.885744  	0.214649 
790.814560  	0.211364 
792.743376  	0.208568 
794.672192  	0.206692 
796.601008  	0.205744 
798.529824  	0.203312 
800.458640  	0.199232 
802.387456  	0.195733 
804.316272  	0.193699 
806.245088  	0.191806 
808.173904  	0.190358 
810.102720  	0.189644 
812.031536  	0.189105 
813.960352  	0.188665 
815.889168  	0.188182 
817.817984  	0.187959 
819.746800  	0.187726 
821.675616  	0.187141 
823.604432  	0.186671 
825.533248  	0.186096 
827.462064  	0.185400 
829.390880  	0.184269 
831.319696  	0.182940 
833.248512  	0.181029 
835.177328  	0.178797 
837.106144  	0.176402 
839.034960  	0.173513 
840.963776  	0.170012 
842.892592  	0.166695 
844.821408  	0.163386 
846.750224  	0.160299 
848.679040  	0.157836 
850.607856  	0.156000 
852.536672  	0.154469 
854.465488  	0.152959 
856.394304  	0.151621 
858.323120  	0.150111 
860.251936  	0.148255 
862.180752  	0.146356 
864.109568  	0.143715 
866.038384  	0.141245 
867.967200  	0.139241 
869.896016  	0.137365 
871.824832  	0.136068 
873.753648  	0.135842 
875.682464  	0.136201 
877.611280  	0.136352 
879.540096  	0.136811 
881.468912  	0.138401 
883.397728  	0.139414 
885.326544  	0.140121 
887.255360  	0.140277 
889.184176  	0.139173 
891.112992  	0.137201 
893.041808  	0.135588 
894.970624  	0.133676 
896.899440  	0.130657 
898.828256  	0.126851 
900.757072  	0.123340 
902.685888  	0.120438 
904.614704  	0.118596 
906.543520  	0.118021 
908.472336  	0.118681 
910.401152  	0.120487 
912.329968  	0.122569 
914.258784  	0.124654 
916.187600  	0.126666 
918.116416  	0.128385 
920.045232  	0.129524 
921.974048  	0.130208 
923.902864  	0.130405 
925.831680  	0.130069 
927.760496  	0.129932 
929.689312  	0.130015 
931.618128  	0.130325 
933.546944  	0.130518 
935.475760  	0.130606 
937.404576  	0.130323 
939.333392  	0.129620 
941.262208  	0.129210 
943.191024  	0.129824 
945.119840  	0.132242 
947.048656  	0.136483 
948.977472  	0.142394 
950.906288  	0.149689 
952.835104  	0.158023 
954.763920  	0.166919 
956.692736  	0.175518 
958.621552  	0.183159 
960.550368  	0.188469 
962.479184  	0.191025 
964.408000  	0.190345 
966.336816  	0.186454 
968.265632  	0.179526 
970.194448  	0.170168 
972.123264  	0.159053 
974.052080  	0.147431 
975.980896  	0.136060 
977.909712  	0.125289 
979.838528  	0.115683 
981.767344  	0.107473 
983.696160  	0.101091 
985.624976  	0.096713 
987.553792  	0.094593 
989.482608  	0.094747 
991.411424  	0.096801 
993.340240  	0.100041 
995.269056  	0.104350 
997.197872  	0.109286 
999.126688  	0.114332 
1001.055504  	0.119480 
1002.984320  	0.124719 
1004.913136  	0.129861 
1006.841952  	0.135064 
1008.770768  	0.139425 
1010.699584  	0.142340 
1012.628400  	0.144019 
1014.557216  	0.144802 
1016.486032  	0.145034 
1018.414848  	0.144705 
1020.343664  	0.144181 
1022.272480  	0.143456 
1024.201296  	0.142195 
1026.130112  	0.138746 
1028.058928  	0.137325 
1029.987744  	0.140028 
1031.916560  	0.141651 
1033.845376  	0.142427 
1035.774192  	0.142974 
1037.703008  	0.144746 
1039.631824  	0.149795 
1041.560640  	0.157067 
1043.489456  	0.166771 
1045.418272  	0.178890 
1047.347088  	0.192553 
1049.275904  	0.205746 
1051.204720  	0.216659 
1053.133536  	0.223720 
1055.062352  	0.227256 
1056.991168  	0.227634 
1058.919984  	0.229460 
1060.848800  	0.231397 
1062.777616  	0.230225 
1064.706432  	0.225370 
1066.635248  	0.221390 
1068.564064  	0.221231 
1070.492880  	0.218460 
1072.421696  	0.212462 
1074.350512  	0.207836 
1076.279328  	0.206625 
1078.208144  	0.209457 
1080.136960  	0.215109 
1082.065776  	0.221947 
1083.994592  	0.227380 
1085.923408  	0.229739 
1087.852224  	0.228602 
1089.781040  	0.225455 
1091.709856  	0.220818 
1093.638672  	0.213894 
1095.567488  	0.204225 
1097.496304  	0.193249 
1099.425120  	0.181552 
1101.353936  	0.169598 
1103.282752  	0.157967 
1105.211568  	0.146992 
1107.140384  	0.136612 
1109.069200  	0.126684 
1110.998016  	0.117483 
1112.926832  	0.109292 
1114.855648  	0.101800 
1116.784464  	0.094715 
1118.713280  	0.088226 
1120.642096  	0.082269 
1122.570912  	0.076511 
1124.499728  	0.070913 
1126.428544  	0.066033 
1128.357360  	0.061745 
1130.286176  	0.058133 
1132.214992  	0.054984 
1134.143808  	0.052484 
1136.072624  	0.050475 
1138.001440  	0.048682 
1139.930256  	0.046645 
1141.859072  	0.044501 
1143.787888  	0.042442 
1145.716704  	0.040623 
1147.645520  	0.038766 
1149.574336  	0.037155 
1151.503152  	0.035719 
1153.431968  	0.035296 
1155.360784  	0.035485 
1157.289600  	0.036190 
1159.218416  	0.037334 
1161.147232  	0.038923 
1163.076048  	0.040604 
1165.004864  	0.042615 
1166.933680  	0.044263 
1168.862496  	0.045918 
1170.791312  	0.047836 
1172.720128  	0.050399 
1174.648944  	0.052837 
1176.577760  	0.055104 
1178.506576  	0.057264 
1180.435392  	0.059581 
1182.364208  	0.061822 
1184.293024  	0.064375 
1186.221840  	0.066943 
1188.150656  	0.069900 
1190.079472  	0.073298 
1192.008288  	0.077547 
1193.937104  	0.082615 
1195.865920  	0.088778 
1197.794736  	0.095687 
1199.723552  	0.103269 
1201.652368  	0.111048 
1203.581184  	0.118857 
1205.510000  	0.126545 
1207.438816  	0.134079 
1209.367632  	0.141291 
1211.296448  	0.147496 
1213.225264  	0.152809 
1215.154080  	0.157156 
1217.082896  	0.160451 
1219.011712  	0.162490 
1220.940528  	0.164137 
1222.869344  	0.165234 
1224.798160  	0.165751 
1226.726976  	0.165716 
1228.655792  	0.165371 
1230.584608  	0.164389 
1232.513424  	0.162898 
1234.442240  	0.160895 
1236.371056  	0.158163 
1238.299872  	0.154371 
1240.228688  	0.148338 
1242.157504  	0.142219 
1244.086320  	0.137078 
1246.015136  	0.130519 
1247.943952  	0.123005 
1249.872768  	0.115540 
1251.801584  	0.109242 
1253.730400  	0.102865 
1255.659216  	0.096492 
1257.588032  	0.090587 
1259.516848  	0.084965 
1261.445664  	0.079606 
1263.374480  	0.074841 
1265.303296  	0.070830 
1267.232112  	0.067559 
1269.160928  	0.065122 
1271.089744  	0.063163 
1273.018560  	0.062093 
1274.947376  	0.061858 
1276.876192  	0.062007 
1278.805008  	0.061806 
1280.733824  	0.060860 
1282.662640  	0.059062 
1284.591456  	0.056874 
1286.520272  	0.054984 
1288.449088  	0.053801 
1290.377904  	0.053255 
1292.306720  	0.053443 
1294.235536  	0.053570 
1296.164352  	0.052889 
1298.093168  	0.050932 
1300.021984  	0.048301 
1301.950800  	0.045547 
1303.879616  	0.042968 
1305.808432  	0.040199 
1307.737248  	0.037410 
1309.666064  	0.034700 
1311.594880  	0.032682 
1313.523696  	0.031113 
1315.452512  	0.030008 
1317.381328  	0.029366 
1319.310144  	0.029218 
1321.238960  	0.029242 
1323.167776  	0.029810 
1325.096592  	0.030599 
1327.025408  	0.031131 
1328.954224  	0.031080 
1330.883040  	0.030687 
1332.811856  	0.029938 
1334.740672  	0.029426 
1336.669488  	0.029292 
1338.598304  	0.029407 
1340.527120  	0.028434 
1342.455936  	0.027052 
1344.384752  	0.026586 
1346.313568  	0.026710 
1348.242384  	0.027120 
1350.171200  	0.028014 
1352.100016  	0.029274 
1354.028832  	0.030841 
1355.957648  	0.032344 
1357.886464  	0.033997 
1359.815280  	0.035799 
1361.744096  	0.037664 
1363.672912  	0.038845 
1365.601728  	0.039880 
1367.530544  	0.040938 
1369.459360  	0.041294 
1371.388176  	0.041125 
1373.316992  	0.040002 
1375.245808  	0.037263 
1377.174624  	0.035069 
1379.103440  	0.032523 
1381.032256  	0.029830 
1382.961072  	0.027935 
1384.889888  	0.027253 
1386.818704  	0.026874 
1388.747520  	0.025557 
1390.676336  	0.023407 
1392.605152  	0.020061 
1394.533968  	0.018147 
1396.462784  	0.020973 
1398.391600  	0.022087 
1400.320416  	0.021520 
1402.249232  	0.021640 
1404.178048  	0.021995 
1406.106864  	0.022427 
1408.035680  	0.024030 
1409.964496  	0.026179 
1411.893312  	0.028714 
1413.822128  	0.031342 
1415.750944  	0.034475 
1417.679760  	0.036555 
1419.608576  	0.036775 
1421.537392  	0.037249 
1423.466208  	0.037404 
1425.395024  	0.036160 
1427.323840  	0.034962 
1429.252656  	0.032791 
1431.181472  	0.031409 
1433.110288  	0.031309 
1435.039104  	0.031623 
1436.967920  	0.031314 
1438.896736  	0.032031 
1440.825552  	0.033028 
1442.754368  	0.033626 
1444.683184  	0.033727 
1446.612000  	0.033531 
1448.540816  	0.032585 
1450.469632  	0.032919 
1452.398448  	0.033615 
1454.327264  	0.034228 
1456.256080  	0.033324 
1458.184896  	0.031434 
1460.113712  	0.033016 
1462.042528  	0.034437 
1463.971344  	0.034057 
1465.900160  	0.034445 
1467.828976  	0.036731 
1469.757792  	0.039193 
1471.686608  	0.041240 
1473.615424  	0.045949 
1475.544240  	0.051938 
1477.473056  	0.057182 
1479.401872  	0.060763 
1481.330688  	0.063657 
1483.259504  	0.065648 
1485.188320  	0.067090 
1487.117136  	0.066962 
1489.045952  	0.066426 
1490.974768  	0.064129 
1492.903584  	0.062628 
1494.832400  	0.059824 
1496.761216  	0.053947 
1498.690032  	0.048810 
1500.618848  	0.045812 
1502.547664  	0.042536 
1504.476480  	0.038246 
1506.405296  	0.031841 
1508.334112  	0.030696 
1510.262928  	0.031335 
1512.191744  	0.029977 
1514.120560  	0.028906 
1516.049376  	0.027933 
1517.978192  	0.027123 
1519.907008  	0.028007 
1521.835824  	0.028149 
1523.764640  	0.032167 
1525.693456  	0.036128 
1527.622272  	0.038235 
1529.551088  	0.039000 
1531.479904  	0.038565 
1533.408720  	0.034930 
1535.337536  	0.032572 
1537.266352  	0.030584 
1539.195168  	0.023316 
1541.123984  	0.017669 
1543.052800  	0.020434 
1544.981616  	0.021378 
1546.910432  	0.021306 
1548.839248  	0.021600 
1550.768064  	0.021586 
1552.696880  	0.021173 
1554.625696  	0.021216 
1556.554512  	0.020594 
1558.483328  	0.017890 
1560.412144  	0.022834 
1562.340960  	0.029150 
1564.269776  	0.032372 
1566.198592  	0.036699 
1568.127408  	0.039774 
1570.056224  	0.043870 
1571.985040  	0.050236 
1573.913856  	0.054078 
1575.842672  	0.054521 
1577.771488  	0.057493 
1579.700304  	0.059773 
1581.629120  	0.059809 
1583.557936  	0.059260 
1585.486752  	0.059855 
1587.415568  	0.061611 
1589.344384  	0.065122 
1591.273200  	0.069919 
1593.202016  	0.075998 
1595.130832  	0.082387 
1597.059648  	0.089317 
1598.988464  	0.095425 
1600.917280  	0.100789 
1602.846096  	0.104326 
1604.774912  	0.106743 
1606.703728  	0.107102 
1608.632544  	0.106386 
1610.561360  	0.104798 
1612.490176  	0.103639 
1614.418992  	0.101542 
1616.347808  	0.098264 
1618.276624  	0.098990 
1620.205440  	0.103227 
1622.134256  	0.105256 
1624.063072  	0.109330 
1625.991888  	0.115568 
1627.920704  	0.122532 
1629.849520  	0.131219 
1631.778336  	0.139960 
1633.707152  	0.145735 
1635.635968  	0.151167 
1637.564784  	0.160992 
1639.493600  	0.169963 
1641.422416  	0.175796 
1643.351232  	0.180218 
1645.280048  	0.181131 
1647.208864  	0.180487 
1649.137680  	0.183161 
1651.066496  	0.185201 
1652.995312  	0.178284 
1654.924128  	0.178027 
1656.852944  	0.180700 
1658.781760  	0.179997 
1660.710576  	0.177001 
1662.639392  	0.172091 
1664.568208  	0.168859 
1666.497024  	0.167379 
1668.425840  	0.161885 
1670.354656  	0.154697 
1672.283472  	0.152362 
1674.212288  	0.149888 
1676.141104  	0.145366 
1678.069920  	0.145039 
1679.998736  	0.144234 
1681.927552  	0.142604 
1683.856368  	0.137219 
1685.785184  	0.136696 
1687.714000  	0.139711 
1689.642816  	0.139814 
1691.571632  	0.138637 
1693.500448  	0.137810 
1695.429264  	0.133845 
1697.358080  	0.130718 
1699.286896  	0.129034 
1701.215712  	0.124832 
1703.144528  	0.125146 
1705.073344  	0.121777 
1707.002160  	0.116920 
1708.930976  	0.113787 
1710.859792  	0.108617 
1712.788608  	0.102310 
1714.717424  	0.093920 
1716.646240  	0.083233 
1718.575056  	0.071036 
1720.503872  	0.064334 
1722.432688  	0.058131 
1724.361504  	0.049556 
1726.290320  	0.042338 
1728.219136  	0.036191 
1730.147952  	0.030632 
1732.076768  	0.025663 
1734.005584  	0.019633 
1735.934400  	0.015761 
1737.863216  	0.015387 
1739.792032  	0.012214 
1741.720848  	0.011283 
1743.649664  	0.010828 
1745.578480  	0.009825 
1747.507296  	0.008023 
1749.436112  	0.007163 
1751.364928  	0.006650 
1753.293744  	0.006343 
1755.222560  	0.005911 
1757.151376  	0.005425 
1759.080192  	0.004912 
1761.009008  	0.004345 
1762.937824  	0.003278 
1764.866640  	0.003617 
1766.795456  	0.003745 
1768.724272  	0.003144 
1770.653088  	0.000892 
1772.581904  	-0.001022 
1774.510720  	0.000402 
1776.439536  	0.001901 
1778.368352  	0.002017 
1780.297168  	0.001643 
1782.225984  	0.001291 
1784.154800  	0.001702 
1786.083616  	0.001232 
1788.012432  	0.001210 
1789.941248  	0.001043 
1791.870064  	-0.000148 
1793.798880  	-0.000777 
1795.727696  	0.000517 
1797.656512  	0.000130 
1799.585328  	-0.000118 
1801.514144  	0.000397 
1803.442960  	0.000545 
1805.371776  	0.000051 
1807.300592  	0.000149 
1809.229408  	-0.000480 
1811.158224  	-0.000777 
1813.087040  	-0.000785 
1815.015856  	-0.000411 
1816.944672  	-0.000276 
1818.873488  	-0.000237 
1820.802304  	-0.000600 
1822.731120  	-0.000240 
1824.659936  	-0.000599 
1826.588752  	-0.001052 
1828.517568  	-0.001864 
1830.446384  	-0.001935 
1832.375200  	-0.001177 
1834.304016  	-0.000714 
1836.232832  	-0.000885 
1838.161648  	-0.000907 
1840.090464  	-0.000954 
1842.019280  	-0.000538 
1843.948096  	-0.001536 
1845.876912  	-0.001336 
1847.805728  	-0.000751 
1849.734544  	-0.000788 
1851.663360  	-0.001061 
1853.592176  	-0.001051 
1855.520992  	-0.001235 
1857.449808  	-0.000884 
1859.378624  	-0.000928 
1861.307440  	-0.001063 
1863.236256  	-0.001476 
1865.165072  	-0.001352 
1867.093888  	-0.001762 
1869.022704  	-0.001859 
1870.951520  	-0.001633 
1872.880336  	-0.001281 
1874.809152  	-0.001590 
1876.737968  	-0.001518 
1878.666784  	-0.001601 
1880.595600  	-0.001094 
1882.524416  	-0.001330 
1884.453232  	-0.001336 
1886.382048  	-0.001681 
1888.310864  	-0.001869 
1890.239680  	-0.002319 
1892.168496  	-0.001734 
1894.097312  	-0.001395 
1896.026128  	-0.001262 
1897.954944  	-0.001745 
1899.883760  	-0.001606 
1901.812576  	-0.001910 
1903.741392  	-0.002014 
1905.670208  	-0.001958 
1907.599024  	-0.001192 
1909.527840  	-0.001388 
1911.456656  	-0.001350 
1913.385472  	-0.001849 
1915.314288  	-0.001617 
1917.243104  	-0.001761 
1919.171920  	-0.001736 
1921.100736  	-0.001535 
1923.029552  	-0.001023 
1924.958368  	-0.001614 
1926.887184  	-0.002081 
1928.816000  	-0.002644 
1930.744816  	-0.002485 
1932.673632  	-0.002373 
1934.602448  	-0.002066 
1936.531264  	-0.002180 
1938.460080  	-0.002016 
1940.388896  	-0.002477 
1942.317712  	-0.002709 
1944.246528  	-0.002550 
1946.175344  	-0.001415 
1948.104160  	-0.001083 
1950.032976  	-0.000873 
1951.961792  	-0.001827 
1953.890608  	-0.002010 
1955.819424  	-0.002556 
1957.748240  	-0.001714 
1959.677056  	-0.001339 
1961.605872  	-0.000786 
1963.534688  	-0.001752 
1965.463504  	-0.001375 
1967.392320  	-0.001640 
1969.321136  	-0.001717 
1971.249952  	-0.001756 
1973.178768  	-0.000661 
1975.107584  	-0.001641 
1977.036400  	-0.001004 
1978.965216  	0.000124 
1980.894032  	0.000352 
1982.822848  	-0.000699 
1984.751664  	-0.000494 
1986.680480  	-0.001551 
1988.609296  	-0.001850 
1990.538112  	-0.002864 
1992.466928  	-0.002163 
1994.395744  	-0.001997 
1996.324560  	-0.001523 
1998.253376  	-0.002056 
2000.182192  	-0.002005 
2002.111008  	-0.002224 
2004.039824  	-0.001174 
2005.968640  	-0.000979 
2007.897456  	0.000027 
2009.826272  	-0.000548 
2011.755088  	-0.000316 
2013.683904  	-0.000868 
2015.612720  	-0.000506 
2017.541536  	-0.000987 
2019.470352  	-0.000886 
2021.399168  	-0.001927 
2023.327984  	-0.002488 
2025.256800  	-0.002232 
2027.185616  	-0.000696 
2029.114432  	-0.001032 
2031.043248  	-0.000936 
2032.972064  	-0.000570 
2034.900880  	-0.000055 
2036.829696  	-0.000597 
2038.758512  	-0.000299 
2040.687328  	-0.001122 
2042.616144  	-0.000621 
2044.544960  	-0.001184 
2046.473776  	-0.000986 
2048.402592  	-0.000870 
2050.331408  	-0.000646 
2052.260224  	-0.001964 
2054.189040  	-0.002500 
2056.117856  	-0.002350 
2058.046672  	-0.001630 
2059.975488  	-0.001647 
2061.904304  	-0.001635 
2063.833120  	-0.002062 
2065.761936  	-0.001942 
2067.690752  	-0.001873 
2069.619568  	-0.001571 
2071.548384  	-0.001978 
2073.477200  	-0.001804 
2075.406016  	-0.001338 
2077.334832  	-0.000979 
2079.263648  	-0.001123 
2081.192464  	-0.000959 
2083.121280  	-0.001011 
2085.050096  	-0.001138 
2086.978912  	-0.001380 
2088.907728  	-0.001182 
2090.836544  	-0.001421 
2092.765360  	-0.001406 
2094.694176  	-0.001210 
2096.622992  	-0.000429 
2098.551808  	-0.000137 
2100.480624  	0.000013 
2102.409440  	-0.000435 
2104.338256  	-0.000254 
2106.267072  	-0.000329 
2108.195888  	-0.000359 
2110.124704  	-0.000435 
2112.053520  	-0.000363 
2113.982336  	-0.000645 
2115.911152  	-0.000289 
2117.839968  	-0.000177 
2119.768784  	-0.000791 
2121.697600  	-0.001473 
2123.626416  	-0.001025 
2125.555232  	-0.001115 
2127.484048  	-0.001266 
2129.412864  	-0.001630 
2131.341680  	-0.001757 
2133.270496  	-0.001779 
2135.199312  	-0.001309 
2137.128128  	-0.000554 
2139.056944  	0.000185 
2140.985760  	-0.000473 
2142.914576  	-0.000537 
2144.843392  	-0.000261 
2146.772208  	-0.000474 
2148.701024  	-0.001926 
2150.629840  	-0.000972 
2152.558656  	-0.000644 
2154.487472  	-0.001322 
2156.416288  	-0.001839 
2158.345104  	-0.000246 
2160.273920  	0.002449 
2162.202736  	0.003416 
2164.131552  	0.001816 
2166.060368  	0.001748 
2167.989184  	0.001923 
2169.918000  	0.002621 
2171.846816  	0.000727 
2173.775632  	0.000420 
2175.704448  	0.001312 
2177.633264  	0.001296 
2179.562080  	0.000354 
2181.490896  	0.000821 
2183.419712  	0.000050 
2185.348528  	-0.000280 
2187.277344  	-0.000190 
2189.206160  	-0.000203 
2191.134976  	0.000091 
2193.063792  	0.000400 
2194.992608  	0.000242 
2196.921424  	0.000457 
2198.850240  	-0.000361 
2200.779056  	-0.000340 
2202.707872  	-0.000220 
2204.636688  	0.000337 
2206.565504  	0.000551 
2208.494320  	0.000156 
2210.423136  	-0.000615 
2212.351952  	-0.000785 
2214.280768  	-0.000919 
2216.209584  	-0.000564 
2218.138400  	-0.000610 
2220.067216  	-0.000637 
2221.996032  	-0.000773 
2223.924848  	-0.000666 
2225.853664  	-0.000460 
2227.782480  	-0.000088 
2229.711296  	-0.000764 
2231.640112  	-0.001353 
2233.568928  	-0.001478 
2235.497744  	-0.001367 
2237.426560  	-0.001799 
2239.355376  	-0.001447 
2241.284192  	-0.001085 
2243.213008  	-0.000882 
2245.141824  	-0.001278 
2247.070640  	-0.001030 
2248.999456  	-0.001292 
2250.928272  	-0.001456 
2252.857088  	-0.001752 
2254.785904  	-0.001964 
2256.714720  	-0.002349 
2258.643536  	-0.002158 
2260.572352  	-0.001949 
2262.501168  	-0.002152 
2264.429984  	-0.002334 
2266.358800  	-0.002110 
2268.287616  	-0.002118 
2270.216432  	-0.001734 
2272.145248  	-0.001647 
2274.074064  	-0.001829 
2276.002880  	-0.001397 
2277.931696  	-0.000978 
2279.860512  	-0.001179 
2281.789328  	-0.001215 
2283.718144  	-0.001062 
2285.646960  	-0.000667 
2287.575776  	-0.000604 
2289.504592  	-0.000848 
2291.433408  	-0.001206 
2293.362224  	-0.001039 
2295.291040  	-0.000722 
2297.219856  	-0.000381 
2299.148672  	-0.000402 
2301.077488  	-0.000430 
2303.006304  	-0.000442 
2304.935120  	-0.000382 
2306.863936  	-0.000255 
2308.792752  	-0.000265 
2310.721568  	-0.000525 
2312.650384  	-0.000782 
2314.579200  	-0.001517 
2316.508016  	-0.002408 
2318.436832  	-0.003255 
2320.365648  	-0.004019 
2322.294464  	-0.005137 
2324.223280  	-0.006856 
2326.152096  	-0.008853 
2328.080912  	-0.010297 
2330.009728  	-0.011742 
2331.938544  	-0.013286 
2333.867360  	-0.014577 
2335.796176  	-0.015716 
2337.724992  	-0.016574 
2339.653808  	-0.016577 
2341.582624  	-0.016526 
2343.511440  	-0.015247 
2345.440256  	-0.012708 
2347.369072  	-0.008886 
2349.297888  	-0.006985 
2351.226704  	-0.009151 
2353.155520  	-0.013593 
2355.084336  	-0.017480 
2357.013152  	-0.020425 
2358.941968  	-0.021749 
2360.870784  	-0.022529 
2362.799600  	-0.021903 
2364.728416  	-0.020578 
2366.657232  	-0.018333 
2368.586048  	-0.015426 
2370.514864  	-0.012123 
2372.443680  	-0.009359 
2374.372496  	-0.006746 
2376.301312  	-0.004176 
2378.230128  	-0.002189 
2380.158944  	-0.001246 
2382.087760  	-0.001028 
2384.016576  	-0.001235 
2385.945392  	-0.001526 
2387.874208  	-0.001786 
2389.803024  	-0.002023 
2391.731840  	-0.002232 
2393.660656  	-0.002204 
2395.589472  	-0.002155 
2397.518288  	-0.002047 
2399.447104  	-0.002092 
2401.375920  	-0.002159 
2403.304736  	-0.002213 
2405.233552  	-0.002071 
2407.162368  	-0.002240 
2409.091184  	-0.002262 
2411.020000  	-0.002232 
2412.948816  	-0.002104 
2414.877632  	-0.001959 
2416.806448  	-0.001880 
2418.735264  	-0.002151 
2420.664080  	-0.002200 
2422.592896  	-0.002139 
2424.521712  	-0.002098 
2426.450528  	-0.002202 
2428.379344  	-0.002035 
2430.308160  	-0.001791 
2432.236976  	-0.001613 
2434.165792  	-0.001745 
2436.094608  	-0.001864 
2438.023424  	-0.001733 
2439.952240  	-0.001522 
2441.881056  	-0.001498 
2443.809872  	-0.001614 
2445.738688  	-0.001529 
2447.667504  	-0.001283 
2449.596320  	-0.001365 
2451.525136  	-0.001366 
2453.453952  	-0.001250 
2455.382768  	-0.001209 
2457.311584  	-0.001365 
2459.240400  	-0.001304 
2461.169216  	-0.001392 
2463.098032  	-0.001585 
2465.026848  	-0.001572 
2466.955664  	-0.001570 
2468.884480  	-0.001696 
2470.813296  	-0.001785 
2472.742112  	-0.001691 
2474.670928  	-0.001667 
2476.599744  	-0.001684 
2478.528560  	-0.001443 
2480.457376  	-0.001425 
2482.386192  	-0.001428 
2484.315008  	-0.001125 
2486.243824  	-0.001084 
2488.172640  	-0.001235 
2490.101456  	-0.001125 
2492.030272  	-0.001119 
2493.959088  	-0.001098 
2495.887904  	-0.001009 
2497.816720  	-0.000874 
2499.745536  	-0.000866 
2501.674352  	-0.000715 
2503.603168  	-0.000497 
2505.531984  	-0.000543 
2507.460800  	-0.000744 
2509.389616  	-0.000629 
2511.318432  	-0.000502 
2513.247248  	-0.000530 
2515.176064  	-0.000696 
2517.104880  	-0.000741 
2519.033696  	-0.000823 
2520.962512  	-0.000682 
2522.891328  	-0.000502 
2524.820144  	-0.000609 
2526.748960  	-0.000642 
2528.677776  	-0.000357 
2530.606592  	-0.000325 
2532.535408  	-0.000448 
2534.464224  	-0.000417 
2536.393040  	-0.000354 
2538.321856  	-0.000145 
2540.250672  	-0.000001 
2542.179488  	-0.000115 
2544.108304  	-0.000233 
2546.037120  	-0.000365 
2547.965936  	-0.000300 
2549.894752  	-0.000206 
2551.823568  	-0.000148 
2553.752384  	0.000021 
2555.681200  	0.000390 
2557.610016  	0.000469 
2559.538832  	0.000541 
2561.467648  	0.000690 
2563.396464  	0.000756 
2565.325280  	0.000667 
2567.254096  	0.000635 
2569.182912  	0.000708 
2571.111728  	0.000880 
2573.040544  	0.000885 
2574.969360  	0.000926 
2576.898176  	0.001156 
2578.826992  	0.001202 
2580.755808  	0.001143 
2582.684624  	0.001278 
2584.613440  	0.001336 
2586.542256  	0.001209 
2588.471072  	0.001255 
2590.399888  	0.001398 
2592.328704  	0.001468 
2594.257520  	0.001350 
2596.186336  	0.001289 
2598.115152  	0.001510 
2600.043968  	0.001588 
2601.972784  	0.001724 
2603.901600  	0.001783 
2605.830416  	0.001871 
2607.759232  	0.002067 
2609.688048  	0.002139 
2611.616864  	0.002203 
2613.545680  	0.002425 
2615.474496  	0.002596 
2617.403312  	0.002614 
2619.332128  	0.002630 
2621.260944  	0.002650 
2623.189760  	0.002612 
2625.118576  	0.002675 
2627.047392  	0.002781 
2628.976208  	0.002977 
2630.905024  	0.003085 
2632.833840  	0.003142 
2634.762656  	0.003293 
2636.691472  	0.003395 
2638.620288  	0.003394 
2640.549104  	0.003457 
2642.477920  	0.003487 
2644.406736  	0.003673 
2646.335552  	0.003855 
2648.264368  	0.003915 
2650.193184  	0.003962 
2652.122000  	0.004097 
2654.050816  	0.004266 
2655.979632  	0.004344 
2657.908448  	0.004362 
2659.837264  	0.004464 
2661.766080  	0.004504 
2663.694896  	0.004507 
2665.623712  	0.004526 
2667.552528  	0.004727 
2669.481344  	0.004888 
2671.410160  	0.004968 
2673.338976  	0.005101 
2675.267792  	0.005258 
2677.196608  	0.005368 
2679.125424  	0.005430 
2681.054240  	0.005522 
2682.983056  	0.005654 
2684.911872  	0.005746 
2686.840688  	0.005849 
2688.769504  	0.005910 
2690.698320  	0.005904 
2692.627136  	0.005895 
2694.555952  	0.005969 
2696.484768  	0.006060 
2698.413584  	0.006118 
2700.342400  	0.006223 
2702.271216  	0.006462 
2704.200032  	0.006666 
2706.128848  	0.006705 
2708.057664  	0.006591 
2709.986480  	0.006638 
2711.915296  	0.006791 
2713.844112  	0.006990 
2715.772928  	0.007119 
2717.701744  	0.007214 
2719.630560  	0.007442 
2721.559376  	0.007549 
2723.488192  	0.007547 
2725.417008  	0.007691 
2727.345824  	0.007908 
2729.274640  	0.008031 
2731.203456  	0.008064 
2733.132272  	0.008248 
2735.061088  	0.008406 
2736.989904  	0.008478 
2738.918720  	0.008514 
2740.847536  	0.008603 
2742.776352  	0.008652 
2744.705168  	0.008722 
2746.633984  	0.008796 
2748.562800  	0.008840 
2750.491616  	0.008922 
2752.420432  	0.009075 
2754.349248  	0.009061 
2756.278064  	0.009051 
2758.206880  	0.008941 
2760.135696  	0.008857 
2762.064512  	0.008925 
2763.993328  	0.008987 
2765.922144  	0.009026 
2767.850960  	0.009056 
2769.779776  	0.009034 
2771.708592  	0.008965 
2773.637408  	0.008873 
2775.566224  	0.008869 
2777.495040  	0.008890 
2779.423856  	0.008961 
2781.352672  	0.009035 
2783.281488  	0.008947 
2785.210304  	0.008883 
2787.139120  	0.008935 
2789.067936  	0.008934 
2790.996752  	0.008988 
2792.925568  	0.008956 
2794.854384  	0.008855 
2796.783200  	0.008815 
2798.712016  	0.008722 
2800.640832  	0.008716 
2802.569648  	0.008928 
2804.498464  	0.008971 
2806.427280  	0.008829 
2808.356096  	0.008760 
2810.284912  	0.008760 
2812.213728  	0.008736 
2814.142544  	0.008679 
2816.071360  	0.008635 
2818.000176  	0.008486 
2819.928992  	0.008400 
2821.857808  	0.008315 
2823.786624  	0.008146 
2825.715440  	0.008146 
2827.644256  	0.008082 
2829.573072  	0.007798 
2831.501888  	0.007514 
2833.430704  	0.007237 
2835.359520  	0.006932 
2837.288336  	0.006670 
2839.217152  	0.006414 
2841.145968  	0.006129 
2843.074784  	0.005704 
2845.003600  	0.005235 
2846.932416  	0.004821 
2848.861232  	0.004422 
2850.790048  	0.004010 
2852.718864  	0.003461 
2854.647680  	0.002860 
2856.576496  	0.002218 
2858.505312  	0.001663 
2860.434128  	0.001207 
2862.362944  	0.000478 
2864.291760  	-0.000367 
2866.220576  	-0.000955 
2868.149392  	-0.001278 
2870.078208  	-0.001461 
2872.007024  	-0.001635 
2873.935840  	-0.001689 
2875.864656  	-0.001742 
2877.793472  	-0.001939 
2879.722288  	-0.002154 
2881.651104  	-0.002576 
2883.579920  	-0.002931 
2885.508736  	-0.002906 
2887.437552  	-0.002623 
2889.366368  	-0.002494 
2891.295184  	-0.002698 
2893.224000  	-0.002879 
2895.152816  	-0.002926 
2897.081632  	-0.003306 
2899.010448  	-0.005039 
2900.939264  	-0.006554 
2902.868080  	-0.005271 
2904.796896  	-0.003925 
2906.725712  	-0.003510 
2908.654528  	-0.002926 
2910.583344  	-0.002515 
2912.512160  	-0.001955 
2914.440976  	-0.000833 
2916.369792  	-0.000059 
2918.298608  	0.000330 
2920.227424  	0.000682 
2922.156240  	0.001280 
2924.085056  	0.002134 
2926.013872  	0.003041 
2927.942688  	0.003935 
2929.871504  	0.004842 
2931.800320  	0.005651 
2933.729136  	0.006360 
2935.657952  	0.006936 
2937.586768  	0.007587 
2939.515584  	0.008215 
2941.444400  	0.008409 
2943.373216  	0.008400 
2945.302032  	0.008648 
2947.230848  	0.008943 
2949.159664  	0.008717 
2951.088480  	0.008137 
2953.017296  	0.007629 
2954.946112  	0.006960 
2956.874928  	0.006236 
2958.803744  	0.005481 
2960.732560  	0.004966 
2962.661376  	0.004356 
2964.590192  	0.003406 
2966.519008  	0.002300 
2968.447824  	0.001332 
2970.376640  	0.000480 
2972.305456  	-0.000135 
2974.234272  	0.000192 
2976.163088  	0.000626 
2978.091904  	0.000606 
2980.020720  	0.000663 
2981.949536  	0.000947 
2983.878352  	0.000703 
2985.807168  	-0.000331 
2987.735984  	-0.001323 
2989.664800  	-0.000986 
2991.593616  	0.002121 
2993.522432  	0.004105 
2995.451248  	0.004652 
2997.380064  	0.005497 
2999.308880  	0.006673 
3001.237696  	0.007959 
3003.166512  	0.009391 
3005.095328  	0.010957 
3007.024144  	0.012368 
3008.952960  	0.013763 
3010.881776  	0.015255 
3012.810592  	0.016621 
3014.739408  	0.017767 
3016.668224  	0.018887 
3018.597040  	0.020244 
3020.525856  	0.021551 
3022.454672  	0.022637 
3024.383488  	0.023688 
3026.312304  	0.024640 
3028.241120  	0.025592 
3030.169936  	0.026491 
3032.098752  	0.027378 
3034.027568  	0.028210 
3035.956384  	0.029000 
3037.885200  	0.029862 
3039.814016  	0.030509 
3041.742832  	0.031094 
3043.671648  	0.031647 
3045.600464  	0.032249 
3047.529280  	0.032779 
3049.458096  	0.033367 
3051.386912  	0.034082 
3053.315728  	0.034567 
3055.244544  	0.035073 
3057.173360  	0.035706 
3059.102176  	0.036189 
3061.030992  	0.036844 
3062.959808  	0.037502 
3064.888624  	0.038037 
3066.817440  	0.038694 
3068.746256  	0.039509 
3070.675072  	0.040342 
3072.603888  	0.040976 
3074.532704  	0.041738 
3076.461520  	0.042498 
3078.390336  	0.043117 
3080.319152  	0.043878 
3082.247968  	0.044673 
3084.176784  	0.045402 
3086.105600  	0.046149 
3088.034416  	0.046915 
3089.963232  	0.047660 
3091.892048  	0.048236 
3093.820864  	0.048847 
3095.749680  	0.049559 
3097.678496  	0.050559 
3099.607312  	0.051437 
3101.536128  	0.052268 
3103.464944  	0.053175 
3105.393760  	0.053864 
3107.322576  	0.054520 
3109.251392  	0.055281 
3111.180208  	0.055928 
3113.109024  	0.056694 
3115.037840  	0.057457 
3116.966656  	0.058095 
3118.895472  	0.058755 
3120.824288  	0.059515 
3122.753104  	0.060118 
3124.681920  	0.060501 
3126.610736  	0.061014 
3128.539552  	0.061834 
3130.468368  	0.062597 
3132.397184  	0.063170 
3134.326000  	0.063853 
3136.254816  	0.064420 
3138.183632  	0.065054 
3140.112448  	0.065720 
3142.041264  	0.066407 
3143.970080  	0.066929 
3145.898896  	0.067472 
3147.827712  	0.068155 
3149.756528  	0.068812 
3151.685344  	0.069334 
3153.614160  	0.070140 
3155.542976  	0.070878 
3157.471792  	0.071496 
3159.400608  	0.072175 
3161.329424  	0.072884 
3163.258240  	0.073377 
3165.187056  	0.073878 
3167.115872  	0.074519 
3169.044688  	0.074977 
3170.973504  	0.075311 
3172.902320  	0.075828 
3174.831136  	0.076401 
3176.759952  	0.076856 
3178.688768  	0.077332 
3180.617584  	0.077758 
3182.546400  	0.078048 
3184.475216  	0.078436 
3186.404032  	0.078599 
3188.332848  	0.078917 
3190.261664  	0.079216 
3192.190480  	0.079251 
3194.119296  	0.079364 
3196.048112  	0.079655 
3197.976928  	0.079699 
3199.905744  	0.079713 
3201.834560  	0.079769 
3203.763376  	0.079758 
3205.692192  	0.079700 
3207.621008  	0.079589 
3209.549824  	0.079479 
3211.478640  	0.079500 
3213.407456  	0.079412 
3215.336272  	0.079301 
3217.265088  	0.079243 
3219.193904  	0.079118 
3221.122720  	0.079059 
3223.051536  	0.079084 
3224.980352  	0.078915 
3226.909168  	0.078671 
3228.837984  	0.078572 
3230.766800  	0.078362 
3232.695616  	0.078300 
3234.624432  	0.078262 
3236.553248  	0.078297 
3238.482064  	0.078435 
3240.410880  	0.078478 
3242.339696  	0.078411 
3244.268512  	0.078353 
3246.197328  	0.078509 
3248.126144  	0.078732 
3250.054960  	0.078937 
3251.983776  	0.079215 
3253.912592  	0.079440 
3255.841408  	0.079574 
3257.770224  	0.080061 
3259.699040  	0.080503 
3261.627856  	0.080659 
3263.556672  	0.080820 
3265.485488  	0.081029 
3267.414304  	0.081316 
3269.343120  	0.081595 
3271.271936  	0.081763 
3273.200752  	0.081936 
3275.129568  	0.082115 
3277.058384  	0.082414 
3278.987200  	0.082688 
3280.916016  	0.082882 
3282.844832  	0.083106 
3284.773648  	0.083372 
3286.702464  	0.083553 
3288.631280  	0.083836 
3290.560096  	0.084212 
3292.488912  	0.084522 
3294.417728  	0.084875 
3296.346544  	0.085357 
3298.275360  	0.085652 
3300.204176  	0.085985 
3302.132992  	0.086321 
3304.061808  	0.086580 
3305.990624  	0.087015 
3307.919440  	0.087480 
3309.848256  	0.087901 
3311.777072  	0.088167 
3313.705888  	0.088427 
3315.634704  	0.088933 
3317.563520  	0.089330 
3319.492336  	0.089590 
3321.421152  	0.089773 
3323.349968  	0.089988 
3325.278784  	0.090395 
3327.207600  	0.090621 
3329.136416  	0.090695 
3331.065232  	0.090840 
3332.994048  	0.091156 
3334.922864  	0.091521 
3336.851680  	0.091577 
3338.780496  	0.091478 
3340.709312  	0.091368 
3342.638128  	0.091207 
3344.566944  	0.090874 
3346.495760  	0.090742 
3348.424576  	0.090511 
3350.353392  	0.090285 
3352.282208  	0.090198 
3354.211024  	0.090004 
3356.139840  	0.089885 
3358.068656  	0.089761 
3359.997472  	0.089269 
3361.926288  	0.088656 
3363.855104  	0.088185 
3365.783920  	0.087904 
3367.712736  	0.087741 
3369.641552  	0.087566 
3371.570368  	0.087283 
3373.499184  	0.086818 
3375.428000  	0.086351 
3377.356816  	0.086128 
3379.285632  	0.085910 
3381.214448  	0.085648 
3383.143264  	0.085272 
3385.072080  	0.084798 
3387.000896  	0.084334 
3388.929712  	0.084024 
3390.858528  	0.083709 
3392.787344  	0.083336 
3394.716160  	0.082939 
3396.644976  	0.082609 
3398.573792  	0.082250 
3400.502608  	0.081930 
3402.431424  	0.081363 
3404.360240  	0.080836 
3406.289056  	0.080421 
3408.217872  	0.080123 
3410.146688  	0.079609 
3412.075504  	0.079191 
3414.004320  	0.078864 
3415.933136  	0.078409 
3417.861952  	0.077797 
3419.790768  	0.077183 
3421.719584  	0.076694 
3423.648400  	0.076396 
3425.577216  	0.075897 
3427.506032  	0.075365 
3429.434848  	0.074830 
3431.363664  	0.074307 
3433.292480  	0.073510 
3435.221296  	0.072991 
3437.150112  	0.072690 
3439.078928  	0.072321 
3441.007744  	0.071724 
3442.936560  	0.071213 
3444.865376  	0.070674 
3446.794192  	0.069895 
3448.723008  	0.069074 
3450.651824  	0.068441 
3452.580640  	0.067978 
3454.509456  	0.067543 
3456.438272  	0.067023 
3458.367088  	0.066412 
3460.295904  	0.065605 
3462.224720  	0.064680 
3464.153536  	0.063783 
3466.082352  	0.063174 
3468.011168  	0.062430 
3469.939984  	0.061574 
3471.868800  	0.060826 
3473.797616  	0.060108 
3475.726432  	0.059456 
3477.655248  	0.058727 
3479.584064  	0.057984 
3481.512880  	0.057306 
3483.441696  	0.056345 
3485.370512  	0.055698 
3487.299328  	0.054872 
3489.228144  	0.054080 
3491.156960  	0.053256 
3493.085776  	0.052449 
3495.014592  	0.051663 
3496.943408  	0.051054 
3498.872224  	0.050355 
3500.801040  	0.049985 
3502.729856  	0.049337 
3504.658672  	0.048337 
3506.587488  	0.047928 
3508.516304  	0.047537 
3510.445120  	0.046719 
3512.373936  	0.045852 
3514.302752  	0.045166 
3516.231568  	0.044812 
3518.160384  	0.044244 
3520.089200  	0.043423 
3522.018016  	0.043031 
3523.946832  	0.042883 
3525.875648  	0.042027 
3527.804464  	0.040943 
3529.733280  	0.040188 
3531.662096  	0.039700 
3533.590912  	0.039071 
3535.519728  	0.038680 
3537.448544  	0.038153 
3539.377360  	0.037366 
3541.306176  	0.036661 
3543.234992  	0.036139 
3545.163808  	0.036229 
3547.092624  	0.035663 
3549.021440  	0.034457 
3550.950256  	0.033737 
3552.879072  	0.032971 
3554.807888  	0.032223 
3556.736704  	0.031827 
3558.665520  	0.031565 
3560.594336  	0.030864 
3562.523152  	0.029649 
3564.451968  	0.029316 
3566.380784  	0.029555 
3568.309600  	0.028442 
3570.238416  	0.027420 
3572.167232  	0.026864 
3574.096048  	0.025975 
3576.024864  	0.025216 
3577.953680  	0.024892 
3579.882496  	0.024127 
3581.811312  	0.023247 
3583.740128  	0.022494 
3585.668944  	0.022291 
3587.597760  	0.021551 
3589.526576  	0.020244 
3591.455392  	0.019559 
3593.384208  	0.019129 
3595.313024  	0.018293 
3597.241840  	0.017149 
3599.170656  	0.015955 
3601.099472  	0.015185 
3603.028288  	0.014827 
3604.957104  	0.014380 
3606.885920  	0.013612 
3608.814736  	0.012771 
3610.743552  	0.012235 
3612.672368  	0.011327 
3614.601184  	0.010093 
3616.530000  	0.009309 
3618.458816  	0.007797 
3620.387632  	0.006826 
3622.316448  	0.006702 
3624.245264  	0.006233 
3626.174080  	0.005252 
3628.102896  	0.003394 
3630.031712  	0.001439 
3631.960528  	0.001992 
3633.889344  	0.001961 
3635.818160  	0.001140 
3637.746976  	0.000146 
3639.675792  	-0.000299 
3641.604608  	-0.000436 
3643.533424  	-0.001222 
3645.462240  	-0.003004 
3647.391056  	-0.005969 
3649.319872  	-0.009027 
3651.248688  	-0.009186 
3653.177504  	-0.007609 
3655.106320  	-0.008034 
3657.035136  	-0.009470 
3658.963952  	-0.009521 
3660.892768  	-0.009784 
3662.821584  	-0.010164 
3664.750400  	-0.010480 
3666.679216  	-0.011164 
3668.608032  	-0.013078 
3670.536848  	-0.014895 
3672.465664  	-0.014159 
3674.394480  	-0.015167 
3676.323296  	-0.016936 
3678.252112  	-0.014314 
3680.180928  	-0.012860 
3682.109744  	-0.012678 
3684.038560  	-0.013080 
3685.967376  	-0.013657 
3687.896192  	-0.015626 
3689.825008  	-0.017592 
3691.753824  	-0.015930 
3693.682640  	-0.013871 
3695.611456  	-0.013098 
3697.540272  	-0.012400 
3699.469088  	-0.012048 
3701.397904  	-0.012388 
3703.326720  	-0.011937 
3705.255536  	-0.010976 
3707.184352  	-0.011151 
3709.113168  	-0.012806 
3711.041984  	-0.014067 
3712.970800  	-0.012024 
3714.899616  	-0.009792 
3716.828432  	-0.009403 
3718.757248  	-0.009969 
3720.686064  	-0.010663 
3722.614880  	-0.010906 
3724.543696  	-0.010265 
3726.472512  	-0.010184 
3728.401328  	-0.010453 
3730.330144  	-0.011515 
3732.258960  	-0.013184 
3734.187776  	-0.012791 
3736.116592  	-0.012212 
3738.045408  	-0.011811 
3739.974224  	-0.010686 
3741.903040  	-0.010500 
3743.831856  	-0.011902 
3745.760672  	-0.012685 
3747.689488  	-0.012284 
3749.618304  	-0.014269 
3751.547120  	-0.014838 
3753.475936  	-0.012389 
3755.404752  	-0.010876 
3757.333568  	-0.010535 
3759.262384  	-0.011044 
3761.191200  	-0.010646 
3763.120016  	-0.009572 
3765.048832  	-0.009820 
3766.977648  	-0.010004 
3768.906464  	-0.010513 
3770.835280  	-0.010506 
3772.764096  	-0.009506 
3774.692912  	-0.009113 
3776.621728  	-0.009393 
3778.550544  	-0.010415 
3780.479360  	-0.010608 
3782.408176  	-0.009669 
3784.336992  	-0.009551 
3786.265808  	-0.009367 
3788.194624  	-0.009283 
3790.123440  	-0.009303 
3792.052256  	-0.009286 
3793.981072  	-0.009660 
3795.909888  	-0.010735 
3797.838704  	-0.011076 
3799.767520  	-0.011831 
3801.696336  	-0.013787 
3803.625152  	-0.012261 
3805.553968  	-0.011568 
3807.482784  	-0.011778 
3809.411600  	-0.010218 
3811.340416  	-0.009355 
3813.269232  	-0.009731 
3815.198048  	-0.011719 
3817.126864  	-0.012594 
3819.055680  	-0.012268 
3820.984496  	-0.013633 
3822.913312  	-0.012090 
3824.842128  	-0.010549 
3826.770944  	-0.010536 
3828.699760  	-0.010279 
3830.628576  	-0.010711 
3832.557392  	-0.011332 
3834.486208  	-0.011585 
3836.415024  	-0.012477 
3838.343840  	-0.013103 
3840.272656  	-0.012317 
3842.201472  	-0.011003 
3844.130288  	-0.010492 
3846.059104  	-0.009819 
3847.987920  	-0.009474 
3849.916736  	-0.010095 
3851.845552  	-0.012554 
3853.774368  	-0.014949 
3855.703184  	-0.012182 
3857.632000  	-0.010265 
3859.560816  	-0.009649 
3861.489632  	-0.010017 
3863.418448  	-0.010878 
3865.347264  	-0.010821 
3867.276080  	-0.010160 
3869.204896  	-0.010619 
3871.133712  	-0.010545 
3873.062528  	-0.010224 
3874.991344  	-0.010185 
3876.920160  	-0.009360 
3878.848976  	-0.009124 
3880.777792  	-0.009283 
3882.706608  	-0.009124 
3884.635424  	-0.009383 
3886.564240  	-0.009622 
3888.493056  	-0.009561 
3890.421872  	-0.010023 
3892.350688  	-0.010266 
3894.279504  	-0.009422 
3896.208320  	-0.009117 
3898.137136  	-0.009194 
3900.065952  	-0.009116 
3901.994768  	-0.008940 
3903.923584  	-0.009310 
3905.852400  	-0.009373 
3907.781216  	-0.009023 
3909.710032  	-0.008852 
3911.638848  	-0.008873 
3913.567664  	-0.008762 
3915.496480  	-0.008373 
3917.425296  	-0.008302 
3919.354112  	-0.008619 
3921.282928  	-0.008631 
3923.211744  	-0.008446 
3925.140560  	-0.008544 
3927.069376  	-0.008757 
3928.998192  	-0.008707 
3930.927008  	-0.008338 
3932.855824  	-0.008064 
3934.784640  	-0.008438 
3936.713456  	-0.008564 
3938.642272  	-0.008338 
3940.571088  	-0.008166 
3942.499904  	-0.008173 
3944.428720  	-0.008358 
3946.357536  	-0.008085 
3948.286352  	-0.007816 
3950.215168  	-0.008271 
3952.143984  	-0.008633 
3954.072800  	-0.008598 
3956.001616  	-0.008459 
3957.930432  	-0.008577 
3959.859248  	-0.008520 
3961.788064  	-0.008297 
3963.716880  	-0.008564 
3965.645696  	-0.008936 
3967.574512  	-0.008758 
3969.503328  	-0.008506 
3971.432144  	-0.008689 
3973.360960  	-0.008647 
3975.289776  	-0.008440 
3977.218592  	-0.008352 
3979.147408  	-0.008402 
3981.076224  	-0.008519 
3983.005040  	-0.008525 
3984.933856  	-0.008624 
3986.862672  	-0.008720 
3988.791488  	-0.008594 
3990.720304  	-0.008465 
3992.649120  	-0.008719 
3994.577936  	-0.008878 
3996.506752  	-0.008754 
3998.435568  	-0.008673 
4000.364384  	-0.008538 