##TITLE=No Description
##DATA TYPE=INFRARED SPECTRUM
##XUNITS=1/CM
##YUNITS=Abs
399.264912  	0.633960 
401.193728  	0.610355 
403.122544  	0.622379 
405.051360  	0.609967 
406.980176  	0.598478 
408.908992  	0.593165 
410.837808  	0.594592 
412.766624  	0.571335 
414.695440  	0.575613 
416.624256  	0.593760 
418.553072  	0.615206 
420.481888  	0.588642 
422.410704  	0.584146 
424.339520  	0.582175 
426.268336  	0.581962 
428.197152  	0.576932 
430.125968  	0.579397 
432.054784  	0.573883 
433.983600  	0.565469 
435.912416  	0.553992 
437.841232  	0.562038 
439.770048  	0.561770 
441.698864  	0.558193 
443.627680  	0.548814 
445.556496  	0.546040 
447.485312  	0.549487 
449.414128  	0.551442 
451.342944  	0.546957 
453.271760  	0.548522 
455.200576  	0.545431 
457.129392  	0.545796 
459.058208  	0.544703 
460.987024  	0.551749 
462.915840  	0.546120 
464.844656  	0.546798 
466.773472  	0.545916 
468.702288  	0.546839 
470.631104  	0.545930 
472.559920  	0.545397 
474.488736  	0.542011 
476.417552  	0.545591 
478.346368  	0.541294 
480.275184  	0.538852 
482.204000  	0.532571 
484.132816  	0.534981 
486.061632  	0.533147 
487.990448  	0.534386 
489.919264  	0.537685 
491.848080  	0.541805 
493.776896  	0.535586 
495.705712  	0.532912 
497.634528  	0.527503 
499.563344  	0.526631 
501.492160  	0.524892 
503.420976  	0.529779 
505.349792  	0.528384 
507.278608  	0.529748 
509.207424  	0.529734 
511.136240  	0.528517 
513.065056  	0.527251 
514.993872  	0.530845 
516.922688  	0.530621 
518.851504  	0.532815 
520.780320  	0.532558 
522.709136  	0.532433 
524.637952  	0.530426 
526.566768  	0.527767 
528.495584  	0.526330 
530.424400  	0.526787 
532.353216  	0.521493 
534.282032  	0.515467 
536.210848  	0.507766 
538.139664  	0.503763 
540.068480  	0.498836 
541.997296  	0.496516 
543.926112  	0.492970 
545.854928  	0.488195 
547.783744  	0.482085 
549.712560  	0.479899 
551.641376  	0.476610 
553.570192  	0.472738 
555.499008  	0.468333 
557.427824  	0.466191 
559.356640  	0.461200 
561.285456  	0.457380 
563.214272  	0.453611 
565.143088  	0.451084 
567.071904  	0.447502 
569.000720  	0.444355 
570.929536  	0.442195 
572.858352  	0.439747 
574.787168  	0.436746 
576.715984  	0.434638 
578.644800  	0.429867 
580.573616  	0.425867 
582.502432  	0.421390 
584.431248  	0.418450 
586.360064  	0.414764 
588.288880  	0.412418 
590.217696  	0.409640 
592.146512  	0.407187 
594.075328  	0.403918 
596.004144  	0.402885 
597.932960  	0.401846 
599.861776  	0.400257 
601.790592  	0.396837 
603.719408  	0.395075 
605.648224  	0.393669 
607.577040  	0.392237 
609.505856  	0.390521 
611.434672  	0.389080 
613.363488  	0.386889 
615.292304  	0.385337 
617.221120  	0.383379 
619.149936  	0.382750 
621.078752  	0.381190 
623.007568  	0.379699 
624.936384  	0.378065 
626.865200  	0.377153 
628.794016  	0.376097 
630.722832  	0.375465 
632.651648  	0.374473 
634.580464  	0.373929 
636.509280  	0.373375 
638.438096  	0.373757 
640.366912  	0.373273 
642.295728  	0.371421 
644.224544  	0.368537 
646.153360  	0.365158 
648.082176  	0.361228 
650.010992  	0.358134 
651.939808  	0.353819 
653.868624  	0.349687 
655.797440  	0.345833 
657.726256  	0.342020 
659.655072  	0.337790 
661.583888  	0.333915 
663.512704  	0.330370 
665.441520  	0.327577 
667.370336  	0.321917 
669.299152  	0.315452 
671.227968  	0.313472 
673.156784  	0.310494 
675.085600  	0.307249 
677.014416  	0.305048 
678.943232  	0.302782 
680.872048  	0.300746 
682.800864  	0.298854 
684.729680  	0.297278 
686.658496  	0.295806 
688.587312  	0.295090 
690.516128  	0.293389 
692.444944  	0.291764 
694.373760  	0.290309 
696.302576  	0.287964 
698.231392  	0.285191 
700.160208  	0.283296 
702.089024  	0.281447 
704.017840  	0.279315 
705.946656  	0.276638 
707.875472  	0.273913 
709.804288  	0.271359 
711.733104  	0.269178 
713.661920  	0.266938 
715.590736  	0.265615 
717.519552  	0.264728 
719.448368  	0.264669 
721.377184  	0.264951 
723.306000  	0.265354 
725.234816  	0.265381 
727.163632  	0.264828 
729.092448  	0.262632 
731.021264  	0.259315 
732.950080  	0.256249 
734.878896  	0.253397 
736.807712  	0.250056 
738.736528  	0.247372 
740.665344  	0.245270 
742.594160  	0.243196 
744.522976  	0.241490 
746.451792  	0.240160 
748.380608  	0.238466 
750.309424  	0.236805 
752.238240  	0.235705 
754.167056  	0.235046 
756.095872  	0.233785 
758.024688  	0.232652 
759.953504  	0.231840 
761.882320  	0.232427 
763.811136  	0.232840 
765.739952  	0.231703 
767.668768  	0.229135 
769.597584  	0.226677 
771.526400  	0.225302 
773.455216  	0.225916 
775.384032  	0.228731 
777.312848  	0.233379 
779.241664  	0.237472 
781.170480  	0.238149 
783.099296  	0.234584 
785.028112  	0.228825 
786.956928  	0.222665 
788.885744  	0.217834 
790.814560  	0.214390 
792.743376  	0.211572 
794.672192  	0.210210 
796.601008  	0.209728 
798.529824  	0.206943 
800.458640  	0.202211 
802.387456  	0.198183 
804.316272  	0.196364 
806.245088  	0.195337 
808.173904  	0.194295 
810.102720  	0.193502 
812.031536  	0.193054 
813.960352  	0.192786 
815.889168  	0.192775 
817.817984  	0.192765 
819.746800  	0.192977 
821.675616  	0.193029 
823.604432  	0.192485 
825.533248  	0.191835 
827.462064  	0.191244 
829.390880  	0.190005 
831.319696  	0.188432 
833.248512  	0.186545 
835.177328  	0.184465 
837.106144  	0.181873 
839.034960  	0.178773 
840.963776  	0.175360 
842.892592  	0.172055 
844.821408  	0.168678 
846.750224  	0.165619 
848.679040  	0.163091 
850.607856  	0.161257 
852.536672  	0.159517 
854.465488  	0.157785 
856.394304  	0.156492 
858.323120  	0.155203 
860.251936  	0.153308 
862.180752  	0.150873 
864.109568  	0.148255 
866.038384  	0.145959 
867.967200  	0.143918 
869.896016  	0.141931 
871.824832  	0.140666 
873.753648  	0.140346 
875.682464  	0.140806 
877.611280  	0.141171 
879.540096  	0.141675 
881.468912  	0.143506 
883.397728  	0.144879 
885.326544  	0.145891 
887.255360  	0.146070 
889.184176  	0.144834 
891.112992  	0.142881 
893.041808  	0.141157 
894.970624  	0.138777 
896.899440  	0.135552 
898.828256  	0.131582 
900.757072  	0.127499 
902.685888  	0.124294 
904.614704  	0.122322 
906.543520  	0.121947 
908.472336  	0.122879 
910.401152  	0.124830 
912.329968  	0.127240 
914.258784  	0.129991 
916.187600  	0.132821 
918.116416  	0.135017 
920.045232  	0.136442 
921.974048  	0.137314 
923.902864  	0.137470 
925.831680  	0.137147 
927.760496  	0.137237 
929.689312  	0.137443 
931.618128  	0.137906 
933.546944  	0.138348 
935.475760  	0.138658 
937.404576  	0.138461 
939.333392  	0.137965 
941.262208  	0.137906 
943.191024  	0.139128 
945.119840  	0.142356 
947.048656  	0.147532 
948.977472  	0.154650 
950.906288  	0.163172 
952.835104  	0.172796 
954.763920  	0.183020 
956.692736  	0.192608 
958.621552  	0.200694 
960.550368  	0.206353 
962.479184  	0.209059 
964.408000  	0.208239 
966.336816  	0.204041 
968.265632  	0.196240 
970.194448  	0.185830 
972.123264  	0.173904 
974.052080  	0.161191 
975.980896  	0.148713 
977.909712  	0.137254 
979.838528  	0.126906 
981.767344  	0.118014 
983.696160  	0.111025 
985.624976  	0.106488 
987.553792  	0.104679 
989.482608  	0.105259 
991.411424  	0.107865 
993.340240  	0.112106 
995.269056  	0.117713 
997.197872  	0.123707 
999.126688  	0.129746 
1001.055504  	0.135907 
1002.984320  	0.142198 
1004.913136  	0.148387 
1006.841952  	0.154349 
1008.770768  	0.159151 
1010.699584  	0.162475 
1012.628400  	0.164537 
1014.557216  	0.165382 
1016.486032  	0.165483 
1018.414848  	0.165043 
1020.343664  	0.164676 
1022.272480  	0.163806 
1024.201296  	0.162445 
1026.130112  	0.159160 
1028.058928  	0.157950 
1029.987744  	0.161010 
1031.916560  	0.162940 
1033.845376  	0.163848 
1035.774192  	0.164857 
1037.703008  	0.167336 
1039.631824  	0.173245 
1041.560640  	0.181529 
1043.489456  	0.192281 
1045.418272  	0.205514 
1047.347088  	0.220644 
1049.275904  	0.234803 
1051.204720  	0.246170 
1053.133536  	0.253725 
1055.062352  	0.257357 
1056.991168  	0.257366 
1058.919984  	0.258647 
1060.848800  	0.259943 
1062.777616  	0.258156 
1064.706432  	0.252525 
1066.635248  	0.247616 
1068.564064  	0.246304 
1070.492880  	0.242270 
1072.421696  	0.235176 
1074.350512  	0.230360 
1076.279328  	0.229269 
1078.208144  	0.231851 
1080.136960  	0.237313 
1082.065776  	0.243629 
1083.994592  	0.248127 
1085.923408  	0.249719 
1087.852224  	0.248019 
1089.781040  	0.244092 
1091.709856  	0.238486 
1093.638672  	0.230668 
1095.567488  	0.220063 
1097.496304  	0.208280 
1099.425120  	0.195811 
1101.353936  	0.183097 
1103.282752  	0.170701 
1105.211568  	0.159019 
1107.140384  	0.147761 
1109.069200  	0.137088 
1110.998016  	0.127230 
1112.926832  	0.118247 
1114.855648  	0.110170 
1116.784464  	0.102563 
1118.713280  	0.095554 
1120.642096  	0.088952 
1122.570912  	0.082839 
1124.499728  	0.076739 
1126.428544  	0.071292 
1128.357360  	0.066445 
1130.286176  	0.062456 
1132.214992  	0.059049 
1134.143808  	0.056373 
1136.072624  	0.054035 
1138.001440  	0.052115 
1139.930256  	0.049759 
1141.859072  	0.047454 
1143.787888  	0.045224 
1145.716704  	0.043187 
1147.645520  	0.041110 
1149.574336  	0.039383 
1151.503152  	0.038010 
1153.431968  	0.037485 
1155.360784  	0.037632 
1157.289600  	0.038480 
1159.218416  	0.039832 
1161.147232  	0.041713 
1163.076048  	0.043719 
1165.004864  	0.046137 
1166.933680  	0.048266 
1168.862496  	0.050516 
1170.791312  	0.052923 
1172.720128  	0.055809 
1174.648944  	0.058555 
1176.577760  	0.061239 
1178.506576  	0.063876 
1180.435392  	0.066570 
1182.364208  	0.069186 
1184.293024  	0.072192 
1186.221840  	0.075327 
1188.150656  	0.078865 
1190.079472  	0.082933 
1192.008288  	0.087952 
1193.937104  	0.094061 
1195.865920  	0.101267 
1197.794736  	0.109324 
1199.723552  	0.118012 
1201.652368  	0.126782 
1203.581184  	0.135832 
1205.510000  	0.144650 
1207.438816  	0.153087 
1209.367632  	0.161001 
1211.296448  	0.167996 
1213.225264  	0.173844 
1215.154080  	0.178275 
1217.082896  	0.181672 
1219.011712  	0.183964 
1220.940528  	0.185749 
1222.869344  	0.186701 
1224.798160  	0.186822 
1226.726976  	0.186391 
1228.655792  	0.185704 
1230.584608  	0.184204 
1232.513424  	0.182020 
1234.442240  	0.179429 
1236.371056  	0.176259 
1238.299872  	0.171715 
1240.228688  	0.164718 
1242.157504  	0.157837 
1244.086320  	0.152153 
1246.015136  	0.144856 
1247.943952  	0.136658 
1249.872768  	0.128633 
1251.801584  	0.121670 
1253.730400  	0.114591 
1255.659216  	0.107653 
1257.588032  	0.101069 
1259.516848  	0.094809 
1261.445664  	0.089106 
1263.374480  	0.083948 
1265.303296  	0.079566 
1267.232112  	0.076064 
1269.160928  	0.073296 
1271.089744  	0.071133 
1273.018560  	0.069935 
1274.947376  	0.069533 
1276.876192  	0.069572 
1278.805008  	0.069337 
1280.733824  	0.068225 
1282.662640  	0.066181 
1284.591456  	0.063813 
1286.520272  	0.061781 
1288.449088  	0.060392 
1290.377904  	0.059649 
1292.306720  	0.059747 
1294.235536  	0.059757 
1296.164352  	0.058820 
1298.093168  	0.056549 
1300.021984  	0.053815 
1301.950800  	0.050889 
1303.879616  	0.048085 
1305.808432  	0.045024 
1307.737248  	0.042025 
1309.666064  	0.039144 
1311.594880  	0.036941 
1313.523696  	0.035214 
1315.452512  	0.034120 
1317.381328  	0.033484 
1319.310144  	0.033203 
1321.238960  	0.033256 
1323.167776  	0.033903 
1325.096592  	0.034675 
1327.025408  	0.035397 
1328.954224  	0.035554 
1330.883040  	0.035169 
1332.811856  	0.034292 
1334.740672  	0.033829 
1336.669488  	0.033671 
1338.598304  	0.033630 
1340.527120  	0.032366 
1342.455936  	0.030930 
1344.384752  	0.030493 
1346.313568  	0.030703 
1348.242384  	0.031226 
1350.171200  	0.032303 
1352.100016  	0.033811 
1354.028832  	0.035680 
1355.957648  	0.037433 
1357.886464  	0.039375 
1359.815280  	0.041616 
1361.744096  	0.043922 
1363.672912  	0.045126 
1365.601728  	0.046079 
1367.530544  	0.047317 
1369.459360  	0.047786 
1371.388176  	0.047542 
1373.316992  	0.046275 
1375.245808  	0.043107 
1377.174624  	0.040698 
1379.103440  	0.037956 
1381.032256  	0.035017 
1382.961072  	0.032867 
1384.889888  	0.032107 
1386.818704  	0.031411 
1388.747520  	0.029744 
1390.676336  	0.027577 
1392.605152  	0.024314 
1394.533968  	0.022215 
1396.462784  	0.024977 
1398.391600  	0.026293 
1400.320416  	0.025722 
1402.249232  	0.026006 
1404.178048  	0.026501 
1406.106864  	0.027028 
1408.035680  	0.028837 
1409.964496  	0.031283 
1411.893312  	0.034058 
1413.822128  	0.036969 
1415.750944  	0.040465 
1417.679760  	0.042726 
1419.608576  	0.042421 
1421.537392  	0.042894 
1423.466208  	0.043203 
1425.395024  	0.041689 
1427.323840  	0.040456 
1429.252656  	0.038051 
1431.181472  	0.036389 
1433.110288  	0.036286 
1435.039104  	0.036831 
1436.967920  	0.036163 
1438.896736  	0.036892 
1440.825552  	0.038035 
1442.754368  	0.038577 
1444.683184  	0.038775 
1446.612000  	0.038713 
1448.540816  	0.037600 
1450.469632  	0.038134 
1452.398448  	0.038990 
1454.327264  	0.039894 
1456.256080  	0.038866 
1458.184896  	0.036108 
1460.113712  	0.037922 
1462.042528  	0.039821 
1463.971344  	0.039479 
1465.900160  	0.039775 
1467.828976  	0.042700 
1469.757792  	0.046002 
1471.686608  	0.048561 
1473.615424  	0.053645 
1475.544240  	0.060331 
1477.473056  	0.066147 
1479.401872  	0.070230 
1481.330688  	0.073328 
1483.259504  	0.075396 
1485.188320  	0.076972 
1487.117136  	0.076666 
1489.045952  	0.075698 
1490.974768  	0.072659 
1492.903584  	0.071086 
1494.832400  	0.068213 
1496.761216  	0.061431 
1498.690032  	0.055475 
1500.618848  	0.052020 
1502.547664  	0.048688 
1504.476480  	0.044441 
1506.405296  	0.036891 
1508.334112  	0.034673 
1510.262928  	0.035580 
1512.191744  	0.034044 
1514.120560  	0.033047 
1516.049376  	0.032100 
1517.978192  	0.031123 
1519.907008  	0.032445 
1521.835824  	0.032474 
1523.764640  	0.036882 
1525.693456  	0.041250 
1527.622272  	0.043558 
1529.551088  	0.044672 
1531.479904  	0.044534 
1533.408720  	0.040315 
1535.337536  	0.037554 
1537.266352  	0.035949 
1539.195168  	0.028044 
1541.123984  	0.021098 
1543.052800  	0.023848 
1544.981616  	0.024524 
1546.910432  	0.024457 
1548.839248  	0.024939 
1550.768064  	0.024945 
1552.696880  	0.024810 
1554.625696  	0.024951 
1556.554512  	0.024755 
1558.483328  	0.021814 
1560.412144  	0.026360 
1562.340960  	0.034156 
1564.269776  	0.038232 
1566.198592  	0.043266 
1568.127408  	0.047102 
1570.056224  	0.051667 
1571.985040  	0.058911 
1573.913856  	0.063707 
1575.842672  	0.064022 
1577.771488  	0.066807 
1579.700304  	0.069563 
1581.629120  	0.069726 
1583.557936  	0.069159 
1585.486752  	0.069891 
1587.415568  	0.072075 
1589.344384  	0.076220 
1591.273200  	0.081813 
1593.202016  	0.088708 
1595.130832  	0.095909 
1597.059648  	0.103663 
1598.988464  	0.110329 
1600.917280  	0.116032 
1602.846096  	0.119734 
1604.774912  	0.122283 
1606.703728  	0.122762 
1608.632544  	0.121799 
1610.561360  	0.119777 
1612.490176  	0.118516 
1614.418992  	0.116640 
1616.347808  	0.112994 
1618.276624  	0.113561 
1620.205440  	0.118732 
1622.134256  	0.121369 
1624.063072  	0.125984 
1625.991888  	0.133097 
1627.920704  	0.140859 
1629.849520  	0.150415 
1631.778336  	0.160223 
1633.707152  	0.166906 
1635.635968  	0.172338 
1637.564784  	0.181953 
1639.493600  	0.191482 
1641.422416  	0.197537 
1643.351232  	0.202113 
1645.280048  	0.202634 
1647.208864  	0.200218 
1649.137680  	0.202565 
1651.066496  	0.205181 
1652.995312  	0.196454 
1654.924128  	0.194643 
1656.852944  	0.197552 
1658.781760  	0.196512 
1660.710576  	0.193078 
1662.639392  	0.187280 
1664.568208  	0.183286 
1666.497024  	0.181736 
1668.425840  	0.175716 
1670.354656  	0.167707 
1672.283472  	0.165486 
1674.212288  	0.163096 
1676.141104  	0.157639 
1678.069920  	0.157558 
1679.998736  	0.156982 
1681.927552  	0.155523 
1683.856368  	0.149386 
1685.785184  	0.147805 
1687.714000  	0.151254 
1689.642816  	0.151076 
1691.571632  	0.149805 
1693.500448  	0.149249 
1695.429264  	0.144595 
1697.358080  	0.140695 
1699.286896  	0.138814 
1701.215712  	0.133123 
1703.144528  	0.133621 
1705.073344  	0.129814 
1707.002160  	0.123992 
1708.930976  	0.120422 
1710.859792  	0.114781 
1712.788608  	0.107969 
1714.717424  	0.099104 
1716.646240  	0.087482 
1718.575056  	0.074000 
1720.503872  	0.067301 
1722.432688  	0.061074 
1724.361504  	0.052011 
1726.290320  	0.044671 
1728.219136  	0.038371 
1730.147952  	0.032576 
1732.076768  	0.027590 
1734.005584  	0.020625 
1735.934400  	0.016214 
1737.863216  	0.016368 
1739.792032  	0.012866 
1741.720848  	0.011788 
1743.649664  	0.011249 
1745.578480  	0.010361 
1747.507296  	0.008575 
1749.436112  	0.007595 
1751.364928  	0.006711 
1753.293744  	0.006521 
1755.222560  	0.006353 
1757.151376  	0.005634 
1759.080192  	0.005086 
1761.009008  	0.004448 
1762.937824  	0.003096 
1764.866640  	0.003649 
1766.795456  	0.003911 
1768.724272  	0.003378 
1770.653088  	0.001076 
1772.581904  	-0.001339 
1774.510720  	0.000059 
1776.439536  	0.001805 
1778.368352  	0.002041 
1780.297168  	0.001574 
1782.225984  	0.001111 
1784.154800  	0.001612 
1786.083616  	0.001106 
1788.012432  	0.001222 
1789.941248  	0.001165 
1791.870064  	-0.000234 
1793.798880  	-0.001210 
1795.727696  	0.000289 
1797.656512  	0.000016 
1799.585328  	-0.000259 
1801.514144  	0.000140 
1803.442960  	0.000279 
1805.371776  	-0.000273 
1807.300592  	-0.000139 
1809.229408  	-0.000729 
1811.158224  	-0.000970 
1813.087040  	-0.001056 
1815.015856  	-0.000808 
1816.944672  	-0.000818 
1818.873488  	-0.000559 
1820.802304  	-0.000665 
1822.731120  	-0.000243 
1824.659936  	-0.001004 
1826.588752  	-0.001592 
1828.517568  	-0.002234 
1830.446384  	-0.002667 
1832.375200  	-0.001841 
1834.304016  	-0.001018 
1836.232832  	-0.001224 
1838.161648  	-0.001177 
1840.090464  	-0.001412 
1842.019280  	-0.001034 
1843.948096  	-0.002129 
1845.876912  	-0.001954 
1847.805728  	-0.001311 
1849.734544  	-0.001160 
1851.663360  	-0.001351 
1853.592176  	-0.001356 
1855.520992  	-0.001707 
1857.449808  	-0.001536 
1859.378624  	-0.001597 
1861.307440  	-0.001617 
1863.236256  	-0.001887 
1865.165072  	-0.001718 
1867.093888  	-0.002256 
1869.022704  	-0.002607 
1870.951520  	-0.002453 
1872.880336  	-0.001882 
1874.809152  	-0.001992 
1876.737968  	-0.002038 
1878.666784  	-0.002401 
1880.595600  	-0.001768 
1882.524416  	-0.001891 
1884.453232  	-0.002024 
1886.382048  	-0.002288 
1888.310864  	-0.002293 
1890.239680  	-0.002931 
1892.168496  	-0.002277 
1894.097312  	-0.002167 
1896.026128  	-0.001906 
1897.954944  	-0.002029 
1899.883760  	-0.001945 
1901.812576  	-0.002333 
1903.741392  	-0.002551 
1905.670208  	-0.002605 
1907.599024  	-0.001950 
1909.527840  	-0.002206 
1911.456656  	-0.002066 
1913.385472  	-0.002227 
1915.314288  	-0.001832 
1917.243104  	-0.002338 
1919.171920  	-0.002394 
1921.100736  	-0.002358 
1923.029552  	-0.002135 
1924.958368  	-0.002849 
1926.887184  	-0.002665 
1928.816000  	-0.002751 
1930.744816  	-0.002554 
1932.673632  	-0.002740 
1934.602448  	-0.002241 
1936.531264  	-0.002131 
1938.460080  	-0.001752 
1940.388896  	-0.002431 
1942.317712  	-0.002689 
1944.246528  	-0.002757 
1946.175344  	-0.001924 
1948.104160  	-0.002165 
1950.032976  	-0.002354 
1951.961792  	-0.002771 
1953.890608  	-0.002546 
1955.819424  	-0.002469 
1957.748240  	-0.002436 
1959.677056  	-0.003491 
1961.605872  	-0.002355 
1963.534688  	-0.002538 
1965.463504  	-0.001867 
1967.392320  	-0.002450 
1969.321136  	-0.002393 
1971.249952  	-0.002429 
1973.178768  	-0.000872 
1975.107584  	-0.001506 
1977.036400  	-0.001129 
1978.965216  	-0.000501 
1980.894032  	-0.000937 
1982.822848  	-0.001618 
1984.751664  	-0.001328 
1986.680480  	-0.002182 
1988.609296  	-0.001484 
1990.538112  	-0.002079 
1992.466928  	-0.001510 
1994.395744  	-0.001589 
1996.324560  	-0.001218 
1998.253376  	-0.002114 
2000.182192  	-0.002227 
2002.111008  	-0.002587 
2004.039824  	-0.002359 
2005.968640  	-0.003005 
2007.897456  	-0.001971 
2009.826272  	-0.002086 
2011.755088  	-0.001399 
2013.683904  	-0.001729 
2015.612720  	-0.001711 
2017.541536  	-0.002160 
2019.470352  	-0.001742 
2021.399168  	-0.003096 
2023.327984  	-0.002888 
2025.256800  	-0.001722 
2027.185616  	-0.000370 
2029.114432  	-0.001195 
2031.043248  	-0.000025 
2032.972064  	0.000255 
2034.900880  	0.000170 
2036.829696  	-0.001204 
2038.758512  	-0.000865 
2040.687328  	-0.000954 
2042.616144  	-0.000650 
2044.544960  	-0.000724 
2046.473776  	-0.000461 
2048.402592  	-0.000890 
2050.331408  	-0.000431 
2052.260224  	-0.001514 
2054.189040  	-0.001855 
2056.117856  	-0.002183 
2058.046672  	-0.001585 
2059.975488  	-0.001520 
2061.904304  	-0.001487 
2063.833120  	-0.001169 
2065.761936  	-0.000905 
2067.690752  	-0.001607 
2069.619568  	-0.001301 
2071.548384  	-0.000794 
2073.477200  	-0.000811 
2075.406016  	-0.001130 
2077.334832  	-0.001113 
2079.263648  	-0.001218 
2081.192464  	-0.000732 
2083.121280  	-0.001232 
2085.050096  	-0.001682 
2086.978912  	-0.001674 
2088.907728  	-0.001456 
2090.836544  	-0.001709 
2092.765360  	-0.001410 
2094.694176  	-0.001154 
2096.622992  	-0.000570 
2098.551808  	-0.000485 
2100.480624  	-0.000793 
2102.409440  	-0.001497 
2104.338256  	-0.001487 
2106.267072  	-0.001027 
2108.195888  	-0.000633 
2110.124704  	-0.000785 
2112.053520  	-0.000505 
2113.982336  	-0.000562 
2115.911152  	-0.000549 
2117.839968  	-0.000803 
2119.768784  	-0.000854 
2121.697600  	-0.001377 
2123.626416  	-0.001437 
2125.555232  	-0.001559 
2127.484048  	-0.000974 
2129.412864  	-0.001249 
2131.341680  	-0.001348 
2133.270496  	-0.001426 
2135.199312  	-0.001063 
2137.128128  	-0.000747 
2139.056944  	-0.000260 
2140.985760  	-0.000990 
2142.914576  	-0.001037 
2144.843392  	-0.000584 
2146.772208  	-0.000091 
2148.701024  	-0.000362 
2150.629840  	0.000726 
2152.558656  	0.000372 
2154.487472  	-0.000406 
2156.416288  	-0.001367 
2158.345104  	-0.000628 
2160.273920  	0.000790 
2162.202736  	0.001892 
2164.131552  	0.001782 
2166.060368  	0.001729 
2167.989184  	0.001554 
2169.918000  	0.003095 
2171.846816  	0.002671 
2173.775632  	0.001997 
2175.704448  	0.001450 
2177.633264  	0.000968 
2179.562080  	-0.000041 
2181.490896  	-0.000091 
2183.419712  	-0.000410 
2185.348528  	-0.000063 
2187.277344  	0.000085 
2189.206160  	0.000019 
2191.134976  	-0.000140 
2193.063792  	0.000506 
2194.992608  	0.000918 
2196.921424  	0.000658 
2198.850240  	0.000382 
2200.779056  	0.000688 
2202.707872  	0.000005 
2204.636688  	-0.000017 
2206.565504  	0.000205 
2208.494320  	0.000128 
2210.423136  	-0.000469 
2212.351952  	-0.000570 
2214.280768  	-0.000468 
2216.209584  	-0.000258 
2218.138400  	-0.000736 
2220.067216  	-0.000682 
2221.996032  	-0.000825 
2223.924848  	-0.000400 
2225.853664  	0.000354 
2227.782480  	0.000736 
2229.711296  	-0.000221 
2231.640112  	-0.000541 
2233.568928  	-0.000612 
2235.497744  	-0.000468 
2237.426560  	-0.000908 
2239.355376  	-0.000676 
2241.284192  	-0.000521 
2243.213008  	-0.000746 
2245.141824  	-0.001152 
2247.070640  	-0.000855 
2248.999456  	-0.001190 
2250.928272  	-0.001676 
2252.857088  	-0.002309 
2254.785904  	-0.002128 
2256.714720  	-0.002133 
2258.643536  	-0.002246 
2260.572352  	-0.002194 
2262.501168  	-0.002112 
2264.429984  	-0.001905 
2266.358800  	-0.001681 
2268.287616  	-0.001840 
2270.216432  	-0.001671 
2272.145248  	-0.001784 
2274.074064  	-0.001956 
2276.002880  	-0.001797 
2277.931696  	-0.001372 
2279.860512  	-0.001124 
2281.789328  	-0.000835 
2283.718144  	-0.000942 
2285.646960  	-0.000766 
2287.575776  	-0.000958 
2289.504592  	-0.001081 
2291.433408  	-0.001211 
2293.362224  	-0.001016 
2295.291040  	-0.000534 
2297.219856  	-0.000002 
2299.148672  	-0.000039 
2301.077488  	-0.000000 
2303.006304  	0.000104 
2304.935120  	0.000541 
2306.863936  	0.000673 
2308.792752  	0.000530 
2310.721568  	0.000275 
2312.650384  	-0.000000 
2314.579200  	-0.000558 
2316.508016  	-0.001247 
2318.436832  	-0.001836 
2320.365648  	-0.002437 
2322.294464  	-0.003621 
2324.223280  	-0.005167 
2326.152096  	-0.006975 
2328.080912  	-0.008368 
2330.009728  	-0.009847 
2331.938544  	-0.011273 
2333.867360  	-0.012339 
2335.796176  	-0.013187 
2337.724992  	-0.014131 
2339.653808  	-0.014292 
2341.582624  	-0.014705 
2343.511440  	-0.013909 
2345.440256  	-0.011764 
2347.369072  	-0.007850 
2349.297888  	-0.005522 
2351.226704  	-0.007461 
2353.155520  	-0.011913 
2355.084336  	-0.015057 
2357.013152  	-0.017219 
2358.941968  	-0.018772 
2360.870784  	-0.020329 
2362.799600  	-0.019583 
2364.728416  	-0.018280 
2366.657232  	-0.015971 
2368.586048  	-0.013519 
2370.514864  	-0.011196 
2372.443680  	-0.008776 
2374.372496  	-0.005967 
2376.301312  	-0.003564 
2378.230128  	-0.001792 
2380.158944  	-0.001086 
2382.087760  	-0.001026 
2384.016576  	-0.001365 
2385.945392  	-0.001746 
2387.874208  	-0.002005 
2389.803024  	-0.002202 
2391.731840  	-0.002571 
2393.660656  	-0.002655 
2395.589472  	-0.002623 
2397.518288  	-0.002434 
2399.447104  	-0.002361 
2401.375920  	-0.002426 
2403.304736  	-0.002678 
2405.233552  	-0.002618 
2407.162368  	-0.002645 
2409.091184  	-0.002499 
2411.020000  	-0.002592 
2412.948816  	-0.002672 
2414.877632  	-0.002509 
2416.806448  	-0.002242 
2418.735264  	-0.002319 
2420.664080  	-0.002559 
2422.592896  	-0.002566 
2424.521712  	-0.002259 
2426.450528  	-0.002475 
2428.379344  	-0.002528 
2430.308160  	-0.002294 
2432.236976  	-0.002233 
2434.165792  	-0.002256 
2436.094608  	-0.002062 
2438.023424  	-0.002014 
2439.952240  	-0.001951 
2441.881056  	-0.001984 
2443.809872  	-0.001914 
2445.738688  	-0.001752 
2447.667504  	-0.001638 
2449.596320  	-0.001662 
2451.525136  	-0.001529 
2453.453952  	-0.001560 
2455.382768  	-0.001801 
2457.311584  	-0.002028 
2459.240400  	-0.001877 
2461.169216  	-0.001674 
2463.098032  	-0.001776 
2465.026848  	-0.001932 
2466.955664  	-0.002082 
2468.884480  	-0.002240 
2470.813296  	-0.002128 
2472.742112  	-0.001986 
2474.670928  	-0.001877 
2476.599744  	-0.001972 
2478.528560  	-0.001854 
2480.457376  	-0.001884 
2482.386192  	-0.001952 
2484.315008  	-0.001817 
2486.243824  	-0.001780 
2488.172640  	-0.001883 
2490.101456  	-0.001604 
2492.030272  	-0.001261 
2493.959088  	-0.001153 
2495.887904  	-0.001253 
2497.816720  	-0.001284 
2499.745536  	-0.001237 
2501.674352  	-0.001076 
2503.603168  	-0.000901 
2505.531984  	-0.000798 
2507.460800  	-0.001021 
2509.389616  	-0.001110 
2511.318432  	-0.001044 
2513.247248  	-0.000992 
2515.176064  	-0.000910 
2517.104880  	-0.000841 
2519.033696  	-0.001027 
2520.962512  	-0.000927 
2522.891328  	-0.000768 
2524.820144  	-0.000864 
2526.748960  	-0.000888 
2528.677776  	-0.000678 
2530.606592  	-0.000764 
2532.535408  	-0.000825 
2534.464224  	-0.000700 
2536.393040  	-0.000636 
2538.321856  	-0.000611 
2540.250672  	-0.000343 
2542.179488  	-0.000197 
2544.108304  	-0.000297 
2546.037120  	-0.000436 
2547.965936  	-0.000374 
2549.894752  	-0.000300 
2551.823568  	-0.000179 
2553.752384  	-0.000049 
2555.681200  	0.000337 
2557.610016  	0.000400 
2559.538832  	0.000343 
2561.467648  	0.000435 
2563.396464  	0.000631 
2565.325280  	0.000709 
2567.254096  	0.000506 
2569.182912  	0.000520 
2571.111728  	0.000663 
2573.040544  	0.000665 
2574.969360  	0.000771 
2576.898176  	0.001068 
2578.826992  	0.001043 
2580.755808  	0.000960 
2582.684624  	0.001093 
2584.613440  	0.001151 
2586.542256  	0.001257 
2588.471072  	0.001422 
2590.399888  	0.001549 
2592.328704  	0.001598 
2594.257520  	0.001560 
2596.186336  	0.001512 
2598.115152  	0.001673 
2600.043968  	0.001736 
2601.972784  	0.001895 
2603.901600  	0.002081 
2605.830416  	0.002121 
2607.759232  	0.002133 
2609.688048  	0.002296 
2611.616864  	0.002435 
2613.545680  	0.002538 
2615.474496  	0.002615 
2617.403312  	0.002750 
2619.332128  	0.002814 
2621.260944  	0.002783 
2623.189760  	0.002815 
2625.118576  	0.002993 
2627.047392  	0.003046 
2628.976208  	0.003241 
2630.905024  	0.003421 
2632.833840  	0.003483 
2634.762656  	0.003476 
2636.691472  	0.003513 
2638.620288  	0.003723 
2640.549104  	0.003900 
2642.477920  	0.003961 
2644.406736  	0.004023 
2646.335552  	0.004061 
2648.264368  	0.004184 
2650.193184  	0.004313 
2652.122000  	0.004488 
2654.050816  	0.004599 
2655.979632  	0.004702 
2657.908448  	0.004821 
2659.837264  	0.004968 
2661.766080  	0.005064 
2663.694896  	0.005151 
2665.623712  	0.005122 
2667.552528  	0.005350 
2669.481344  	0.005542 
2671.410160  	0.005562 
2673.338976  	0.005664 
2675.267792  	0.005833 
2677.196608  	0.006060 
2679.125424  	0.006176 
2681.054240  	0.006193 
2682.983056  	0.006293 
2684.911872  	0.006316 
2686.840688  	0.006495 
2688.769504  	0.006640 
2690.698320  	0.006716 
2692.627136  	0.006705 
2694.555952  	0.006709 
2696.484768  	0.006749 
2698.413584  	0.006827 
2700.342400  	0.006981 
2702.271216  	0.007215 
2704.200032  	0.007397 
2706.128848  	0.007472 
2708.057664  	0.007458 
2709.986480  	0.007596 
2711.915296  	0.007753 
2713.844112  	0.007860 
2715.772928  	0.007981 
2717.701744  	0.008199 
2719.630560  	0.008385 
2721.559376  	0.008458 
2723.488192  	0.008527 
2725.417008  	0.008779 
2727.345824  	0.009009 
2729.274640  	0.009076 
2731.203456  	0.009147 
2733.132272  	0.009369 
2735.061088  	0.009421 
2736.989904  	0.009515 
2738.918720  	0.009632 
2740.847536  	0.009754 
2742.776352  	0.009768 
2744.705168  	0.009923 
2746.633984  	0.009995 
2748.562800  	0.009987 
2750.491616  	0.010046 
2752.420432  	0.010133 
2754.349248  	0.010088 
2756.278064  	0.010140 
2758.206880  	0.010046 
2760.135696  	0.009934 
2762.064512  	0.009925 
2763.993328  	0.009967 
2765.922144  	0.010031 
2767.850960  	0.010138 
2769.779776  	0.010159 
2771.708592  	0.010063 
2773.637408  	0.010004 
2775.566224  	0.010055 
2777.495040  	0.010055 
2779.423856  	0.010110 
2781.352672  	0.010136 
2783.281488  	0.010098 
2785.210304  	0.010103 
2787.139120  	0.010176 
2789.067936  	0.010209 
2790.996752  	0.010255 
2792.925568  	0.010154 
2794.854384  	0.010121 
2796.783200  	0.010085 
2798.712016  	0.009981 
2800.640832  	0.009994 
2802.569648  	0.010072 
2804.498464  	0.010101 
2806.427280  	0.010044 
2808.356096  	0.010035 
2810.284912  	0.010102 
2812.213728  	0.010108 
2814.142544  	0.010048 
2816.071360  	0.010037 
2818.000176  	0.009902 
2819.928992  	0.009815 
2821.857808  	0.009798 
2823.786624  	0.009624 
2825.715440  	0.009439 
2827.644256  	0.009355 
2829.573072  	0.009244 
2831.501888  	0.008935 
2833.430704  	0.008580 
2835.359520  	0.008284 
2837.288336  	0.007971 
2839.217152  	0.007662 
2841.145968  	0.007339 
2843.074784  	0.006956 
2845.003600  	0.006447 
2846.932416  	0.005906 
2848.861232  	0.005618 
2850.790048  	0.005300 
2852.718864  	0.004820 
2854.647680  	0.004266 
2856.576496  	0.003630 
2858.505312  	0.003056 
2860.434128  	0.002578 
2862.362944  	0.001816 
2864.291760  	0.000953 
2866.220576  	0.000348 
2868.149392  	0.000054 
2870.078208  	-0.000151 
2872.007024  	-0.000226 
2873.935840  	-0.000122 
2875.864656  	-0.000119 
2877.793472  	-0.000258 
2879.722288  	-0.000481 
2881.651104  	-0.000877 
2883.579920  	-0.001032 
2885.508736  	-0.000750 
2887.437552  	-0.000400 
2889.366368  	-0.000371 
2891.295184  	-0.000687 
2893.224000  	-0.000862 
2895.152816  	-0.000767 
2897.081632  	-0.001129 
2899.010448  	-0.002872 
2900.939264  	-0.004423 
2902.868080  	-0.003197 
2904.796896  	-0.001820 
2906.725712  	-0.001186 
2908.654528  	-0.000568 
2910.583344  	-0.000229 
2912.512160  	0.000367 
2914.440976  	0.001515 
2916.369792  	0.002316 
2918.298608  	0.002772 
2920.227424  	0.003245 
2922.156240  	0.003969 
2924.085056  	0.004798 
2926.013872  	0.005747 
2927.942688  	0.006805 
2929.871504  	0.007877 
2931.800320  	0.008804 
2933.729136  	0.009590 
2935.657952  	0.010250 
2937.586768  	0.010989 
2939.515584  	0.011656 
2941.444400  	0.011954 
2943.373216  	0.012061 
2945.302032  	0.012367 
2947.230848  	0.012677 
2949.159664  	0.012441 
2951.088480  	0.011821 
2953.017296  	0.011317 
2954.946112  	0.010638 
2956.874928  	0.009948 
2958.803744  	0.009076 
2960.732560  	0.008522 
2962.661376  	0.007922 
2964.590192  	0.006926 
2966.519008  	0.005778 
2968.447824  	0.004913 
2970.376640  	0.004109 
2972.305456  	0.003423 
2974.234272  	0.003461 
2976.163088  	0.003784 
2978.091904  	0.003900 
2980.020720  	0.003989 
2981.949536  	0.004118 
2983.878352  	0.003886 
2985.807168  	0.002966 
2987.735984  	0.002094 
2989.664800  	0.002516 
2991.593616  	0.005641 
2993.522432  	0.007758 
2995.451248  	0.008261 
2997.380064  	0.009023 
2999.308880  	0.010266 
3001.237696  	0.011690 
3003.166512  	0.013196 
3005.095328  	0.014617 
3007.024144  	0.016013 
3008.952960  	0.017579 
3010.881776  	0.019098 
3012.810592  	0.020446 
3014.739408  	0.021666 
3016.668224  	0.022905 
3018.597040  	0.024308 
3020.525856  	0.025645 
3022.454672  	0.026744 
3024.383488  	0.027867 
3026.312304  	0.028892 
3028.241120  	0.029880 
3030.169936  	0.030909 
3032.098752  	0.031730 
3034.027568  	0.032552 
3035.956384  	0.033397 
3037.885200  	0.034209 
3039.814016  	0.035113 
3041.742832  	0.036044 
3043.671648  	0.036565 
3045.600464  	0.036996 
3047.529280  	0.037505 
3049.458096  	0.038173 
3051.386912  	0.038979 
3053.315728  	0.039550 
3055.244544  	0.040140 
3057.173360  	0.040815 
3059.102176  	0.041369 
3061.030992  	0.042012 
3062.959808  	0.042758 
3064.888624  	0.043407 
3066.817440  	0.044205 
3068.746256  	0.045249 
3070.675072  	0.046228 
3072.603888  	0.046980 
3074.532704  	0.047561 
3076.461520  	0.048348 
3078.390336  	0.049252 
3080.319152  	0.050068 
3082.247968  	0.050943 
3084.176784  	0.051792 
3086.105600  	0.052656 
3088.034416  	0.053391 
3089.963232  	0.054170 
3091.892048  	0.054905 
3093.820864  	0.055668 
3095.749680  	0.056452 
3097.678496  	0.057414 
3099.607312  	0.058400 
3101.536128  	0.059407 
3103.464944  	0.060435 
3105.393760  	0.061120 
3107.322576  	0.061845 
3109.251392  	0.062600 
3111.180208  	0.063257 
3113.109024  	0.063980 
3115.037840  	0.064787 
3116.966656  	0.065687 
3118.895472  	0.066391 
3120.824288  	0.067000 
3122.753104  	0.067769 
3124.681920  	0.068386 
3126.610736  	0.068959 
3128.539552  	0.069793 
3130.468368  	0.070549 
3132.397184  	0.071069 
3134.326000  	0.071797 
3136.254816  	0.072548 
3138.183632  	0.073248 
3140.112448  	0.073764 
3142.041264  	0.074336 
3143.970080  	0.075061 
3145.898896  	0.075762 
3147.827712  	0.076457 
3149.756528  	0.077002 
3151.685344  	0.077584 
3153.614160  	0.078481 
3155.542976  	0.079232 
3157.471792  	0.079919 
3159.400608  	0.080750 
3161.329424  	0.081460 
3163.258240  	0.081882 
3165.187056  	0.082354 
3167.115872  	0.082893 
3169.044688  	0.083353 
3170.973504  	0.083908 
3172.902320  	0.084421 
3174.831136  	0.084917 
3176.759952  	0.085381 
3178.688768  	0.085731 
3180.617584  	0.086239 
3182.546400  	0.086744 
3184.475216  	0.087057 
3186.404032  	0.087124 
3188.332848  	0.087277 
3190.261664  	0.087747 
3192.190480  	0.088001 
3194.119296  	0.088087 
3196.048112  	0.088292 
3197.976928  	0.088266 
3199.905744  	0.088133 
3201.834560  	0.087889 
3203.763376  	0.087943 
3205.692192  	0.088140 
3207.621008  	0.088072 
3209.549824  	0.087897 
3211.478640  	0.087843 
3213.407456  	0.087740 
3215.336272  	0.087504 
3217.265088  	0.087391 
3219.193904  	0.087350 
3221.122720  	0.087392 
3223.051536  	0.087382 
3224.980352  	0.087101 
3226.909168  	0.086805 
3228.837984  	0.086464 
3230.766800  	0.086348 
3232.695616  	0.086469 
3234.624432  	0.086483 
3236.553248  	0.086416 
3238.482064  	0.086309 
3240.410880  	0.086290 
3242.339696  	0.086407 
3244.268512  	0.086413 
3246.197328  	0.086619 
3248.126144  	0.087003 
3250.054960  	0.087218 
3251.983776  	0.087324 
3253.912592  	0.087468 
3255.841408  	0.087816 
3257.770224  	0.088055 
3259.699040  	0.088318 
3261.627856  	0.088635 
3263.556672  	0.088796 
3265.485488  	0.089061 
3267.414304  	0.089307 
3269.343120  	0.089619 
3271.271936  	0.089895 
3273.200752  	0.089943 
3275.129568  	0.090068 
3277.058384  	0.090458 
3278.987200  	0.090828 
3280.916016  	0.091033 
3282.844832  	0.091258 
3284.773648  	0.091384 
3286.702464  	0.091467 
3288.631280  	0.091739 
3290.560096  	0.092153 
3292.488912  	0.092565 
3294.417728  	0.092886 
3296.346544  	0.093365 
3298.275360  	0.093630 
3300.204176  	0.093826 
3302.132992  	0.094320 
3304.061808  	0.094694 
3305.990624  	0.094966 
3307.919440  	0.095345 
3309.848256  	0.095711 
3311.777072  	0.096040 
3313.705888  	0.096605 
3315.634704  	0.097222 
3317.563520  	0.097684 
3319.492336  	0.097998 
3321.421152  	0.098282 
3323.349968  	0.098514 
3325.278784  	0.098631 
3327.207600  	0.098663 
3329.136416  	0.098677 
3331.065232  	0.098814 
3332.994048  	0.099206 
3334.922864  	0.099431 
3336.851680  	0.099343 
3338.780496  	0.099300 
3340.709312  	0.099235 
3342.638128  	0.099010 
3344.566944  	0.098513 
3346.495760  	0.098221 
3348.424576  	0.097991 
3350.353392  	0.097725 
3352.282208  	0.097599 
3354.211024  	0.097443 
3356.139840  	0.097183 
3358.068656  	0.096831 
3359.997472  	0.096399 
3361.926288  	0.095784 
3363.855104  	0.095398 
3365.783920  	0.095232 
3367.712736  	0.094966 
3369.641552  	0.094561 
3371.570368  	0.094069 
3373.499184  	0.093687 
3375.428000  	0.093233 
3377.356816  	0.092812 
3379.285632  	0.092701 
3381.214448  	0.092413 
3383.143264  	0.091901 
3385.072080  	0.091355 
3387.000896  	0.090880 
3388.929712  	0.090463 
3390.858528  	0.090087 
3392.787344  	0.089701 
3394.716160  	0.089267 
3396.644976  	0.089000 
3398.573792  	0.088733 
3400.502608  	0.088320 
3402.431424  	0.087641 
3404.360240  	0.087147 
3406.289056  	0.086527 
3408.217872  	0.085988 
3410.146688  	0.085434 
3412.075504  	0.085039 
3414.004320  	0.084561 
3415.933136  	0.084106 
3417.861952  	0.083517 
3419.790768  	0.083021 
3421.719584  	0.082431 
3423.648400  	0.081924 
3425.577216  	0.081292 
3427.506032  	0.080599 
3429.434848  	0.079984 
3431.363664  	0.079434 
3433.292480  	0.078949 
3435.221296  	0.078335 
3437.150112  	0.077877 
3439.078928  	0.077346 
3441.007744  	0.076613 
3442.936560  	0.075991 
3444.865376  	0.075435 
3446.794192  	0.074673 
3448.723008  	0.073850 
3450.651824  	0.073305 
3452.580640  	0.072618 
3454.509456  	0.072065 
3456.438272  	0.071471 
3458.367088  	0.070889 
3460.295904  	0.070210 
3462.224720  	0.069353 
3464.153536  	0.068587 
3466.082352  	0.067702 
3468.011168  	0.066643 
3469.939984  	0.065834 
3471.868800  	0.065161 
3473.797616  	0.064381 
3475.726432  	0.063391 
3477.655248  	0.062570 
3479.584064  	0.061978 
3481.512880  	0.061198 
3483.441696  	0.060126 
3485.370512  	0.059460 
3487.299328  	0.058485 
3489.228144  	0.057525 
3491.156960  	0.056726 
3493.085776  	0.056026 
3495.014592  	0.055224 
3496.943408  	0.054498 
3498.872224  	0.053853 
3500.801040  	0.053391 
3502.729856  	0.052631 
3504.658672  	0.051593 
3506.587488  	0.051083 
3508.516304  	0.050564 
3510.445120  	0.049591 
3512.373936  	0.048650 
3514.302752  	0.048055 
3516.231568  	0.047729 
3518.160384  	0.047250 
3520.089200  	0.046498 
3522.018016  	0.045911 
3523.946832  	0.045518 
3525.875648  	0.044566 
3527.804464  	0.043293 
3529.733280  	0.042429 
3531.662096  	0.041911 
3533.590912  	0.041458 
3535.519728  	0.041176 
3537.448544  	0.040640 
3539.377360  	0.039772 
3541.306176  	0.039021 
3543.234992  	0.038675 
3545.163808  	0.038742 
3547.092624  	0.037900 
3549.021440  	0.036573 
3550.950256  	0.035875 
3552.879072  	0.035170 
3554.807888  	0.034459 
3556.736704  	0.033754 
3558.665520  	0.033408 
3560.594336  	0.033051 
3562.523152  	0.032149 
3564.451968  	0.031567 
3566.380784  	0.031473 
3568.309600  	0.030023 
3570.238416  	0.029094 
3572.167232  	0.028487 
3574.096048  	0.027442 
3576.024864  	0.026630 
3577.953680  	0.026425 
3579.882496  	0.025938 
3581.811312  	0.025113 
3583.740128  	0.024343 
3585.668944  	0.023776 
3587.597760  	0.022533 
3589.526576  	0.021308 
3591.455392  	0.020588 
3593.384208  	0.019975 
3595.313024  	0.019151 
3597.241840  	0.017896 
3599.170656  	0.016580 
3601.099472  	0.015735 
3603.028288  	0.015588 
3604.957104  	0.015437 
3606.885920  	0.014645 
3608.814736  	0.013397 
3610.743552  	0.012830 
3612.672368  	0.011897 
3614.601184  	0.010504 
3616.530000  	0.009722 
3618.458816  	0.008000 
3620.387632  	0.006790 
3622.316448  	0.006855 
3624.245264  	0.006442 
3626.174080  	0.005598 
3628.102896  	0.003240 
3630.031712  	0.000708 
3631.960528  	0.001839 
3633.889344  	0.001626 
3635.818160  	0.000912 
3637.746976  	0.000020 
3639.675792  	-0.000540 
3641.604608  	-0.001091 
3643.533424  	-0.001960 
3645.462240  	-0.003232 
3647.391056  	-0.006425 
3649.319872  	-0.010171 
3651.248688  	-0.010643 
3653.177504  	-0.008512 
3655.106320  	-0.008739 
3657.035136  	-0.010818 
3658.963952  	-0.010832 
3660.892768  	-0.010760 
3662.821584  	-0.011101 
3664.750400  	-0.011449 
3666.679216  	-0.011866 
3668.608032  	-0.013890 
3670.536848  	-0.016409 
3672.465664  	-0.015056 
3674.394480  	-0.016245 
3676.323296  	-0.019235 
3678.252112  	-0.015972 
3680.180928  	-0.014218 
3682.109744  	-0.013807 
3684.038560  	-0.014021 
3685.967376  	-0.014581 
3687.896192  	-0.016835 
3689.825008  	-0.018954 
3691.753824  	-0.017662 
3693.682640  	-0.015436 
3695.611456  	-0.014383 
3697.540272  	-0.013631 
3699.469088  	-0.013103 
3701.397904  	-0.013593 
3703.326720  	-0.013166 
3705.255536  	-0.012092 
3707.184352  	-0.012004 
3709.113168  	-0.013383 
3711.041984  	-0.015123 
3712.970800  	-0.013803 
3714.899616  	-0.011422 
3716.828432  	-0.010864 
3718.757248  	-0.011267 
3720.686064  	-0.011865 
3722.614880  	-0.012342 
3724.543696  	-0.011874 
3726.472512  	-0.011752 
3728.401328  	-0.011849 
3730.330144  	-0.012637 
3732.258960  	-0.014309 
3734.187776  	-0.013954 
3736.116592  	-0.014013 
3738.045408  	-0.013628 
3739.974224  	-0.012198 
3741.903040  	-0.011540 
3743.831856  	-0.013264 
3745.760672  	-0.014673 
3747.689488  	-0.013831 
3749.618304  	-0.016086 
3751.547120  	-0.017124 
3753.475936  	-0.014448 
3755.404752  	-0.012495 
3757.333568  	-0.012166 
3759.262384  	-0.012508 
3761.191200  	-0.011970 
3763.120016  	-0.010689 
3765.048832  	-0.011131 
3766.977648  	-0.011485 
3768.906464  	-0.012181 
3770.835280  	-0.012293 
3772.764096  	-0.010918 
3774.692912  	-0.010430 
3776.621728  	-0.010522 
3778.550544  	-0.011605 
3780.479360  	-0.012201 
3782.408176  	-0.011266 
3784.336992  	-0.011325 
3786.265808  	-0.011026 
3788.194624  	-0.010622 
3790.123440  	-0.010685 
3792.052256  	-0.010707 
3793.981072  	-0.010909 
3795.909888  	-0.012089 
3797.838704  	-0.012321 
3799.767520  	-0.013041 
3801.696336  	-0.015845 
3803.625152  	-0.014078 
3805.553968  	-0.012928 
3807.482784  	-0.013689 
3809.411600  	-0.011842 
3811.340416  	-0.010648 
3813.269232  	-0.010767 
3815.198048  	-0.012990 
3817.126864  	-0.014204 
3819.055680  	-0.013614 
3820.984496  	-0.015761 
3822.913312  	-0.014153 
3824.842128  	-0.012133 
3826.770944  	-0.012328 
3828.699760  	-0.011760 
3830.628576  	-0.011971 
3832.557392  	-0.012796 
3834.486208  	-0.012965 
3836.415024  	-0.014060 
3838.343840  	-0.014995 
3840.272656  	-0.014024 
3842.201472  	-0.012552 
3844.130288  	-0.012119 
3846.059104  	-0.011275 
3847.987920  	-0.010771 
3849.916736  	-0.011329 
3851.845552  	-0.013628 
3853.774368  	-0.016902 
3855.703184  	-0.014374 
3857.632000  	-0.012063 
3859.560816  	-0.010982 
3861.489632  	-0.011109 
3863.418448  	-0.012114 
3865.347264  	-0.012239 
3867.276080  	-0.011293 
3869.204896  	-0.012180 
3871.133712  	-0.012464 
3873.062528  	-0.011893 
3874.991344  	-0.011939 
3876.920160  	-0.010725 
3878.848976  	-0.010419 
3880.777792  	-0.011025 
3882.706608  	-0.010680 
3884.635424  	-0.010992 
3886.564240  	-0.011661 
3888.493056  	-0.010888 
3890.421872  	-0.011100 
3892.350688  	-0.011669 
3894.279504  	-0.010779 
3896.208320  	-0.010313 
3898.137136  	-0.010430 
3900.065952  	-0.010693 
3901.994768  	-0.010755 
3903.923584  	-0.011246 
3905.852400  	-0.011168 
3907.781216  	-0.010607 
3909.710032  	-0.010395 
3911.638848  	-0.010364 
3913.567664  	-0.010149 
3915.496480  	-0.009949 
3917.425296  	-0.010170 
3919.354112  	-0.010441 
3921.282928  	-0.010286 
3923.211744  	-0.009935 
3925.140560  	-0.009931 
3927.069376  	-0.010052 
3928.998192  	-0.010048 
3930.927008  	-0.009718 
3932.855824  	-0.009487 
3934.784640  	-0.009695 
3936.713456  	-0.009879 
3938.642272  	-0.009843 
3940.571088  	-0.009639 
3942.499904  	-0.009528 
3944.428720  	-0.009697 
3946.357536  	-0.009447 
3948.286352  	-0.009332 
3950.215168  	-0.009903 
3952.143984  	-0.010425 
3954.072800  	-0.010395 
3956.001616  	-0.010206 
3957.930432  	-0.010201 
3959.859248  	-0.010059 
3961.788064  	-0.009952 
3963.716880  	-0.010178 
3965.645696  	-0.010384 
3967.574512  	-0.010303 
3969.503328  	-0.010160 
3971.432144  	-0.010142 
3973.360960  	-0.010069 
3975.289776  	-0.010041 
3977.218592  	-0.010115 
3979.147408  	-0.010247 
3981.076224  	-0.010270 
3983.005040  	-0.010151 
3984.933856  	-0.010129 
3986.862672  	-0.010252 
3988.791488  	-0.010145 
3990.720304  	-0.009930 
3992.649120  	-0.009990 
3994.577936  	-0.010228 
3996.506752  	-0.010285 
3998.435568  	-0.010234 
4000.364384  	-0.010173 