##TITLE=No Description
##DATA TYPE=INFRARED SPECTRUM
##XUNITS=1/CM
##YUNITS=Abs
399.264912  	0.576041 
401.193728  	0.552750 
403.122544  	0.552517 
405.051360  	0.546722 
406.980176  	0.545479 
408.908992  	0.544143 
410.837808  	0.542936 
412.766624  	0.526900 
414.695440  	0.526670 
416.624256  	0.527813 
418.553072  	0.542817 
420.481888  	0.535493 
422.410704  	0.531202 
424.339520  	0.526243 
426.268336  	0.527853 
428.197152  	0.523460 
430.125968  	0.525358 
432.054784  	0.519562 
433.983600  	0.515932 
435.912416  	0.510765 
437.841232  	0.508541 
439.770048  	0.501458 
441.698864  	0.503232 
443.627680  	0.499664 
445.556496  	0.494693 
447.485312  	0.491616 
449.414128  	0.497043 
451.342944  	0.493881 
453.271760  	0.488350 
455.200576  	0.483383 
457.129392  	0.488274 
459.058208  	0.489285 
460.987024  	0.493481 
462.915840  	0.491855 
464.844656  	0.493088 
466.773472  	0.490344 
468.702288  	0.488947 
470.631104  	0.485431 
472.559920  	0.485244 
474.488736  	0.483168 
476.417552  	0.486388 
478.346368  	0.482842 
480.275184  	0.484326 
482.204000  	0.480348 
484.132816  	0.479139 
486.061632  	0.477922 
487.990448  	0.478383 
489.919264  	0.476210 
491.848080  	0.476359 
493.776896  	0.472094 
495.705712  	0.473637 
497.634528  	0.471389 
499.563344  	0.471073 
501.492160  	0.470328 
503.420976  	0.467685 
505.349792  	0.464397 
507.278608  	0.466691 
509.207424  	0.466709 
511.136240  	0.467984 
513.065056  	0.467105 
514.993872  	0.468296 
516.922688  	0.468219 
518.851504  	0.470019 
520.780320  	0.468628 
522.709136  	0.468178 
524.637952  	0.468059 
526.566768  	0.466965 
528.495584  	0.465622 
530.424400  	0.465491 
532.353216  	0.460856 
534.282032  	0.456501 
536.210848  	0.450703 
538.139664  	0.445997 
540.068480  	0.440644 
541.997296  	0.436471 
543.926112  	0.431986 
545.854928  	0.428640 
547.783744  	0.425439 
549.712560  	0.422423 
551.641376  	0.418929 
553.570192  	0.417349 
555.499008  	0.414418 
557.427824  	0.411744 
559.356640  	0.406735 
561.285456  	0.403559 
563.214272  	0.401961 
565.143088  	0.399297 
567.071904  	0.395099 
569.000720  	0.392449 
570.929536  	0.389112 
572.858352  	0.386607 
574.787168  	0.384314 
576.715984  	0.381913 
578.644800  	0.379070 
580.573616  	0.376466 
582.502432  	0.371935 
584.431248  	0.368689 
586.360064  	0.366006 
588.288880  	0.363778 
590.217696  	0.360780 
592.146512  	0.359001 
594.075328  	0.356435 
596.004144  	0.354058 
597.932960  	0.351816 
599.861776  	0.350674 
601.790592  	0.348561 
603.719408  	0.346759 
605.648224  	0.345582 
607.577040  	0.344706 
609.505856  	0.342681 
611.434672  	0.340850 
613.363488  	0.339464 
615.292304  	0.338500 
617.221120  	0.337187 
619.149936  	0.336068 
621.078752  	0.334287 
623.007568  	0.333232 
624.936384  	0.331467 
626.865200  	0.330157 
628.794016  	0.328780 
630.722832  	0.327721 
632.651648  	0.327487 
634.580464  	0.327816 
636.509280  	0.327495 
638.438096  	0.327984 
640.366912  	0.327146 
642.295728  	0.324949 
644.224544  	0.322027 
646.153360  	0.318989 
648.082176  	0.315761 
650.010992  	0.312332 
651.939808  	0.308530 
653.868624  	0.305720 
655.797440  	0.302795 
657.726256  	0.298674 
659.655072  	0.294721 
661.583888  	0.291392 
663.512704  	0.287943 
665.441520  	0.285532 
667.370336  	0.280853 
669.299152  	0.275500 
671.227968  	0.273504 
673.156784  	0.270903 
675.085600  	0.268689 
677.014416  	0.266390 
678.943232  	0.264367 
680.872048  	0.262955 
682.800864  	0.261170 
684.729680  	0.259206 
686.658496  	0.257522 
688.587312  	0.256641 
690.516128  	0.255109 
692.444944  	0.253865 
694.373760  	0.252656 
696.302576  	0.251299 
698.231392  	0.249152 
700.160208  	0.246954 
702.089024  	0.245063 
704.017840  	0.242849 
705.946656  	0.240307 
707.875472  	0.238264 
709.804288  	0.236267 
711.733104  	0.234364 
713.661920  	0.232325 
715.590736  	0.230532 
717.519552  	0.229850 
719.448368  	0.229773 
721.377184  	0.229486 
723.306000  	0.230009 
725.234816  	0.230209 
727.163632  	0.229984 
729.092448  	0.228217 
731.021264  	0.225469 
732.950080  	0.222451 
734.878896  	0.219856 
736.807712  	0.217344 
738.736528  	0.215079 
740.665344  	0.213106 
742.594160  	0.211300 
744.522976  	0.209818 
746.451792  	0.208292 
748.380608  	0.206461 
750.309424  	0.205188 
752.238240  	0.204424 
754.167056  	0.203589 
756.095872  	0.202399 
758.024688  	0.201501 
759.953504  	0.200919 
761.882320  	0.201283 
763.811136  	0.201639 
765.739952  	0.200946 
767.668768  	0.198710 
769.597584  	0.196133 
771.526400  	0.194750 
773.455216  	0.195776 
775.384032  	0.198753 
777.312848  	0.202793 
779.241664  	0.206036 
781.170480  	0.206092 
783.099296  	0.203203 
785.028112  	0.198491 
786.956928  	0.192956 
788.885744  	0.188508 
790.814560  	0.185703 
792.743376  	0.183418 
794.672192  	0.181991 
796.601008  	0.181245 
798.529824  	0.178787 
800.458640  	0.174707 
802.387456  	0.171330 
804.316272  	0.169535 
806.245088  	0.168504 
808.173904  	0.167493 
810.102720  	0.166824 
812.031536  	0.166343 
813.960352  	0.166108 
815.889168  	0.166102 
817.817984  	0.166003 
819.746800  	0.165996 
821.675616  	0.166019 
823.604432  	0.165560 
825.533248  	0.164926 
827.462064  	0.164498 
829.390880  	0.163650 
831.319696  	0.162567 
833.248512  	0.161011 
835.177328  	0.159153 
837.106144  	0.156974 
839.034960  	0.154120 
840.963776  	0.150696 
842.892592  	0.147311 
844.821408  	0.144409 
846.750224  	0.141922 
848.679040  	0.139729 
850.607856  	0.137919 
852.536672  	0.136432 
854.465488  	0.135062 
856.394304  	0.133795 
858.323120  	0.132608 
860.251936  	0.130769 
862.180752  	0.128691 
864.109568  	0.126215 
866.038384  	0.123852 
867.967200  	0.121904 
869.896016  	0.119983 
871.824832  	0.118628 
873.753648  	0.118236 
875.682464  	0.118735 
877.611280  	0.119033 
879.540096  	0.119470 
881.468912  	0.120977 
883.397728  	0.122195 
885.326544  	0.123119 
887.255360  	0.123328 
889.184176  	0.122259 
891.112992  	0.120397 
893.041808  	0.118893 
894.970624  	0.116962 
896.899440  	0.114247 
898.828256  	0.110857 
900.757072  	0.107240 
902.685888  	0.104398 
904.614704  	0.102948 
906.543520  	0.102764 
908.472336  	0.103630 
910.401152  	0.105592 
912.329968  	0.107952 
914.258784  	0.110423 
916.187600  	0.112748 
918.116416  	0.114622 
920.045232  	0.115937 
921.974048  	0.116888 
923.902864  	0.117192 
925.831680  	0.116917 
927.760496  	0.116748 
929.689312  	0.116956 
931.618128  	0.117402 
933.546944  	0.117803 
935.475760  	0.118097 
937.404576  	0.118233 
939.333392  	0.117948 
941.262208  	0.117916 
943.191024  	0.119115 
945.119840  	0.122167 
947.048656  	0.127108 
948.977472  	0.133594 
950.906288  	0.141273 
952.835104  	0.149748 
954.763920  	0.158821 
956.692736  	0.167318 
958.621552  	0.174515 
960.550368  	0.179307 
962.479184  	0.181682 
964.408000  	0.181076 
966.336816  	0.177280 
968.265632  	0.170621 
970.194448  	0.161686 
972.123264  	0.151472 
974.052080  	0.140425 
975.980896  	0.129469 
977.909712  	0.119297 
979.838528  	0.109986 
981.767344  	0.102146 
983.696160  	0.096332 
985.624976  	0.092508 
987.553792  	0.090594 
989.482608  	0.091020 
991.411424  	0.093374 
993.340240  	0.097005 
995.269056  	0.101790 
997.197872  	0.107095 
999.126688  	0.112433 
1001.055504  	0.117828 
1002.984320  	0.123239 
1004.913136  	0.128479 
1006.841952  	0.133471 
1008.770768  	0.137622 
1010.699584  	0.140510 
1012.628400  	0.142257 
1014.557216  	0.142905 
1016.486032  	0.142866 
1018.414848  	0.142722 
1020.343664  	0.142444 
1022.272480  	0.141709 
1024.201296  	0.140393 
1026.130112  	0.137349 
1028.058928  	0.136039 
1029.987744  	0.138742 
1031.916560  	0.140248 
1033.845376  	0.140717 
1035.774192  	0.141117 
1037.703008  	0.142749 
1039.631824  	0.147670 
1041.560640  	0.154565 
1043.489456  	0.163738 
1045.418272  	0.174599 
1047.347088  	0.186701 
1049.275904  	0.198250 
1051.204720  	0.207637 
1053.133536  	0.213409 
1055.062352  	0.215879 
1056.991168  	0.215714 
1058.919984  	0.216721 
1060.848800  	0.218160 
1062.777616  	0.216366 
1064.706432  	0.210783 
1066.635248  	0.206390 
1068.564064  	0.206042 
1070.492880  	0.202808 
1072.421696  	0.196761 
1074.350512  	0.192667 
1076.279328  	0.191630 
1078.208144  	0.193920 
1080.136960  	0.198492 
1082.065776  	0.203962 
1083.994592  	0.208080 
1085.923408  	0.209810 
1087.852224  	0.208443 
1089.781040  	0.205314 
1091.709856  	0.201142 
1093.638672  	0.194862 
1095.567488  	0.186131 
1097.496304  	0.176065 
1099.425120  	0.165299 
1101.353936  	0.154626 
1103.282752  	0.144159 
1105.211568  	0.134000 
1107.140384  	0.124195 
1109.069200  	0.114865 
1110.998016  	0.106468 
1112.926832  	0.099002 
1114.855648  	0.092141 
1116.784464  	0.085535 
1118.713280  	0.079346 
1120.642096  	0.073567 
1122.570912  	0.068215 
1124.499728  	0.062931 
1126.428544  	0.058176 
1128.357360  	0.053994 
1130.286176  	0.050702 
1132.214992  	0.047857 
1134.143808  	0.045439 
1136.072624  	0.043312 
1138.001440  	0.041713 
1139.930256  	0.039778 
1141.859072  	0.037768 
1143.787888  	0.035778 
1145.716704  	0.034064 
1147.645520  	0.032136 
1149.574336  	0.030615 
1151.503152  	0.029348 
1153.431968  	0.028814 
1155.360784  	0.028959 
1157.289600  	0.029686 
1159.218416  	0.031006 
1161.147232  	0.032818 
1163.076048  	0.034680 
1165.004864  	0.036646 
1166.933680  	0.038366 
1168.862496  	0.040466 
1170.791312  	0.042607 
1172.720128  	0.045113 
1174.648944  	0.047509 
1176.577760  	0.050010 
1178.506576  	0.052324 
1180.435392  	0.054757 
1182.364208  	0.057148 
1184.293024  	0.059777 
1186.221840  	0.062554 
1188.150656  	0.065797 
1190.079472  	0.069335 
1192.008288  	0.073891 
1193.937104  	0.079416 
1195.865920  	0.085754 
1197.794736  	0.092462 
1199.723552  	0.100024 
1201.652368  	0.107738 
1203.581184  	0.115444 
1205.510000  	0.122867 
1207.438816  	0.129903 
1209.367632  	0.136725 
1211.296448  	0.142539 
1213.225264  	0.147169 
1215.154080  	0.150622 
1217.082896  	0.153302 
1219.011712  	0.154866 
1220.940528  	0.155898 
1222.869344  	0.156424 
1224.798160  	0.156507 
1226.726976  	0.156113 
1228.655792  	0.155337 
1230.584608  	0.154000 
1232.513424  	0.152134 
1234.442240  	0.149962 
1236.371056  	0.147174 
1238.299872  	0.143411 
1240.228688  	0.137440 
1242.157504  	0.131467 
1244.086320  	0.126807 
1246.015136  	0.120756 
1247.943952  	0.113751 
1249.872768  	0.106794 
1251.801584  	0.100952 
1253.730400  	0.095046 
1255.659216  	0.089123 
1257.588032  	0.083584 
1259.516848  	0.078365 
1261.445664  	0.073513 
1263.374480  	0.069071 
1265.303296  	0.065379 
1267.232112  	0.062392 
1269.160928  	0.060130 
1271.089744  	0.058328 
1273.018560  	0.057292 
1274.947376  	0.056976 
1276.876192  	0.057103 
1278.805008  	0.056845 
1280.733824  	0.055810 
1282.662640  	0.054158 
1284.591456  	0.052169 
1286.520272  	0.050467 
1288.449088  	0.049395 
1290.377904  	0.048756 
1292.306720  	0.048847 
1294.235536  	0.048991 
1296.164352  	0.048293 
1298.093168  	0.046315 
1300.021984  	0.043882 
1301.950800  	0.041351 
1303.879616  	0.039048 
1305.808432  	0.036480 
1307.737248  	0.033881 
1309.666064  	0.031394 
1311.594880  	0.029619 
1313.523696  	0.028155 
1315.452512  	0.027147 
1317.381328  	0.026432 
1319.310144  	0.026194 
1321.238960  	0.026229 
1323.167776  	0.026756 
1325.096592  	0.027413 
1327.025408  	0.027943 
1328.954224  	0.028002 
1330.883040  	0.027645 
1332.811856  	0.026924 
1334.740672  	0.026569 
1336.669488  	0.026533 
1338.598304  	0.026595 
1340.527120  	0.025291 
1342.455936  	0.023972 
1344.384752  	0.023661 
1346.313568  	0.023856 
1348.242384  	0.024268 
1350.171200  	0.025236 
1352.100016  	0.026545 
1354.028832  	0.028268 
1355.957648  	0.029852 
1357.886464  	0.031549 
1359.815280  	0.033474 
1361.744096  	0.035285 
1363.672912  	0.036123 
1365.601728  	0.037120 
1367.530544  	0.038155 
1369.459360  	0.038266 
1371.388176  	0.038022 
1373.316992  	0.036750 
1375.245808  	0.033661 
1377.174624  	0.031547 
1379.103440  	0.029068 
1381.032256  	0.026447 
1382.961072  	0.024502 
1384.889888  	0.024148 
1386.818704  	0.023559 
1388.747520  	0.021837 
1390.676336  	0.019981 
1392.605152  	0.017138 
1394.533968  	0.015085 
1396.462784  	0.017755 
1398.391600  	0.019000 
1400.320416  	0.018179 
1402.249232  	0.018671 
1404.178048  	0.019012 
1406.106864  	0.019249 
1408.035680  	0.021018 
1409.964496  	0.023253 
1411.893312  	0.025730 
1413.822128  	0.028474 
1415.750944  	0.031894 
1417.679760  	0.033876 
1419.608576  	0.033007 
1421.537392  	0.033802 
1423.466208  	0.034203 
1425.395024  	0.032869 
1427.323840  	0.032184 
1429.252656  	0.029996 
1431.181472  	0.028379 
1433.110288  	0.028603 
1435.039104  	0.029330 
1436.967920  	0.027870 
1438.896736  	0.028513 
1440.825552  	0.029871 
1442.754368  	0.030397 
1444.683184  	0.030672 
1446.612000  	0.030604 
1448.540816  	0.029320 
1450.469632  	0.029876 
1452.398448  	0.030810 
1454.327264  	0.031922 
1456.256080  	0.030640 
1458.184896  	0.027132 
1460.113712  	0.029411 
1462.042528  	0.031674 
1463.971344  	0.031258 
1465.900160  	0.031092 
1467.828976  	0.034027 
1469.757792  	0.037237 
1471.686608  	0.039145 
1473.615424  	0.042963 
1475.544240  	0.048966 
1477.473056  	0.054056 
1479.401872  	0.057651 
1481.330688  	0.060224 
1483.259504  	0.062028 
1485.188320  	0.063385 
1487.117136  	0.062951 
1489.045952  	0.061949 
1490.974768  	0.059131 
1492.903584  	0.058034 
1494.832400  	0.055612 
1496.761216  	0.049320 
1498.690032  	0.044107 
1500.618848  	0.041334 
1502.547664  	0.038976 
1504.476480  	0.035659 
1506.405296  	0.028199 
1508.334112  	0.025600 
1510.262928  	0.027314 
1512.191744  	0.026354 
1514.120560  	0.025870 
1516.049376  	0.024984 
1517.978192  	0.023648 
1519.907008  	0.025148 
1521.835824  	0.024104 
1523.764640  	0.028329 
1525.693456  	0.032385 
1527.622272  	0.034209 
1529.551088  	0.035413 
1531.479904  	0.035695 
1533.408720  	0.031389 
1535.337536  	0.029089 
1537.266352  	0.028553 
1539.195168  	0.020696 
1541.123984  	0.013096 
1543.052800  	0.016505 
1544.981616  	0.017635 
1546.910432  	0.018052 
1548.839248  	0.018859 
1550.768064  	0.018607 
1552.696880  	0.018762 
1554.625696  	0.018691 
1556.554512  	0.018997 
1558.483328  	0.014987 
1560.412144  	0.017444 
1562.340960  	0.026055 
1564.269776  	0.030028 
1566.198592  	0.034485 
1568.127408  	0.037854 
1570.056224  	0.041160 
1571.985040  	0.047726 
1573.913856  	0.052080 
1575.842672  	0.051717 
1577.771488  	0.054274 
1579.700304  	0.057070 
1581.629120  	0.057280 
1583.557936  	0.056917 
1585.486752  	0.057602 
1587.415568  	0.059543 
1589.344384  	0.063060 
1591.273200  	0.067816 
1593.202016  	0.073496 
1595.130832  	0.079502 
1597.059648  	0.085900 
1598.988464  	0.091389 
1600.917280  	0.096157 
1602.846096  	0.099111 
1604.774912  	0.101071 
1606.703728  	0.101126 
1608.632544  	0.100299 
1610.561360  	0.098751 
1612.490176  	0.097775 
1614.418992  	0.095737 
1616.347808  	0.092416 
1618.276624  	0.093766 
1620.205440  	0.098149 
1622.134256  	0.100003 
1624.063072  	0.104198 
1625.991888  	0.110151 
1627.920704  	0.116392 
1629.849520  	0.124540 
1631.778336  	0.131973 
1633.707152  	0.135934 
1635.635968  	0.140442 
1637.564784  	0.149948 
1639.493600  	0.156909 
1641.422416  	0.161270 
1643.351232  	0.163891 
1645.280048  	0.162732 
1647.208864  	0.161890 
1649.137680  	0.164384 
1651.066496  	0.163547 
1652.995312  	0.156327 
1654.924128  	0.158961 
1656.852944  	0.160268 
1658.781760  	0.158744 
1660.710576  	0.155349 
1662.639392  	0.150728 
1664.568208  	0.148231 
1666.497024  	0.146235 
1668.425840  	0.140935 
1670.354656  	0.135058 
1672.283472  	0.133317 
1674.212288  	0.130802 
1676.141104  	0.127269 
1678.069920  	0.127146 
1679.998736  	0.126374 
1681.927552  	0.124386 
1683.856368  	0.118621 
1685.785184  	0.119166 
1687.714000  	0.121889 
1689.642816  	0.121602 
1691.571632  	0.120506 
1693.500448  	0.119442 
1695.429264  	0.114978 
1697.358080  	0.112469 
1699.286896  	0.110203 
1701.215712  	0.106380 
1703.144528  	0.106902 
1705.073344  	0.103246 
1707.002160  	0.098733 
1708.930976  	0.096140 
1710.859792  	0.091619 
1712.788608  	0.086016 
1714.717424  	0.078411 
1716.646240  	0.068486 
1718.575056  	0.056966 
1720.503872  	0.052236 
1722.432688  	0.047549 
1724.361504  	0.039960 
1726.290320  	0.033889 
1728.219136  	0.028895 
1730.147952  	0.024078 
1732.076768  	0.020305 
1734.005584  	0.013021 
1735.934400  	0.008984 
1737.863216  	0.010382 
1739.792032  	0.006881 
1741.720848  	0.006158 
1743.649664  	0.006046 
1745.578480  	0.005481 
1747.507296  	0.004028 
1749.436112  	0.002925 
1751.364928  	0.001643 
1753.293744  	0.001674 
1755.222560  	0.002236 
1757.151376  	0.001221 
1759.080192  	0.001079 
1761.009008  	0.000561 
1762.937824  	-0.001318 
1764.866640  	-0.000233 
1766.795456  	0.000471 
1768.724272  	-0.000248 
1770.653088  	-0.002053 
1772.581904  	-0.005403 
1774.510720  	-0.004064 
1776.439536  	-0.002011 
1778.368352  	-0.001427 
1780.297168  	-0.001944 
1782.225984  	-0.002355 
1784.154800  	-0.001822 
1786.083616  	-0.002609 
1788.012432  	-0.001918 
1789.941248  	-0.001327 
1791.870064  	-0.003508 
1793.798880  	-0.005215 
1795.727696  	-0.003293 
1797.656512  	-0.003263 
1799.585328  	-0.003406 
1801.514144  	-0.003338 
1803.442960  	-0.003191 
1805.371776  	-0.003528 
1807.300592  	-0.003149 
1809.229408  	-0.003703 
1811.158224  	-0.004245 
1813.087040  	-0.004248 
1815.015856  	-0.003687 
1816.944672  	-0.003670 
1818.873488  	-0.003651 
1820.802304  	-0.003704 
1822.731120  	-0.003059 
1824.659936  	-0.004167 
1826.588752  	-0.004717 
1828.517568  	-0.004904 
1830.446384  	-0.006133 
1832.375200  	-0.005082 
1834.304016  	-0.003982 
1836.232832  	-0.004174 
1838.161648  	-0.004174 
1840.090464  	-0.004126 
1842.019280  	-0.003228 
1843.948096  	-0.005069 
1845.876912  	-0.005374 
1847.805728  	-0.004339 
1849.734544  	-0.004195 
1851.663360  	-0.004268 
1853.592176  	-0.004410 
1855.520992  	-0.004625 
1857.449808  	-0.004421 
1859.378624  	-0.004422 
1861.307440  	-0.004415 
1863.236256  	-0.004416 
1865.165072  	-0.003946 
1867.093888  	-0.004404 
1869.022704  	-0.005559 
1870.951520  	-0.005646 
1872.880336  	-0.004572 
1874.809152  	-0.004504 
1876.737968  	-0.004399 
1878.666784  	-0.004588 
1880.595600  	-0.004191 
1882.524416  	-0.004716 
1884.453232  	-0.004757 
1886.382048  	-0.004699 
1888.310864  	-0.004581 
1890.239680  	-0.005369 
1892.168496  	-0.004718 
1894.097312  	-0.004680 
1896.026128  	-0.004781 
1897.954944  	-0.004914 
1899.883760  	-0.004765 
1901.812576  	-0.005077 
1903.741392  	-0.005183 
1905.670208  	-0.005128 
1907.599024  	-0.004552 
1909.527840  	-0.004472 
1911.456656  	-0.004169 
1913.385472  	-0.004495 
1915.314288  	-0.004167 
1917.243104  	-0.004717 
1919.171920  	-0.005042 
1921.100736  	-0.004602 
1923.029552  	-0.004748 
1924.958368  	-0.005123 
1926.887184  	-0.004753 
1928.816000  	-0.004991 
1930.744816  	-0.004910 
1932.673632  	-0.004959 
1934.602448  	-0.004589 
1936.531264  	-0.004360 
1938.460080  	-0.003662 
1940.388896  	-0.003992 
1942.317712  	-0.004309 
1944.246528  	-0.004842 
1946.175344  	-0.004024 
1948.104160  	-0.004231 
1950.032976  	-0.004580 
1951.961792  	-0.004689 
1953.890608  	-0.004203 
1955.819424  	-0.004623 
1957.748240  	-0.004182 
1959.677056  	-0.004763 
1961.605872  	-0.003406 
1963.534688  	-0.003202 
1965.463504  	-0.003012 
1967.392320  	-0.004106 
1969.321136  	-0.004395 
1971.249952  	-0.004506 
1973.178768  	-0.003041 
1975.107584  	-0.004100 
1977.036400  	-0.003206 
1978.965216  	-0.001836 
1980.894032  	-0.002230 
1982.822848  	-0.002794 
1984.751664  	-0.002446 
1986.680480  	-0.003971 
1988.609296  	-0.004049 
1990.538112  	-0.004078 
1992.466928  	-0.003867 
1994.395744  	-0.005112 
1996.324560  	-0.004779 
1998.253376  	-0.004571 
2000.182192  	-0.004631 
2002.111008  	-0.004595 
2004.039824  	-0.003263 
2005.968640  	-0.003556 
2007.897456  	-0.003526 
2009.826272  	-0.003692 
2011.755088  	-0.002913 
2013.683904  	-0.004327 
2015.612720  	-0.003969 
2017.541536  	-0.003197 
2019.470352  	-0.002274 
2021.399168  	-0.004296 
2023.327984  	-0.005125 
2025.256800  	-0.004803 
2027.185616  	-0.003863 
2029.114432  	-0.003299 
2031.043248  	-0.001704 
2032.972064  	-0.001828 
2034.900880  	-0.001965 
2036.829696  	-0.003241 
2038.758512  	-0.003171 
2040.687328  	-0.004208 
2042.616144  	-0.003467 
2044.544960  	-0.003331 
2046.473776  	-0.003195 
2048.402592  	-0.003669 
2050.331408  	-0.003688 
2052.260224  	-0.004278 
2054.189040  	-0.004125 
2056.117856  	-0.004606 
2058.046672  	-0.004584 
2059.975488  	-0.004682 
2061.904304  	-0.004639 
2063.833120  	-0.004757 
2065.761936  	-0.004511 
2067.690752  	-0.004911 
2069.619568  	-0.004422 
2071.548384  	-0.004238 
2073.477200  	-0.004516 
2075.406016  	-0.004477 
2077.334832  	-0.004054 
2079.263648  	-0.004292 
2081.192464  	-0.004165 
2083.121280  	-0.004340 
2085.050096  	-0.004398 
2086.978912  	-0.004380 
2088.907728  	-0.004268 
2090.836544  	-0.004564 
2092.765360  	-0.004181 
2094.694176  	-0.003779 
2096.622992  	-0.003706 
2098.551808  	-0.004046 
2100.480624  	-0.003899 
2102.409440  	-0.003979 
2104.338256  	-0.004066 
2106.267072  	-0.003833 
2108.195888  	-0.003539 
2110.124704  	-0.003732 
2112.053520  	-0.003556 
2113.982336  	-0.003975 
2115.911152  	-0.004209 
2117.839968  	-0.003923 
2119.768784  	-0.003895 
2121.697600  	-0.004449 
2123.626416  	-0.004581 
2125.555232  	-0.004628 
2127.484048  	-0.004373 
2129.412864  	-0.004610 
2131.341680  	-0.004857 
2133.270496  	-0.004973 
2135.199312  	-0.003982 
2137.128128  	-0.003658 
2139.056944  	-0.003605 
2140.985760  	-0.004022 
2142.914576  	-0.003812 
2144.843392  	-0.003563 
2146.772208  	-0.003174 
2148.701024  	-0.004050 
2150.629840  	-0.003380 
2152.558656  	-0.003678 
2154.487472  	-0.004405 
2156.416288  	-0.004998 
2158.345104  	-0.003697 
2160.273920  	-0.002320 
2162.202736  	-0.001894 
2164.131552  	-0.002467 
2166.060368  	-0.001821 
2167.989184  	-0.001682 
2169.918000  	-0.001001 
2171.846816  	-0.001858 
2173.775632  	-0.002092 
2175.704448  	-0.001899 
2177.633264  	-0.001783 
2179.562080  	-0.002652 
2181.490896  	-0.002509 
2183.419712  	-0.003013 
2185.348528  	-0.003147 
2187.277344  	-0.002953 
2189.206160  	-0.002609 
2191.134976  	-0.003267 
2193.063792  	-0.003540 
2194.992608  	-0.003717 
2196.921424  	-0.003334 
2198.850240  	-0.003433 
2200.779056  	-0.003820 
2202.707872  	-0.004451 
2204.636688  	-0.004295 
2206.565504  	-0.003927 
2208.494320  	-0.003497 
2210.423136  	-0.003724 
2212.351952  	-0.003960 
2214.280768  	-0.003940 
2216.209584  	-0.003845 
2218.138400  	-0.004246 
2220.067216  	-0.003509 
2221.996032  	-0.003469 
2223.924848  	-0.003490 
2225.853664  	-0.003411 
2227.782480  	-0.003492 
2229.711296  	-0.004347 
2231.640112  	-0.004922 
2233.568928  	-0.005109 
2235.497744  	-0.004400 
2237.426560  	-0.004651 
2239.355376  	-0.004582 
2241.284192  	-0.004551 
2243.213008  	-0.004738 
2245.141824  	-0.005261 
2247.070640  	-0.004921 
2248.999456  	-0.004796 
2250.928272  	-0.005086 
2252.857088  	-0.005306 
2254.785904  	-0.004954 
2256.714720  	-0.005241 
2258.643536  	-0.005715 
2260.572352  	-0.005829 
2262.501168  	-0.005706 
2264.429984  	-0.005954 
2266.358800  	-0.005513 
2268.287616  	-0.005335 
2270.216432  	-0.005251 
2272.145248  	-0.005072 
2274.074064  	-0.005004 
2276.002880  	-0.005185 
2277.931696  	-0.005062 
2279.860512  	-0.005294 
2281.789328  	-0.005262 
2283.718144  	-0.005220 
2285.646960  	-0.005031 
2287.575776  	-0.004902 
2289.504592  	-0.004851 
2291.433408  	-0.004982 
2293.362224  	-0.004874 
2295.291040  	-0.004437 
2297.219856  	-0.004005 
2299.148672  	-0.004048 
2301.077488  	-0.003999 
2303.006304  	-0.003867 
2304.935120  	-0.003544 
2306.863936  	-0.003349 
2308.792752  	-0.003282 
2310.721568  	-0.003425 
2312.650384  	-0.003678 
2314.579200  	-0.004347 
2316.508016  	-0.005103 
2318.436832  	-0.006013 
2320.365648  	-0.007234 
2322.294464  	-0.008422 
2324.223280  	-0.009516 
2326.152096  	-0.011032 
2328.080912  	-0.012116 
2330.009728  	-0.013665 
2331.938544  	-0.015530 
2333.867360  	-0.016822 
2335.796176  	-0.017789 
2337.724992  	-0.018563 
2339.653808  	-0.018574 
2341.582624  	-0.018747 
2343.511440  	-0.018178 
2345.440256  	-0.016585 
2347.369072  	-0.012503 
2349.297888  	-0.009080 
2351.226704  	-0.010310 
2353.155520  	-0.014843 
2355.084336  	-0.018551 
2357.013152  	-0.021328 
2358.941968  	-0.023082 
2360.870784  	-0.024317 
2362.799600  	-0.023679 
2364.728416  	-0.022797 
2366.657232  	-0.020954 
2368.586048  	-0.018245 
2370.514864  	-0.015426 
2372.443680  	-0.012992 
2374.372496  	-0.010462 
2376.301312  	-0.008149 
2378.230128  	-0.006576 
2380.158944  	-0.005676 
2382.087760  	-0.005218 
2384.016576  	-0.005307 
2385.945392  	-0.005658 
2387.874208  	-0.005985 
2389.803024  	-0.006136 
2391.731840  	-0.006300 
2393.660656  	-0.006252 
2395.589472  	-0.006192 
2397.518288  	-0.005994 
2399.447104  	-0.006179 
2401.375920  	-0.006346 
2403.304736  	-0.006627 
2405.233552  	-0.006530 
2407.162368  	-0.006392 
2409.091184  	-0.006371 
2411.020000  	-0.006405 
2412.948816  	-0.006311 
2414.877632  	-0.006180 
2416.806448  	-0.005978 
2418.735264  	-0.006151 
2420.664080  	-0.006455 
2422.592896  	-0.006413 
2424.521712  	-0.006201 
2426.450528  	-0.006492 
2428.379344  	-0.006461 
2430.308160  	-0.006155 
2432.236976  	-0.005917 
2434.165792  	-0.006014 
2436.094608  	-0.006052 
2438.023424  	-0.006025 
2439.952240  	-0.005836 
2441.881056  	-0.005774 
2443.809872  	-0.005810 
2445.738688  	-0.005853 
2447.667504  	-0.005752 
2449.596320  	-0.005658 
2451.525136  	-0.005439 
2453.453952  	-0.005505 
2455.382768  	-0.005707 
2457.311584  	-0.005775 
2459.240400  	-0.005832 
2461.169216  	-0.005905 
2463.098032  	-0.006010 
2465.026848  	-0.006009 
2466.955664  	-0.005947 
2468.884480  	-0.006012 
2470.813296  	-0.006036 
2472.742112  	-0.005918 
2474.670928  	-0.005802 
2476.599744  	-0.005882 
2478.528560  	-0.005943 
2480.457376  	-0.006019 
2482.386192  	-0.005895 
2484.315008  	-0.006000 
2486.243824  	-0.006096 
2488.172640  	-0.005888 
2490.101456  	-0.005558 
2492.030272  	-0.005434 
2493.959088  	-0.005272 
2495.887904  	-0.005116 
2497.816720  	-0.005282 
2499.745536  	-0.005205 
2501.674352  	-0.004932 
2503.603168  	-0.004887 
2505.531984  	-0.004994 
2507.460800  	-0.005186 
2509.389616  	-0.005235 
2511.318432  	-0.005246 
2513.247248  	-0.005137 
2515.176064  	-0.005004 
2517.104880  	-0.004927 
2519.033696  	-0.005142 
2520.962512  	-0.005147 
2522.891328  	-0.005019 
2524.820144  	-0.004890 
2526.748960  	-0.004811 
2528.677776  	-0.004710 
2530.606592  	-0.004811 
2532.535408  	-0.004763 
2534.464224  	-0.004766 
2536.393040  	-0.004900 
2538.321856  	-0.004871 
2540.250672  	-0.004631 
2542.179488  	-0.004476 
2544.108304  	-0.004444 
2546.037120  	-0.004455 
2547.965936  	-0.004464 
2549.894752  	-0.004484 
2551.823568  	-0.004499 
2553.752384  	-0.004429 
2555.681200  	-0.004043 
2557.610016  	-0.003905 
2559.538832  	-0.003828 
2561.467648  	-0.003581 
2563.396464  	-0.003545 
2565.325280  	-0.003573 
2567.254096  	-0.003592 
2569.182912  	-0.003624 
2571.111728  	-0.003572 
2573.040544  	-0.003568 
2574.969360  	-0.003554 
2576.898176  	-0.003436 
2578.826992  	-0.003371 
2580.755808  	-0.003406 
2582.684624  	-0.003274 
2584.613440  	-0.003270 
2586.542256  	-0.003262 
2588.471072  	-0.003312 
2590.399888  	-0.003120 
2592.328704  	-0.003050 
2594.257520  	-0.003209 
2596.186336  	-0.003075 
2598.115152  	-0.002766 
2600.043968  	-0.002797 
2601.972784  	-0.002797 
2603.901600  	-0.002705 
2605.830416  	-0.002427 
2607.759232  	-0.002295 
2609.688048  	-0.002344 
2611.616864  	-0.002227 
2613.545680  	-0.001985 
2615.474496  	-0.001952 
2617.403312  	-0.002004 
2619.332128  	-0.001958 
2621.260944  	-0.001800 
2623.189760  	-0.001719 
2625.118576  	-0.001610 
2627.047392  	-0.001540 
2628.976208  	-0.001455 
2630.905024  	-0.001425 
2632.833840  	-0.001471 
2634.762656  	-0.001389 
2636.691472  	-0.001289 
2638.620288  	-0.001215 
2640.549104  	-0.001130 
2642.477920  	-0.001100 
2644.406736  	-0.000935 
2646.335552  	-0.000823 
2648.264368  	-0.000726 
2650.193184  	-0.000652 
2652.122000  	-0.000463 
2654.050816  	-0.000345 
2655.979632  	-0.000315 
2657.908448  	-0.000270 
2659.837264  	-0.000089 
2661.766080  	0.000009 
2663.694896  	0.000033 
2665.623712  	0.000099 
2667.552528  	0.000303 
2669.481344  	0.000497 
2671.410160  	0.000619 
2673.338976  	0.000723 
2675.267792  	0.000826 
2677.196608  	0.000928 
2679.125424  	0.001060 
2681.054240  	0.001209 
2682.983056  	0.001265 
2684.911872  	0.001297 
2686.840688  	0.001383 
2688.769504  	0.001421 
2690.698320  	0.001414 
2692.627136  	0.001464 
2694.555952  	0.001548 
2696.484768  	0.001644 
2698.413584  	0.001677 
2700.342400  	0.001748 
2702.271216  	0.001933 
2704.200032  	0.002053 
2706.128848  	0.002152 
2708.057664  	0.002169 
2709.986480  	0.002222 
2711.915296  	0.002305 
2713.844112  	0.002511 
2715.772928  	0.002618 
2717.701744  	0.002633 
2719.630560  	0.002792 
2721.559376  	0.002912 
2723.488192  	0.003028 
2725.417008  	0.003212 
2727.345824  	0.003405 
2729.274640  	0.003456 
2731.203456  	0.003570 
2733.132272  	0.003786 
2735.061088  	0.003844 
2736.989904  	0.003873 
2738.918720  	0.003929 
2740.847536  	0.003964 
2742.776352  	0.003949 
2744.705168  	0.004012 
2746.633984  	0.004088 
2748.562800  	0.004120 
2750.491616  	0.004150 
2752.420432  	0.004320 
2754.349248  	0.004392 
2756.278064  	0.004335 
2758.206880  	0.004119 
2760.135696  	0.004022 
2762.064512  	0.004111 
2763.993328  	0.004097 
2765.922144  	0.004106 
2767.850960  	0.004136 
2769.779776  	0.004114 
2771.708592  	0.004167 
2773.637408  	0.004132 
2775.566224  	0.004064 
2777.495040  	0.004042 
2779.423856  	0.004215 
2781.352672  	0.004319 
2783.281488  	0.004205 
2785.210304  	0.004154 
2787.139120  	0.004156 
2789.067936  	0.004170 
2790.996752  	0.004252 
2792.925568  	0.004208 
2794.854384  	0.004180 
2796.783200  	0.004125 
2798.712016  	0.004061 
2800.640832  	0.004043 
2802.569648  	0.004221 
2804.498464  	0.004301 
2806.427280  	0.004177 
2808.356096  	0.004015 
2810.284912  	0.004074 
2812.213728  	0.004158 
2814.142544  	0.004025 
2816.071360  	0.003920 
2818.000176  	0.003725 
2819.928992  	0.003605 
2821.857808  	0.003552 
2823.786624  	0.003507 
2825.715440  	0.003504 
2827.644256  	0.003383 
2829.573072  	0.003247 
2831.501888  	0.002958 
2833.430704  	0.002576 
2835.359520  	0.002271 
2837.288336  	0.002084 
2839.217152  	0.001873 
2841.145968  	0.001541 
2843.074784  	0.001121 
2845.003600  	0.000649 
2846.932416  	0.000200 
2848.861232  	-0.000100 
2850.790048  	-0.000516 
2852.718864  	-0.001056 
2854.647680  	-0.001541 
2856.576496  	-0.002087 
2858.505312  	-0.002744 
2860.434128  	-0.003380 
2862.362944  	-0.004123 
2864.291760  	-0.004967 
2866.220576  	-0.005525 
2868.149392  	-0.005731 
2870.078208  	-0.005934 
2872.007024  	-0.006081 
2873.935840  	-0.006130 
2875.864656  	-0.006182 
2877.793472  	-0.006388 
2879.722288  	-0.006700 
2881.651104  	-0.007173 
2883.579920  	-0.007499 
2885.508736  	-0.007341 
2887.437552  	-0.007060 
2889.366368  	-0.007011 
2891.295184  	-0.007280 
2893.224000  	-0.007514 
2895.152816  	-0.007542 
2897.081632  	-0.007843 
2899.010448  	-0.009583 
2900.939264  	-0.011117 
2902.868080  	-0.009874 
2904.796896  	-0.008570 
2906.725712  	-0.007962 
2908.654528  	-0.007372 
2910.583344  	-0.006991 
2912.512160  	-0.006465 
2914.440976  	-0.005430 
2916.369792  	-0.004670 
2918.298608  	-0.004261 
2920.227424  	-0.003883 
2922.156240  	-0.003421 
2924.085056  	-0.002767 
2926.013872  	-0.001875 
2927.942688  	-0.000957 
2929.871504  	-0.000048 
2931.800320  	0.000775 
2933.729136  	0.001412 
2935.657952  	0.001978 
2937.586768  	0.002526 
2939.515584  	0.003035 
2941.444400  	0.003301 
2943.373216  	0.003357 
2945.302032  	0.003644 
2947.230848  	0.003903 
2949.159664  	0.003616 
2951.088480  	0.003003 
2953.017296  	0.002478 
2954.946112  	0.001824 
2956.874928  	0.000999 
2958.803744  	0.000189 
2960.732560  	-0.000212 
2962.661376  	-0.000756 
2964.590192  	-0.001738 
2966.519008  	-0.002952 
2968.447824  	-0.003925 
2970.376640  	-0.004633 
2972.305456  	-0.005115 
2974.234272  	-0.004979 
2976.163088  	-0.004651 
2978.091904  	-0.004615 
2980.020720  	-0.004522 
2981.949536  	-0.004281 
2983.878352  	-0.004438 
2985.807168  	-0.005311 
2987.735984  	-0.006339 
2989.664800  	-0.005982 
2991.593616  	-0.002989 
2993.522432  	-0.001015 
2995.451248  	-0.000481 
2997.380064  	0.000296 
2999.308880  	0.001400 
3001.237696  	0.002744 
3003.166512  	0.004235 
3005.095328  	0.005699 
3007.024144  	0.007178 
3008.952960  	0.008599 
3010.881776  	0.010049 
3012.810592  	0.011345 
3014.739408  	0.012636 
3016.668224  	0.013892 
3018.597040  	0.015078 
3020.525856  	0.016279 
3022.454672  	0.017371 
3024.383488  	0.018333 
3026.312304  	0.019235 
3028.241120  	0.020376 
3030.169936  	0.021284 
3032.098752  	0.021963 
3034.027568  	0.022871 
3035.956384  	0.023670 
3037.885200  	0.024439 
3039.814016  	0.025164 
3041.742832  	0.025756 
3043.671648  	0.026181 
3045.600464  	0.026671 
3047.529280  	0.027165 
3049.458096  	0.027662 
3051.386912  	0.028355 
3053.315728  	0.028987 
3055.244544  	0.029519 
3057.173360  	0.030021 
3059.102176  	0.030398 
3061.030992  	0.031004 
3062.959808  	0.031780 
3064.888624  	0.032345 
3066.817440  	0.032941 
3068.746256  	0.033773 
3070.675072  	0.034485 
3072.603888  	0.035085 
3074.532704  	0.035746 
3076.461520  	0.036362 
3078.390336  	0.036996 
3080.319152  	0.037573 
3082.247968  	0.038271 
3084.176784  	0.039035 
3086.105600  	0.039844 
3088.034416  	0.040426 
3089.963232  	0.041003 
3091.892048  	0.041529 
3093.820864  	0.042137 
3095.749680  	0.042852 
3097.678496  	0.043600 
3099.607312  	0.044257 
3101.536128  	0.044975 
3103.464944  	0.045799 
3105.393760  	0.046439 
3107.322576  	0.047031 
3109.251392  	0.047805 
3111.180208  	0.048460 
3113.109024  	0.049015 
3115.037840  	0.049615 
3116.966656  	0.050142 
3118.895472  	0.050620 
3120.824288  	0.051168 
3122.753104  	0.051789 
3124.681920  	0.052260 
3126.610736  	0.052627 
3128.539552  	0.053294 
3130.468368  	0.053978 
3132.397184  	0.054359 
3134.326000  	0.054913 
3136.254816  	0.055570 
3138.183632  	0.056176 
3140.112448  	0.056626 
3142.041264  	0.057063 
3143.970080  	0.057396 
3145.898896  	0.057843 
3147.827712  	0.058529 
3149.756528  	0.059121 
3151.685344  	0.059485 
3153.614160  	0.059944 
3155.542976  	0.060574 
3157.471792  	0.061305 
3159.400608  	0.061842 
3161.329424  	0.062154 
3163.258240  	0.062463 
3165.187056  	0.062923 
3167.115872  	0.063594 
3169.044688  	0.063942 
3170.973504  	0.064245 
3172.902320  	0.064603 
3174.831136  	0.064955 
3176.759952  	0.065351 
3178.688768  	0.065575 
3180.617584  	0.065875 
3182.546400  	0.066329 
3184.475216  	0.066593 
3186.404032  	0.066539 
3188.332848  	0.066674 
3190.261664  	0.066833 
3192.190480  	0.066998 
3194.119296  	0.067001 
3196.048112  	0.067121 
3197.976928  	0.067058 
3199.905744  	0.066993 
3201.834560  	0.067066 
3203.763376  	0.066990 
3205.692192  	0.066962 
3207.621008  	0.066885 
3209.549824  	0.066763 
3211.478640  	0.066687 
3213.407456  	0.066612 
3215.336272  	0.066513 
3217.265088  	0.066567 
3219.193904  	0.066463 
3221.122720  	0.066198 
3223.051536  	0.066096 
3224.980352  	0.066099 
3226.909168  	0.065902 
3228.837984  	0.065713 
3230.766800  	0.065628 
3232.695616  	0.065622 
3234.624432  	0.065504 
3236.553248  	0.065608 
3238.482064  	0.065837 
3240.410880  	0.065774 
3242.339696  	0.065569 
3244.268512  	0.065296 
3246.197328  	0.065519 
3248.126144  	0.065908 
3250.054960  	0.066112 
3251.983776  	0.066206 
3253.912592  	0.066200 
3255.841408  	0.066441 
3257.770224  	0.066781 
3259.699040  	0.066975 
3261.627856  	0.067114 
3263.556672  	0.067283 
3265.485488  	0.067461 
3267.414304  	0.067756 
3269.343120  	0.068023 
3271.271936  	0.068093 
3273.200752  	0.068126 
3275.129568  	0.068293 
3277.058384  	0.068629 
3278.987200  	0.068840 
3280.916016  	0.068882 
3282.844832  	0.069009 
3284.773648  	0.069268 
3286.702464  	0.069443 
3288.631280  	0.069598 
3290.560096  	0.069762 
3292.488912  	0.070136 
3294.417728  	0.070444 
3296.346544  	0.070781 
3298.275360  	0.070906 
3300.204176  	0.071062 
3302.132992  	0.071315 
3304.061808  	0.071467 
3305.990624  	0.071921 
3307.919440  	0.072329 
3309.848256  	0.072534 
3311.777072  	0.072672 
3313.705888  	0.072771 
3315.634704  	0.073239 
3317.563520  	0.073716 
3319.492336  	0.073888 
3321.421152  	0.073870 
3323.349968  	0.074020 
3325.278784  	0.074307 
3327.207600  	0.074503 
3329.136416  	0.074565 
3331.065232  	0.074691 
3332.994048  	0.074737 
3334.922864  	0.074645 
3336.851680  	0.074653 
3338.780496  	0.074559 
3340.709312  	0.074356 
3342.638128  	0.074253 
3344.566944  	0.074095 
3346.495760  	0.073934 
3348.424576  	0.073616 
3350.353392  	0.073306 
3352.282208  	0.073103 
3354.211024  	0.072938 
3356.139840  	0.072708 
3358.068656  	0.072440 
3359.997472  	0.072108 
3361.926288  	0.071537 
3363.855104  	0.071179 
3365.783920  	0.071068 
3367.712736  	0.070776 
3369.641552  	0.070450 
3371.570368  	0.070018 
3373.499184  	0.069706 
3375.428000  	0.069448 
3377.356816  	0.069107 
3379.285632  	0.068857 
3381.214448  	0.068576 
3383.143264  	0.068139 
3385.072080  	0.067675 
3387.000896  	0.067300 
3388.929712  	0.067080 
3390.858528  	0.066829 
3392.787344  	0.066532 
3394.716160  	0.066314 
3396.644976  	0.065962 
3398.573792  	0.065439 
3400.502608  	0.065151 
3402.431424  	0.064744 
3404.360240  	0.064274 
3406.289056  	0.063771 
3408.217872  	0.063349 
3410.146688  	0.062926 
3412.075504  	0.062551 
3414.004320  	0.062177 
3415.933136  	0.061894 
3417.861952  	0.061410 
3419.790768  	0.061054 
3421.719584  	0.060487 
3423.648400  	0.060070 
3425.577216  	0.059646 
3427.506032  	0.059016 
3429.434848  	0.058467 
3431.363664  	0.058034 
3433.292480  	0.057711 
3435.221296  	0.057349 
3437.150112  	0.056853 
3439.078928  	0.056446 
3441.007744  	0.055968 
3442.936560  	0.055417 
3444.865376  	0.055105 
3446.794192  	0.054415 
3448.723008  	0.053713 
3450.651824  	0.053322 
3452.580640  	0.052850 
3454.509456  	0.052282 
3456.438272  	0.051757 
3458.367088  	0.051271 
3460.295904  	0.050566 
3462.224720  	0.049705 
3464.153536  	0.049148 
3466.082352  	0.048717 
3468.011168  	0.047883 
3469.939984  	0.047209 
3471.868800  	0.046756 
3473.797616  	0.045993 
3475.726432  	0.045229 
3477.655248  	0.044682 
3479.584064  	0.044391 
3481.512880  	0.043763 
3483.441696  	0.042715 
3485.370512  	0.042004 
3487.299328  	0.041131 
3489.228144  	0.040584 
3491.156960  	0.040159 
3493.085776  	0.039619 
3495.014592  	0.038891 
3496.943408  	0.038120 
3498.872224  	0.037840 
3500.801040  	0.037874 
3502.729856  	0.037132 
3504.658672  	0.035919 
3506.587488  	0.035499 
3508.516304  	0.035253 
3510.445120  	0.034606 
3512.373936  	0.033923 
3514.302752  	0.033326 
3516.231568  	0.032982 
3518.160384  	0.032498 
3520.089200  	0.031955 
3522.018016  	0.031731 
3523.946832  	0.031516 
3525.875648  	0.030769 
3527.804464  	0.029423 
3529.733280  	0.028449 
3531.662096  	0.028105 
3533.590912  	0.027952 
3535.519728  	0.027881 
3537.448544  	0.027256 
3539.377360  	0.026472 
3541.306176  	0.026161 
3543.234992  	0.026197 
3545.163808  	0.026146 
3547.092624  	0.025001 
3549.021440  	0.023818 
3550.950256  	0.023338 
3552.879072  	0.022435 
3554.807888  	0.022090 
3556.736704  	0.021905 
3558.665520  	0.021790 
3560.594336  	0.021433 
3562.523152  	0.020607 
3564.451968  	0.020659 
3566.380784  	0.020242 
3568.309600  	0.017988 
3570.238416  	0.017737 
3572.167232  	0.017844 
3574.096048  	0.016963 
3576.024864  	0.016097 
3577.953680  	0.015776 
3579.882496  	0.015193 
3581.811312  	0.014695 
3583.740128  	0.014600 
3585.668944  	0.014669 
3587.597760  	0.012558 
3589.526576  	0.011017 
3591.455392  	0.011377 
3593.384208  	0.011032 
3595.313024  	0.009780 
3597.241840  	0.008892 
3599.170656  	0.007987 
3601.099472  	0.006898 
3603.028288  	0.006936 
3604.957104  	0.007499 
3606.885920  	0.006788 
3608.814736  	0.004732 
3610.743552  	0.004558 
3612.672368  	0.003810 
3614.601184  	0.002247 
3616.530000  	0.002459 
3618.458816  	0.000218 
3620.387632  	-0.001878 
3622.316448  	-0.000760 
3624.245264  	-0.000004 
3626.174080  	0.000374 
3628.102896  	-0.002786 
3630.031712  	-0.008101 
3631.960528  	-0.005449 
3633.889344  	-0.005131 
3635.818160  	-0.005618 
3637.746976  	-0.006136 
3639.675792  	-0.006508 
3641.604608  	-0.006542 
3643.533424  	-0.006683 
3645.462240  	-0.006603 
3647.391056  	-0.010167 
3649.319872  	-0.016483 
3651.248688  	-0.018350 
3653.177504  	-0.013962 
3655.106320  	-0.013160 
3657.035136  	-0.016644 
3658.963952  	-0.016085 
3660.892768  	-0.015591 
3662.821584  	-0.015625 
3664.750400  	-0.015258 
3666.679216  	-0.014713 
3668.608032  	-0.016644 
3670.536848  	-0.021758 
3672.465664  	-0.019049 
3674.394480  	-0.018900 
3676.323296  	-0.026010 
3678.252112  	-0.021585 
3680.180928  	-0.019157 
3682.109744  	-0.017933 
3684.038560  	-0.017377 
3685.967376  	-0.016682 
3687.896192  	-0.019439 
3689.825008  	-0.024105 
3691.753824  	-0.023075 
3693.682640  	-0.019903 
3695.611456  	-0.018104 
3697.540272  	-0.017066 
3699.469088  	-0.015842 
3701.397904  	-0.017393 
3703.326720  	-0.017901 
3705.255536  	-0.015487 
3707.184352  	-0.014246 
3709.113168  	-0.015769 
3711.041984  	-0.019471 
3712.970800  	-0.019891 
3714.899616  	-0.015969 
3716.828432  	-0.013871 
3718.757248  	-0.014271 
3720.686064  	-0.014923 
3722.614880  	-0.015707 
3724.543696  	-0.015080 
3726.472512  	-0.015630 
3728.401328  	-0.015368 
3730.330144  	-0.014373 
3732.258960  	-0.016253 
3734.187776  	-0.017005 
3736.116592  	-0.019489 
3738.045408  	-0.018556 
3739.974224  	-0.015411 
3741.903040  	-0.012991 
3743.831856  	-0.015582 
3745.760672  	-0.020232 
3747.689488  	-0.016176 
3749.618304  	-0.018444 
3751.547120  	-0.022501 
3753.475936  	-0.020617 
3755.404752  	-0.016206 
3757.333568  	-0.015162 
3759.262384  	-0.016522 
3761.191200  	-0.016682 
3763.120016  	-0.013843 
3765.048832  	-0.014408 
3766.977648  	-0.014882 
3768.906464  	-0.015369 
3770.835280  	-0.017200 
3772.764096  	-0.015265 
3774.692912  	-0.013770 
3776.621728  	-0.013240 
3778.550544  	-0.014709 
3780.479360  	-0.016763 
3782.408176  	-0.014816 
3784.336992  	-0.014912 
3786.265808  	-0.014969 
3788.194624  	-0.014308 
3790.123440  	-0.014305 
3792.052256  	-0.014110 
3793.981072  	-0.013564 
3795.909888  	-0.015347 
3797.838704  	-0.015853 
3799.767520  	-0.014999 
3801.696336  	-0.020627 
3803.625152  	-0.018863 
3805.553968  	-0.015852 
3807.482784  	-0.018697 
3809.411600  	-0.016484 
3811.340416  	-0.014038 
3813.269232  	-0.012621 
3815.198048  	-0.015201 
3817.126864  	-0.018485 
3819.055680  	-0.015781 
3820.984496  	-0.020027 
3822.913312  	-0.020055 
3824.842128  	-0.015633 
3826.770944  	-0.015900 
3828.699760  	-0.014976 
3830.628576  	-0.014639 
3832.557392  	-0.015944 
3834.486208  	-0.015557 
3836.415024  	-0.016586 
3838.343840  	-0.019191 
3840.272656  	-0.019051 
3842.201472  	-0.017067 
3844.130288  	-0.016799 
3846.059104  	-0.015415 
3847.987920  	-0.013590 
3849.916736  	-0.012663 
3851.845552  	-0.014513 
3853.774368  	-0.023561 
3855.703184  	-0.021340 
3857.632000  	-0.016539 
3859.560816  	-0.014140 
3861.489632  	-0.014025 
3863.418448  	-0.015373 
3865.347264  	-0.016667 
3867.276080  	-0.014322 
3869.204896  	-0.015430 
3871.133712  	-0.017652 
3873.062528  	-0.015692 
3874.991344  	-0.016590 
3876.920160  	-0.013980 
3878.848976  	-0.012732 
3880.777792  	-0.015151 
3882.706608  	-0.014301 
3884.635424  	-0.013878 
3886.564240  	-0.016532 
3888.493056  	-0.014116 
3890.421872  	-0.014144 
3892.350688  	-0.016572 
3894.279504  	-0.015053 
3896.208320  	-0.012830 
3898.137136  	-0.012344 
3900.065952  	-0.013836 
3901.994768  	-0.014456 
3903.923584  	-0.015954 
3905.852400  	-0.016571 
3907.781216  	-0.014969 
3909.710032  	-0.014058 
3911.638848  	-0.013903 
3913.567664  	-0.013323 
3915.496480  	-0.012773 
3917.425296  	-0.013815 
3919.354112  	-0.014421 
3921.282928  	-0.014046 
3923.211744  	-0.013332 
3925.140560  	-0.014011 
3927.069376  	-0.013833 
3928.998192  	-0.013241 
3930.927008  	-0.013286 
3932.855824  	-0.014019 
3934.784640  	-0.014121 
3936.713456  	-0.013691 
3938.642272  	-0.013401 
3940.571088  	-0.012770 
3942.499904  	-0.013197 
3944.428720  	-0.013755 
3946.357536  	-0.012977 
3948.286352  	-0.013059 
3950.215168  	-0.013823 
3952.143984  	-0.014018 
3954.072800  	-0.013719 
3956.001616  	-0.013587 
3957.930432  	-0.013817 
3959.859248  	-0.013756 
3961.788064  	-0.013724 
3963.716880  	-0.013907 
3965.645696  	-0.013954 
3967.574512  	-0.013775 
3969.503328  	-0.013645 
3971.432144  	-0.013747 
3973.360960  	-0.013665 
3975.289776  	-0.013723 
3977.218592  	-0.013747 
3979.147408  	-0.013699 
3981.076224  	-0.013802 
3983.005040  	-0.013893 
3984.933856  	-0.013805 
3986.862672  	-0.013840 
3988.791488  	-0.013693 
3990.720304  	-0.013658 
3992.649120  	-0.013731 
3994.577936  	-0.013779 
3996.506752  	-0.013728 
3998.435568  	-0.013762 
4000.364384  	-0.013713 