##TITLE=No Description
##DATA TYPE=INFRARED SPECTRUM
##XUNITS=1/CM
##YUNITS=Abs
399.264912  	0.595928 
401.193728  	0.593883 
403.122544  	0.608013 
405.051360  	0.591166 
406.980176  	0.590001 
408.908992  	0.598626 
410.837808  	0.606350 
412.766624  	0.602984 
414.695440  	0.593008 
416.624256  	0.588263 
418.553072  	0.611889 
420.481888  	0.596141 
422.410704  	0.588450 
424.339520  	0.580012 
426.268336  	0.582048 
428.197152  	0.575453 
430.125968  	0.566978 
432.054784  	0.557182 
433.983600  	0.556861 
435.912416  	0.554546 
437.841232  	0.556885 
439.770048  	0.551091 
441.698864  	0.551487 
443.627680  	0.549073 
445.556496  	0.546646 
447.485312  	0.541142 
449.414128  	0.543281 
451.342944  	0.545171 
453.271760  	0.542506 
455.200576  	0.538311 
457.129392  	0.540360 
459.058208  	0.539341 
460.987024  	0.542910 
462.915840  	0.541632 
464.844656  	0.539837 
466.773472  	0.537050 
468.702288  	0.536955 
470.631104  	0.535129 
472.559920  	0.542706 
474.488736  	0.538956 
476.417552  	0.536039 
478.346368  	0.531121 
480.275184  	0.530974 
482.204000  	0.528749 
484.132816  	0.528159 
486.061632  	0.529209 
487.990448  	0.529427 
489.919264  	0.525274 
491.848080  	0.529061 
493.776896  	0.527508 
495.705712  	0.524316 
497.634528  	0.521645 
499.563344  	0.522755 
501.492160  	0.522733 
503.420976  	0.521928 
505.349792  	0.518675 
507.278608  	0.520487 
509.207424  	0.518398 
511.136240  	0.517404 
513.065056  	0.518899 
514.993872  	0.524371 
516.922688  	0.525149 
518.851504  	0.526322 
520.780320  	0.524765 
522.709136  	0.522621 
524.637952  	0.520384 
526.566768  	0.522386 
528.495584  	0.519897 
530.424400  	0.518040 
532.353216  	0.512625 
534.282032  	0.506904 
536.210848  	0.501986 
538.139664  	0.498639 
540.068480  	0.493261 
541.997296  	0.489151 
543.926112  	0.483156 
545.854928  	0.478329 
547.783744  	0.473250 
549.712560  	0.470917 
551.641376  	0.467159 
553.570192  	0.464743 
555.499008  	0.460981 
557.427824  	0.457833 
559.356640  	0.453833 
561.285456  	0.450364 
563.214272  	0.445273 
565.143088  	0.441730 
567.071904  	0.438948 
569.000720  	0.436600 
570.929536  	0.432980 
572.858352  	0.429853 
574.787168  	0.427319 
576.715984  	0.425865 
578.644800  	0.422070 
580.573616  	0.417918 
582.502432  	0.413164 
584.431248  	0.410063 
586.360064  	0.407008 
588.288880  	0.404824 
590.217696  	0.402090 
592.146512  	0.399512 
594.075328  	0.396768 
596.004144  	0.394590 
597.932960  	0.392333 
599.861776  	0.391519 
601.790592  	0.389342 
603.719408  	0.387349 
605.648224  	0.385553 
607.577040  	0.384214 
609.505856  	0.382612 
611.434672  	0.380141 
613.363488  	0.378080 
615.292304  	0.378094 
617.221120  	0.376151 
619.149936  	0.373935 
621.078752  	0.372391 
623.007568  	0.371118 
624.936384  	0.369704 
626.865200  	0.367875 
628.794016  	0.366226 
630.722832  	0.365981 
632.651648  	0.365630 
634.580464  	0.365372 
636.509280  	0.364681 
638.438096  	0.364550 
640.366912  	0.363851 
642.295728  	0.362784 
644.224544  	0.360218 
646.153360  	0.357011 
648.082176  	0.352536 
650.010992  	0.348679 
651.939808  	0.344915 
653.868624  	0.340776 
655.797440  	0.336883 
657.726256  	0.333675 
659.655072  	0.329836 
661.583888  	0.325961 
663.512704  	0.321896 
665.441520  	0.318549 
667.370336  	0.311795 
669.299152  	0.306358 
671.227968  	0.305292 
673.156784  	0.302437 
675.085600  	0.299378 
677.014416  	0.296731 
678.943232  	0.294415 
680.872048  	0.292928 
682.800864  	0.291328 
684.729680  	0.289689 
686.658496  	0.288185 
688.587312  	0.287159 
690.516128  	0.285358 
692.444944  	0.283866 
694.373760  	0.283004 
696.302576  	0.281346 
698.231392  	0.279032 
700.160208  	0.276433 
702.089024  	0.274140 
704.017840  	0.272039 
705.946656  	0.269396 
707.875472  	0.266705 
709.804288  	0.264538 
711.733104  	0.262521 
713.661920  	0.260339 
715.590736  	0.258844 
717.519552  	0.258016 
719.448368  	0.257772 
721.377184  	0.257751 
723.306000  	0.258269 
725.234816  	0.258311 
727.163632  	0.257585 
729.092448  	0.255538 
731.021264  	0.252515 
732.950080  	0.249425 
734.878896  	0.246616 
736.807712  	0.243535 
738.736528  	0.240937 
740.665344  	0.238738 
742.594160  	0.236847 
744.522976  	0.235273 
746.451792  	0.233888 
748.380608  	0.232144 
750.309424  	0.230485 
752.238240  	0.229170 
754.167056  	0.228254 
756.095872  	0.227039 
758.024688  	0.226047 
759.953504  	0.225344 
761.882320  	0.225932 
763.811136  	0.226509 
765.739952  	0.225439 
767.668768  	0.222900 
769.597584  	0.220507 
771.526400  	0.219385 
773.455216  	0.220278 
775.384032  	0.223267 
777.312848  	0.227701 
779.241664  	0.231366 
781.170480  	0.231700 
783.099296  	0.228414 
785.028112  	0.223115 
786.956928  	0.217179 
788.885744  	0.212433 
790.814560  	0.208927 
792.743376  	0.206288 
794.672192  	0.204863 
796.601008  	0.204199 
798.529824  	0.201786 
800.458640  	0.197461 
802.387456  	0.193566 
804.316272  	0.191172 
806.245088  	0.189620 
808.173904  	0.188749 
810.102720  	0.188317 
812.031536  	0.187827 
813.960352  	0.187616 
815.889168  	0.187710 
817.817984  	0.187564 
819.746800  	0.187347 
821.675616  	0.187227 
823.604432  	0.186902 
825.533248  	0.186192 
827.462064  	0.185283 
829.390880  	0.184186 
831.319696  	0.182847 
833.248512  	0.180850 
835.177328  	0.178520 
837.106144  	0.176003 
839.034960  	0.173068 
840.963776  	0.169716 
842.892592  	0.166245 
844.821408  	0.162785 
846.750224  	0.159824 
848.679040  	0.157477 
850.607856  	0.155638 
852.536672  	0.154088 
854.465488  	0.152437 
856.394304  	0.150815 
858.323120  	0.149538 
860.251936  	0.147812 
862.180752  	0.145430 
864.109568  	0.142819 
866.038384  	0.140279 
867.967200  	0.138022 
869.896016  	0.135998 
871.824832  	0.134631 
873.753648  	0.134161 
875.682464  	0.134625 
877.611280  	0.134869 
879.540096  	0.135213 
881.468912  	0.136741 
883.397728  	0.137683 
885.326544  	0.138337 
887.255360  	0.138480 
889.184176  	0.137423 
891.112992  	0.135374 
893.041808  	0.133758 
894.970624  	0.131520 
896.899440  	0.128366 
898.828256  	0.124563 
900.757072  	0.120872 
902.685888  	0.117910 
904.614704  	0.116131 
906.543520  	0.115963 
908.472336  	0.116863 
910.401152  	0.118782 
912.329968  	0.121284 
914.258784  	0.124048 
916.187600  	0.126740 
918.116416  	0.128926 
920.045232  	0.130267 
921.974048  	0.130935 
923.902864  	0.131028 
925.831680  	0.130868 
927.760496  	0.130909 
929.689312  	0.131194 
931.618128  	0.131910 
933.546944  	0.132512 
935.475760  	0.132654 
937.404576  	0.132477 
939.333392  	0.132255 
941.262208  	0.132567 
943.191024  	0.133963 
945.119840  	0.137411 
947.048656  	0.143030 
948.977472  	0.150092 
950.906288  	0.158528 
952.835104  	0.168107 
954.763920  	0.178268 
956.692736  	0.187660 
958.621552  	0.195622 
960.550368  	0.201037 
962.479184  	0.203590 
964.408000  	0.202786 
966.336816  	0.198405 
968.265632  	0.190766 
970.194448  	0.180573 
972.123264  	0.168739 
974.052080  	0.156164 
975.980896  	0.144023 
977.909712  	0.132802 
979.838528  	0.122565 
981.767344  	0.113841 
983.696160  	0.107146 
985.624976  	0.102829 
987.553792  	0.100872 
989.482608  	0.101343 
991.411424  	0.103895 
993.340240  	0.108085 
995.269056  	0.113499 
997.197872  	0.119305 
999.126688  	0.125434 
1001.055504  	0.131767 
1002.984320  	0.137946 
1004.913136  	0.143872 
1006.841952  	0.149574 
1008.770768  	0.154584 
1010.699584  	0.158189 
1012.628400  	0.160211 
1014.557216  	0.160932 
1016.486032  	0.160987 
1018.414848  	0.160806 
1020.343664  	0.160577 
1022.272480  	0.159899 
1024.201296  	0.158594 
1026.130112  	0.155423 
1028.058928  	0.154114 
1029.987744  	0.157065 
1031.916560  	0.159119 
1033.845376  	0.160156 
1035.774192  	0.161058 
1037.703008  	0.163301 
1039.631824  	0.169045 
1041.560640  	0.177229 
1043.489456  	0.187636 
1045.418272  	0.200530 
1047.347088  	0.215338 
1049.275904  	0.229644 
1051.204720  	0.241380 
1053.133536  	0.249084 
1055.062352  	0.252918 
1056.991168  	0.253593 
1058.919984  	0.255367 
1060.848800  	0.256779 
1062.777616  	0.254926 
1064.706432  	0.249294 
1066.635248  	0.244411 
1068.564064  	0.243110 
1070.492880  	0.239132 
1072.421696  	0.232420 
1074.350512  	0.227664 
1076.279328  	0.226154 
1078.208144  	0.228609 
1080.136960  	0.233787 
1082.065776  	0.239891 
1083.994592  	0.244147 
1085.923408  	0.245756 
1087.852224  	0.243959 
1089.781040  	0.239957 
1091.709856  	0.234814 
1093.638672  	0.227000 
1095.567488  	0.216294 
1097.496304  	0.204702 
1099.425120  	0.192494 
1101.353936  	0.179752 
1103.282752  	0.167193 
1105.211568  	0.155437 
1107.140384  	0.144179 
1109.069200  	0.133621 
1110.998016  	0.123775 
1112.926832  	0.114658 
1114.855648  	0.106539 
1116.784464  	0.099135 
1118.713280  	0.092090 
1120.642096  	0.085441 
1122.570912  	0.079289 
1124.499728  	0.073336 
1126.428544  	0.068028 
1128.357360  	0.063197 
1130.286176  	0.059230 
1132.214992  	0.055691 
1134.143808  	0.052926 
1136.072624  	0.050713 
1138.001440  	0.048777 
1139.930256  	0.046327 
1141.859072  	0.044000 
1143.787888  	0.041665 
1145.716704  	0.039587 
1147.645520  	0.037643 
1149.574336  	0.036024 
1151.503152  	0.034605 
1153.431968  	0.033925 
1155.360784  	0.034047 
1157.289600  	0.034856 
1159.218416  	0.036119 
1161.147232  	0.037973 
1163.076048  	0.039850 
1165.004864  	0.041881 
1166.933680  	0.043998 
1168.862496  	0.046380 
1170.791312  	0.048606 
1172.720128  	0.051399 
1174.648944  	0.054154 
1176.577760  	0.056853 
1178.506576  	0.059363 
1180.435392  	0.062051 
1182.364208  	0.064608 
1184.293024  	0.067491 
1186.221840  	0.070362 
1188.150656  	0.073749 
1190.079472  	0.077690 
1192.008288  	0.082440 
1193.937104  	0.088221 
1195.865920  	0.095195 
1197.794736  	0.102881 
1199.723552  	0.111485 
1201.652368  	0.120100 
1203.581184  	0.128822 
1205.510000  	0.137431 
1207.438816  	0.145788 
1209.367632  	0.153692 
1211.296448  	0.160625 
1213.225264  	0.166311 
1215.154080  	0.170726 
1217.082896  	0.174069 
1219.011712  	0.176443 
1220.940528  	0.178271 
1222.869344  	0.179497 
1224.798160  	0.179857 
1226.726976  	0.179618 
1228.655792  	0.179068 
1230.584608  	0.177893 
1232.513424  	0.176135 
1234.442240  	0.173852 
1236.371056  	0.170812 
1238.299872  	0.166576 
1240.228688  	0.159870 
1242.157504  	0.153113 
1244.086320  	0.147547 
1246.015136  	0.140358 
1247.943952  	0.132327 
1249.872768  	0.124387 
1251.801584  	0.117501 
1253.730400  	0.110583 
1255.659216  	0.103778 
1257.588032  	0.097297 
1259.516848  	0.091104 
1261.445664  	0.085406 
1263.374480  	0.080232 
1265.303296  	0.075962 
1267.232112  	0.072435 
1269.160928  	0.069658 
1271.089744  	0.067497 
1273.018560  	0.066147 
1274.947376  	0.065621 
1276.876192  	0.065584 
1278.805008  	0.065184 
1280.733824  	0.063934 
1282.662640  	0.061879 
1284.591456  	0.059556 
1286.520272  	0.057524 
1288.449088  	0.056174 
1290.377904  	0.055468 
1292.306720  	0.055565 
1294.235536  	0.055532 
1296.164352  	0.054703 
1298.093168  	0.052469 
1300.021984  	0.049770 
1301.950800  	0.046858 
1303.879616  	0.044025 
1305.808432  	0.041006 
1307.737248  	0.038154 
1309.666064  	0.035345 
1311.594880  	0.033362 
1313.523696  	0.031754 
1315.452512  	0.030624 
1317.381328  	0.029987 
1319.310144  	0.029790 
1321.238960  	0.029757 
1323.167776  	0.030272 
1325.096592  	0.031016 
1327.025408  	0.031671 
1328.954224  	0.031746 
1330.883040  	0.031403 
1332.811856  	0.030620 
1334.740672  	0.030258 
1336.669488  	0.030404 
1338.598304  	0.030669 
1340.527120  	0.029111 
1342.455936  	0.027333 
1344.384752  	0.026857 
1346.313568  	0.027003 
1348.242384  	0.027440 
1350.171200  	0.028610 
1352.100016  	0.030183 
1354.028832  	0.032105 
1355.957648  	0.033842 
1357.886464  	0.035917 
1359.815280  	0.038346 
1361.744096  	0.040798 
1363.672912  	0.041624 
1365.601728  	0.042447 
1367.530544  	0.043777 
1369.459360  	0.044102 
1371.388176  	0.043954 
1373.316992  	0.042862 
1375.245808  	0.039395 
1377.174624  	0.036804 
1379.103440  	0.033990 
1381.032256  	0.031028 
1382.961072  	0.028870 
1384.889888  	0.028432 
1386.818704  	0.027891 
1388.747520  	0.025839 
1390.676336  	0.023664 
1392.605152  	0.020854 
1394.533968  	0.019029 
1396.462784  	0.021831 
1398.391600  	0.023016 
1400.320416  	0.021932 
1402.249232  	0.022414 
1404.178048  	0.023149 
1406.106864  	0.023494 
1408.035680  	0.025246 
1409.964496  	0.027762 
1411.893312  	0.030552 
1413.822128  	0.033542 
1415.750944  	0.037516 
1417.679760  	0.040112 
1419.608576  	0.038975 
1421.537392  	0.039269 
1423.466208  	0.039672 
1425.395024  	0.037820 
1427.323840  	0.036923 
1429.252656  	0.034652 
1431.181472  	0.032817 
1433.110288  	0.032922 
1435.039104  	0.033889 
1436.967920  	0.032485 
1438.896736  	0.032790 
1440.825552  	0.034106 
1442.754368  	0.034664 
1444.683184  	0.034972 
1446.612000  	0.035136 
1448.540816  	0.033834 
1450.469632  	0.034307 
1452.398448  	0.035350 
1454.327264  	0.036814 
1456.256080  	0.036262 
1458.184896  	0.032378 
1460.113712  	0.034028 
1462.042528  	0.036200 
1463.971344  	0.036009 
1465.900160  	0.035990 
1467.828976  	0.038997 
1469.757792  	0.042779 
1471.686608  	0.045842 
1473.615424  	0.050493 
1475.544240  	0.056946 
1477.473056  	0.062306 
1479.401872  	0.066271 
1481.330688  	0.069351 
1483.259504  	0.071275 
1485.188320  	0.072999 
1487.117136  	0.072911 
1489.045952  	0.071943 
1490.974768  	0.068117 
1492.903584  	0.066437 
1494.832400  	0.064097 
1496.761216  	0.057338 
1498.690032  	0.051264 
1500.618848  	0.047887 
1502.547664  	0.044987 
1504.476480  	0.041708 
1506.405296  	0.034922 
1508.334112  	0.031635 
1510.262928  	0.032382 
1512.191744  	0.030718 
1514.120560  	0.030080 
1516.049376  	0.029608 
1517.978192  	0.028247 
1519.907008  	0.029862 
1521.835824  	0.029136 
1523.764640  	0.033404 
1525.693456  	0.037935 
1527.622272  	0.039711 
1529.551088  	0.040760 
1531.479904  	0.041222 
1533.408720  	0.036978 
1535.337536  	0.034005 
1537.266352  	0.033359 
1539.195168  	0.025702 
1541.123984  	0.017650 
1543.052800  	0.020625 
1544.981616  	0.021241 
1546.910432  	0.020948 
1548.839248  	0.021780 
1550.768064  	0.021636 
1552.696880  	0.021699 
1554.625696  	0.021934 
1556.554512  	0.022405 
1558.483328  	0.019219 
1560.412144  	0.021528 
1562.340960  	0.029882 
1564.269776  	0.034120 
1566.198592  	0.039185 
1568.127408  	0.043361 
1570.056224  	0.047280 
1571.985040  	0.054366 
1573.913856  	0.059672 
1575.842672  	0.059735 
1577.771488  	0.061856 
1579.700304  	0.064643 
1581.629120  	0.064691 
1583.557936  	0.064206 
1585.486752  	0.064958 
1587.415568  	0.067152 
1589.344384  	0.071246 
1591.273200  	0.076927 
1593.202016  	0.083769 
1595.130832  	0.090811 
1597.059648  	0.098348 
1598.988464  	0.104964 
1600.917280  	0.110611 
1602.846096  	0.114127 
1604.774912  	0.116471 
1606.703728  	0.116742 
1608.632544  	0.115597 
1610.561360  	0.113594 
1612.490176  	0.112514 
1614.418992  	0.111004 
1616.347808  	0.107276 
1618.276624  	0.107488 
1620.205440  	0.113019 
1622.134256  	0.115928 
1624.063072  	0.120279 
1625.991888  	0.127526 
1627.920704  	0.135171 
1629.849520  	0.144540 
1631.778336  	0.154516 
1633.707152  	0.161363 
1635.635968  	0.166759 
1637.564784  	0.176237 
1639.493600  	0.185579 
1641.422416  	0.191378 
1643.351232  	0.196097 
1645.280048  	0.196914 
1647.208864  	0.194496 
1649.137680  	0.196596 
1651.066496  	0.199309 
1652.995312  	0.189974 
1654.924128  	0.187487 
1656.852944  	0.190499 
1658.781760  	0.189390 
1660.710576  	0.186027 
1662.639392  	0.180207 
1664.568208  	0.176074 
1666.497024  	0.174997 
1668.425840  	0.169539 
1670.354656  	0.161268 
1672.283472  	0.158891 
1674.212288  	0.156772 
1676.141104  	0.151281 
1678.069920  	0.151433 
1679.998736  	0.151447 
1681.927552  	0.150465 
1683.856368  	0.144305 
1685.785184  	0.142114 
1687.714000  	0.145670 
1689.642816  	0.145336 
1691.571632  	0.143727 
1693.500448  	0.143487 
1695.429264  	0.138996 
1697.358080  	0.135318 
1699.286896  	0.133359 
1701.215712  	0.126393 
1703.144528  	0.127182 
1705.073344  	0.123267 
1707.002160  	0.117096 
1708.930976  	0.113558 
1710.859792  	0.108060 
1712.788608  	0.101883 
1714.717424  	0.093842 
1716.646240  	0.082495 
1718.575056  	0.068149 
1720.503872  	0.061635 
1722.432688  	0.056188 
1724.361504  	0.047395 
1726.290320  	0.040225 
1728.219136  	0.034557 
1730.147952  	0.029458 
1732.076768  	0.025225 
1734.005584  	0.017605 
1735.934400  	0.012699 
1737.863216  	0.013663 
1739.792032  	0.009825 
1741.720848  	0.008834 
1743.649664  	0.008713 
1745.578480  	0.008083 
1747.507296  	0.006494 
1749.436112  	0.005441 
1751.364928  	0.004016 
1753.293744  	0.003561 
1755.222560  	0.003714 
1757.151376  	0.002857 
1759.080192  	0.002501 
1761.009008  	0.001996 
1762.937824  	0.000204 
1764.866640  	0.001026 
1766.795456  	0.001637 
1768.724272  	0.000951 
1770.653088  	-0.000961 
1772.581904  	-0.004077 
1774.510720  	-0.002890 
1776.439536  	-0.000926 
1778.368352  	-0.000440 
1780.297168  	-0.000755 
1782.225984  	-0.001350 
1784.154800  	-0.000878 
1786.083616  	-0.001695 
1788.012432  	-0.001338 
1789.941248  	-0.000782 
1791.870064  	-0.002372 
1793.798880  	-0.003941 
1795.727696  	-0.002184 
1797.656512  	-0.002470 
1799.585328  	-0.002691 
1801.514144  	-0.002423 
1803.442960  	-0.002372 
1805.371776  	-0.002910 
1807.300592  	-0.002598 
1809.229408  	-0.003190 
1811.158224  	-0.003700 
1813.087040  	-0.003816 
1815.015856  	-0.003306 
1816.944672  	-0.003292 
1818.873488  	-0.003403 
1820.802304  	-0.003574 
1822.731120  	-0.002784 
1824.659936  	-0.003351 
1826.588752  	-0.003905 
1828.517568  	-0.004424 
1830.446384  	-0.005364 
1832.375200  	-0.004507 
1834.304016  	-0.003507 
1836.232832  	-0.003744 
1838.161648  	-0.003682 
1840.090464  	-0.003619 
1842.019280  	-0.002699 
1843.948096  	-0.004431 
1845.876912  	-0.004983 
1847.805728  	-0.004066 
1849.734544  	-0.004075 
1851.663360  	-0.004303 
1853.592176  	-0.004185 
1855.520992  	-0.004282 
1857.449808  	-0.004084 
1859.378624  	-0.004290 
1861.307440  	-0.004306 
1863.236256  	-0.004395 
1865.165072  	-0.003858 
1867.093888  	-0.004125 
1869.022704  	-0.004881 
1870.951520  	-0.005166 
1872.880336  	-0.004310 
1874.809152  	-0.004480 
1876.737968  	-0.004453 
1878.666784  	-0.004714 
1880.595600  	-0.004313 
1882.524416  	-0.004522 
1884.453232  	-0.004355 
1886.382048  	-0.004537 
1888.310864  	-0.004387 
1890.239680  	-0.005015 
1892.168496  	-0.004480 
1894.097312  	-0.004298 
1896.026128  	-0.004349 
1897.954944  	-0.004757 
1899.883760  	-0.004763 
1901.812576  	-0.004906 
1903.741392  	-0.004805 
1905.670208  	-0.004980 
1907.599024  	-0.004629 
1909.527840  	-0.004763 
1911.456656  	-0.004464 
1913.385472  	-0.004539 
1915.314288  	-0.003816 
1917.243104  	-0.004103 
1919.171920  	-0.004528 
1921.100736  	-0.004440 
1923.029552  	-0.004137 
1924.958368  	-0.004760 
1926.887184  	-0.004682 
1928.816000  	-0.005276 
1930.744816  	-0.005282 
1932.673632  	-0.005653 
1934.602448  	-0.004959 
1936.531264  	-0.004586 
1938.460080  	-0.004114 
1940.388896  	-0.004871 
1942.317712  	-0.004940 
1944.246528  	-0.005228 
1946.175344  	-0.004355 
1948.104160  	-0.004569 
1950.032976  	-0.003982 
1951.961792  	-0.004030 
1953.890608  	-0.003693 
1955.819424  	-0.003769 
1957.748240  	-0.003215 
1959.677056  	-0.004223 
1961.605872  	-0.003951 
1963.534688  	-0.004005 
1965.463504  	-0.002867 
1967.392320  	-0.003574 
1969.321136  	-0.003982 
1971.249952  	-0.004464 
1973.178768  	-0.003343 
1975.107584  	-0.003917 
1977.036400  	-0.002620 
1978.965216  	-0.001391 
1980.894032  	-0.001391 
1982.822848  	-0.002786 
1984.751664  	-0.003197 
1986.680480  	-0.004192 
1988.609296  	-0.003577 
1990.538112  	-0.004027 
1992.466928  	-0.002926 
1994.395744  	-0.003583 
1996.324560  	-0.003843 
1998.253376  	-0.004287 
2000.182192  	-0.004614 
2002.111008  	-0.004483 
2004.039824  	-0.002977 
2005.968640  	-0.003387 
2007.897456  	-0.003090 
2009.826272  	-0.003025 
2011.755088  	-0.002427 
2013.683904  	-0.002998 
2015.612720  	-0.002686 
2017.541536  	-0.003436 
2019.470352  	-0.002549 
2021.399168  	-0.004003 
2023.327984  	-0.004062 
2025.256800  	-0.003370 
2027.185616  	-0.003074 
2029.114432  	-0.003580 
2031.043248  	-0.002653 
2032.972064  	-0.002177 
2034.900880  	-0.001092 
2036.829696  	-0.002900 
2038.758512  	-0.003028 
2040.687328  	-0.003057 
2042.616144  	-0.002752 
2044.544960  	-0.004180 
2046.473776  	-0.004262 
2048.402592  	-0.003561 
2050.331408  	-0.002857 
2052.260224  	-0.004503 
2054.189040  	-0.005032 
2056.117856  	-0.005181 
2058.046672  	-0.004689 
2059.975488  	-0.004883 
2061.904304  	-0.004719 
2063.833120  	-0.004141 
2065.761936  	-0.004026 
2067.690752  	-0.004462 
2069.619568  	-0.003877 
2071.548384  	-0.003952 
2073.477200  	-0.004021 
2075.406016  	-0.003744 
2077.334832  	-0.003413 
2079.263648  	-0.003836 
2081.192464  	-0.003593 
2083.121280  	-0.003533 
2085.050096  	-0.003801 
2086.978912  	-0.003974 
2088.907728  	-0.003426 
2090.836544  	-0.003677 
2092.765360  	-0.003780 
2094.694176  	-0.003660 
2096.622992  	-0.003580 
2098.551808  	-0.003939 
2100.480624  	-0.003628 
2102.409440  	-0.003930 
2104.338256  	-0.004041 
2106.267072  	-0.003906 
2108.195888  	-0.003598 
2110.124704  	-0.003832 
2112.053520  	-0.003800 
2113.982336  	-0.003925 
2115.911152  	-0.003940 
2117.839968  	-0.004403 
2119.768784  	-0.004462 
2121.697600  	-0.004540 
2123.626416  	-0.004449 
2125.555232  	-0.004890 
2127.484048  	-0.004739 
2129.412864  	-0.004892 
2131.341680  	-0.004555 
2133.270496  	-0.004213 
2135.199312  	-0.003304 
2137.128128  	-0.003017 
2139.056944  	-0.002563 
2140.985760  	-0.002786 
2142.914576  	-0.002583 
2144.843392  	-0.002435 
2146.772208  	-0.002687 
2148.701024  	-0.004228 
2150.629840  	-0.004030 
2152.558656  	-0.003785 
2154.487472  	-0.003001 
2156.416288  	-0.002786 
2158.345104  	-0.001670 
2160.273920  	-0.000566 
2162.202736  	0.000383 
2164.131552  	-0.000601 
2166.060368  	-0.000534 
2167.989184  	-0.001235 
2169.918000  	-0.001214 
2171.846816  	-0.002511 
2173.775632  	-0.001638 
2175.704448  	-0.001151 
2177.633264  	-0.001525 
2179.562080  	-0.001894 
2181.490896  	-0.001836 
2183.419712  	-0.003003 
2185.348528  	-0.002853 
2187.277344  	-0.003074 
2189.206160  	-0.003022 
2191.134976  	-0.002899 
2193.063792  	-0.002992 
2194.992608  	-0.002940 
2196.921424  	-0.002681 
2198.850240  	-0.002618 
2200.779056  	-0.002531 
2202.707872  	-0.002960 
2204.636688  	-0.002964 
2206.565504  	-0.003136 
2208.494320  	-0.003612 
2210.423136  	-0.004005 
2212.351952  	-0.003744 
2214.280768  	-0.004113 
2216.209584  	-0.003643 
2218.138400  	-0.004312 
2220.067216  	-0.004171 
2221.996032  	-0.003565 
2223.924848  	-0.002960 
2225.853664  	-0.002986 
2227.782480  	-0.003274 
2229.711296  	-0.004114 
2231.640112  	-0.004083 
2233.568928  	-0.004057 
2235.497744  	-0.003831 
2237.426560  	-0.004525 
2239.355376  	-0.004736 
2241.284192  	-0.004388 
2243.213008  	-0.004158 
2245.141824  	-0.004558 
2247.070640  	-0.004540 
2248.999456  	-0.004502 
2250.928272  	-0.004454 
2252.857088  	-0.004515 
2254.785904  	-0.004444 
2256.714720  	-0.005184 
2258.643536  	-0.005404 
2260.572352  	-0.005552 
2262.501168  	-0.005651 
2264.429984  	-0.005639 
2266.358800  	-0.005323 
2268.287616  	-0.005324 
2270.216432  	-0.005241 
2272.145248  	-0.005205 
2274.074064  	-0.005589 
2276.002880  	-0.005710 
2277.931696  	-0.005011 
2279.860512  	-0.004680 
2281.789328  	-0.004480 
2283.718144  	-0.004585 
2285.646960  	-0.004532 
2287.575776  	-0.004412 
2289.504592  	-0.004584 
2291.433408  	-0.004785 
2293.362224  	-0.004559 
2295.291040  	-0.004164 
2297.219856  	-0.003662 
2299.148672  	-0.003868 
2301.077488  	-0.003922 
2303.006304  	-0.003693 
2304.935120  	-0.003311 
2306.863936  	-0.003177 
2308.792752  	-0.003162 
2310.721568  	-0.003448 
2312.650384  	-0.004033 
2314.579200  	-0.004917 
2316.508016  	-0.005584 
2318.436832  	-0.006358 
2320.365648  	-0.007486 
2322.294464  	-0.008795 
2324.223280  	-0.010331 
2326.152096  	-0.012198 
2328.080912  	-0.013760 
2330.009728  	-0.015336 
2331.938544  	-0.017323 
2333.867360  	-0.018896 
2335.796176  	-0.019824 
2337.724992  	-0.020724 
2339.653808  	-0.020769 
2341.582624  	-0.020814 
2343.511440  	-0.020050 
2345.440256  	-0.017990 
2347.369072  	-0.013579 
2349.297888  	-0.010309 
2351.226704  	-0.012078 
2353.155520  	-0.017173 
2355.084336  	-0.021379 
2357.013152  	-0.024525 
2358.941968  	-0.026026 
2360.870784  	-0.026934 
2362.799600  	-0.026260 
2364.728416  	-0.024976 
2366.657232  	-0.022792 
2368.586048  	-0.019675 
2370.514864  	-0.016617 
2372.443680  	-0.013935 
2374.372496  	-0.011019 
2376.301312  	-0.008399 
2378.230128  	-0.006318 
2380.158944  	-0.005250 
2382.087760  	-0.004948 
2384.016576  	-0.005162 
2385.945392  	-0.005494 
2387.874208  	-0.005677 
2389.803024  	-0.005817 
2391.731840  	-0.006106 
2393.660656  	-0.006153 
2395.589472  	-0.006162 
2397.518288  	-0.006031 
2399.447104  	-0.006154 
2401.375920  	-0.006276 
2403.304736  	-0.006388 
2405.233552  	-0.006363 
2407.162368  	-0.006479 
2409.091184  	-0.006431 
2411.020000  	-0.006451 
2412.948816  	-0.006458 
2414.877632  	-0.006280 
2416.806448  	-0.006037 
2418.735264  	-0.006179 
2420.664080  	-0.006279 
2422.592896  	-0.006299 
2424.521712  	-0.006222 
2426.450528  	-0.006340 
2428.379344  	-0.006253 
2430.308160  	-0.006037 
2432.236976  	-0.005762 
2434.165792  	-0.005859 
2436.094608  	-0.006029 
2438.023424  	-0.005968 
2439.952240  	-0.005679 
2441.881056  	-0.005706 
2443.809872  	-0.005834 
2445.738688  	-0.005735 
2447.667504  	-0.005422 
2449.596320  	-0.005438 
2451.525136  	-0.005389 
2453.453952  	-0.005403 
2455.382768  	-0.005436 
2457.311584  	-0.005603 
2459.240400  	-0.005815 
2461.169216  	-0.005888 
2463.098032  	-0.005911 
2465.026848  	-0.005781 
2466.955664  	-0.005859 
2468.884480  	-0.005994 
2470.813296  	-0.005967 
2472.742112  	-0.006075 
2474.670928  	-0.006006 
2476.599744  	-0.006011 
2478.528560  	-0.005876 
2480.457376  	-0.005716 
2482.386192  	-0.005766 
2484.315008  	-0.005776 
2486.243824  	-0.005747 
2488.172640  	-0.005714 
2490.101456  	-0.005508 
2492.030272  	-0.005344 
2493.959088  	-0.005206 
2495.887904  	-0.005216 
2497.816720  	-0.005110 
2499.745536  	-0.004984 
2501.674352  	-0.004871 
2503.603168  	-0.004719 
2505.531984  	-0.004776 
2507.460800  	-0.005115 
2509.389616  	-0.004923 
2511.318432  	-0.004888 
2513.247248  	-0.004914 
2515.176064  	-0.004915 
2517.104880  	-0.004762 
2519.033696  	-0.004858 
2520.962512  	-0.004829 
2522.891328  	-0.004791 
2524.820144  	-0.004786 
2526.748960  	-0.004575 
2528.677776  	-0.004302 
2530.606592  	-0.004530 
2532.535408  	-0.004724 
2534.464224  	-0.004790 
2536.393040  	-0.004613 
2538.321856  	-0.004451 
2540.250672  	-0.004429 
2542.179488  	-0.004445 
2544.108304  	-0.004334 
2546.037120  	-0.004118 
2547.965936  	-0.004093 
2549.894752  	-0.004162 
2551.823568  	-0.004177 
2553.752384  	-0.004018 
2555.681200  	-0.003695 
2557.610016  	-0.003791 
2559.538832  	-0.003720 
2561.467648  	-0.003483 
2563.396464  	-0.003428 
2565.325280  	-0.003453 
2567.254096  	-0.003527 
2569.182912  	-0.003470 
2571.111728  	-0.003265 
2573.040544  	-0.003243 
2574.969360  	-0.003263 
2576.898176  	-0.003035 
2578.826992  	-0.003017 
2580.755808  	-0.003163 
2582.684624  	-0.003084 
2584.613440  	-0.002919 
2586.542256  	-0.002857 
2588.471072  	-0.002794 
2590.399888  	-0.002768 
2592.328704  	-0.002891 
2594.257520  	-0.002876 
2596.186336  	-0.002673 
2598.115152  	-0.002481 
2600.043968  	-0.002542 
2601.972784  	-0.002472 
2603.901600  	-0.002436 
2605.830416  	-0.002250 
2607.759232  	-0.002088 
2609.688048  	-0.001890 
2611.616864  	-0.001736 
2613.545680  	-0.001752 
2615.474496  	-0.001772 
2617.403312  	-0.001553 
2619.332128  	-0.001443 
2621.260944  	-0.001530 
2623.189760  	-0.001545 
2625.118576  	-0.001417 
2627.047392  	-0.001352 
2628.976208  	-0.001129 
2630.905024  	-0.000879 
2632.833840  	-0.000801 
2634.762656  	-0.000712 
2636.691472  	-0.000791 
2638.620288  	-0.000812 
2640.549104  	-0.000745 
2642.477920  	-0.000698 
2644.406736  	-0.000516 
2646.335552  	-0.000367 
2648.264368  	-0.000257 
2650.193184  	-0.000253 
2652.122000  	-0.000093 
2654.050816  	0.000191 
2655.979632  	0.000326 
2657.908448  	0.000363 
2659.837264  	0.000507 
2661.766080  	0.000548 
2663.694896  	0.000653 
2665.623712  	0.000718 
2667.552528  	0.000827 
2669.481344  	0.001007 
2671.410160  	0.001115 
2673.338976  	0.001107 
2675.267792  	0.001273 
2677.196608  	0.001506 
2679.125424  	0.001540 
2681.054240  	0.001638 
2682.983056  	0.001845 
2684.911872  	0.001928 
2686.840688  	0.002051 
2688.769504  	0.002057 
2690.698320  	0.001984 
2692.627136  	0.002086 
2694.555952  	0.002219 
2696.484768  	0.002229 
2698.413584  	0.002303 
2700.342400  	0.002419 
2702.271216  	0.002595 
2704.200032  	0.002782 
2706.128848  	0.002862 
2708.057664  	0.002843 
2709.986480  	0.002928 
2711.915296  	0.003060 
2713.844112  	0.003283 
2715.772928  	0.003381 
2717.701744  	0.003490 
2719.630560  	0.003691 
2721.559376  	0.003770 
2723.488192  	0.003807 
2725.417008  	0.003990 
2727.345824  	0.004213 
2729.274640  	0.004316 
2731.203456  	0.004480 
2733.132272  	0.004624 
2735.061088  	0.004705 
2736.989904  	0.004852 
2738.918720  	0.004859 
2740.847536  	0.004874 
2742.776352  	0.004954 
2744.705168  	0.005045 
2746.633984  	0.005090 
2748.562800  	0.005098 
2750.491616  	0.005203 
2752.420432  	0.005370 
2754.349248  	0.005391 
2756.278064  	0.005330 
2758.206880  	0.005274 
2760.135696  	0.005280 
2762.064512  	0.005260 
2763.993328  	0.005221 
2765.922144  	0.005230 
2767.850960  	0.005267 
2769.779776  	0.005275 
2771.708592  	0.005316 
2773.637408  	0.005221 
2775.566224  	0.005167 
2777.495040  	0.005148 
2779.423856  	0.005264 
2781.352672  	0.005334 
2783.281488  	0.005265 
2785.210304  	0.005326 
2787.139120  	0.005412 
2789.067936  	0.005384 
2790.996752  	0.005417 
2792.925568  	0.005346 
2794.854384  	0.005318 
2796.783200  	0.005364 
2798.712016  	0.005373 
2800.640832  	0.005301 
2802.569648  	0.005361 
2804.498464  	0.005390 
2806.427280  	0.005374 
2808.356096  	0.005367 
2810.284912  	0.005390 
2812.213728  	0.005418 
2814.142544  	0.005400 
2816.071360  	0.005329 
2818.000176  	0.005154 
2819.928992  	0.005015 
2821.857808  	0.004920 
2823.786624  	0.004719 
2825.715440  	0.004670 
2827.644256  	0.004491 
2829.573072  	0.004315 
2831.501888  	0.004084 
2833.430704  	0.003739 
2835.359520  	0.003425 
2837.288336  	0.003273 
2839.217152  	0.002981 
2841.145968  	0.002565 
2843.074784  	0.002195 
2845.003600  	0.001749 
2846.932416  	0.001336 
2848.861232  	0.001078 
2850.790048  	0.000635 
2852.718864  	-0.000014 
2854.647680  	-0.000505 
2856.576496  	-0.001030 
2858.505312  	-0.001612 
2860.434128  	-0.002189 
2862.362944  	-0.002943 
2864.291760  	-0.003794 
2866.220576  	-0.004403 
2868.149392  	-0.004642 
2870.078208  	-0.004860 
2872.007024  	-0.005034 
2873.935840  	-0.005010 
2875.864656  	-0.004998 
2877.793472  	-0.005075 
2879.722288  	-0.005374 
2881.651104  	-0.005768 
2883.579920  	-0.005952 
2885.508736  	-0.005790 
2887.437552  	-0.005533 
2889.366368  	-0.005467 
2891.295184  	-0.005683 
2893.224000  	-0.005926 
2895.152816  	-0.005978 
2897.081632  	-0.006285 
2899.010448  	-0.008043 
2900.939264  	-0.009533 
2902.868080  	-0.008162 
2904.796896  	-0.006819 
2906.725712  	-0.006292 
2908.654528  	-0.005715 
2910.583344  	-0.005297 
2912.512160  	-0.004775 
2914.440976  	-0.003686 
2916.369792  	-0.002797 
2918.298608  	-0.002283 
2920.227424  	-0.001882 
2922.156240  	-0.001277 
2924.085056  	-0.000319 
2926.013872  	0.000740 
2927.942688  	0.001668 
2929.871504  	0.002511 
2931.800320  	0.003427 
2933.729136  	0.004277 
2935.657952  	0.004786 
2937.586768  	0.005326 
2939.515584  	0.005880 
2941.444400  	0.006126 
2943.373216  	0.006261 
2945.302032  	0.006639 
2947.230848  	0.006878 
2949.159664  	0.006668 
2951.088480  	0.006103 
2953.017296  	0.005602 
2954.946112  	0.004967 
2956.874928  	0.004100 
2958.803744  	0.003366 
2960.732560  	0.002822 
2962.661376  	0.002221 
2964.590192  	0.001350 
2966.519008  	0.000100 
2968.447824  	-0.001080 
2970.376640  	-0.001978 
2972.305456  	-0.002514 
2974.234272  	-0.002257 
2976.163088  	-0.001913 
2978.091904  	-0.001845 
2980.020720  	-0.001840 
2981.949536  	-0.001645 
2983.878352  	-0.001932 
2985.807168  	-0.002951 
2987.735984  	-0.003836 
2989.664800  	-0.003454 
2991.593616  	-0.000288 
2993.522432  	0.001803 
2995.451248  	0.002307 
2997.380064  	0.003193 
2999.308880  	0.004439 
3001.237696  	0.005738 
3003.166512  	0.007221 
3005.095328  	0.008579 
3007.024144  	0.010041 
3008.952960  	0.011584 
3010.881776  	0.013092 
3012.810592  	0.014425 
3014.739408  	0.015730 
3016.668224  	0.016848 
3018.597040  	0.018115 
3020.525856  	0.019522 
3022.454672  	0.020644 
3024.383488  	0.021656 
3026.312304  	0.022654 
3028.241120  	0.023672 
3030.169936  	0.024624 
3032.098752  	0.025464 
3034.027568  	0.026309 
3035.956384  	0.027142 
3037.885200  	0.028043 
3039.814016  	0.028660 
3041.742832  	0.029263 
3043.671648  	0.029908 
3045.600464  	0.030546 
3047.529280  	0.031010 
3049.458096  	0.031493 
3051.386912  	0.032204 
3053.315728  	0.032790 
3055.244544  	0.033362 
3057.173360  	0.034055 
3059.102176  	0.034615 
3061.030992  	0.035166 
3062.959808  	0.035972 
3064.888624  	0.036665 
3066.817440  	0.037273 
3068.746256  	0.038111 
3070.675072  	0.039015 
3072.603888  	0.039722 
3074.532704  	0.040380 
3076.461520  	0.041166 
3078.390336  	0.041926 
3080.319152  	0.042597 
3082.247968  	0.043394 
3084.176784  	0.044125 
3086.105600  	0.044949 
3088.034416  	0.045793 
3089.963232  	0.046592 
3091.892048  	0.047221 
3093.820864  	0.047876 
3095.749680  	0.048635 
3097.678496  	0.049475 
3099.607312  	0.050424 
3101.536128  	0.051327 
3103.464944  	0.052220 
3105.393760  	0.052909 
3107.322576  	0.053594 
3109.251392  	0.054329 
3111.180208  	0.055059 
3113.109024  	0.055711 
3115.037840  	0.056361 
3116.966656  	0.057024 
3118.895472  	0.057656 
3120.824288  	0.058440 
3122.753104  	0.059197 
3124.681920  	0.059694 
3126.610736  	0.060136 
3128.539552  	0.060904 
3130.468368  	0.061773 
3132.397184  	0.062500 
3134.326000  	0.063142 
3136.254816  	0.063652 
3138.183632  	0.064308 
3140.112448  	0.065002 
3142.041264  	0.065437 
3143.970080  	0.065836 
3145.898896  	0.066460 
3147.827712  	0.067268 
3149.756528  	0.067979 
3151.685344  	0.068476 
3153.614160  	0.069167 
3155.542976  	0.069799 
3157.471792  	0.070423 
3159.400608  	0.071131 
3161.329424  	0.071657 
3163.258240  	0.072046 
3165.187056  	0.072639 
3167.115872  	0.073295 
3169.044688  	0.073889 
3170.973504  	0.074353 
3172.902320  	0.074751 
3174.831136  	0.075198 
3176.759952  	0.075727 
3178.688768  	0.076078 
3180.617584  	0.076371 
3182.546400  	0.076621 
3184.475216  	0.076929 
3186.404032  	0.077137 
3188.332848  	0.077321 
3190.261664  	0.077629 
3192.190480  	0.077835 
3194.119296  	0.077828 
3196.048112  	0.078084 
3197.976928  	0.077987 
3199.905744  	0.077940 
3201.834560  	0.077947 
3203.763376  	0.077899 
3205.692192  	0.077884 
3207.621008  	0.077852 
3209.549824  	0.077929 
3211.478640  	0.078008 
3213.407456  	0.077876 
3215.336272  	0.077667 
3217.265088  	0.077477 
3219.193904  	0.077395 
3221.122720  	0.077320 
3223.051536  	0.077031 
3224.980352  	0.076893 
3226.909168  	0.076687 
3228.837984  	0.076465 
3230.766800  	0.076512 
3232.695616  	0.076491 
3234.624432  	0.076261 
3236.553248  	0.076116 
3238.482064  	0.076236 
3240.410880  	0.076210 
3242.339696  	0.076292 
3244.268512  	0.076183 
3246.197328  	0.076251 
3248.126144  	0.076474 
3250.054960  	0.076542 
3251.983776  	0.076856 
3253.912592  	0.077179 
3255.841408  	0.077417 
3257.770224  	0.077812 
3259.699040  	0.077970 
3261.627856  	0.078048 
3263.556672  	0.078299 
3265.485488  	0.078492 
3267.414304  	0.078764 
3269.343120  	0.079111 
3271.271936  	0.079347 
3273.200752  	0.079304 
3275.129568  	0.079369 
3277.058384  	0.079714 
3278.987200  	0.080159 
3280.916016  	0.080411 
3282.844832  	0.080596 
3284.773648  	0.080839 
3286.702464  	0.081067 
3288.631280  	0.081308 
3290.560096  	0.081634 
3292.488912  	0.082065 
3294.417728  	0.082474 
3296.346544  	0.082782 
3298.275360  	0.082906 
3300.204176  	0.083171 
3302.132992  	0.083400 
3304.061808  	0.083632 
3305.990624  	0.084290 
3307.919440  	0.084788 
3309.848256  	0.084933 
3311.777072  	0.085158 
3313.705888  	0.085595 
3315.634704  	0.086140 
3317.563520  	0.086467 
3319.492336  	0.086681 
3321.421152  	0.086883 
3323.349968  	0.087069 
3325.278784  	0.087289 
3327.207600  	0.087569 
3329.136416  	0.087620 
3331.065232  	0.087892 
3332.994048  	0.088232 
3334.922864  	0.088332 
3336.851680  	0.088183 
3338.780496  	0.088033 
3340.709312  	0.088090 
3342.638128  	0.088071 
3344.566944  	0.087636 
3346.495760  	0.087292 
3348.424576  	0.087149 
3350.353392  	0.086961 
3352.282208  	0.086767 
3354.211024  	0.086426 
3356.139840  	0.086037 
3358.068656  	0.085715 
3359.997472  	0.085430 
3361.926288  	0.084978 
3363.855104  	0.084585 
3365.783920  	0.084219 
3367.712736  	0.083817 
3369.641552  	0.083391 
3371.570368  	0.083081 
3373.499184  	0.082859 
3375.428000  	0.082426 
3377.356816  	0.082012 
3379.285632  	0.081837 
3381.214448  	0.081452 
3383.143264  	0.080945 
3385.072080  	0.080421 
3387.000896  	0.080023 
3388.929712  	0.079759 
3390.858528  	0.079543 
3392.787344  	0.079094 
3394.716160  	0.078800 
3396.644976  	0.078557 
3398.573792  	0.077870 
3400.502608  	0.077423 
3402.431424  	0.077056 
3404.360240  	0.076515 
3406.289056  	0.075883 
3408.217872  	0.075477 
3410.146688  	0.075031 
3412.075504  	0.074570 
3414.004320  	0.074101 
3415.933136  	0.073636 
3417.861952  	0.072984 
3419.790768  	0.072529 
3421.719584  	0.072139 
3423.648400  	0.071719 
3425.577216  	0.071036 
3427.506032  	0.070414 
3429.434848  	0.069938 
3431.363664  	0.069420 
3433.292480  	0.068829 
3435.221296  	0.068278 
3437.150112  	0.067771 
3439.078928  	0.067459 
3441.007744  	0.066945 
3442.936560  	0.066189 
3444.865376  	0.065776 
3446.794192  	0.064983 
3448.723008  	0.063852 
3450.651824  	0.063296 
3452.580640  	0.062939 
3454.509456  	0.062532 
3456.438272  	0.061989 
3458.367088  	0.061444 
3460.295904  	0.060747 
3462.224720  	0.059785 
3464.153536  	0.058937 
3466.082352  	0.058262 
3468.011168  	0.057294 
3469.939984  	0.056466 
3471.868800  	0.055882 
3473.797616  	0.055206 
3475.726432  	0.054294 
3477.655248  	0.053508 
3479.584064  	0.053126 
3481.512880  	0.052390 
3483.441696  	0.051434 
3485.370512  	0.050952 
3487.299328  	0.050004 
3489.228144  	0.049044 
3491.156960  	0.048312 
3493.085776  	0.047613 
3495.014592  	0.046706 
3496.943408  	0.045843 
3498.872224  	0.045323 
3500.801040  	0.045267 
3502.729856  	0.044633 
3504.658672  	0.043438 
3506.587488  	0.042998 
3508.516304  	0.042701 
3510.445120  	0.041728 
3512.373936  	0.040748 
3514.302752  	0.040153 
3516.231568  	0.039910 
3518.160384  	0.039361 
3520.089200  	0.038583 
3522.018016  	0.038232 
3523.946832  	0.038034 
3525.875648  	0.037316 
3527.804464  	0.035915 
3529.733280  	0.034933 
3531.662096  	0.034442 
3533.590912  	0.034033 
3535.519728  	0.033753 
3537.448544  	0.033152 
3539.377360  	0.032285 
3541.306176  	0.031805 
3543.234992  	0.031784 
3545.163808  	0.031889 
3547.092624  	0.030958 
3549.021440  	0.029570 
3550.950256  	0.028872 
3552.879072  	0.027998 
3554.807888  	0.027559 
3556.736704  	0.027149 
3558.665520  	0.026863 
3560.594336  	0.026586 
3562.523152  	0.025865 
3564.451968  	0.025919 
3566.380784  	0.025936 
3568.309600  	0.023711 
3570.238416  	0.022485 
3572.167232  	0.022068 
3574.096048  	0.021321 
3576.024864  	0.020622 
3577.953680  	0.020184 
3579.882496  	0.019397 
3581.811312  	0.018710 
3583.740128  	0.018503 
3585.668944  	0.018705 
3587.597760  	0.016953 
3589.526576  	0.015088 
3591.455392  	0.014932 
3593.384208  	0.014518 
3595.313024  	0.013502 
3597.241840  	0.012396 
3599.170656  	0.011144 
3601.099472  	0.010021 
3603.028288  	0.009933 
3604.957104  	0.010032 
3606.885920  	0.009384 
3608.814736  	0.007883 
3610.743552  	0.007653 
3612.672368  	0.006744 
3614.601184  	0.005172 
3616.530000  	0.004927 
3618.458816  	0.003029 
3620.387632  	0.001194 
3622.316448  	0.001507 
3624.245264  	0.001716 
3626.174080  	0.001707 
3628.102896  	-0.000989 
3630.031712  	-0.004871 
3631.960528  	-0.003099 
3633.889344  	-0.003391 
3635.818160  	-0.004286 
3637.746976  	-0.005228 
3639.675792  	-0.005630 
3641.604608  	-0.005676 
3643.533424  	-0.005858 
3645.462240  	-0.006222 
3647.391056  	-0.009007 
3649.319872  	-0.013934 
3651.248688  	-0.015749 
3653.177504  	-0.012747 
3655.106320  	-0.012939 
3657.035136  	-0.015641 
3658.963952  	-0.015058 
3660.892768  	-0.015035 
3662.821584  	-0.015443 
3664.750400  	-0.015271 
3666.679216  	-0.015094 
3668.608032  	-0.017120 
3670.536848  	-0.020788 
3672.465664  	-0.018773 
3674.394480  	-0.019478 
3676.323296  	-0.024194 
3678.252112  	-0.020548 
3680.180928  	-0.018538 
3682.109744  	-0.017739 
3684.038560  	-0.017684 
3685.967376  	-0.017547 
3687.896192  	-0.020272 
3689.825008  	-0.023351 
3691.753824  	-0.022196 
3693.682640  	-0.019637 
3695.611456  	-0.018262 
3697.540272  	-0.017456 
3699.469088  	-0.016598 
3701.397904  	-0.017748 
3703.326720  	-0.017869 
3705.255536  	-0.016010 
3707.184352  	-0.015309 
3709.113168  	-0.016713 
3711.041984  	-0.019214 
3712.970800  	-0.018589 
3714.899616  	-0.015439 
3716.828432  	-0.014518 
3718.757248  	-0.015019 
3720.686064  	-0.015493 
3722.614880  	-0.015883 
3724.543696  	-0.015240 
3726.472512  	-0.015642 
3728.401328  	-0.015643 
3730.330144  	-0.015847 
3732.258960  	-0.017633 
3734.187776  	-0.016948 
3736.116592  	-0.017916 
3738.045408  	-0.017723 
3739.974224  	-0.015708 
3741.903040  	-0.014099 
3743.831856  	-0.016381 
3745.760672  	-0.018963 
3747.689488  	-0.016674 
3749.618304  	-0.019265 
3751.547120  	-0.021313 
3753.475936  	-0.018906 
3755.404752  	-0.016002 
3757.333568  	-0.015411 
3759.262384  	-0.016277 
3761.191200  	-0.016216 
3763.120016  	-0.014393 
3765.048832  	-0.015084 
3766.977648  	-0.015156 
3768.906464  	-0.015815 
3770.835280  	-0.016774 
3772.764096  	-0.015144 
3774.692912  	-0.014248 
3776.621728  	-0.013958 
3778.550544  	-0.015341 
3780.479360  	-0.016542 
3782.408176  	-0.015014 
3784.336992  	-0.015270 
3786.265808  	-0.015320 
3788.194624  	-0.014802 
3790.123440  	-0.014741 
3792.052256  	-0.014620 
3793.981072  	-0.014334 
3795.909888  	-0.015727 
3797.838704  	-0.015829 
3799.767520  	-0.015925 
3801.696336  	-0.020151 
3803.625152  	-0.018049 
3805.553968  	-0.016560 
3807.482784  	-0.018520 
3809.411600  	-0.016205 
3811.340416  	-0.014556 
3813.269232  	-0.014051 
3815.198048  	-0.016580 
3817.126864  	-0.018172 
3819.055680  	-0.016464 
3820.984496  	-0.019996 
3822.913312  	-0.018976 
3824.842128  	-0.015916 
3826.770944  	-0.016353 
3828.699760  	-0.015578 
3830.628576  	-0.015607 
3832.557392  	-0.016370 
3834.486208  	-0.016259 
3836.415024  	-0.017251 
3838.343840  	-0.018942 
3840.272656  	-0.018382 
3842.201472  	-0.016938 
3844.130288  	-0.016682 
3846.059104  	-0.015348 
3847.987920  	-0.014184 
3849.916736  	-0.013999 
3851.845552  	-0.016192 
3853.774368  	-0.022305 
3855.703184  	-0.019465 
3857.632000  	-0.015950 
3859.560816  	-0.014561 
3861.489632  	-0.014734 
3863.418448  	-0.015688 
3865.347264  	-0.016374 
3867.276080  	-0.014806 
3869.204896  	-0.015972 
3871.133712  	-0.016799 
3873.062528  	-0.015783 
3874.991344  	-0.016349 
3876.920160  	-0.014313 
3878.848976  	-0.013698 
3880.777792  	-0.015000 
3882.706608  	-0.014152 
3884.635424  	-0.014413 
3886.564240  	-0.015988 
3888.493056  	-0.014514 
3890.421872  	-0.014925 
3892.350688  	-0.016268 
3894.279504  	-0.014989 
3896.208320  	-0.013709 
3898.137136  	-0.013459 
3900.065952  	-0.013923 
3901.994768  	-0.014112 
3903.923584  	-0.015327 
3905.852400  	-0.015833 
3907.781216  	-0.015165 
3909.710032  	-0.014790 
3911.638848  	-0.014557 
3913.567664  	-0.014015 
3915.496480  	-0.013548 
3917.425296  	-0.014014 
3919.354112  	-0.014408 
3921.282928  	-0.014206 
3923.211744  	-0.013710 
3925.140560  	-0.013954 
3927.069376  	-0.014047 
3928.998192  	-0.013907 
3930.927008  	-0.013622 
3932.855824  	-0.013724 
3934.784640  	-0.014097 
3936.713456  	-0.014178 
3938.642272  	-0.013940 
3940.571088  	-0.013443 
3942.499904  	-0.013485 
3944.428720  	-0.013747 
3946.357536  	-0.013361 
3948.286352  	-0.013338 
3950.215168  	-0.013956 
3952.143984  	-0.014474 
3954.072800  	-0.014521 
3956.001616  	-0.014301 
3957.930432  	-0.014299 
3959.859248  	-0.014239 
3961.788064  	-0.014206 
3963.716880  	-0.014521 
3965.645696  	-0.014820 
3967.574512  	-0.014698 
3969.503328  	-0.014384 
3971.432144  	-0.014333 
3973.360960  	-0.014368 
3975.289776  	-0.014312 
3977.218592  	-0.014230 
3979.147408  	-0.014292 
3981.076224  	-0.014344 
3983.005040  	-0.014410 
3984.933856  	-0.014511 
3986.862672  	-0.014596 
3988.791488  	-0.014337 
3990.720304  	-0.014092 
3992.649120  	-0.014178 
3994.577936  	-0.014298 
3996.506752  	-0.014301 
3998.435568  	-0.014336 
4000.364384  	-0.014359 