##TITLE=No Description
##DATA TYPE=INFRARED SPECTRUM
##XUNITS=1/CM
##YUNITS=Abs
399.264912  	0.593130 
401.193728  	0.593372 
403.122544  	0.601385 
405.051360  	0.590445 
406.980176  	0.590487 
408.908992  	0.583425 
410.837808  	0.598316 
412.766624  	0.594446 
414.695440  	0.581810 
416.624256  	0.565379 
418.553072  	0.567301 
420.481888  	0.563192 
422.410704  	0.571565 
424.339520  	0.570667 
426.268336  	0.563436 
428.197152  	0.559323 
430.125968  	0.564003 
432.054784  	0.558584 
433.983600  	0.544327 
435.912416  	0.535834 
437.841232  	0.547592 
439.770048  	0.544209 
441.698864  	0.540279 
443.627680  	0.542785 
445.556496  	0.546683 
447.485312  	0.540054 
449.414128  	0.535278 
451.342944  	0.531502 
453.271760  	0.529853 
455.200576  	0.525461 
457.129392  	0.529828 
459.058208  	0.529980 
460.987024  	0.528906 
462.915840  	0.525686 
464.844656  	0.529037 
466.773472  	0.528774 
468.702288  	0.533220 
470.631104  	0.533694 
472.559920  	0.533096 
474.488736  	0.526197 
476.417552  	0.528698 
478.346368  	0.529350 
480.275184  	0.532260 
482.204000  	0.529262 
484.132816  	0.528314 
486.061632  	0.523548 
487.990448  	0.524161 
489.919264  	0.523680 
491.848080  	0.522482 
493.776896  	0.520399 
495.705712  	0.521080 
497.634528  	0.520473 
499.563344  	0.519967 
501.492160  	0.513928 
503.420976  	0.513807 
505.349792  	0.512563 
507.278608  	0.512582 
509.207424  	0.510403 
511.136240  	0.511496 
513.065056  	0.514274 
514.993872  	0.519635 
516.922688  	0.520375 
518.851504  	0.520480 
520.780320  	0.518690 
522.709136  	0.520333 
524.637952  	0.520549 
526.566768  	0.518570 
528.495584  	0.513306 
530.424400  	0.511909 
532.353216  	0.507402 
534.282032  	0.502031 
536.210848  	0.496604 
538.139664  	0.491218 
540.068480  	0.485300 
541.997296  	0.481716 
543.926112  	0.476103 
545.854928  	0.471356 
547.783744  	0.468066 
549.712560  	0.465997 
551.641376  	0.461476 
553.570192  	0.457338 
555.499008  	0.453282 
557.427824  	0.449799 
559.356640  	0.446074 
561.285456  	0.442594 
563.214272  	0.437416 
565.143088  	0.434133 
567.071904  	0.430473 
569.000720  	0.427159 
570.929536  	0.423864 
572.858352  	0.422481 
574.787168  	0.419441 
576.715984  	0.416537 
578.644800  	0.412799 
580.573616  	0.408855 
582.502432  	0.403288 
584.431248  	0.399758 
586.360064  	0.396866 
588.288880  	0.394582 
590.217696  	0.392078 
592.146512  	0.389694 
594.075328  	0.386470 
596.004144  	0.385253 
597.932960  	0.383521 
599.861776  	0.381719 
601.790592  	0.379546 
603.719408  	0.378293 
605.648224  	0.376552 
607.577040  	0.374978 
609.505856  	0.373240 
611.434672  	0.371199 
613.363488  	0.368826 
615.292304  	0.368013 
617.221120  	0.366966 
619.149936  	0.365538 
621.078752  	0.363919 
623.007568  	0.363040 
624.936384  	0.361377 
626.865200  	0.359475 
628.794016  	0.358405 
630.722832  	0.358522 
632.651648  	0.358618 
634.580464  	0.358348 
636.509280  	0.357941 
638.438096  	0.358572 
640.366912  	0.358135 
642.295728  	0.356044 
644.224544  	0.353179 
646.153360  	0.350133 
648.082176  	0.345844 
650.010992  	0.342332 
651.939808  	0.338219 
653.868624  	0.334131 
655.797440  	0.330071 
657.726256  	0.326160 
659.655072  	0.322247 
661.583888  	0.318754 
663.512704  	0.314808 
665.441520  	0.311243 
667.370336  	0.304569 
669.299152  	0.298741 
671.227968  	0.297064 
673.156784  	0.294357 
675.085600  	0.292259 
677.014416  	0.289770 
678.943232  	0.287551 
680.872048  	0.286028 
682.800864  	0.283896 
684.729680  	0.282241 
686.658496  	0.281249 
688.587312  	0.280696 
690.516128  	0.279132 
692.444944  	0.277293 
694.373760  	0.276142 
696.302576  	0.274574 
698.231392  	0.272122 
700.160208  	0.269467 
702.089024  	0.267285 
704.017840  	0.265199 
705.946656  	0.262450 
707.875472  	0.259914 
709.804288  	0.257736 
711.733104  	0.256039 
713.661920  	0.253980 
715.590736  	0.252511 
717.519552  	0.252061 
719.448368  	0.252475 
721.377184  	0.252800 
723.306000  	0.253469 
725.234816  	0.253761 
727.163632  	0.252943 
729.092448  	0.250799 
731.021264  	0.247934 
732.950080  	0.244983 
734.878896  	0.241695 
736.807712  	0.238513 
738.736528  	0.236364 
740.665344  	0.234106 
742.594160  	0.231944 
744.522976  	0.230229 
746.451792  	0.228701 
748.380608  	0.227223 
750.309424  	0.226039 
752.238240  	0.225165 
754.167056  	0.224336 
756.095872  	0.223176 
758.024688  	0.222348 
759.953504  	0.221565 
761.882320  	0.222150 
763.811136  	0.223126 
765.739952  	0.222391 
767.668768  	0.219956 
769.597584  	0.217744 
771.526400  	0.217128 
773.455216  	0.218566 
775.384032  	0.221581 
777.312848  	0.226732 
779.241664  	0.231519 
781.170480  	0.232271 
783.099296  	0.228988 
785.028112  	0.223412 
786.956928  	0.217093 
788.885744  	0.211944 
790.814560  	0.208312 
792.743376  	0.205915 
794.672192  	0.204807 
796.601008  	0.204060 
798.529824  	0.201246 
800.458640  	0.196728 
802.387456  	0.192975 
804.316272  	0.190987 
806.245088  	0.189811 
808.173904  	0.189012 
810.102720  	0.188554 
812.031536  	0.188364 
813.960352  	0.188637 
815.889168  	0.188955 
817.817984  	0.189009 
819.746800  	0.189072 
821.675616  	0.189281 
823.604432  	0.189317 
825.533248  	0.188943 
827.462064  	0.188196 
829.390880  	0.187186 
831.319696  	0.185951 
833.248512  	0.184194 
835.177328  	0.181762 
837.106144  	0.179010 
839.034960  	0.176087 
840.963776  	0.172704 
842.892592  	0.168946 
844.821408  	0.165343 
846.750224  	0.162410 
848.679040  	0.159876 
850.607856  	0.157829 
852.536672  	0.156189 
854.465488  	0.154666 
856.394304  	0.153446 
858.323120  	0.152425 
860.251936  	0.150622 
862.180752  	0.148121 
864.109568  	0.145322 
866.038384  	0.142724 
867.967200  	0.140586 
869.896016  	0.138670 
871.824832  	0.137643 
873.753648  	0.137223 
875.682464  	0.137727 
877.611280  	0.138342 
879.540096  	0.139211 
881.468912  	0.141147 
883.397728  	0.142522 
885.326544  	0.143581 
887.255360  	0.143613 
889.184176  	0.142308 
891.112992  	0.140247 
893.041808  	0.138379 
894.970624  	0.136057 
896.899440  	0.132735 
898.828256  	0.128595 
900.757072  	0.124527 
902.685888  	0.121304 
904.614704  	0.119334 
906.543520  	0.119187 
908.472336  	0.120442 
910.401152  	0.122985 
912.329968  	0.125956 
914.258784  	0.129173 
916.187600  	0.132124 
918.116416  	0.134513 
920.045232  	0.136168 
921.974048  	0.137112 
923.902864  	0.137638 
925.831680  	0.137784 
927.760496  	0.137878 
929.689312  	0.138275 
931.618128  	0.139073 
933.546944  	0.139709 
935.475760  	0.140171 
937.404576  	0.140276 
939.333392  	0.139963 
941.262208  	0.140135 
943.191024  	0.141916 
945.119840  	0.146047 
947.048656  	0.152494 
948.977472  	0.160843 
950.906288  	0.170843 
952.835104  	0.181891 
954.763920  	0.193338 
956.692736  	0.204108 
958.621552  	0.213508 
960.550368  	0.219922 
962.479184  	0.222794 
964.408000  	0.221779 
966.336816  	0.216657 
968.265632  	0.207835 
970.194448  	0.196479 
972.123264  	0.183286 
974.052080  	0.169544 
975.980896  	0.156219 
977.909712  	0.143517 
979.838528  	0.132167 
981.767344  	0.122813 
983.696160  	0.115703 
985.624976  	0.111254 
987.553792  	0.109437 
989.482608  	0.110291 
991.411424  	0.113553 
993.340240  	0.118622 
995.269056  	0.125010 
997.197872  	0.131906 
999.126688  	0.138996 
1001.055504  	0.146240 
1002.984320  	0.153571 
1004.913136  	0.160640 
1006.841952  	0.167472 
1008.770768  	0.173110 
1010.699584  	0.177199 
1012.628400  	0.179799 
1014.557216  	0.180704 
1016.486032  	0.180607 
1018.414848  	0.180317 
1020.343664  	0.180055 
1022.272480  	0.179237 
1024.201296  	0.177982 
1026.130112  	0.174801 
1028.058928  	0.173556 
1029.987744  	0.176708 
1031.916560  	0.178917 
1033.845376  	0.180348 
1035.774192  	0.181909 
1037.703008  	0.185215 
1039.631824  	0.192255 
1041.560640  	0.201593 
1043.489456  	0.213875 
1045.418272  	0.228939 
1047.347088  	0.245875 
1049.275904  	0.261661 
1051.204720  	0.274214 
1053.133536  	0.282139 
1055.062352  	0.285554 
1056.991168  	0.285162 
1058.919984  	0.286307 
1060.848800  	0.287196 
1062.777616  	0.284368 
1064.706432  	0.277759 
1066.635248  	0.272032 
1068.564064  	0.269764 
1070.492880  	0.264907 
1072.421696  	0.257200 
1074.350512  	0.251477 
1076.279328  	0.249699 
1078.208144  	0.252298 
1080.136960  	0.257765 
1082.065776  	0.263944 
1083.994592  	0.267831 
1085.923408  	0.268808 
1087.852224  	0.265907 
1089.781040  	0.260437 
1091.709856  	0.253820 
1093.638672  	0.245030 
1095.567488  	0.233256 
1097.496304  	0.220215 
1099.425120  	0.206602 
1101.353936  	0.192818 
1103.282752  	0.179291 
1105.211568  	0.166350 
1107.140384  	0.154183 
1109.069200  	0.142665 
1110.998016  	0.132197 
1112.926832  	0.122842 
1114.855648  	0.114207 
1116.784464  	0.105980 
1118.713280  	0.098123 
1120.642096  	0.090957 
1122.570912  	0.084408 
1124.499728  	0.078075 
1126.428544  	0.072405 
1128.357360  	0.067379 
1130.286176  	0.063198 
1132.214992  	0.059418 
1134.143808  	0.056610 
1136.072624  	0.054145 
1138.001440  	0.052050 
1139.930256  	0.049810 
1141.859072  	0.047414 
1143.787888  	0.044742 
1145.716704  	0.042438 
1147.645520  	0.040352 
1149.574336  	0.038571 
1151.503152  	0.037103 
1153.431968  	0.036574 
1155.360784  	0.036713 
1157.289600  	0.037645 
1159.218416  	0.039105 
1161.147232  	0.041287 
1163.076048  	0.043553 
1165.004864  	0.045967 
1166.933680  	0.048194 
1168.862496  	0.050721 
1170.791312  	0.053359 
1172.720128  	0.056579 
1174.648944  	0.059596 
1176.577760  	0.062636 
1178.506576  	0.065528 
1180.435392  	0.068527 
1182.364208  	0.071398 
1184.293024  	0.074679 
1186.221840  	0.078235 
1188.150656  	0.082185 
1190.079472  	0.086433 
1192.008288  	0.091887 
1193.937104  	0.098767 
1195.865920  	0.106814 
1197.794736  	0.115536 
1199.723552  	0.125162 
1201.652368  	0.134984 
1203.581184  	0.144726 
1205.510000  	0.154338 
1207.438816  	0.163647 
1209.367632  	0.172341 
1211.296448  	0.179740 
1213.225264  	0.186145 
1215.154080  	0.191037 
1217.082896  	0.194537 
1219.011712  	0.196744 
1220.940528  	0.198461 
1222.869344  	0.199559 
1224.798160  	0.199691 
1226.726976  	0.198932 
1228.655792  	0.197973 
1230.584608  	0.196345 
1232.513424  	0.194153 
1234.442240  	0.191142 
1236.371056  	0.187321 
1238.299872  	0.182343 
1240.228688  	0.174926 
1242.157504  	0.167375 
1244.086320  	0.160927 
1246.015136  	0.153149 
1247.943952  	0.144566 
1249.872768  	0.135928 
1251.801584  	0.128378 
1253.730400  	0.120804 
1255.659216  	0.113365 
1257.588032  	0.106359 
1259.516848  	0.099688 
1261.445664  	0.093589 
1263.374480  	0.088096 
1265.303296  	0.083437 
1267.232112  	0.079669 
1269.160928  	0.076741 
1271.089744  	0.074399 
1273.018560  	0.073075 
1274.947376  	0.072554 
1276.876192  	0.072541 
1278.805008  	0.072183 
1280.733824  	0.071046 
1282.662640  	0.068878 
1284.591456  	0.066345 
1286.520272  	0.064192 
1288.449088  	0.062813 
1290.377904  	0.062051 
1292.306720  	0.062155 
1294.235536  	0.062186 
1296.164352  	0.061244 
1298.093168  	0.058937 
1300.021984  	0.056009 
1301.950800  	0.052842 
1303.879616  	0.049810 
1305.808432  	0.046433 
1307.737248  	0.043204 
1309.666064  	0.040213 
1311.594880  	0.037982 
1313.523696  	0.036213 
1315.452512  	0.035060 
1317.381328  	0.034376 
1319.310144  	0.034205 
1321.238960  	0.034219 
1323.167776  	0.034888 
1325.096592  	0.035781 
1327.025408  	0.036482 
1328.954224  	0.036584 
1330.883040  	0.036207 
1332.811856  	0.035384 
1334.740672  	0.034870 
1336.669488  	0.034849 
1338.598304  	0.035039 
1340.527120  	0.033510 
1342.455936  	0.031699 
1344.384752  	0.031198 
1346.313568  	0.031492 
1348.242384  	0.032144 
1350.171200  	0.033482 
1352.100016  	0.035192 
1354.028832  	0.037222 
1355.957648  	0.039180 
1357.886464  	0.041460 
1359.815280  	0.043955 
1361.744096  	0.046567 
1363.672912  	0.047874 
1365.601728  	0.048874 
1367.530544  	0.050211 
1369.459360  	0.050602 
1371.388176  	0.050372 
1373.316992  	0.049149 
1375.245808  	0.045663 
1377.174624  	0.042875 
1379.103440  	0.039832 
1381.032256  	0.036682 
1382.961072  	0.034391 
1384.889888  	0.033700 
1386.818704  	0.033033 
1388.747520  	0.031025 
1390.676336  	0.028686 
1392.605152  	0.025642 
1394.533968  	0.023807 
1396.462784  	0.026585 
1398.391600  	0.027828 
1400.320416  	0.026994 
1402.249232  	0.027357 
1404.178048  	0.028100 
1406.106864  	0.028690 
1408.035680  	0.030600 
1409.964496  	0.033250 
1411.893312  	0.036251 
1413.822128  	0.039342 
1415.750944  	0.043298 
1417.679760  	0.045987 
1419.608576  	0.045268 
1421.537392  	0.045460 
1423.466208  	0.045620 
1425.395024  	0.043695 
1427.323840  	0.042448 
1429.252656  	0.040042 
1431.181472  	0.038195 
1433.110288  	0.038174 
1435.039104  	0.039040 
1436.967920  	0.038141 
1438.896736  	0.038622 
1440.825552  	0.039788 
1442.754368  	0.040402 
1444.683184  	0.040626 
1446.612000  	0.040644 
1448.540816  	0.039500 
1450.469632  	0.039993 
1452.398448  	0.040986 
1454.327264  	0.042234 
1456.256080  	0.041704 
1458.184896  	0.038599 
1460.113712  	0.039997 
1462.042528  	0.041774 
1463.971344  	0.041562 
1465.900160  	0.041973 
1467.828976  	0.045103 
1469.757792  	0.048867 
1471.686608  	0.052163 
1473.615424  	0.057882 
1475.544240  	0.064781 
1477.473056  	0.070685 
1479.401872  	0.074857 
1481.330688  	0.078157 
1483.259504  	0.080205 
1485.188320  	0.081765 
1487.117136  	0.081650 
1489.045952  	0.080758 
1490.974768  	0.077146 
1492.903584  	0.074877 
1494.832400  	0.071667 
1496.761216  	0.064524 
1498.690032  	0.058086 
1500.618848  	0.054225 
1502.547664  	0.050757 
1504.476480  	0.046821 
1506.405296  	0.039946 
1508.334112  	0.037222 
1510.262928  	0.037487 
1512.191744  	0.035572 
1514.120560  	0.034710 
1516.049376  	0.034152 
1517.978192  	0.033064 
1519.907008  	0.034606 
1521.835824  	0.034565 
1523.764640  	0.038971 
1525.693456  	0.043542 
1527.622272  	0.045670 
1529.551088  	0.046669 
1531.479904  	0.046726 
1533.408720  	0.042319 
1535.337536  	0.039138 
1537.266352  	0.037809 
1539.195168  	0.029938 
1541.123984  	0.022138 
1543.052800  	0.024909 
1544.981616  	0.025473 
1546.910432  	0.024974 
1548.839248  	0.025555 
1550.768064  	0.025573 
1552.696880  	0.025612 
1554.625696  	0.026062 
1556.554512  	0.026366 
1558.483328  	0.023545 
1560.412144  	0.027258 
1562.340960  	0.035506 
1564.269776  	0.039902 
1566.198592  	0.045386 
1568.127408  	0.049798 
1570.056224  	0.054934 
1571.985040  	0.062586 
1573.913856  	0.067798 
1575.842672  	0.068391 
1577.771488  	0.071175 
1579.700304  	0.073585 
1581.629120  	0.073518 
1583.557936  	0.072960 
1585.486752  	0.073814 
1587.415568  	0.076269 
1589.344384  	0.080915 
1591.273200  	0.087223 
1593.202016  	0.094836 
1595.130832  	0.102744 
1597.059648  	0.111144 
1598.988464  	0.118263 
1600.917280  	0.124432 
1602.846096  	0.128255 
1604.774912  	0.130627 
1606.703728  	0.130601 
1608.632544  	0.129460 
1610.561360  	0.127233 
1612.490176  	0.125760 
1614.418992  	0.123511 
1616.347808  	0.120144 
1618.276624  	0.121380 
1620.205440  	0.126594 
1622.134256  	0.129663 
1624.063072  	0.135535 
1625.991888  	0.143075 
1627.920704  	0.151279 
1629.849520  	0.161692 
1631.778336  	0.171886 
1633.707152  	0.178690 
1635.635968  	0.185718 
1637.564784  	0.196722 
1639.493600  	0.205490 
1641.422416  	0.210940 
1643.351232  	0.214739 
1645.280048  	0.214565 
1647.208864  	0.213335 
1649.137680  	0.214809 
1651.066496  	0.214956 
1652.995312  	0.206193 
1654.924128  	0.205372 
1656.852944  	0.206439 
1658.781760  	0.204178 
1660.710576  	0.199999 
1662.639392  	0.193885 
1664.568208  	0.189703 
1666.497024  	0.187354 
1668.425840  	0.181281 
1670.354656  	0.173556 
1672.283472  	0.170719 
1674.212288  	0.167644 
1676.141104  	0.162674 
1678.069920  	0.162335 
1679.998736  	0.161668 
1681.927552  	0.159946 
1683.856368  	0.153859 
1685.785184  	0.152886 
1687.714000  	0.155642 
1689.642816  	0.155109 
1691.571632  	0.153379 
1693.500448  	0.152262 
1695.429264  	0.147542 
1697.358080  	0.143859 
1699.286896  	0.141219 
1701.215712  	0.135549 
1703.144528  	0.135358 
1705.073344  	0.130793 
1707.002160  	0.124464 
1708.930976  	0.120320 
1710.859792  	0.114281 
1712.788608  	0.107259 
1714.717424  	0.098536 
1716.646240  	0.086971 
1718.575056  	0.072985 
1720.503872  	0.065940 
1722.432688  	0.059751 
1724.361504  	0.050656 
1726.290320  	0.043136 
1728.219136  	0.037066 
1730.147952  	0.031615 
1732.076768  	0.027129 
1734.005584  	0.019651 
1735.934400  	0.014698 
1737.863216  	0.015294 
1739.792032  	0.011657 
1741.720848  	0.010699 
1743.649664  	0.010439 
1745.578480  	0.009593 
1747.507296  	0.007832 
1749.436112  	0.006909 
1751.364928  	0.005602 
1753.293744  	0.005107 
1755.222560  	0.005204 
1757.151376  	0.004495 
1759.080192  	0.004016 
1761.009008  	0.003416 
1762.937824  	0.001675 
1764.866640  	0.002374 
1766.795456  	0.003024 
1768.724272  	0.002432 
1770.653088  	0.000394 
1772.581904  	-0.002516 
1774.510720  	-0.001354 
1776.439536  	0.000431 
1778.368352  	0.000808 
1780.297168  	0.000461 
1782.225984  	-0.000067 
1784.154800  	0.000468 
1786.083616  	-0.000281 
1788.012432  	-0.000008 
1789.941248  	0.000393 
1791.870064  	-0.001182 
1793.798880  	-0.002725 
1795.727696  	-0.000999 
1797.656512  	-0.001079 
1799.585328  	-0.001224 
1801.514144  	-0.001059 
1803.442960  	-0.001176 
1805.371776  	-0.001793 
1807.300592  	-0.001348 
1809.229408  	-0.001840 
1811.158224  	-0.002359 
1813.087040  	-0.002555 
1815.015856  	-0.002032 
1816.944672  	-0.001897 
1818.873488  	-0.001918 
1820.802304  	-0.002133 
1822.731120  	-0.001381 
1824.659936  	-0.002045 
1826.588752  	-0.002629 
1828.517568  	-0.003208 
1830.446384  	-0.003808 
1832.375200  	-0.003041 
1834.304016  	-0.002202 
1836.232832  	-0.002352 
1838.161648  	-0.002347 
1840.090464  	-0.002483 
1842.019280  	-0.001547 
1843.948096  	-0.002938 
1845.876912  	-0.003356 
1847.805728  	-0.002554 
1849.734544  	-0.002474 
1851.663360  	-0.002747 
1853.592176  	-0.002785 
1855.520992  	-0.002963 
1857.449808  	-0.002741 
1859.378624  	-0.002848 
1861.307440  	-0.002796 
1863.236256  	-0.002969 
1865.165072  	-0.002595 
1867.093888  	-0.002818 
1869.022704  	-0.003337 
1870.951520  	-0.003681 
1872.880336  	-0.003086 
1874.809152  	-0.003387 
1876.737968  	-0.003360 
1878.666784  	-0.003578 
1880.595600  	-0.003155 
1882.524416  	-0.003338 
1884.453232  	-0.003050 
1886.382048  	-0.003178 
1888.310864  	-0.002909 
1890.239680  	-0.003659 
1892.168496  	-0.003171 
1894.097312  	-0.002963 
1896.026128  	-0.003126 
1897.954944  	-0.003478 
1899.883760  	-0.003099 
1901.812576  	-0.003400 
1903.741392  	-0.003522 
1905.670208  	-0.003439 
1907.599024  	-0.002888 
1909.527840  	-0.003561 
1911.456656  	-0.003525 
1913.385472  	-0.003541 
1915.314288  	-0.002925 
1917.243104  	-0.003375 
1919.171920  	-0.003535 
1921.100736  	-0.002999 
1923.029552  	-0.002592 
1924.958368  	-0.003236 
1926.887184  	-0.003305 
1928.816000  	-0.003516 
1930.744816  	-0.003457 
1932.673632  	-0.003962 
1934.602448  	-0.003298 
1936.531264  	-0.003253 
1938.460080  	-0.002775 
1940.388896  	-0.003081 
1942.317712  	-0.003348 
1944.246528  	-0.003971 
1946.175344  	-0.003414 
1948.104160  	-0.003617 
1950.032976  	-0.003162 
1951.961792  	-0.003409 
1953.890608  	-0.003121 
1955.819424  	-0.003569 
1957.748240  	-0.002515 
1959.677056  	-0.002955 
1961.605872  	-0.002559 
1963.534688  	-0.002861 
1965.463504  	-0.002319 
1967.392320  	-0.002571 
1969.321136  	-0.001313 
1971.249952  	-0.001987 
1973.178768  	-0.002673 
1975.107584  	-0.003570 
1977.036400  	-0.002670 
1978.965216  	-0.001754 
1980.894032  	-0.001962 
1982.822848  	-0.003127 
1984.751664  	-0.002519 
1986.680480  	-0.003382 
1988.609296  	-0.002860 
1990.538112  	-0.003343 
1992.466928  	-0.002256 
1994.395744  	-0.003517 
1996.324560  	-0.004256 
1998.253376  	-0.004346 
2000.182192  	-0.004132 
2002.111008  	-0.003840 
2004.039824  	-0.001996 
2005.968640  	-0.002188 
2007.897456  	-0.001865 
2009.826272  	-0.002680 
2011.755088  	-0.002272 
2013.683904  	-0.002945 
2015.612720  	-0.002332 
2017.541536  	-0.002666 
2019.470352  	-0.002703 
2021.399168  	-0.004272 
2023.327984  	-0.003895 
2025.256800  	-0.003368 
2027.185616  	-0.002597 
2029.114432  	-0.002787 
2031.043248  	-0.002287 
2032.972064  	-0.002185 
2034.900880  	-0.001464 
2036.829696  	-0.002579 
2038.758512  	-0.001932 
2040.687328  	-0.002370 
2042.616144  	-0.002118 
2044.544960  	-0.002690 
2046.473776  	-0.002076 
2048.402592  	-0.002344 
2050.331408  	-0.002685 
2052.260224  	-0.003385 
2054.189040  	-0.003105 
2056.117856  	-0.003431 
2058.046672  	-0.003015 
2059.975488  	-0.003480 
2061.904304  	-0.003638 
2063.833120  	-0.003451 
2065.761936  	-0.003464 
2067.690752  	-0.003987 
2069.619568  	-0.003160 
2071.548384  	-0.002926 
2073.477200  	-0.003129 
2075.406016  	-0.002861 
2077.334832  	-0.002379 
2079.263648  	-0.002772 
2081.192464  	-0.002612 
2083.121280  	-0.002530 
2085.050096  	-0.002287 
2086.978912  	-0.002476 
2088.907728  	-0.002379 
2090.836544  	-0.002831 
2092.765360  	-0.002510 
2094.694176  	-0.002189 
2096.622992  	-0.002250 
2098.551808  	-0.002647 
2100.480624  	-0.002226 
2102.409440  	-0.002591 
2104.338256  	-0.002774 
2106.267072  	-0.002496 
2108.195888  	-0.001825 
2110.124704  	-0.002031 
2112.053520  	-0.002080 
2113.982336  	-0.002106 
2115.911152  	-0.002149 
2117.839968  	-0.002392 
2119.768784  	-0.002567 
2121.697600  	-0.002977 
2123.626416  	-0.003062 
2125.555232  	-0.003411 
2127.484048  	-0.003296 
2129.412864  	-0.003425 
2131.341680  	-0.002955 
2133.270496  	-0.003229 
2135.199312  	-0.002431 
2137.128128  	-0.001963 
2139.056944  	-0.001892 
2140.985760  	-0.002188 
2142.914576  	-0.001887 
2144.843392  	-0.002088 
2146.772208  	-0.001925 
2148.701024  	-0.002514 
2150.629840  	-0.001172 
2152.558656  	-0.000981 
2154.487472  	-0.000921 
2156.416288  	-0.001150 
2158.345104  	-0.001597 
2160.273920  	-0.000711 
2162.202736  	0.001768 
2164.131552  	0.001283 
2166.060368  	0.000314 
2167.989184  	-0.000224 
2169.918000  	0.000786 
2171.846816  	-0.000322 
2173.775632  	-0.000676 
2175.704448  	0.000155 
2177.633264  	0.000324 
2179.562080  	-0.000799 
2181.490896  	-0.000725 
2183.419712  	-0.001190 
2185.348528  	-0.001053 
2187.277344  	-0.001562 
2189.206160  	-0.001851 
2191.134976  	-0.001586 
2193.063792  	-0.001093 
2194.992608  	-0.001422 
2196.921424  	-0.001516 
2198.850240  	-0.001833 
2200.779056  	-0.001849 
2202.707872  	-0.002132 
2204.636688  	-0.002260 
2206.565504  	-0.002013 
2208.494320  	-0.001301 
2210.423136  	-0.001433 
2212.351952  	-0.001667 
2214.280768  	-0.002635 
2216.209584  	-0.002551 
2218.138400  	-0.002832 
2220.067216  	-0.002720 
2221.996032  	-0.002368 
2223.924848  	-0.001890 
2225.853664  	-0.002261 
2227.782480  	-0.002156 
2229.711296  	-0.002697 
2231.640112  	-0.003262 
2233.568928  	-0.003599 
2235.497744  	-0.002854 
2237.426560  	-0.003121 
2239.355376  	-0.003180 
2241.284192  	-0.002961 
2243.213008  	-0.002826 
2245.141824  	-0.003143 
2247.070640  	-0.002907 
2248.999456  	-0.003219 
2250.928272  	-0.003692 
2252.857088  	-0.003925 
2254.785904  	-0.004017 
2256.714720  	-0.004592 
2258.643536  	-0.004570 
2260.572352  	-0.004265 
2262.501168  	-0.004024 
2264.429984  	-0.004044 
2266.358800  	-0.004070 
2268.287616  	-0.003983 
2270.216432  	-0.003672 
2272.145248  	-0.004039 
2274.074064  	-0.003980 
2276.002880  	-0.003721 
2277.931696  	-0.003420 
2279.860512  	-0.003398 
2281.789328  	-0.003302 
2283.718144  	-0.003292 
2285.646960  	-0.003067 
2287.575776  	-0.002993 
2289.504592  	-0.003063 
2291.433408  	-0.003455 
2293.362224  	-0.003316 
2295.291040  	-0.002780 
2297.219856  	-0.002157 
2299.148672  	-0.002028 
2301.077488  	-0.001982 
2303.006304  	-0.001783 
2304.935120  	-0.001387 
2306.863936  	-0.001244 
2308.792752  	-0.001272 
2310.721568  	-0.001451 
2312.650384  	-0.001649 
2314.579200  	-0.002261 
2316.508016  	-0.003015 
2318.436832  	-0.003856 
2320.365648  	-0.004828 
2322.294464  	-0.005977 
2324.223280  	-0.007257 
2326.152096  	-0.008933 
2328.080912  	-0.010480 
2330.009728  	-0.012272 
2331.938544  	-0.013988 
2333.867360  	-0.015343 
2335.796176  	-0.016320 
2337.724992  	-0.017206 
2339.653808  	-0.017279 
2341.582624  	-0.017396 
2343.511440  	-0.016508 
2345.440256  	-0.014571 
2347.369072  	-0.010465 
2349.297888  	-0.007359 
2351.226704  	-0.008999 
2353.155520  	-0.013722 
2355.084336  	-0.017397 
2357.013152  	-0.020230 
2358.941968  	-0.022013 
2360.870784  	-0.023249 
2362.799600  	-0.022869 
2364.728416  	-0.021784 
2366.657232  	-0.019605 
2368.586048  	-0.016777 
2370.514864  	-0.013754 
2372.443680  	-0.010884 
2374.372496  	-0.008069 
2376.301312  	-0.005830 
2378.230128  	-0.004073 
2380.158944  	-0.003217 
2382.087760  	-0.003039 
2384.016576  	-0.003399 
2385.945392  	-0.003824 
2387.874208  	-0.004216 
2389.803024  	-0.004438 
2391.731840  	-0.004600 
2393.660656  	-0.004688 
2395.589472  	-0.004586 
2397.518288  	-0.004301 
2399.447104  	-0.004535 
2401.375920  	-0.004821 
2403.304736  	-0.004923 
2405.233552  	-0.004760 
2407.162368  	-0.004836 
2409.091184  	-0.004819 
2411.020000  	-0.004884 
2412.948816  	-0.004946 
2414.877632  	-0.004714 
2416.806448  	-0.004550 
2418.735264  	-0.004751 
2420.664080  	-0.004846 
2422.592896  	-0.004857 
2424.521712  	-0.004678 
2426.450528  	-0.004685 
2428.379344  	-0.004531 
2430.308160  	-0.004314 
2432.236976  	-0.004193 
2434.165792  	-0.004412 
2436.094608  	-0.004616 
2438.023424  	-0.004355 
2439.952240  	-0.003885 
2441.881056  	-0.003875 
2443.809872  	-0.003901 
2445.738688  	-0.003831 
2447.667504  	-0.003746 
2449.596320  	-0.003913 
2451.525136  	-0.003915 
2453.453952  	-0.003835 
2455.382768  	-0.003811 
2457.311584  	-0.003891 
2459.240400  	-0.004088 
2461.169216  	-0.004201 
2463.098032  	-0.004198 
2465.026848  	-0.004177 
2466.955664  	-0.004241 
2468.884480  	-0.004443 
2470.813296  	-0.004608 
2472.742112  	-0.004515 
2474.670928  	-0.004241 
2476.599744  	-0.004271 
2478.528560  	-0.004141 
2480.457376  	-0.004167 
2482.386192  	-0.004213 
2484.315008  	-0.004030 
2486.243824  	-0.004022 
2488.172640  	-0.004084 
2490.101456  	-0.003693 
2492.030272  	-0.003516 
2493.959088  	-0.003556 
2495.887904  	-0.003638 
2497.816720  	-0.003652 
2499.745536  	-0.003568 
2501.674352  	-0.003269 
2503.603168  	-0.003014 
2505.531984  	-0.003171 
2507.460800  	-0.003592 
2509.389616  	-0.003582 
2511.318432  	-0.003347 
2513.247248  	-0.003222 
2515.176064  	-0.003059 
2517.104880  	-0.002983 
2519.033696  	-0.003346 
2520.962512  	-0.003378 
2522.891328  	-0.003126 
2524.820144  	-0.003132 
2526.748960  	-0.003240 
2528.677776  	-0.003140 
2530.606592  	-0.003051 
2532.535408  	-0.002903 
2534.464224  	-0.002955 
2536.393040  	-0.002995 
2538.321856  	-0.002872 
2540.250672  	-0.002656 
2542.179488  	-0.002547 
2544.108304  	-0.002583 
2546.037120  	-0.002762 
2547.965936  	-0.002826 
2549.894752  	-0.002718 
2551.823568  	-0.002610 
2553.752384  	-0.002400 
2555.681200  	-0.002118 
2557.610016  	-0.002167 
2559.538832  	-0.002184 
2561.467648  	-0.002039 
2563.396464  	-0.001801 
2565.325280  	-0.001639 
2567.254096  	-0.001734 
2569.182912  	-0.001901 
2571.111728  	-0.001789 
2573.040544  	-0.001752 
2574.969360  	-0.001670 
2576.898176  	-0.001542 
2578.826992  	-0.001495 
2580.755808  	-0.001527 
2582.684624  	-0.001358 
2584.613440  	-0.001225 
2586.542256  	-0.001163 
2588.471072  	-0.001112 
2590.399888  	-0.001137 
2592.328704  	-0.001058 
2594.257520  	-0.001158 
2596.186336  	-0.001108 
2598.115152  	-0.000929 
2600.043968  	-0.000897 
2601.972784  	-0.000696 
2603.901600  	-0.000581 
2605.830416  	-0.000402 
2607.759232  	-0.000395 
2609.688048  	-0.000306 
2611.616864  	-0.000192 
2613.545680  	0.000001 
2615.474496  	0.000143 
2617.403312  	0.000245 
2619.332128  	0.000282 
2621.260944  	0.000378 
2623.189760  	0.000505 
2625.118576  	0.000638 
2627.047392  	0.000741 
2628.976208  	0.000864 
2630.905024  	0.000951 
2632.833840  	0.001043 
2634.762656  	0.001102 
2636.691472  	0.001054 
2638.620288  	0.001118 
2640.549104  	0.001268 
2642.477920  	0.001348 
2644.406736  	0.001543 
2646.335552  	0.001666 
2648.264368  	0.001699 
2650.193184  	0.001876 
2652.122000  	0.002137 
2654.050816  	0.002291 
2655.979632  	0.002365 
2657.908448  	0.002504 
2659.837264  	0.002648 
2661.766080  	0.002680 
2663.694896  	0.002812 
2665.623712  	0.002923 
2667.552528  	0.003018 
2669.481344  	0.003064 
2671.410160  	0.003193 
2673.338976  	0.003266 
2675.267792  	0.003445 
2677.196608  	0.003661 
2679.125424  	0.003816 
2681.054240  	0.004000 
2682.983056  	0.004108 
2684.911872  	0.004121 
2686.840688  	0.004197 
2688.769504  	0.004315 
2690.698320  	0.004416 
2692.627136  	0.004482 
2694.555952  	0.004581 
2696.484768  	0.004574 
2698.413584  	0.004638 
2700.342400  	0.004788 
2702.271216  	0.004979 
2704.200032  	0.005117 
2706.128848  	0.005243 
2708.057664  	0.005280 
2709.986480  	0.005351 
2711.915296  	0.005502 
2713.844112  	0.005595 
2715.772928  	0.005639 
2717.701744  	0.005770 
2719.630560  	0.005991 
2721.559376  	0.006198 
2723.488192  	0.006400 
2725.417008  	0.006632 
2727.345824  	0.006779 
2729.274640  	0.006783 
2731.203456  	0.006850 
2733.132272  	0.007125 
2735.061088  	0.007293 
2736.989904  	0.007437 
2738.918720  	0.007479 
2740.847536  	0.007519 
2742.776352  	0.007505 
2744.705168  	0.007648 
2746.633984  	0.007828 
2748.562800  	0.007897 
2750.491616  	0.007894 
2752.420432  	0.008000 
2754.349248  	0.007912 
2756.278064  	0.007835 
2758.206880  	0.007817 
2760.135696  	0.007766 
2762.064512  	0.007785 
2763.993328  	0.007920 
2765.922144  	0.007960 
2767.850960  	0.007942 
2769.779776  	0.008087 
2771.708592  	0.008199 
2773.637408  	0.008059 
2775.566224  	0.007864 
2777.495040  	0.007799 
2779.423856  	0.007938 
2781.352672  	0.008026 
2783.281488  	0.008016 
2785.210304  	0.008029 
2787.139120  	0.008041 
2789.067936  	0.008087 
2790.996752  	0.008195 
2792.925568  	0.008117 
2794.854384  	0.008053 
2796.783200  	0.008015 
2798.712016  	0.007997 
2800.640832  	0.007989 
2802.569648  	0.008089 
2804.498464  	0.008122 
2806.427280  	0.008057 
2808.356096  	0.008008 
2810.284912  	0.008018 
2812.213728  	0.008061 
2814.142544  	0.008084 
2816.071360  	0.008006 
2818.000176  	0.007765 
2819.928992  	0.007704 
2821.857808  	0.007752 
2823.786624  	0.007564 
2825.715440  	0.007336 
2827.644256  	0.007107 
2829.573072  	0.006991 
2831.501888  	0.006723 
2833.430704  	0.006438 
2835.359520  	0.006178 
2837.288336  	0.005848 
2839.217152  	0.005513 
2841.145968  	0.005062 
2843.074784  	0.004709 
2845.003600  	0.004371 
2846.932416  	0.003913 
2848.861232  	0.003596 
2850.790048  	0.003235 
2852.718864  	0.002701 
2854.647680  	0.002201 
2856.576496  	0.001650 
2858.505312  	0.001006 
2860.434128  	0.000399 
2862.362944  	-0.000409 
2864.291760  	-0.001241 
2866.220576  	-0.001838 
2868.149392  	-0.002062 
2870.078208  	-0.002274 
2872.007024  	-0.002393 
2873.935840  	-0.002285 
2875.864656  	-0.002214 
2877.793472  	-0.002345 
2879.722288  	-0.002487 
2881.651104  	-0.002824 
2883.579920  	-0.003097 
2885.508736  	-0.002882 
2887.437552  	-0.002561 
2889.366368  	-0.002460 
2891.295184  	-0.002728 
2893.224000  	-0.002904 
2895.152816  	-0.002776 
2897.081632  	-0.003151 
2899.010448  	-0.004901 
2900.939264  	-0.006434 
2902.868080  	-0.005229 
2904.796896  	-0.003820 
2906.725712  	-0.003159 
2908.654528  	-0.002605 
2910.583344  	-0.002242 
2912.512160  	-0.001636 
2914.440976  	-0.000448 
2916.369792  	0.000424 
2918.298608  	0.000938 
2920.227424  	0.001371 
2922.156240  	0.002085 
2924.085056  	0.002992 
2926.013872  	0.004021 
2927.942688  	0.005015 
2929.871504  	0.005997 
2931.800320  	0.006904 
2933.729136  	0.007776 
2935.657952  	0.008492 
2937.586768  	0.009240 
2939.515584  	0.009927 
2941.444400  	0.010178 
2943.373216  	0.010213 
2945.302032  	0.010427 
2947.230848  	0.010597 
2949.159664  	0.010429 
2951.088480  	0.009935 
2953.017296  	0.009445 
2954.946112  	0.008848 
2956.874928  	0.008015 
2958.803744  	0.007098 
2960.732560  	0.006520 
2962.661376  	0.005990 
2964.590192  	0.005045 
2966.519008  	0.003748 
2968.447824  	0.002635 
2970.376640  	0.001799 
2972.305456  	0.001371 
2974.234272  	0.001648 
2976.163088  	0.001916 
2978.091904  	0.001927 
2980.020720  	0.001962 
2981.949536  	0.002173 
2983.878352  	0.002052 
2985.807168  	0.001132 
2987.735984  	0.000011 
2989.664800  	0.000399 
2991.593616  	0.003562 
2993.522432  	0.005710 
2995.451248  	0.006374 
2997.380064  	0.007100 
2999.308880  	0.008236 
3001.237696  	0.009610 
3003.166512  	0.011195 
3005.095328  	0.012764 
3007.024144  	0.014180 
3008.952960  	0.015575 
3010.881776  	0.017084 
3012.810592  	0.018631 
3014.739408  	0.019974 
3016.668224  	0.021140 
3018.597040  	0.022465 
3020.525856  	0.023679 
3022.454672  	0.024754 
3024.383488  	0.025959 
3026.312304  	0.027067 
3028.241120  	0.028087 
3030.169936  	0.029024 
3032.098752  	0.029892 
3034.027568  	0.030757 
3035.956384  	0.031616 
3037.885200  	0.032573 
3039.814016  	0.033260 
3041.742832  	0.033898 
3043.671648  	0.034564 
3045.600464  	0.035266 
3047.529280  	0.035807 
3049.458096  	0.036391 
3051.386912  	0.037121 
3053.315728  	0.037641 
3055.244544  	0.038269 
3057.173360  	0.039054 
3059.102176  	0.039761 
3061.030992  	0.040436 
3062.959808  	0.041295 
3064.888624  	0.042102 
3066.817440  	0.042771 
3068.746256  	0.043699 
3070.675072  	0.044649 
3072.603888  	0.045316 
3074.532704  	0.046033 
3076.461520  	0.046878 
3078.390336  	0.047749 
3080.319152  	0.048606 
3082.247968  	0.049483 
3084.176784  	0.050183 
3086.105600  	0.051093 
3088.034416  	0.051904 
3089.963232  	0.052625 
3091.892048  	0.053408 
3093.820864  	0.054239 
3095.749680  	0.054962 
3097.678496  	0.055828 
3099.607312  	0.056745 
3101.536128  	0.057773 
3103.464944  	0.058907 
3105.393760  	0.059639 
3107.322576  	0.060181 
3109.251392  	0.060860 
3111.180208  	0.061505 
3113.109024  	0.062335 
3115.037840  	0.063347 
3116.966656  	0.064178 
3118.895472  	0.064876 
3120.824288  	0.065538 
3122.753104  	0.066211 
3124.681920  	0.066738 
3126.610736  	0.067261 
3128.539552  	0.068112 
3130.468368  	0.068972 
3132.397184  	0.069478 
3134.326000  	0.069968 
3136.254816  	0.070679 
3138.183632  	0.071476 
3140.112448  	0.072138 
3142.041264  	0.072694 
3143.970080  	0.073320 
3145.898896  	0.073906 
3147.827712  	0.074746 
3149.756528  	0.075496 
3151.685344  	0.076002 
3153.614160  	0.076737 
3155.542976  	0.077598 
3157.471792  	0.078170 
3159.400608  	0.078705 
3161.329424  	0.079214 
3163.258240  	0.079741 
3165.187056  	0.080278 
3167.115872  	0.080947 
3169.044688  	0.081449 
3170.973504  	0.081841 
3172.902320  	0.082365 
3174.831136  	0.082843 
3176.759952  	0.083171 
3178.688768  	0.083530 
3180.617584  	0.083944 
3182.546400  	0.084267 
3184.475216  	0.084427 
3186.404032  	0.084468 
3188.332848  	0.084890 
3190.261664  	0.085252 
3192.190480  	0.085381 
3194.119296  	0.085319 
3196.048112  	0.085404 
3197.976928  	0.085435 
3199.905744  	0.085251 
3201.834560  	0.085071 
3203.763376  	0.085078 
3205.692192  	0.085138 
3207.621008  	0.085015 
3209.549824  	0.085101 
3211.478640  	0.085124 
3213.407456  	0.084848 
3215.336272  	0.084589 
3217.265088  	0.084518 
3219.193904  	0.084385 
3221.122720  	0.084207 
3223.051536  	0.084100 
3224.980352  	0.083921 
3226.909168  	0.083716 
3228.837984  	0.083478 
3230.766800  	0.083399 
3232.695616  	0.083377 
3234.624432  	0.083296 
3236.553248  	0.083161 
3238.482064  	0.083158 
3240.410880  	0.083088 
3242.339696  	0.083321 
3244.268512  	0.083154 
3246.197328  	0.083138 
3248.126144  	0.083402 
3250.054960  	0.083434 
3251.983776  	0.083685 
3253.912592  	0.083942 
3255.841408  	0.084158 
3257.770224  	0.084579 
3259.699040  	0.084846 
3261.627856  	0.084981 
3263.556672  	0.085200 
3265.485488  	0.085349 
3267.414304  	0.085535 
3269.343120  	0.085986 
3271.271936  	0.086201 
3273.200752  	0.086127 
3275.129568  	0.086117 
3277.058384  	0.086404 
3278.987200  	0.086787 
3280.916016  	0.087166 
3282.844832  	0.087499 
3284.773648  	0.087675 
3286.702464  	0.087826 
3288.631280  	0.088091 
3290.560096  	0.088364 
3292.488912  	0.088712 
3294.417728  	0.089048 
3296.346544  	0.089370 
3298.275360  	0.089406 
3300.204176  	0.089626 
3302.132992  	0.090247 
3304.061808  	0.090551 
3305.990624  	0.090746 
3307.919440  	0.091244 
3309.848256  	0.091615 
3311.777072  	0.091648 
3313.705888  	0.091971 
3315.634704  	0.092657 
3317.563520  	0.093096 
3319.492336  	0.093398 
3321.421152  	0.093558 
3323.349968  	0.093672 
3325.278784  	0.093782 
3327.207600  	0.093984 
3329.136416  	0.093997 
3331.065232  	0.093993 
3332.994048  	0.094304 
3334.922864  	0.094352 
3336.851680  	0.094235 
3338.780496  	0.094181 
3340.709312  	0.094020 
3342.638128  	0.093853 
3344.566944  	0.093522 
3346.495760  	0.093230 
3348.424576  	0.092782 
3350.353392  	0.092490 
3352.282208  	0.092365 
3354.211024  	0.092171 
3356.139840  	0.091749 
3358.068656  	0.091440 
3359.997472  	0.091133 
3361.926288  	0.090578 
3363.855104  	0.090014 
3365.783920  	0.089499 
3367.712736  	0.089144 
3369.641552  	0.088826 
3371.570368  	0.088363 
3373.499184  	0.087954 
3375.428000  	0.087518 
3377.356816  	0.086991 
3379.285632  	0.086734 
3381.214448  	0.086529 
3383.143264  	0.086035 
3385.072080  	0.085409 
3387.000896  	0.085010 
3388.929712  	0.084915 
3390.858528  	0.084680 
3392.787344  	0.084122 
3394.716160  	0.083517 
3396.644976  	0.083115 
3398.573792  	0.082756 
3400.502608  	0.082341 
3402.431424  	0.081808 
3404.360240  	0.081167 
3406.289056  	0.080435 
3408.217872  	0.079935 
3410.146688  	0.079517 
3412.075504  	0.079089 
3414.004320  	0.078545 
3415.933136  	0.078157 
3417.861952  	0.077607 
3419.790768  	0.077081 
3421.719584  	0.076683 
3423.648400  	0.076244 
3425.577216  	0.075496 
3427.506032  	0.074781 
3429.434848  	0.074174 
3431.363664  	0.073583 
3433.292480  	0.072972 
3435.221296  	0.072385 
3437.150112  	0.071907 
3439.078928  	0.071452 
3441.007744  	0.070785 
3442.936560  	0.070429 
3444.865376  	0.070120 
3446.794192  	0.069336 
3448.723008  	0.068306 
3450.651824  	0.067405 
3452.580640  	0.066673 
3454.509456  	0.066405 
3456.438272  	0.066187 
3458.367088  	0.065490 
3460.295904  	0.064549 
3462.224720  	0.063611 
3464.153536  	0.062781 
3466.082352  	0.061997 
3468.011168  	0.061046 
3469.939984  	0.060219 
3471.868800  	0.059545 
3473.797616  	0.058747 
3475.726432  	0.057925 
3477.655248  	0.057235 
3479.584064  	0.056698 
3481.512880  	0.055947 
3483.441696  	0.054935 
3485.370512  	0.054264 
3487.299328  	0.053195 
3489.228144  	0.052266 
3491.156960  	0.051528 
3493.085776  	0.050835 
3495.014592  	0.050098 
3496.943408  	0.049312 
3498.872224  	0.048684 
3500.801040  	0.048474 
3502.729856  	0.047776 
3504.658672  	0.046708 
3506.587488  	0.046194 
3508.516304  	0.045728 
3510.445120  	0.044769 
3512.373936  	0.043889 
3514.302752  	0.043231 
3516.231568  	0.042838 
3518.160384  	0.042259 
3520.089200  	0.041558 
3522.018016  	0.041244 
3523.946832  	0.041234 
3525.875648  	0.040346 
3527.804464  	0.038780 
3529.733280  	0.037811 
3531.662096  	0.037313 
3533.590912  	0.036716 
3535.519728  	0.036510 
3537.448544  	0.036093 
3539.377360  	0.035060 
3541.306176  	0.034524 
3543.234992  	0.034613 
3545.163808  	0.034887 
3547.092624  	0.034092 
3549.021440  	0.032415 
3550.950256  	0.031289 
3552.879072  	0.030537 
3554.807888  	0.029960 
3556.736704  	0.029457 
3558.665520  	0.029397 
3560.594336  	0.029044 
3562.523152  	0.028159 
3564.451968  	0.028118 
3566.380784  	0.028260 
3568.309600  	0.026438 
3570.238416  	0.025235 
3572.167232  	0.024728 
3574.096048  	0.023830 
3576.024864  	0.022843 
3577.953680  	0.022310 
3579.882496  	0.021616 
3581.811312  	0.021001 
3583.740128  	0.020627 
3585.668944  	0.020794 
3587.597760  	0.019546 
3589.526576  	0.017749 
3591.455392  	0.017094 
3593.384208  	0.016638 
3595.313024  	0.015666 
3597.241840  	0.014459 
3599.170656  	0.013275 
3601.099472  	0.012395 
3603.028288  	0.012170 
3604.957104  	0.011996 
3606.885920  	0.011252 
3608.814736  	0.009924 
3610.743552  	0.009344 
3612.672368  	0.008253 
3614.601184  	0.006974 
3616.530000  	0.006618 
3618.458816  	0.004606 
3620.387632  	0.002961 
3622.316448  	0.003342 
3624.245264  	0.003294 
3626.174080  	0.003028 
3628.102896  	0.000382 
3630.031712  	-0.003127 
3631.960528  	-0.001446 
3633.889344  	-0.001738 
3635.818160  	-0.002614 
3637.746976  	-0.003338 
3639.675792  	-0.003583 
3641.604608  	-0.003707 
3643.533424  	-0.004210 
3645.462240  	-0.005101 
3647.391056  	-0.008128 
3649.319872  	-0.012773 
3651.248688  	-0.014063 
3653.177504  	-0.011244 
3655.106320  	-0.011532 
3657.035136  	-0.014284 
3658.963952  	-0.013841 
3660.892768  	-0.013658 
3662.821584  	-0.014099 
3664.750400  	-0.014228 
3666.679216  	-0.014277 
3668.608032  	-0.016257 
3670.536848  	-0.019495 
3672.465664  	-0.017525 
3674.394480  	-0.018559 
3676.323296  	-0.023069 
3678.252112  	-0.019360 
3680.180928  	-0.017459 
3682.109744  	-0.016781 
3684.038560  	-0.016723 
3685.967376  	-0.016564 
3687.896192  	-0.019233 
3689.825008  	-0.022284 
3691.753824  	-0.020826 
3693.682640  	-0.018288 
3695.611456  	-0.017065 
3697.540272  	-0.016398 
3699.469088  	-0.015837 
3701.397904  	-0.016788 
3703.326720  	-0.016475 
3705.255536  	-0.014789 
3707.184352  	-0.014354 
3709.113168  	-0.015791 
3711.041984  	-0.018073 
3712.970800  	-0.017475 
3714.899616  	-0.014450 
3716.828432  	-0.013338 
3718.757248  	-0.013739 
3720.686064  	-0.014254 
3722.614880  	-0.014570 
3724.543696  	-0.014031 
3726.472512  	-0.014468 
3728.401328  	-0.014378 
3730.330144  	-0.014527 
3732.258960  	-0.016312 
3734.187776  	-0.015864 
3736.116592  	-0.016816 
3738.045408  	-0.016352 
3739.974224  	-0.014486 
3741.903040  	-0.013237 
3743.831856  	-0.015495 
3745.760672  	-0.017965 
3747.689488  	-0.015596 
3749.618304  	-0.017828 
3751.547120  	-0.020231 
3753.475936  	-0.017979 
3755.404752  	-0.015215 
3757.333568  	-0.014792 
3759.262384  	-0.015505 
3761.191200  	-0.015269 
3763.120016  	-0.013491 
3765.048832  	-0.014081 
3766.977648  	-0.014253 
3768.906464  	-0.014985 
3770.835280  	-0.015780 
3772.764096  	-0.014167 
3774.692912  	-0.013314 
3776.621728  	-0.013191 
3778.550544  	-0.014551 
3780.479360  	-0.015646 
3782.408176  	-0.014046 
3784.336992  	-0.014174 
3786.265808  	-0.014227 
3788.194624  	-0.013740 
3790.123440  	-0.013681 
3792.052256  	-0.013650 
3793.981072  	-0.013437 
3795.909888  	-0.014819 
3797.838704  	-0.014968 
3799.767520  	-0.015186 
3801.696336  	-0.019218 
3803.625152  	-0.017196 
3805.553968  	-0.015689 
3807.482784  	-0.017336 
3809.411600  	-0.015114 
3811.340416  	-0.013539 
3813.269232  	-0.013088 
3815.198048  	-0.015650 
3817.126864  	-0.017410 
3819.055680  	-0.015570 
3820.984496  	-0.018511 
3822.913312  	-0.017620 
3824.842128  	-0.014775 
3826.770944  	-0.015127 
3828.699760  	-0.014521 
3830.628576  	-0.014743 
3832.557392  	-0.015540 
3834.486208  	-0.015238 
3836.415024  	-0.016218 
3838.343840  	-0.017980 
3840.272656  	-0.017351 
3842.201472  	-0.015679 
3844.130288  	-0.015305 
3846.059104  	-0.014288 
3847.987920  	-0.013238 
3849.916736  	-0.013134 
3851.845552  	-0.015549 
3853.774368  	-0.021416 
3855.703184  	-0.018473 
3857.632000  	-0.015026 
3859.560816  	-0.013538 
3861.489632  	-0.013654 
3863.418448  	-0.014625 
3865.347264  	-0.015263 
3867.276080  	-0.013723 
3869.204896  	-0.014708 
3871.133712  	-0.015529 
3873.062528  	-0.014591 
3874.991344  	-0.015162 
3876.920160  	-0.013378 
3878.848976  	-0.012814 
3880.777792  	-0.013994 
3882.706608  	-0.013243 
3884.635424  	-0.013393 
3886.564240  	-0.014863 
3888.493056  	-0.013509 
3890.421872  	-0.014001 
3892.350688  	-0.015186 
3894.279504  	-0.013805 
3896.208320  	-0.012645 
3898.137136  	-0.012636 
3900.065952  	-0.013255 
3901.994768  	-0.013104 
3903.923584  	-0.014107 
3905.852400  	-0.014700 
3907.781216  	-0.014053 
3909.710032  	-0.013530 
3911.638848  	-0.013265 
3913.567664  	-0.012871 
3915.496480  	-0.012530 
3917.425296  	-0.013013 
3919.354112  	-0.013444 
3921.282928  	-0.013240 
3923.211744  	-0.012652 
3925.140560  	-0.012803 
3927.069376  	-0.012991 
3928.998192  	-0.012748 
3930.927008  	-0.012409 
3932.855824  	-0.012512 
3934.784640  	-0.012901 
3936.713456  	-0.013050 
3938.642272  	-0.012791 
3940.571088  	-0.012485 
3942.499904  	-0.012598 
3944.428720  	-0.012763 
3946.357536  	-0.012273 
3948.286352  	-0.012027 
3950.215168  	-0.012758 
3952.143984  	-0.013493 
3954.072800  	-0.013418 
3956.001616  	-0.013025 
3957.930432  	-0.012944 
3959.859248  	-0.012899 
3961.788064  	-0.013004 
3963.716880  	-0.013368 
3965.645696  	-0.013587 
3967.574512  	-0.013452 
3969.503328  	-0.013225 
3971.432144  	-0.013241 
3973.360960  	-0.013302 
3975.289776  	-0.013291 
3977.218592  	-0.013190 
3979.147408  	-0.013203 
3981.076224  	-0.013241 
3983.005040  	-0.013196 
3984.933856  	-0.013231 
3986.862672  	-0.013292 
3988.791488  	-0.013117 
3990.720304  	-0.012916 
3992.649120  	-0.013127 
3994.577936  	-0.013353 
3996.506752  	-0.013201 
3998.435568  	-0.013153 
4000.364384  	-0.013181 