##TITLE=No Description
##DATA TYPE=INFRARED SPECTRUM
##XUNITS=1/CM
##YUNITS=Abs
399.264912  	0.497024 
401.193728  	0.512572 
403.122544  	0.515634 
405.051360  	0.500123 
406.980176  	0.496183 
408.908992  	0.489640 
410.837808  	0.508473 
412.766624  	0.510256 
414.695440  	0.507295 
416.624256  	0.495563 
418.553072  	0.488127 
420.481888  	0.486740 
422.410704  	0.489869 
424.339520  	0.478816 
426.268336  	0.470851 
428.197152  	0.469484 
430.125968  	0.477102 
432.054784  	0.470228 
433.983600  	0.467778 
435.912416  	0.467729 
437.841232  	0.469561 
439.770048  	0.462194 
441.698864  	0.458173 
443.627680  	0.457502 
445.556496  	0.459438 
447.485312  	0.457966 
449.414128  	0.456654 
451.342944  	0.456257 
453.271760  	0.457266 
455.200576  	0.454346 
457.129392  	0.457779 
459.058208  	0.457783 
460.987024  	0.457126 
462.915840  	0.452945 
464.844656  	0.449813 
466.773472  	0.449545 
468.702288  	0.454055 
470.631104  	0.453385 
472.559920  	0.454112 
474.488736  	0.447732 
476.417552  	0.447340 
478.346368  	0.445544 
480.275184  	0.446757 
482.204000  	0.443547 
484.132816  	0.442695 
486.061632  	0.440801 
487.990448  	0.440630 
489.919264  	0.443230 
491.848080  	0.443908 
493.776896  	0.440593 
495.705712  	0.441571 
497.634528  	0.441020 
499.563344  	0.438151 
501.492160  	0.431401 
503.420976  	0.431882 
505.349792  	0.433150 
507.278608  	0.437892 
509.207424  	0.437304 
511.136240  	0.434714 
513.065056  	0.433509 
514.993872  	0.436296 
516.922688  	0.437755 
518.851504  	0.437793 
520.780320  	0.435247 
522.709136  	0.438039 
524.637952  	0.438541 
526.566768  	0.436582 
528.495584  	0.434444 
530.424400  	0.431488 
532.353216  	0.426795 
534.282032  	0.423509 
536.210848  	0.418009 
538.139664  	0.413518 
540.068480  	0.410164 
541.997296  	0.406871 
543.926112  	0.401087 
545.854928  	0.397635 
547.783744  	0.394159 
549.712560  	0.391785 
551.641376  	0.388646 
553.570192  	0.385586 
555.499008  	0.382169 
557.427824  	0.379074 
559.356640  	0.373505 
561.285456  	0.370238 
563.214272  	0.367555 
565.143088  	0.365077 
567.071904  	0.361686 
569.000720  	0.358262 
570.929536  	0.355481 
572.858352  	0.353301 
574.787168  	0.350795 
576.715984  	0.349388 
578.644800  	0.347208 
580.573616  	0.343903 
582.502432  	0.339063 
584.431248  	0.335220 
586.360064  	0.331510 
588.288880  	0.329266 
590.217696  	0.327493 
592.146512  	0.325310 
594.075328  	0.322275 
596.004144  	0.321246 
597.932960  	0.320122 
599.861776  	0.318135 
601.790592  	0.316080 
603.719408  	0.314775 
605.648224  	0.313724 
607.577040  	0.312803 
609.505856  	0.311075 
611.434672  	0.309176 
613.363488  	0.307657 
615.292304  	0.307066 
617.221120  	0.305603 
619.149936  	0.304770 
621.078752  	0.303673 
623.007568  	0.302631 
624.936384  	0.300933 
626.865200  	0.299380 
628.794016  	0.298223 
630.722832  	0.297950 
632.651648  	0.298366 
634.580464  	0.298232 
636.509280  	0.297818 
638.438096  	0.298129 
640.366912  	0.297527 
642.295728  	0.295804 
644.224544  	0.293748 
646.153360  	0.290988 
648.082176  	0.287427 
650.010992  	0.284011 
651.939808  	0.280299 
653.868624  	0.276965 
655.797440  	0.273825 
657.726256  	0.270622 
659.655072  	0.267050 
661.583888  	0.263349 
663.512704  	0.259898 
665.441520  	0.256914 
667.370336  	0.251513 
669.299152  	0.247307 
671.227968  	0.245662 
673.156784  	0.242943 
675.085600  	0.240722 
677.014416  	0.238373 
678.943232  	0.236335 
680.872048  	0.235261 
682.800864  	0.234161 
684.729680  	0.232771 
686.658496  	0.231526 
688.587312  	0.231004 
690.516128  	0.230004 
692.444944  	0.228844 
694.373760  	0.227773 
696.302576  	0.226120 
698.231392  	0.223975 
700.160208  	0.222129 
702.089024  	0.220124 
704.017840  	0.218124 
705.946656  	0.216045 
707.875472  	0.213772 
709.804288  	0.211906 
711.733104  	0.210543 
713.661920  	0.208886 
715.590736  	0.207463 
717.519552  	0.206810 
719.448368  	0.207087 
721.377184  	0.207455 
723.306000  	0.208329 
725.234816  	0.209233 
727.163632  	0.208869 
729.092448  	0.207105 
731.021264  	0.204579 
732.950080  	0.201589 
734.878896  	0.198829 
736.807712  	0.196415 
738.736528  	0.194248 
740.665344  	0.192302 
742.594160  	0.190907 
744.522976  	0.189566 
746.451792  	0.188284 
748.380608  	0.186764 
750.309424  	0.185357 
752.238240  	0.184434 
754.167056  	0.183778 
756.095872  	0.182905 
758.024688  	0.182204 
759.953504  	0.182094 
761.882320  	0.182737 
763.811136  	0.183349 
765.739952  	0.182719 
767.668768  	0.180953 
769.597584  	0.178962 
771.526400  	0.178135 
773.455216  	0.179482 
775.384032  	0.182722 
777.312848  	0.187344 
779.241664  	0.191645 
781.170480  	0.192680 
783.099296  	0.189624 
785.028112  	0.184820 
786.956928  	0.179872 
788.885744  	0.175817 
790.814560  	0.172515 
792.743376  	0.170287 
794.672192  	0.169302 
796.601008  	0.168662 
798.529824  	0.166458 
800.458640  	0.162422 
802.387456  	0.159129 
804.316272  	0.157414 
806.245088  	0.156456 
808.173904  	0.155818 
810.102720  	0.155385 
812.031536  	0.155397 
813.960352  	0.155821 
815.889168  	0.156138 
817.817984  	0.156382 
819.746800  	0.156548 
821.675616  	0.156566 
823.604432  	0.156611 
825.533248  	0.156323 
827.462064  	0.155799 
829.390880  	0.155104 
831.319696  	0.154205 
833.248512  	0.152728 
835.177328  	0.150705 
837.106144  	0.148657 
839.034960  	0.146001 
840.963776  	0.142869 
842.892592  	0.139947 
844.821408  	0.136967 
846.750224  	0.134250 
848.679040  	0.132166 
850.607856  	0.130460 
852.536672  	0.128924 
854.465488  	0.127460 
856.394304  	0.126430 
858.323120  	0.125378 
860.251936  	0.123480 
862.180752  	0.121226 
864.109568  	0.118711 
866.038384  	0.116398 
867.967200  	0.114616 
869.896016  	0.113040 
871.824832  	0.111915 
873.753648  	0.111549 
875.682464  	0.112139 
877.611280  	0.112613 
879.540096  	0.113188 
881.468912  	0.114907 
883.397728  	0.116118 
885.326544  	0.117063 
887.255360  	0.117303 
889.184176  	0.116111 
891.112992  	0.114306 
893.041808  	0.112971 
894.970624  	0.111144 
896.899440  	0.108239 
898.828256  	0.104803 
900.757072  	0.101503 
902.685888  	0.098785 
904.614704  	0.097253 
906.543520  	0.097539 
908.472336  	0.099027 
910.401152  	0.101388 
912.329968  	0.104136 
914.258784  	0.107097 
916.187600  	0.109928 
918.116416  	0.112258 
920.045232  	0.113883 
921.974048  	0.114853 
923.902864  	0.115165 
925.831680  	0.115055 
927.760496  	0.115011 
929.689312  	0.115306 
931.618128  	0.116008 
933.546944  	0.116676 
935.475760  	0.117163 
937.404576  	0.117181 
939.333392  	0.116916 
941.262208  	0.117311 
943.191024  	0.119115 
945.119840  	0.122904 
947.048656  	0.128702 
948.977472  	0.136022 
950.906288  	0.144589 
952.835104  	0.154139 
954.763920  	0.164191 
956.692736  	0.173323 
958.621552  	0.180926 
960.550368  	0.185872 
962.479184  	0.188159 
964.408000  	0.186981 
966.336816  	0.182562 
968.265632  	0.175137 
970.194448  	0.165332 
972.123264  	0.154066 
974.052080  	0.142334 
975.980896  	0.130791 
977.909712  	0.120102 
979.838528  	0.110596 
981.767344  	0.102658 
983.696160  	0.096545 
985.624976  	0.092688 
987.553792  	0.091195 
989.482608  	0.092264 
991.411424  	0.095446 
993.340240  	0.100012 
995.269056  	0.105514 
997.197872  	0.111564 
999.126688  	0.117833 
1001.055504  	0.124058 
1002.984320  	0.130124 
1004.913136  	0.136170 
1006.841952  	0.141849 
1008.770768  	0.146377 
1010.699584  	0.149671 
1012.628400  	0.151487 
1014.557216  	0.152159 
1016.486032  	0.152163 
1018.414848  	0.151832 
1020.343664  	0.151480 
1022.272480  	0.150815 
1024.201296  	0.149419 
1026.130112  	0.146150 
1028.058928  	0.145089 
1029.987744  	0.148133 
1031.916560  	0.149916 
1033.845376  	0.150790 
1035.774192  	0.151631 
1037.703008  	0.153786 
1039.631824  	0.159204 
1041.560640  	0.166471 
1043.489456  	0.176117 
1045.418272  	0.187867 
1047.347088  	0.201119 
1049.275904  	0.213225 
1051.204720  	0.222410 
1053.133536  	0.227737 
1055.062352  	0.229597 
1056.991168  	0.228764 
1058.919984  	0.229381 
1060.848800  	0.230095 
1062.777616  	0.227286 
1064.706432  	0.220943 
1066.635248  	0.216053 
1068.564064  	0.214699 
1070.492880  	0.210767 
1072.421696  	0.204322 
1074.350512  	0.199483 
1076.279328  	0.197873 
1078.208144  	0.199737 
1080.136960  	0.204073 
1082.065776  	0.209095 
1083.994592  	0.212163 
1085.923408  	0.212907 
1087.852224  	0.211039 
1089.781040  	0.207458 
1091.709856  	0.202911 
1093.638672  	0.196154 
1095.567488  	0.186785 
1097.496304  	0.176332 
1099.425120  	0.165521 
1101.353936  	0.154647 
1103.282752  	0.143921 
1105.211568  	0.133824 
1107.140384  	0.124043 
1109.069200  	0.114531 
1110.998016  	0.105900 
1112.926832  	0.098076 
1114.855648  	0.090914 
1116.784464  	0.084248 
1118.713280  	0.078093 
1120.642096  	0.072342 
1122.570912  	0.066914 
1124.499728  	0.061780 
1126.428544  	0.057148 
1128.357360  	0.052941 
1130.286176  	0.049453 
1132.214992  	0.046468 
1134.143808  	0.044131 
1136.072624  	0.042073 
1138.001440  	0.040370 
1139.930256  	0.038307 
1141.859072  	0.036251 
1143.787888  	0.034192 
1145.716704  	0.032400 
1147.645520  	0.030637 
1149.574336  	0.029107 
1151.503152  	0.027861 
1153.431968  	0.027360 
1155.360784  	0.027416 
1157.289600  	0.028173 
1159.218416  	0.029458 
1161.147232  	0.031277 
1163.076048  	0.033231 
1165.004864  	0.035296 
1166.933680  	0.037259 
1168.862496  	0.039564 
1170.791312  	0.041845 
1172.720128  	0.044592 
1174.648944  	0.047121 
1176.577760  	0.049589 
1178.506576  	0.052026 
1180.435392  	0.054616 
1182.364208  	0.057093 
1184.293024  	0.059913 
1186.221840  	0.063018 
1188.150656  	0.066519 
1190.079472  	0.070254 
1192.008288  	0.075017 
1193.937104  	0.080781 
1195.865920  	0.087388 
1197.794736  	0.094819 
1199.723552  	0.103054 
1201.652368  	0.111080 
1203.581184  	0.118989 
1205.510000  	0.126753 
1207.438816  	0.134311 
1209.367632  	0.141294 
1211.296448  	0.147160 
1213.225264  	0.151818 
1215.154080  	0.155146 
1217.082896  	0.157665 
1219.011712  	0.159228 
1220.940528  	0.160316 
1222.869344  	0.160856 
1224.798160  	0.160645 
1226.726976  	0.159894 
1228.655792  	0.158901 
1230.584608  	0.157393 
1232.513424  	0.155504 
1234.442240  	0.153110 
1236.371056  	0.150059 
1238.299872  	0.146093 
1240.228688  	0.139897 
1242.157504  	0.133791 
1244.086320  	0.128932 
1246.015136  	0.122683 
1247.943952  	0.115514 
1249.872768  	0.108410 
1251.801584  	0.102462 
1253.730400  	0.096439 
1255.659216  	0.090487 
1257.588032  	0.084867 
1259.516848  	0.079568 
1261.445664  	0.074647 
1263.374480  	0.070275 
1265.303296  	0.066598 
1267.232112  	0.063547 
1269.160928  	0.061326 
1271.089744  	0.059636 
1273.018560  	0.058539 
1274.947376  	0.058053 
1276.876192  	0.058024 
1278.805008  	0.057779 
1280.733824  	0.056809 
1282.662640  	0.054979 
1284.591456  	0.052988 
1286.520272  	0.051274 
1288.449088  	0.050208 
1290.377904  	0.049569 
1292.306720  	0.049614 
1294.235536  	0.049618 
1296.164352  	0.048897 
1298.093168  	0.046970 
1300.021984  	0.044411 
1301.950800  	0.041746 
1303.879616  	0.039295 
1305.808432  	0.036647 
1307.737248  	0.034047 
1309.666064  	0.031475 
1311.594880  	0.029652 
1313.523696  	0.028244 
1315.452512  	0.027209 
1317.381328  	0.026678 
1319.310144  	0.026580 
1321.238960  	0.026521 
1323.167776  	0.026964 
1325.096592  	0.027634 
1327.025408  	0.028255 
1328.954224  	0.028356 
1330.883040  	0.027932 
1332.811856  	0.027145 
1334.740672  	0.026778 
1336.669488  	0.026992 
1338.598304  	0.027437 
1340.527120  	0.026133 
1342.455936  	0.024303 
1344.384752  	0.023792 
1346.313568  	0.023988 
1348.242384  	0.024540 
1350.171200  	0.025645 
1352.100016  	0.027040 
1354.028832  	0.028821 
1355.957648  	0.030431 
1357.886464  	0.032330 
1359.815280  	0.034520 
1361.744096  	0.036757 
1363.672912  	0.037797 
1365.601728  	0.038317 
1367.530544  	0.039303 
1369.459360  	0.039544 
1371.388176  	0.039109 
1373.316992  	0.038008 
1375.245808  	0.035028 
1377.174624  	0.032475 
1379.103440  	0.029814 
1381.032256  	0.027023 
1382.961072  	0.025031 
1384.889888  	0.024490 
1386.818704  	0.024146 
1388.747520  	0.022560 
1390.676336  	0.020339 
1392.605152  	0.017281 
1394.533968  	0.015748 
1396.462784  	0.018779 
1398.391600  	0.019892 
1400.320416  	0.018989 
1402.249232  	0.019139 
1404.178048  	0.019722 
1406.106864  	0.020216 
1408.035680  	0.021766 
1409.964496  	0.024081 
1411.893312  	0.026791 
1413.822128  	0.029553 
1415.750944  	0.033111 
1417.679760  	0.035568 
1419.608576  	0.035212 
1421.537392  	0.035385 
1423.466208  	0.035542 
1425.395024  	0.034015 
1427.323840  	0.032810 
1429.252656  	0.030911 
1431.181472  	0.029511 
1433.110288  	0.029466 
1435.039104  	0.030160 
1436.967920  	0.029552 
1438.896736  	0.029816 
1440.825552  	0.030549 
1442.754368  	0.030923 
1444.683184  	0.031176 
1446.612000  	0.031230 
1448.540816  	0.030222 
1450.469632  	0.030517 
1452.398448  	0.031339 
1454.327264  	0.032386 
1456.256080  	0.031901 
1458.184896  	0.029541 
1460.113712  	0.030877 
1462.042528  	0.032242 
1463.971344  	0.031868 
1465.900160  	0.032396 
1467.828976  	0.035131 
1469.757792  	0.038173 
1471.686608  	0.040912 
1473.615424  	0.046043 
1475.544240  	0.051820 
1477.473056  	0.056575 
1479.401872  	0.059618 
1481.330688  	0.062237 
1483.259504  	0.063928 
1485.188320  	0.064981 
1487.117136  	0.064721 
1489.045952  	0.064184 
1490.974768  	0.061581 
1492.903584  	0.059369 
1494.832400  	0.056278 
1496.761216  	0.050472 
1498.690032  	0.045474 
1500.618848  	0.042452 
1502.547664  	0.039479 
1504.476480  	0.035681 
1506.405296  	0.030068 
1508.334112  	0.029166 
1510.262928  	0.029356 
1512.191744  	0.027615 
1514.120560  	0.026844 
1516.049376  	0.026261 
1517.978192  	0.025190 
1519.907008  	0.026264 
1521.835824  	0.026311 
1523.764640  	0.030221 
1525.693456  	0.034097 
1527.622272  	0.035892 
1529.551088  	0.036551 
1531.479904  	0.036437 
1533.408720  	0.032849 
1535.337536  	0.030429 
1537.266352  	0.028767 
1539.195168  	0.021420 
1541.123984  	0.015427 
1543.052800  	0.018577 
1544.981616  	0.019382 
1546.910432  	0.018872 
1548.839248  	0.019392 
1550.768064  	0.019497 
1552.696880  	0.019185 
1554.625696  	0.019319 
1556.554512  	0.019258 
1558.483328  	0.016558 
1560.412144  	0.020707 
1562.340960  	0.027531 
1564.269776  	0.030931 
1566.198592  	0.035516 
1568.127408  	0.039019 
1570.056224  	0.043434 
1571.985040  	0.049710 
1573.913856  	0.053320 
1575.842672  	0.053734 
1577.771488  	0.056909 
1579.700304  	0.058790 
1581.629120  	0.058673 
1583.557936  	0.058176 
1585.486752  	0.058936 
1587.415568  	0.061140 
1589.344384  	0.065062 
1591.273200  	0.070070 
1593.202016  	0.076118 
1595.130832  	0.082609 
1597.059648  	0.089392 
1598.988464  	0.094869 
1600.917280  	0.099514 
1602.846096  	0.102312 
1604.774912  	0.104082 
1606.703728  	0.103939 
1608.632544  	0.103164 
1610.561360  	0.101429 
1612.490176  	0.100070 
1614.418992  	0.097530 
1616.347808  	0.094922 
1618.276624  	0.097187 
1620.205440  	0.100735 
1622.134256  	0.102457 
1624.063072  	0.107844 
1625.991888  	0.113959 
1627.920704  	0.120545 
1629.849520  	0.128888 
1631.778336  	0.135896 
1633.707152  	0.139543 
1635.635968  	0.145331 
1637.564784  	0.155451 
1639.493600  	0.160933 
1641.422416  	0.164294 
1643.351232  	0.165880 
1645.280048  	0.164445 
1647.208864  	0.164835 
1649.137680  	0.166093 
1651.066496  	0.162879 
1652.995312  	0.157098 
1654.924128  	0.160892 
1656.852944  	0.159949 
1658.781760  	0.157145 
1660.710576  	0.153146 
1662.639392  	0.148804 
1664.568208  	0.146396 
1666.497024  	0.143592 
1668.425840  	0.138357 
1670.354656  	0.133553 
1672.283472  	0.131631 
1674.212288  	0.128596 
1676.141104  	0.126063 
1678.069920  	0.125412 
1679.998736  	0.124681 
1681.927552  	0.122531 
1683.856368  	0.117954 
1685.785184  	0.119134 
1687.714000  	0.120432 
1689.642816  	0.119931 
1691.571632  	0.118365 
1693.500448  	0.116345 
1695.429264  	0.112342 
1697.358080  	0.110481 
1699.286896  	0.107612 
1701.215712  	0.105028 
1703.144528  	0.104178 
1705.073344  	0.100172 
1707.002160  	0.095765 
1708.930976  	0.092350 
1710.859792  	0.087568 
1712.788608  	0.082133 
1714.717424  	0.075372 
1716.646240  	0.066198 
1718.575056  	0.055753 
1720.503872  	0.050444 
1722.432688  	0.045370 
1724.361504  	0.038217 
1726.290320  	0.032280 
1728.219136  	0.027492 
1730.147952  	0.023305 
1732.076768  	0.019660 
1734.005584  	0.013415 
1735.934400  	0.009512 
1737.863216  	0.009814 
1739.792032  	0.006613 
1741.720848  	0.006162 
1743.649664  	0.006316 
1745.578480  	0.005706 
1747.507296  	0.004298 
1749.436112  	0.003536 
1751.364928  	0.002459 
1753.293744  	0.001931 
1755.222560  	0.001998 
1757.151376  	0.001372 
1759.080192  	0.000975 
1761.009008  	0.000371 
1762.937824  	-0.000974 
1764.866640  	-0.000341 
1766.795456  	0.000253 
1768.724272  	-0.000236 
1770.653088  	-0.002182 
1772.581904  	-0.004784 
1774.510720  	-0.003508 
1776.439536  	-0.001872 
1778.368352  	-0.001552 
1780.297168  	-0.002039 
1782.225984  	-0.002498 
1784.154800  	-0.001931 
1786.083616  	-0.002556 
1788.012432  	-0.002361 
1789.941248  	-0.001778 
1791.870064  	-0.003199 
1793.798880  	-0.004594 
1795.727696  	-0.002947 
1797.656512  	-0.003034 
1799.585328  	-0.003292 
1801.514144  	-0.003101 
1803.442960  	-0.003212 
1805.371776  	-0.003719 
1807.300592  	-0.003322 
1809.229408  	-0.003827 
1811.158224  	-0.004300 
1813.087040  	-0.004413 
1815.015856  	-0.003903 
1816.944672  	-0.003703 
1818.873488  	-0.003773 
1820.802304  	-0.003941 
1822.731120  	-0.003138 
1824.659936  	-0.003679 
1826.588752  	-0.004362 
1828.517568  	-0.004830 
1830.446384  	-0.005412 
1832.375200  	-0.004654 
1834.304016  	-0.003994 
1836.232832  	-0.004175 
1838.161648  	-0.004088 
1840.090464  	-0.004199 
1842.019280  	-0.003508 
1843.948096  	-0.004818 
1845.876912  	-0.004952 
1847.805728  	-0.004151 
1849.734544  	-0.004318 
1851.663360  	-0.004650 
1853.592176  	-0.004551 
1855.520992  	-0.004591 
1857.449808  	-0.004430 
1859.378624  	-0.004637 
1861.307440  	-0.004834 
1863.236256  	-0.004920 
1865.165072  	-0.004408 
1867.093888  	-0.004508 
1869.022704  	-0.005111 
1870.951520  	-0.005345 
1872.880336  	-0.004711 
1874.809152  	-0.004953 
1876.737968  	-0.005137 
1878.666784  	-0.005559 
1880.595600  	-0.004869 
1882.524416  	-0.004829 
1884.453232  	-0.004875 
1886.382048  	-0.005099 
1888.310864  	-0.004918 
1890.239680  	-0.005414 
1892.168496  	-0.004908 
1894.097312  	-0.004827 
1896.026128  	-0.004791 
1897.954944  	-0.005004 
1899.883760  	-0.004718 
1901.812576  	-0.005172 
1903.741392  	-0.005453 
1905.670208  	-0.005211 
1907.599024  	-0.004409 
1909.527840  	-0.004502 
1911.456656  	-0.004616 
1913.385472  	-0.004903 
1915.314288  	-0.004374 
1917.243104  	-0.004558 
1919.171920  	-0.004838 
1921.100736  	-0.004637 
1923.029552  	-0.004384 
1924.958368  	-0.004791 
1926.887184  	-0.004495 
1928.816000  	-0.004754 
1930.744816  	-0.004717 
1932.673632  	-0.005052 
1934.602448  	-0.005019 
1936.531264  	-0.004742 
1938.460080  	-0.004030 
1940.388896  	-0.004270 
1942.317712  	-0.004585 
1944.246528  	-0.005127 
1946.175344  	-0.004718 
1948.104160  	-0.005113 
1950.032976  	-0.004744 
1951.961792  	-0.004908 
1953.890608  	-0.004519 
1955.819424  	-0.004809 
1957.748240  	-0.003774 
1959.677056  	-0.004693 
1961.605872  	-0.004911 
1963.534688  	-0.004399 
1965.463504  	-0.003154 
1967.392320  	-0.003831 
1969.321136  	-0.004118 
1971.249952  	-0.004616 
1973.178768  	-0.003847 
1975.107584  	-0.003639 
1977.036400  	-0.002429 
1978.965216  	-0.002038 
1980.894032  	-0.002647 
1982.822848  	-0.003790 
1984.751664  	-0.003747 
1986.680480  	-0.004113 
1988.609296  	-0.003771 
1990.538112  	-0.004067 
1992.466928  	-0.003603 
1994.395744  	-0.004758 
1996.324560  	-0.004616 
1998.253376  	-0.004548 
2000.182192  	-0.004374 
2002.111008  	-0.004455 
2004.039824  	-0.003354 
2005.968640  	-0.003997 
2007.897456  	-0.004194 
2009.826272  	-0.004634 
2011.755088  	-0.004002 
2013.683904  	-0.004534 
2015.612720  	-0.004443 
2017.541536  	-0.004470 
2019.470352  	-0.003545 
2021.399168  	-0.004734 
2023.327984  	-0.004947 
2025.256800  	-0.004318 
2027.185616  	-0.003792 
2029.114432  	-0.004011 
2031.043248  	-0.004373 
2032.972064  	-0.005165 
2034.900880  	-0.003985 
2036.829696  	-0.004109 
2038.758512  	-0.003369 
2040.687328  	-0.003990 
2042.616144  	-0.003925 
2044.544960  	-0.004168 
2046.473776  	-0.003442 
2048.402592  	-0.003237 
2050.331408  	-0.003849 
2052.260224  	-0.004957 
2054.189040  	-0.005208 
2056.117856  	-0.005847 
2058.046672  	-0.005312 
2059.975488  	-0.005103 
2061.904304  	-0.005189 
2063.833120  	-0.005327 
2065.761936  	-0.005430 
2067.690752  	-0.005887 
2069.619568  	-0.005346 
2071.548384  	-0.004903 
2073.477200  	-0.004630 
2075.406016  	-0.004722 
2077.334832  	-0.004753 
2079.263648  	-0.005053 
2081.192464  	-0.004834 
2083.121280  	-0.004660 
2085.050096  	-0.004700 
2086.978912  	-0.005041 
2088.907728  	-0.005021 
2090.836544  	-0.005045 
2092.765360  	-0.004432 
2094.694176  	-0.004108 
2096.622992  	-0.004342 
2098.551808  	-0.004472 
2100.480624  	-0.004075 
2102.409440  	-0.004659 
2104.338256  	-0.005152 
2106.267072  	-0.004448 
2108.195888  	-0.003906 
2110.124704  	-0.004357 
2112.053520  	-0.004671 
2113.982336  	-0.004915 
2115.911152  	-0.004574 
2117.839968  	-0.004743 
2119.768784  	-0.004764 
2121.697600  	-0.004698 
2123.626416  	-0.004323 
2125.555232  	-0.004343 
2127.484048  	-0.004111 
2129.412864  	-0.004944 
2131.341680  	-0.005194 
2133.270496  	-0.004859 
2135.199312  	-0.004466 
2137.128128  	-0.004150 
2139.056944  	-0.003484 
2140.985760  	-0.004035 
2142.914576  	-0.004546 
2144.843392  	-0.004435 
2146.772208  	-0.003512 
2148.701024  	-0.003523 
2150.629840  	-0.003549 
2152.558656  	-0.003641 
2154.487472  	-0.003208 
2156.416288  	-0.003276 
2158.345104  	-0.003986 
2160.273920  	-0.003507 
2162.202736  	-0.002047 
2164.131552  	-0.002392 
2166.060368  	-0.002880 
2167.989184  	-0.002827 
2169.918000  	-0.001734 
2171.846816  	-0.002804 
2173.775632  	-0.003197 
2175.704448  	-0.003214 
2177.633264  	-0.002764 
2179.562080  	-0.002747 
2181.490896  	-0.003089 
2183.419712  	-0.004245 
2185.348528  	-0.004013 
2187.277344  	-0.003737 
2189.206160  	-0.003647 
2191.134976  	-0.003718 
2193.063792  	-0.003466 
2194.992608  	-0.004053 
2196.921424  	-0.004586 
2198.850240  	-0.004638 
2200.779056  	-0.004322 
2202.707872  	-0.004212 
2204.636688  	-0.004434 
2206.565504  	-0.004599 
2208.494320  	-0.004528 
2210.423136  	-0.005294 
2212.351952  	-0.005683 
2214.280768  	-0.005501 
2216.209584  	-0.004957 
2218.138400  	-0.005136 
2220.067216  	-0.004831 
2221.996032  	-0.004771 
2223.924848  	-0.005036 
2225.853664  	-0.005129 
2227.782480  	-0.004850 
2229.711296  	-0.005352 
2231.640112  	-0.005679 
2233.568928  	-0.005909 
2235.497744  	-0.005742 
2237.426560  	-0.006012 
2239.355376  	-0.005796 
2241.284192  	-0.005790 
2243.213008  	-0.005784 
2245.141824  	-0.006139 
2247.070640  	-0.005840 
2248.999456  	-0.005752 
2250.928272  	-0.005913 
2252.857088  	-0.006463 
2254.785904  	-0.006340 
2256.714720  	-0.006612 
2258.643536  	-0.006718 
2260.572352  	-0.006587 
2262.501168  	-0.006416 
2264.429984  	-0.006520 
2266.358800  	-0.006421 
2268.287616  	-0.006379 
2270.216432  	-0.006091 
2272.145248  	-0.006124 
2274.074064  	-0.006228 
2276.002880  	-0.006225 
2277.931696  	-0.005980 
2279.860512  	-0.006028 
2281.789328  	-0.005829 
2283.718144  	-0.005931 
2285.646960  	-0.005806 
2287.575776  	-0.005429 
2289.504592  	-0.005650 
2291.433408  	-0.005861 
2293.362224  	-0.005488 
2295.291040  	-0.005033 
2297.219856  	-0.004726 
2299.148672  	-0.004782 
2301.077488  	-0.004536 
2303.006304  	-0.004118 
2304.935120  	-0.003835 
2306.863936  	-0.003922 
2308.792752  	-0.003835 
2310.721568  	-0.004030 
2312.650384  	-0.004433 
2314.579200  	-0.005045 
2316.508016  	-0.005799 
2318.436832  	-0.006710 
2320.365648  	-0.007775 
2322.294464  	-0.009086 
2324.223280  	-0.010615 
2326.152096  	-0.012307 
2328.080912  	-0.013626 
2330.009728  	-0.014989 
2331.938544  	-0.016873 
2333.867360  	-0.018546 
2335.796176  	-0.019733 
2337.724992  	-0.020596 
2339.653808  	-0.020553 
2341.582624  	-0.020624 
2343.511440  	-0.019491 
2345.440256  	-0.017155 
2347.369072  	-0.012979 
2349.297888  	-0.010160 
2351.226704  	-0.012105 
2353.155520  	-0.016844 
2355.084336  	-0.020663 
2357.013152  	-0.023754 
2358.941968  	-0.025381 
2360.870784  	-0.026591 
2362.799600  	-0.026172 
2364.728416  	-0.024886 
2366.657232  	-0.022267 
2368.586048  	-0.018998 
2370.514864  	-0.016032 
2372.443680  	-0.013310 
2374.372496  	-0.010566 
2376.301312  	-0.008193 
2378.230128  	-0.006335 
2380.158944  	-0.005410 
2382.087760  	-0.005291 
2384.016576  	-0.005660 
2385.945392  	-0.006084 
2387.874208  	-0.006389 
2389.803024  	-0.006443 
2391.731840  	-0.006718 
2393.660656  	-0.007012 
2395.589472  	-0.007019 
2397.518288  	-0.006707 
2399.447104  	-0.006941 
2401.375920  	-0.007136 
2403.304736  	-0.007182 
2405.233552  	-0.006973 
2407.162368  	-0.007115 
2409.091184  	-0.007156 
2411.020000  	-0.006984 
2412.948816  	-0.006786 
2414.877632  	-0.006683 
2416.806448  	-0.006881 
2418.735264  	-0.007266 
2420.664080  	-0.007369 
2422.592896  	-0.007144 
2424.521712  	-0.006911 
2426.450528  	-0.007058 
2428.379344  	-0.007011 
2430.308160  	-0.006870 
2432.236976  	-0.006786 
2434.165792  	-0.006770 
2436.094608  	-0.006709 
2438.023424  	-0.006707 
2439.952240  	-0.006640 
2441.881056  	-0.006697 
2443.809872  	-0.006751 
2445.738688  	-0.006580 
2447.667504  	-0.006365 
2449.596320  	-0.006320 
2451.525136  	-0.006198 
2453.453952  	-0.006259 
2455.382768  	-0.006486 
2457.311584  	-0.006659 
2459.240400  	-0.006624 
2461.169216  	-0.006652 
2463.098032  	-0.006777 
2465.026848  	-0.006609 
2466.955664  	-0.006556 
2468.884480  	-0.006791 
2470.813296  	-0.007004 
2472.742112  	-0.007053 
2474.670928  	-0.006933 
2476.599744  	-0.006934 
2478.528560  	-0.006750 
2480.457376  	-0.006783 
2482.386192  	-0.006940 
2484.315008  	-0.006859 
2486.243824  	-0.006786 
2488.172640  	-0.006763 
2490.101456  	-0.006426 
2492.030272  	-0.006184 
2493.959088  	-0.006037 
2495.887904  	-0.006046 
2497.816720  	-0.006099 
2499.745536  	-0.006069 
2501.674352  	-0.005912 
2503.603168  	-0.005772 
2505.531984  	-0.005755 
2507.460800  	-0.006080 
2509.389616  	-0.006074 
2511.318432  	-0.005808 
2513.247248  	-0.005717 
2515.176064  	-0.005837 
2517.104880  	-0.005926 
2519.033696  	-0.006053 
2520.962512  	-0.005867 
2522.891328  	-0.005725 
2524.820144  	-0.005916 
2526.748960  	-0.005953 
2528.677776  	-0.005770 
2530.606592  	-0.005693 
2532.535408  	-0.005655 
2534.464224  	-0.005836 
2536.393040  	-0.005830 
2538.321856  	-0.005685 
2540.250672  	-0.005430 
2542.179488  	-0.005352 
2544.108304  	-0.005242 
2546.037120  	-0.005140 
2547.965936  	-0.005168 
2549.894752  	-0.005365 
2551.823568  	-0.005358 
2553.752384  	-0.005139 
2555.681200  	-0.004989 
2557.610016  	-0.004975 
2559.538832  	-0.004862 
2561.467648  	-0.004721 
2563.396464  	-0.004720 
2565.325280  	-0.004732 
2567.254096  	-0.004593 
2569.182912  	-0.004524 
2571.111728  	-0.004472 
2573.040544  	-0.004509 
2574.969360  	-0.004376 
2576.898176  	-0.004101 
2578.826992  	-0.004291 
2580.755808  	-0.004416 
2582.684624  	-0.004250 
2584.613440  	-0.004147 
2586.542256  	-0.004124 
2588.471072  	-0.004061 
2590.399888  	-0.004002 
2592.328704  	-0.004003 
2594.257520  	-0.004062 
2596.186336  	-0.003981 
2598.115152  	-0.003912 
2600.043968  	-0.003963 
2601.972784  	-0.003678 
2603.901600  	-0.003553 
2605.830416  	-0.003477 
2607.759232  	-0.003364 
2609.688048  	-0.003269 
2611.616864  	-0.003191 
2613.545680  	-0.003097 
2615.474496  	-0.003010 
2617.403312  	-0.002888 
2619.332128  	-0.002881 
2621.260944  	-0.002869 
2623.189760  	-0.002776 
2625.118576  	-0.002708 
2627.047392  	-0.002668 
2628.976208  	-0.002469 
2630.905024  	-0.002342 
2632.833840  	-0.002331 
2634.762656  	-0.002289 
2636.691472  	-0.002216 
2638.620288  	-0.002195 
2640.549104  	-0.002155 
2642.477920  	-0.002050 
2644.406736  	-0.001946 
2646.335552  	-0.001929 
2648.264368  	-0.001852 
2650.193184  	-0.001725 
2652.122000  	-0.001545 
2654.050816  	-0.001369 
2655.979632  	-0.001260 
2657.908448  	-0.001147 
2659.837264  	-0.001004 
2661.766080  	-0.001027 
2663.694896  	-0.000913 
2665.623712  	-0.000760 
2667.552528  	-0.000635 
2669.481344  	-0.000553 
2671.410160  	-0.000560 
2673.338976  	-0.000434 
2675.267792  	-0.000201 
2677.196608  	0.000014 
2679.125424  	0.000032 
2681.054240  	0.000063 
2682.983056  	0.000214 
2684.911872  	0.000271 
2686.840688  	0.000321 
2688.769504  	0.000380 
2690.698320  	0.000402 
2692.627136  	0.000440 
2694.555952  	0.000591 
2696.484768  	0.000656 
2698.413584  	0.000639 
2700.342400  	0.000647 
2702.271216  	0.000810 
2704.200032  	0.001024 
2706.128848  	0.001094 
2708.057664  	0.001000 
2709.986480  	0.001050 
2711.915296  	0.001172 
2713.844112  	0.001338 
2715.772928  	0.001392 
2717.701744  	0.001485 
2719.630560  	0.001752 
2721.559376  	0.001842 
2723.488192  	0.001930 
2725.417008  	0.002108 
2727.345824  	0.002231 
2729.274640  	0.002257 
2731.203456  	0.002390 
2733.132272  	0.002575 
2735.061088  	0.002666 
2736.989904  	0.002696 
2738.918720  	0.002704 
2740.847536  	0.002764 
2742.776352  	0.002758 
2744.705168  	0.002866 
2746.633984  	0.002974 
2748.562800  	0.002957 
2750.491616  	0.002973 
2752.420432  	0.003121 
2754.349248  	0.003066 
2756.278064  	0.002998 
2758.206880  	0.002977 
2760.135696  	0.002950 
2762.064512  	0.002939 
2763.993328  	0.002985 
2765.922144  	0.003055 
2767.850960  	0.003167 
2769.779776  	0.003208 
2771.708592  	0.003191 
2773.637408  	0.003085 
2775.566224  	0.003076 
2777.495040  	0.003043 
2779.423856  	0.003091 
2781.352672  	0.003112 
2783.281488  	0.003035 
2785.210304  	0.002973 
2787.139120  	0.002995 
2789.067936  	0.003037 
2790.996752  	0.003096 
2792.925568  	0.003081 
2794.854384  	0.003067 
2796.783200  	0.003032 
2798.712016  	0.002999 
2800.640832  	0.002979 
2802.569648  	0.003071 
2804.498464  	0.003078 
2806.427280  	0.002971 
2808.356096  	0.002966 
2810.284912  	0.003019 
2812.213728  	0.002972 
2814.142544  	0.002909 
2816.071360  	0.002942 
2818.000176  	0.002801 
2819.928992  	0.002710 
2821.857808  	0.002606 
2823.786624  	0.002428 
2825.715440  	0.002344 
2827.644256  	0.002230 
2829.573072  	0.002102 
2831.501888  	0.001788 
2833.430704  	0.001459 
2835.359520  	0.001133 
2837.288336  	0.000830 
2839.217152  	0.000557 
2841.145968  	0.000234 
2843.074784  	-0.000129 
2845.003600  	-0.000591 
2846.932416  	-0.000998 
2848.861232  	-0.001271 
2850.790048  	-0.001714 
2852.718864  	-0.002261 
2854.647680  	-0.002774 
2856.576496  	-0.003310 
2858.505312  	-0.003942 
2860.434128  	-0.004593 
2862.362944  	-0.005266 
2864.291760  	-0.006005 
2866.220576  	-0.006704 
2868.149392  	-0.007087 
2870.078208  	-0.007287 
2872.007024  	-0.007417 
2873.935840  	-0.007447 
2875.864656  	-0.007514 
2877.793472  	-0.007746 
2879.722288  	-0.008147 
2881.651104  	-0.008678 
2883.579920  	-0.008913 
2885.508736  	-0.008840 
2887.437552  	-0.008637 
2889.366368  	-0.008535 
2891.295184  	-0.008807 
2893.224000  	-0.009043 
2895.152816  	-0.008992 
2897.081632  	-0.009304 
2899.010448  	-0.011037 
2900.939264  	-0.012585 
2902.868080  	-0.011311 
2904.796896  	-0.010009 
2906.725712  	-0.009475 
2908.654528  	-0.008887 
2910.583344  	-0.008417 
2912.512160  	-0.007853 
2914.440976  	-0.006870 
2916.369792  	-0.006086 
2918.298608  	-0.005793 
2920.227424  	-0.005502 
2922.156240  	-0.004759 
2924.085056  	-0.003878 
2926.013872  	-0.003021 
2927.942688  	-0.002224 
2929.871504  	-0.001505 
2931.800320  	-0.000732 
2933.729136  	-0.000068 
2935.657952  	0.000401 
2937.586768  	0.000999 
2939.515584  	0.001585 
2941.444400  	0.001761 
2943.373216  	0.001778 
2945.302032  	0.001941 
2947.230848  	0.002121 
2949.159664  	0.001870 
2951.088480  	0.001258 
2953.017296  	0.000772 
2954.946112  	0.000163 
2956.874928  	-0.000569 
2958.803744  	-0.001433 
2960.732560  	-0.002030 
2962.661376  	-0.002613 
2964.590192  	-0.003488 
2966.519008  	-0.004602 
2968.447824  	-0.005580 
2970.376640  	-0.006438 
2972.305456  	-0.006932 
2974.234272  	-0.006623 
2976.163088  	-0.006266 
2978.091904  	-0.006305 
2980.020720  	-0.006303 
2981.949536  	-0.006012 
2983.878352  	-0.006127 
2985.807168  	-0.007212 
2987.735984  	-0.008201 
2989.664800  	-0.007773 
2991.593616  	-0.004685 
2993.522432  	-0.002570 
2995.451248  	-0.001988 
2997.380064  	-0.001279 
2999.308880  	-0.000106 
3001.237696  	0.001309 
3003.166512  	0.002768 
3005.095328  	0.004144 
3007.024144  	0.005453 
3008.952960  	0.006853 
3010.881776  	0.008320 
3012.810592  	0.009719 
3014.739408  	0.010968 
3016.668224  	0.012149 
3018.597040  	0.013386 
3020.525856  	0.014584 
3022.454672  	0.015622 
3024.383488  	0.016633 
3026.312304  	0.017546 
3028.241120  	0.018500 
3030.169936  	0.019504 
3032.098752  	0.020317 
3034.027568  	0.021061 
3035.956384  	0.021829 
3037.885200  	0.022684 
3039.814016  	0.023427 
3041.742832  	0.023943 
3043.671648  	0.024306 
3045.600464  	0.024846 
3047.529280  	0.025345 
3049.458096  	0.025916 
3051.386912  	0.026489 
3053.315728  	0.026896 
3055.244544  	0.027514 
3057.173360  	0.028090 
3059.102176  	0.028425 
3061.030992  	0.028882 
3062.959808  	0.029601 
3064.888624  	0.030159 
3066.817440  	0.030639 
3068.746256  	0.031362 
3070.675072  	0.032049 
3072.603888  	0.032661 
3074.532704  	0.033223 
3076.461520  	0.033871 
3078.390336  	0.034580 
3080.319152  	0.035114 
3082.247968  	0.035712 
3084.176784  	0.036400 
3086.105600  	0.037181 
3088.034416  	0.037690 
3089.963232  	0.038215 
3091.892048  	0.038819 
3093.820864  	0.039423 
3095.749680  	0.040132 
3097.678496  	0.040772 
3099.607312  	0.041424 
3101.536128  	0.042268 
3103.464944  	0.043099 
3105.393760  	0.043485 
3107.322576  	0.044001 
3109.251392  	0.044805 
3111.180208  	0.045307 
3113.109024  	0.045743 
3115.037840  	0.046221 
3116.966656  	0.046896 
3118.895472  	0.047539 
3120.824288  	0.047916 
3122.753104  	0.048391 
3124.681920  	0.048789 
3126.610736  	0.049039 
3128.539552  	0.049673 
3130.468368  	0.050235 
3132.397184  	0.050677 
3134.326000  	0.051268 
3136.254816  	0.051787 
3138.183632  	0.052196 
3140.112448  	0.052691 
3142.041264  	0.053224 
3143.970080  	0.053520 
3145.898896  	0.053809 
3147.827712  	0.054349 
3149.756528  	0.054939 
3151.685344  	0.055380 
3153.614160  	0.055919 
3155.542976  	0.056588 
3157.471792  	0.057049 
3159.400608  	0.057434 
3161.329424  	0.057927 
3163.258240  	0.058181 
3165.187056  	0.058462 
3167.115872  	0.058959 
3169.044688  	0.059348 
3170.973504  	0.059616 
3172.902320  	0.059782 
3174.831136  	0.060104 
3176.759952  	0.060509 
3178.688768  	0.060921 
3180.617584  	0.061188 
3182.546400  	0.061366 
3184.475216  	0.061441 
3186.404032  	0.061450 
3188.332848  	0.061468 
3190.261664  	0.061568 
3192.190480  	0.061724 
3194.119296  	0.061645 
3196.048112  	0.061638 
3197.976928  	0.061627 
3199.905744  	0.061683 
3201.834560  	0.061609 
3203.763376  	0.061639 
3205.692192  	0.061571 
3207.621008  	0.061234 
3209.549824  	0.061016 
3211.478640  	0.061036 
3213.407456  	0.061118 
3215.336272  	0.061158 
3217.265088  	0.060982 
3219.193904  	0.060866 
3221.122720  	0.060839 
3223.051536  	0.060625 
3224.980352  	0.060431 
3226.909168  	0.060214 
3228.837984  	0.059977 
3230.766800  	0.059821 
3232.695616  	0.059776 
3234.624432  	0.059636 
3236.553248  	0.059565 
3238.482064  	0.059648 
3240.410880  	0.059669 
3242.339696  	0.059688 
3244.268512  	0.059537 
3246.197328  	0.059559 
3248.126144  	0.059910 
3250.054960  	0.060124 
3251.983776  	0.060202 
3253.912592  	0.060363 
3255.841408  	0.060539 
3257.770224  	0.060650 
3259.699040  	0.060770 
3261.627856  	0.061039 
3263.556672  	0.061220 
3265.485488  	0.061348 
3267.414304  	0.061456 
3269.343120  	0.061679 
3271.271936  	0.061889 
3273.200752  	0.061948 
3275.129568  	0.062004 
3277.058384  	0.062220 
3278.987200  	0.062330 
3280.916016  	0.062572 
3282.844832  	0.062774 
3284.773648  	0.062799 
3286.702464  	0.062768 
3288.631280  	0.062965 
3290.560096  	0.063396 
3292.488912  	0.063780 
3294.417728  	0.063929 
3296.346544  	0.064075 
3298.275360  	0.064111 
3300.204176  	0.064122 
3302.132992  	0.064384 
3304.061808  	0.064628 
3305.990624  	0.064852 
3307.919440  	0.065055 
3309.848256  	0.065396 
3311.777072  	0.065639 
3313.705888  	0.065887 
3315.634704  	0.066275 
3317.563520  	0.066525 
3319.492336  	0.066661 
3321.421152  	0.066648 
3323.349968  	0.066761 
3325.278784  	0.066976 
3327.207600  	0.067187 
3329.136416  	0.067053 
3331.065232  	0.067146 
3332.994048  	0.067358 
3334.922864  	0.067355 
3336.851680  	0.067370 
3338.780496  	0.067232 
3340.709312  	0.066989 
3342.638128  	0.066874 
3344.566944  	0.066588 
3346.495760  	0.066347 
3348.424576  	0.066091 
3350.353392  	0.065783 
3352.282208  	0.065509 
3354.211024  	0.065253 
3356.139840  	0.065110 
3358.068656  	0.065024 
3359.997472  	0.064701 
3361.926288  	0.064311 
3363.855104  	0.063980 
3365.783920  	0.063557 
3367.712736  	0.063277 
3369.641552  	0.062994 
3371.570368  	0.062632 
3373.499184  	0.062396 
3375.428000  	0.062004 
3377.356816  	0.061502 
3379.285632  	0.061445 
3381.214448  	0.061254 
3383.143264  	0.060764 
3385.072080  	0.060434 
3387.000896  	0.060243 
3388.929712  	0.059843 
3390.858528  	0.059507 
3392.787344  	0.059377 
3394.716160  	0.059002 
3396.644976  	0.058697 
3398.573792  	0.058518 
3400.502608  	0.058047 
3402.431424  	0.057563 
3404.360240  	0.057197 
3406.289056  	0.056704 
3408.217872  	0.056290 
3410.146688  	0.055906 
3412.075504  	0.055490 
3414.004320  	0.055172 
3415.933136  	0.054824 
3417.861952  	0.054328 
3419.790768  	0.054094 
3421.719584  	0.053948 
3423.648400  	0.053544 
3425.577216  	0.052818 
3427.506032  	0.052287 
3429.434848  	0.052053 
3431.363664  	0.051660 
3433.292480  	0.051132 
3435.221296  	0.050737 
3437.150112  	0.050373 
3439.078928  	0.049820 
3441.007744  	0.049230 
3442.936560  	0.049031 
3444.865376  	0.048739 
3446.794192  	0.048245 
3448.723008  	0.047782 
3450.651824  	0.047110 
3452.580640  	0.046618 
3454.509456  	0.046320 
3456.438272  	0.045804 
3458.367088  	0.045155 
3460.295904  	0.044595 
3462.224720  	0.043846 
3464.153536  	0.043277 
3466.082352  	0.042753 
3468.011168  	0.042015 
3469.939984  	0.041356 
3471.868800  	0.040912 
3473.797616  	0.040362 
3475.726432  	0.039843 
3477.655248  	0.039190 
3479.584064  	0.038709 
3481.512880  	0.038412 
3483.441696  	0.037868 
3485.370512  	0.037112 
3487.299328  	0.036160 
3489.228144  	0.035641 
3491.156960  	0.035153 
3493.085776  	0.034531 
3495.014592  	0.034120 
3496.943408  	0.033672 
3498.872224  	0.033142 
3500.801040  	0.033092 
3502.729856  	0.032602 
3504.658672  	0.031638 
3506.587488  	0.031094 
3508.516304  	0.030894 
3510.445120  	0.030312 
3512.373936  	0.029363 
3514.302752  	0.028839 
3516.231568  	0.028837 
3518.160384  	0.028620 
3520.089200  	0.027835 
3522.018016  	0.027295 
3523.946832  	0.027542 
3525.875648  	0.027103 
3527.804464  	0.025963 
3529.733280  	0.025177 
3531.662096  	0.024679 
3533.590912  	0.024177 
3535.519728  	0.024116 
3537.448544  	0.023962 
3539.377360  	0.023115 
3541.306176  	0.022619 
3543.234992  	0.022653 
3545.163808  	0.022943 
3547.092624  	0.022233 
3549.021440  	0.020822 
3550.950256  	0.019976 
3552.879072  	0.019607 
3554.807888  	0.018999 
3556.736704  	0.018522 
3558.665520  	0.018638 
3560.594336  	0.018616 
3562.523152  	0.017813 
3564.451968  	0.017624 
3566.380784  	0.018200 
3568.309600  	0.017231 
3570.238416  	0.015923 
3572.167232  	0.015093 
3574.096048  	0.014170 
3576.024864  	0.013581 
3577.953680  	0.013417 
3579.882496  	0.013059 
3581.811312  	0.012597 
3583.740128  	0.012201 
3585.668944  	0.011995 
3587.597760  	0.011161 
3589.526576  	0.010015 
3591.455392  	0.009196 
3593.384208  	0.008791 
3595.313024  	0.008145 
3597.241840  	0.007099 
3599.170656  	0.006022 
3601.099472  	0.005494 
3603.028288  	0.005497 
3604.957104  	0.005302 
3606.885920  	0.004747 
3608.814736  	0.003845 
3610.743552  	0.003509 
3612.672368  	0.002665 
3614.601184  	0.001789 
3616.530000  	0.001243 
3618.458816  	-0.000658 
3620.387632  	-0.001629 
3622.316448  	-0.001232 
3624.245264  	-0.001463 
3626.174080  	-0.001909 
3628.102896  	-0.004083 
3630.031712  	-0.006298 
3631.960528  	-0.005195 
3633.889344  	-0.005513 
3635.818160  	-0.006028 
3637.746976  	-0.006787 
3639.675792  	-0.007181 
3641.604608  	-0.007484 
3643.533424  	-0.007831 
3645.462240  	-0.008472 
3647.391056  	-0.011021 
3649.319872  	-0.015023 
3651.248688  	-0.016069 
3653.177504  	-0.013658 
3655.106320  	-0.014180 
3657.035136  	-0.016366 
3658.963952  	-0.015911 
3660.892768  	-0.015784 
3662.821584  	-0.015968 
3664.750400  	-0.016014 
3666.679216  	-0.016071 
3668.608032  	-0.017759 
3670.536848  	-0.020598 
3672.465664  	-0.018823 
3674.394480  	-0.019964 
3676.323296  	-0.023729 
3678.252112  	-0.020006 
3680.180928  	-0.018255 
3682.109744  	-0.017869 
3684.038560  	-0.017976 
3685.967376  	-0.017706 
3687.896192  	-0.020062 
3689.825008  	-0.022927 
3691.753824  	-0.021671 
3693.682640  	-0.019150 
3695.611456  	-0.018068 
3697.540272  	-0.017133 
3699.469088  	-0.016413 
3701.397904  	-0.017445 
3703.326720  	-0.017404 
3705.255536  	-0.015896 
3707.184352  	-0.015374 
3709.113168  	-0.016776 
3711.041984  	-0.018877 
3712.970800  	-0.017887 
3714.899616  	-0.014842 
3716.828432  	-0.013972 
3718.757248  	-0.014475 
3720.686064  	-0.015064 
3722.614880  	-0.015468 
3724.543696  	-0.014938 
3726.472512  	-0.015260 
3728.401328  	-0.015144 
3730.330144  	-0.015532 
3732.258960  	-0.017293 
3734.187776  	-0.016700 
3736.116592  	-0.017335 
3738.045408  	-0.016852 
3739.974224  	-0.015071 
3741.903040  	-0.014046 
3743.831856  	-0.016413 
3745.760672  	-0.018222 
3747.689488  	-0.016370 
3749.618304  	-0.018639 
3751.547120  	-0.020150 
3753.475936  	-0.017998 
3755.404752  	-0.015618 
3757.333568  	-0.015318 
3759.262384  	-0.016095 
3761.191200  	-0.015921 
3763.120016  	-0.014186 
3765.048832  	-0.014608 
3766.977648  	-0.014677 
3768.906464  	-0.015600 
3770.835280  	-0.016315 
3772.764096  	-0.014618 
3774.692912  	-0.013984 
3776.621728  	-0.013871 
3778.550544  	-0.015027 
3780.479360  	-0.015848 
3782.408176  	-0.014576 
3784.336992  	-0.015005 
3786.265808  	-0.014850 
3788.194624  	-0.014449 
3790.123440  	-0.014541 
3792.052256  	-0.014417 
3793.981072  	-0.014095 
3795.909888  	-0.015321 
3797.838704  	-0.015344 
3799.767520  	-0.015614 
3801.696336  	-0.019369 
3803.625152  	-0.017433 
3805.553968  	-0.016357 
3807.482784  	-0.017829 
3809.411600  	-0.015473 
3811.340416  	-0.014138 
3813.269232  	-0.013861 
3815.198048  	-0.016281 
3817.126864  	-0.017587 
3819.055680  	-0.016182 
3820.984496  	-0.019436 
3822.913312  	-0.018109 
3824.842128  	-0.015290 
3826.770944  	-0.015554 
3828.699760  	-0.014999 
3830.628576  	-0.015299 
3832.557392  	-0.016040 
3834.486208  	-0.015911 
3836.415024  	-0.016919 
3838.343840  	-0.018309 
3840.272656  	-0.017468 
3842.201472  	-0.015984 
3844.130288  	-0.015637 
3846.059104  	-0.014732 
3847.987920  	-0.014040 
3849.916736  	-0.013957 
3851.845552  	-0.016061 
3853.774368  	-0.021258 
3855.703184  	-0.018218 
3857.632000  	-0.015227 
3859.560816  	-0.014145 
3861.489632  	-0.014291 
3863.418448  	-0.014984 
3865.347264  	-0.015484 
3867.276080  	-0.014169 
3869.204896  	-0.015476 
3871.133712  	-0.015937 
3873.062528  	-0.014899 
3874.991344  	-0.015456 
3876.920160  	-0.013880 
3878.848976  	-0.013461 
3880.777792  	-0.014399 
3882.706608  	-0.013528 
3884.635424  	-0.013861 
3886.564240  	-0.015174 
3888.493056  	-0.014014 
3890.421872  	-0.014527 
3892.350688  	-0.015447 
3894.279504  	-0.014361 
3896.208320  	-0.013427 
3898.137136  	-0.013247 
3900.065952  	-0.013503 
3901.994768  	-0.013569 
3903.923584  	-0.014551 
3905.852400  	-0.015055 
3907.781216  	-0.014636 
3909.710032  	-0.014194 
3911.638848  	-0.013961 
3913.567664  	-0.013595 
3915.496480  	-0.013056 
3917.425296  	-0.013391 
3919.354112  	-0.013872 
3921.282928  	-0.013593 
3923.211744  	-0.013108 
3925.140560  	-0.013303 
3927.069376  	-0.013465 
3928.998192  	-0.013307 
3930.927008  	-0.012945 
3932.855824  	-0.013026 
3934.784640  	-0.013458 
3936.713456  	-0.013659 
3938.642272  	-0.013530 
3940.571088  	-0.013095 
3942.499904  	-0.013005 
3944.428720  	-0.013251 
3946.357536  	-0.013020 
3948.286352  	-0.012934 
3950.215168  	-0.013497 
3952.143984  	-0.013958 
3954.072800  	-0.013958 
3956.001616  	-0.013770 
3957.930432  	-0.013754 
3959.859248  	-0.013552 
3961.788064  	-0.013465 
3963.716880  	-0.013954 
3965.645696  	-0.014365 
3967.574512  	-0.014152 
3969.503328  	-0.013733 
3971.432144  	-0.013798 
3973.360960  	-0.013771 
3975.289776  	-0.013724 
3977.218592  	-0.013700 
3979.147408  	-0.013833 
3981.076224  	-0.013926 
3983.005040  	-0.013921 
3984.933856  	-0.014031 
3986.862672  	-0.014027 
3988.791488  	-0.013649 
3990.720304  	-0.013456 
3992.649120  	-0.013747 
3994.577936  	-0.013941 
3996.506752  	-0.013867 
3998.435568  	-0.013758 
4000.364384  	-0.013756 