##TITLE=No Description
##DATA TYPE=INFRARED SPECTRUM
##XUNITS=1/CM
##YUNITS=Abs
399.264912  	0.632758 
401.193728  	0.611452 
403.122544  	0.615088 
405.051360  	0.605490 
406.980176  	0.603460 
408.908992  	0.593210 
410.837808  	0.598698 
412.766624  	0.581910 
414.695440  	0.562929 
416.624256  	0.557413 
418.553072  	0.562360 
420.481888  	0.557281 
422.410704  	0.559061 
424.339520  	0.559313 
426.268336  	0.567809 
428.197152  	0.562318 
430.125968  	0.563718 
432.054784  	0.560275 
433.983600  	0.554061 
435.912416  	0.545811 
437.841232  	0.547075 
439.770048  	0.547175 
441.698864  	0.548218 
443.627680  	0.542639 
445.556496  	0.542042 
447.485312  	0.539572 
449.414128  	0.540456 
451.342944  	0.538320 
453.271760  	0.536114 
455.200576  	0.530719 
457.129392  	0.535610 
459.058208  	0.534742 
460.987024  	0.538790 
462.915840  	0.534138 
464.844656  	0.527964 
466.773472  	0.524803 
468.702288  	0.527546 
470.631104  	0.525209 
472.559920  	0.530596 
474.488736  	0.531614 
476.417552  	0.535049 
478.346368  	0.529657 
480.275184  	0.526657 
482.204000  	0.522929 
484.132816  	0.524094 
486.061632  	0.523590 
487.990448  	0.523243 
489.919264  	0.519770 
491.848080  	0.518966 
493.776896  	0.518643 
495.705712  	0.519882 
497.634528  	0.515061 
499.563344  	0.515650 
501.492160  	0.513566 
503.420976  	0.510493 
505.349792  	0.510906 
507.278608  	0.515001 
509.207424  	0.512146 
511.136240  	0.512867 
513.065056  	0.511780 
514.993872  	0.514061 
516.922688  	0.516394 
518.851504  	0.519915 
520.780320  	0.519199 
522.709136  	0.518382 
524.637952  	0.516752 
526.566768  	0.514850 
528.495584  	0.511239 
530.424400  	0.510726 
532.353216  	0.507474 
534.282032  	0.504338 
536.210848  	0.496280 
538.139664  	0.489956 
540.068480  	0.485888 
541.997296  	0.481977 
543.926112  	0.476730 
545.854928  	0.473492 
547.783744  	0.470197 
549.712560  	0.468785 
551.641376  	0.465868 
553.570192  	0.463507 
555.499008  	0.458421 
557.427824  	0.454470 
559.356640  	0.449557 
561.285456  	0.445897 
563.214272  	0.442914 
565.143088  	0.441114 
567.071904  	0.437219 
569.000720  	0.433886 
570.929536  	0.430486 
572.858352  	0.427898 
574.787168  	0.425533 
576.715984  	0.424621 
578.644800  	0.420583 
580.573616  	0.416650 
582.502432  	0.411549 
584.431248  	0.408419 
586.360064  	0.405067 
588.288880  	0.403164 
590.217696  	0.401367 
592.146512  	0.398555 
594.075328  	0.394761 
596.004144  	0.392982 
597.932960  	0.391412 
599.861776  	0.389981 
601.790592  	0.387492 
603.719408  	0.385507 
605.648224  	0.383658 
607.577040  	0.382573 
609.505856  	0.380707 
611.434672  	0.379034 
613.363488  	0.376958 
615.292304  	0.376069 
617.221120  	0.375091 
619.149936  	0.373449 
621.078752  	0.371495 
623.007568  	0.370975 
624.936384  	0.369039 
626.865200  	0.366699 
628.794016  	0.364754 
630.722832  	0.364834 
632.651648  	0.364759 
634.580464  	0.364059 
636.509280  	0.362920 
638.438096  	0.363251 
640.366912  	0.362702 
642.295728  	0.360716 
644.224544  	0.357624 
646.153360  	0.354855 
648.082176  	0.351551 
650.010992  	0.348042 
651.939808  	0.343865 
653.868624  	0.340752 
655.797440  	0.337045 
657.726256  	0.333155 
659.655072  	0.329286 
661.583888  	0.325398 
663.512704  	0.321068 
665.441520  	0.318128 
667.370336  	0.313964 
669.299152  	0.309408 
671.227968  	0.306205 
673.156784  	0.302788 
675.085600  	0.299923 
677.014416  	0.297812 
678.943232  	0.295620 
680.872048  	0.293497 
682.800864  	0.291630 
684.729680  	0.289923 
686.658496  	0.288241 
688.587312  	0.287083 
690.516128  	0.285407 
692.444944  	0.284173 
694.373760  	0.282811 
696.302576  	0.280883 
698.231392  	0.278172 
700.160208  	0.275730 
702.089024  	0.273404 
704.017840  	0.270986 
705.946656  	0.268241 
707.875472  	0.265553 
709.804288  	0.263264 
711.733104  	0.261350 
713.661920  	0.259082 
715.590736  	0.257719 
717.519552  	0.257182 
719.448368  	0.257351 
721.377184  	0.257157 
723.306000  	0.256965 
725.234816  	0.256543 
727.163632  	0.255695 
729.092448  	0.253728 
731.021264  	0.250872 
732.950080  	0.247674 
734.878896  	0.244678 
736.807712  	0.241629 
738.736528  	0.239365 
740.665344  	0.237499 
742.594160  	0.235529 
744.522976  	0.233648 
746.451792  	0.231964 
748.380608  	0.230452 
750.309424  	0.229102 
752.238240  	0.227863 
754.167056  	0.226913 
756.095872  	0.225536 
758.024688  	0.224148 
759.953504  	0.223160 
761.882320  	0.223568 
763.811136  	0.224030 
765.739952  	0.223133 
767.668768  	0.220686 
769.597584  	0.217872 
771.526400  	0.216265 
773.455216  	0.216866 
775.384032  	0.219419 
777.312848  	0.223402 
779.241664  	0.227045 
781.170480  	0.227431 
783.099296  	0.223985 
785.028112  	0.218854 
786.956928  	0.213314 
788.885744  	0.208467 
790.814560  	0.205076 
792.743376  	0.202540 
794.672192  	0.200970 
796.601008  	0.200010 
798.529824  	0.197395 
800.458640  	0.192997 
802.387456  	0.189456 
804.316272  	0.187438 
806.245088  	0.186123 
808.173904  	0.185419 
810.102720  	0.184500 
812.031536  	0.183616 
813.960352  	0.183261 
815.889168  	0.183078 
817.817984  	0.182906 
819.746800  	0.182613 
821.675616  	0.182139 
823.604432  	0.181665 
825.533248  	0.181147 
827.462064  	0.180366 
829.390880  	0.179111 
831.319696  	0.177687 
833.248512  	0.175958 
835.177328  	0.173972 
837.106144  	0.171597 
839.034960  	0.168564 
840.963776  	0.165135 
842.892592  	0.161715 
844.821408  	0.158683 
846.750224  	0.155865 
848.679040  	0.153464 
850.607856  	0.151570 
852.536672  	0.149894 
854.465488  	0.148358 
856.394304  	0.147189 
858.323120  	0.145881 
860.251936  	0.143971 
862.180752  	0.141661 
864.109568  	0.139150 
866.038384  	0.136720 
867.967200  	0.134499 
869.896016  	0.132365 
871.824832  	0.130989 
873.753648  	0.130531 
875.682464  	0.130743 
877.611280  	0.131028 
879.540096  	0.131665 
881.468912  	0.133168 
883.397728  	0.134074 
885.326544  	0.134872 
887.255360  	0.135004 
889.184176  	0.133786 
891.112992  	0.131853 
893.041808  	0.130323 
894.970624  	0.128339 
896.899440  	0.125369 
898.828256  	0.121581 
900.757072  	0.117921 
902.685888  	0.114980 
904.614704  	0.113122 
906.543520  	0.112831 
908.472336  	0.113585 
910.401152  	0.115449 
912.329968  	0.117692 
914.258784  	0.120010 
916.187600  	0.122313 
918.116416  	0.124307 
920.045232  	0.125607 
921.974048  	0.126195 
923.902864  	0.126336 
925.831680  	0.126098 
927.760496  	0.126049 
929.689312  	0.126447 
931.618128  	0.127088 
933.546944  	0.127181 
935.475760  	0.127169 
937.404576  	0.127004 
939.333392  	0.126652 
941.262208  	0.126663 
943.191024  	0.127746 
945.119840  	0.130721 
947.048656  	0.135548 
948.977472  	0.142015 
950.906288  	0.150027 
952.835104  	0.159140 
954.763920  	0.168795 
956.692736  	0.177628 
958.621552  	0.185263 
960.550368  	0.190608 
962.479184  	0.193237 
964.408000  	0.192571 
966.336816  	0.188773 
968.265632  	0.181673 
970.194448  	0.171923 
972.123264  	0.160528 
974.052080  	0.148621 
975.980896  	0.137099 
977.909712  	0.126135 
979.838528  	0.116222 
981.767344  	0.107836 
983.696160  	0.101268 
985.624976  	0.096939 
987.553792  	0.094810 
989.482608  	0.094889 
991.411424  	0.096898 
993.340240  	0.100498 
995.269056  	0.105274 
997.197872  	0.110487 
999.126688  	0.115800 
1001.055504  	0.121266 
1002.984320  	0.126874 
1004.913136  	0.132468 
1006.841952  	0.137832 
1008.770768  	0.142282 
1010.699584  	0.145412 
1012.628400  	0.147381 
1014.557216  	0.148133 
1016.486032  	0.148288 
1018.414848  	0.148109 
1020.343664  	0.147634 
1022.272480  	0.147013 
1024.201296  	0.145808 
1026.130112  	0.142527 
1028.058928  	0.141272 
1029.987744  	0.144192 
1031.916560  	0.145978 
1033.845376  	0.146855 
1035.774192  	0.147532 
1037.703008  	0.149582 
1039.631824  	0.154918 
1041.560640  	0.162446 
1043.489456  	0.172502 
1045.418272  	0.184840 
1047.347088  	0.198631 
1049.275904  	0.211629 
1051.204720  	0.222276 
1053.133536  	0.229322 
1055.062352  	0.232798 
1056.991168  	0.232842 
1058.919984  	0.234432 
1060.848800  	0.236180 
1062.777616  	0.234557 
1064.706432  	0.229471 
1066.635248  	0.225430 
1068.564064  	0.225185 
1070.492880  	0.221930 
1072.421696  	0.215638 
1074.350512  	0.211267 
1076.279328  	0.210213 
1078.208144  	0.213064 
1080.136960  	0.218677 
1082.065776  	0.225201 
1083.994592  	0.229892 
1085.923408  	0.231854 
1087.852224  	0.230470 
1089.781040  	0.226940 
1091.709856  	0.222092 
1093.638672  	0.214736 
1095.567488  	0.204760 
1097.496304  	0.193677 
1099.425120  	0.181792 
1101.353936  	0.169652 
1103.282752  	0.158019 
1105.211568  	0.146780 
1107.140384  	0.135922 
1109.069200  	0.125797 
1110.998016  	0.116639 
1112.926832  	0.108245 
1114.855648  	0.100501 
1116.784464  	0.093342 
1118.713280  	0.086858 
1120.642096  	0.080680 
1122.570912  	0.074709 
1124.499728  	0.069089 
1126.428544  	0.064050 
1128.357360  	0.059589 
1130.286176  	0.056007 
1132.214992  	0.052883 
1134.143808  	0.050293 
1136.072624  	0.048122 
1138.001440  	0.046410 
1139.930256  	0.044361 
1141.859072  	0.042262 
1143.787888  	0.040081 
1145.716704  	0.038132 
1147.645520  	0.036262 
1149.574336  	0.034636 
1151.503152  	0.033207 
1153.431968  	0.032597 
1155.360784  	0.032672 
1157.289600  	0.033380 
1159.218416  	0.034456 
1161.147232  	0.036042 
1163.076048  	0.037837 
1165.004864  	0.039890 
1166.933680  	0.041817 
1168.862496  	0.043832 
1170.791312  	0.045867 
1172.720128  	0.048497 
1174.648944  	0.050936 
1176.577760  	0.053444 
1178.506576  	0.055859 
1180.435392  	0.058334 
1182.364208  	0.060750 
1184.293024  	0.063529 
1186.221840  	0.066206 
1188.150656  	0.069251 
1190.079472  	0.072840 
1192.008288  	0.077247 
1193.937104  	0.082544 
1195.865920  	0.088858 
1197.794736  	0.095956 
1199.723552  	0.103840 
1201.652368  	0.111777 
1203.581184  	0.120125 
1205.510000  	0.128079 
1207.438816  	0.135469 
1209.367632  	0.142667 
1211.296448  	0.149302 
1213.225264  	0.154792 
1215.154080  	0.158898 
1217.082896  	0.162030 
1219.011712  	0.164035 
1220.940528  	0.165608 
1222.869344  	0.166731 
1224.798160  	0.167123 
1226.726976  	0.166854 
1228.655792  	0.166446 
1230.584608  	0.165507 
1232.513424  	0.163975 
1234.442240  	0.161886 
1236.371056  	0.159133 
1238.299872  	0.155136 
1240.228688  	0.148996 
1242.157504  	0.142869 
1244.086320  	0.137613 
1246.015136  	0.130835 
1247.943952  	0.123253 
1249.872768  	0.115721 
1251.801584  	0.109362 
1253.730400  	0.102927 
1255.659216  	0.096483 
1257.588032  	0.090408 
1259.516848  	0.084581 
1261.445664  	0.079308 
1263.374480  	0.074561 
1265.303296  	0.070478 
1267.232112  	0.067165 
1269.160928  	0.064646 
1271.089744  	0.062622 
1273.018560  	0.061403 
1274.947376  	0.060978 
1276.876192  	0.061033 
1278.805008  	0.060796 
1280.733824  	0.059726 
1282.662640  	0.057751 
1284.591456  	0.055594 
1286.520272  	0.053768 
1288.449088  	0.052476 
1290.377904  	0.051816 
1292.306720  	0.051965 
1294.235536  	0.052033 
1296.164352  	0.051249 
1298.093168  	0.049302 
1300.021984  	0.046808 
1301.950800  	0.044029 
1303.879616  	0.041382 
1305.808432  	0.038571 
1307.737248  	0.035813 
1309.666064  	0.033140 
1311.594880  	0.031252 
1313.523696  	0.029642 
1315.452512  	0.028505 
1317.381328  	0.027960 
1319.310144  	0.027740 
1321.238960  	0.027609 
1323.167776  	0.028078 
1325.096592  	0.028835 
1327.025408  	0.029485 
1328.954224  	0.029507 
1330.883040  	0.029145 
1332.811856  	0.028385 
1334.740672  	0.027916 
1336.669488  	0.027966 
1338.598304  	0.028240 
1340.527120  	0.026868 
1342.455936  	0.025209 
1344.384752  	0.024751 
1346.313568  	0.024877 
1348.242384  	0.025336 
1350.171200  	0.026355 
1352.100016  	0.027703 
1354.028832  	0.029441 
1355.957648  	0.030936 
1357.886464  	0.032736 
1359.815280  	0.034954 
1361.744096  	0.037134 
1363.672912  	0.038003 
1365.601728  	0.038808 
1367.530544  	0.040027 
1369.459360  	0.040316 
1371.388176  	0.040122 
1373.316992  	0.039101 
1375.245808  	0.035980 
1377.174624  	0.033602 
1379.103440  	0.031012 
1381.032256  	0.028221 
1382.961072  	0.026174 
1384.889888  	0.025713 
1386.818704  	0.025282 
1388.747520  	0.023558 
1390.676336  	0.021435 
1392.605152  	0.018469 
1394.533968  	0.016675 
1396.462784  	0.019500 
1398.391600  	0.020857 
1400.320416  	0.019884 
1402.249232  	0.019976 
1404.178048  	0.020468 
1406.106864  	0.020776 
1408.035680  	0.022337 
1409.964496  	0.024640 
1411.893312  	0.027296 
1413.822128  	0.030097 
1415.750944  	0.033686 
1417.679760  	0.036097 
1419.608576  	0.035471 
1421.537392  	0.035858 
1423.466208  	0.036294 
1425.395024  	0.034733 
1427.323840  	0.033757 
1429.252656  	0.031631 
1431.181472  	0.030066 
1433.110288  	0.030134 
1435.039104  	0.030893 
1436.967920  	0.029901 
1438.896736  	0.030285 
1440.825552  	0.031448 
1442.754368  	0.031996 
1444.683184  	0.032280 
1446.612000  	0.032364 
1448.540816  	0.031181 
1450.469632  	0.031593 
1452.398448  	0.032591 
1454.327264  	0.033796 
1456.256080  	0.032998 
1458.184896  	0.029833 
1460.113712  	0.031433 
1462.042528  	0.033134 
1463.971344  	0.032774 
1465.900160  	0.032824 
1467.828976  	0.035432 
1469.757792  	0.038658 
1471.686608  	0.041284 
1473.615424  	0.045675 
1475.544240  	0.051592 
1477.473056  	0.056595 
1479.401872  	0.060329 
1481.330688  	0.063318 
1483.259504  	0.065307 
1485.188320  	0.066979 
1487.117136  	0.067028 
1489.045952  	0.066407 
1490.974768  	0.063333 
1492.903584  	0.061719 
1494.832400  	0.059240 
1496.761216  	0.052897 
1498.690032  	0.047286 
1500.618848  	0.044182 
1502.547664  	0.041400 
1504.476480  	0.037989 
1506.405296  	0.031644 
1508.334112  	0.029430 
1510.262928  	0.030065 
1512.191744  	0.028467 
1514.120560  	0.027759 
1516.049376  	0.027120 
1517.978192  	0.025912 
1519.907008  	0.027191 
1521.835824  	0.026593 
1523.764640  	0.030597 
1525.693456  	0.034943 
1527.622272  	0.036847 
1529.551088  	0.037634 
1531.479904  	0.037748 
1533.408720  	0.033650 
1535.337536  	0.030961 
1537.266352  	0.030002 
1539.195168  	0.022500 
1541.123984  	0.015373 
1543.052800  	0.018531 
1544.981616  	0.019550 
1546.910432  	0.019300 
1548.839248  	0.019842 
1550.768064  	0.019773 
1552.696880  	0.019610 
1554.625696  	0.019726 
1556.554512  	0.019875 
1558.483328  	0.016711 
1560.412144  	0.019589 
1562.340960  	0.027084 
1564.269776  	0.030834 
1566.198592  	0.035378 
1568.127408  	0.039065 
1570.056224  	0.042730 
1571.985040  	0.049210 
1573.913856  	0.053778 
1575.842672  	0.053803 
1577.771488  	0.056014 
1579.700304  	0.058752 
1581.629120  	0.058926 
1583.557936  	0.058390 
1585.486752  	0.059049 
1587.415568  	0.060953 
1589.344384  	0.064657 
1591.273200  	0.069669 
1593.202016  	0.075834 
1595.130832  	0.082413 
1597.059648  	0.089440 
1598.988464  	0.095551 
1600.917280  	0.100920 
1602.846096  	0.104498 
1604.774912  	0.106911 
1606.703728  	0.107280 
1608.632544  	0.106394 
1610.561360  	0.104700 
1612.490176  	0.103628 
1614.418992  	0.101827 
1616.347808  	0.097961 
1618.276624  	0.098274 
1620.205440  	0.103300 
1622.134256  	0.105772 
1624.063072  	0.109611 
1625.991888  	0.116069 
1627.920704  	0.123073 
1629.849520  	0.131752 
1631.778336  	0.140858 
1633.707152  	0.147069 
1635.635968  	0.152215 
1637.564784  	0.161286 
1639.493600  	0.170284 
1641.422416  	0.176051 
1643.351232  	0.180642 
1645.280048  	0.181559 
1647.208864  	0.179831 
1649.137680  	0.182034 
1651.066496  	0.184552 
1652.995312  	0.176720 
1654.924128  	0.175323 
1656.852944  	0.178227 
1658.781760  	0.177477 
1660.710576  	0.174587 
1662.639392  	0.169304 
1664.568208  	0.165758 
1666.497024  	0.164673 
1668.425840  	0.159391 
1670.354656  	0.151767 
1672.283472  	0.149490 
1674.212288  	0.147487 
1676.141104  	0.142419 
1678.069920  	0.142236 
1679.998736  	0.141976 
1681.927552  	0.140856 
1683.856368  	0.135051 
1685.785184  	0.133452 
1687.714000  	0.136942 
1689.642816  	0.136791 
1691.571632  	0.135555 
1693.500448  	0.135250 
1695.429264  	0.131097 
1697.358080  	0.127826 
1699.286896  	0.126367 
1701.215712  	0.120917 
1703.144528  	0.121740 
1705.073344  	0.118444 
1707.002160  	0.112991 
1708.930976  	0.109729 
1710.859792  	0.104594 
1712.788608  	0.098569 
1714.717424  	0.090635 
1716.646240  	0.080019 
1718.575056  	0.066902 
1720.503872  	0.060489 
1722.432688  	0.054804 
1724.361504  	0.046268 
1726.290320  	0.039343 
1728.219136  	0.033642 
1730.147952  	0.028426 
1732.076768  	0.023994 
1734.005584  	0.017289 
1735.934400  	0.012773 
1737.863216  	0.013097 
1739.792032  	0.009598 
1741.720848  	0.008752 
1743.649664  	0.008583 
1745.578480  	0.007808 
1747.507296  	0.006143 
1749.436112  	0.005255 
1751.364928  	0.004273 
1753.293744  	0.003866 
1755.222560  	0.003913 
1757.151376  	0.003210 
1759.080192  	0.002725 
1761.009008  	0.002143 
1762.937824  	0.000613 
1764.866640  	0.001247 
1766.795456  	0.001845 
1768.724272  	0.001326 
1770.653088  	-0.000851 
1772.581904  	-0.003512 
1774.510720  	-0.002172 
1776.439536  	-0.000401 
1778.368352  	-0.000060 
1780.297168  	-0.000517 
1782.225984  	-0.001131 
1784.154800  	-0.000715 
1786.083616  	-0.001233 
1788.012432  	-0.000805 
1789.941248  	-0.000530 
1791.870064  	-0.002214 
1793.798880  	-0.003500 
1795.727696  	-0.001783 
1797.656512  	-0.001928 
1799.585328  	-0.002138 
1801.514144  	-0.001816 
1803.442960  	-0.001905 
1805.371776  	-0.002462 
1807.300592  	-0.002157 
1809.229408  	-0.002587 
1811.158224  	-0.002918 
1813.087040  	-0.003095 
1815.015856  	-0.002697 
1816.944672  	-0.002615 
1818.873488  	-0.002613 
1820.802304  	-0.002767 
1822.731120  	-0.002028 
1824.659936  	-0.002656 
1826.588752  	-0.003386 
1828.517568  	-0.004101 
1830.446384  	-0.004694 
1832.375200  	-0.003868 
1834.304016  	-0.003124 
1836.232832  	-0.003253 
1838.161648  	-0.003043 
1840.090464  	-0.003013 
1842.019280  	-0.002332 
1843.948096  	-0.003814 
1845.876912  	-0.004070 
1847.805728  	-0.003254 
1849.734544  	-0.003298 
1851.663360  	-0.003513 
1853.592176  	-0.003318 
1855.520992  	-0.003424 
1857.449808  	-0.003271 
1859.378624  	-0.003592 
1861.307440  	-0.003576 
1863.236256  	-0.003599 
1865.165072  	-0.003268 
1867.093888  	-0.003506 
1869.022704  	-0.003867 
1870.951520  	-0.004133 
1872.880336  	-0.003783 
1874.809152  	-0.003903 
1876.737968  	-0.003771 
1878.666784  	-0.004005 
1880.595600  	-0.003541 
1882.524416  	-0.003904 
1884.453232  	-0.003860 
1886.382048  	-0.003950 
1888.310864  	-0.003757 
1890.239680  	-0.004409 
1892.168496  	-0.003965 
1894.097312  	-0.003786 
1896.026128  	-0.003830 
1897.954944  	-0.004073 
1899.883760  	-0.003581 
1901.812576  	-0.003970 
1903.741392  	-0.004336 
1905.670208  	-0.004388 
1907.599024  	-0.004027 
1909.527840  	-0.003991 
1911.456656  	-0.003465 
1913.385472  	-0.003660 
1915.314288  	-0.003438 
1917.243104  	-0.003993 
1919.171920  	-0.004271 
1921.100736  	-0.003831 
1923.029552  	-0.003142 
1924.958368  	-0.003784 
1926.887184  	-0.004036 
1928.816000  	-0.004583 
1930.744816  	-0.004329 
1932.673632  	-0.004209 
1934.602448  	-0.003818 
1936.531264  	-0.003877 
1938.460080  	-0.003480 
1940.388896  	-0.003792 
1942.317712  	-0.003764 
1944.246528  	-0.004397 
1946.175344  	-0.003762 
1948.104160  	-0.004012 
1950.032976  	-0.003725 
1951.961792  	-0.004004 
1953.890608  	-0.003631 
1955.819424  	-0.003584 
1957.748240  	-0.003055 
1959.677056  	-0.003873 
1961.605872  	-0.003494 
1963.534688  	-0.003468 
1965.463504  	-0.002732 
1967.392320  	-0.003729 
1969.321136  	-0.004036 
1971.249952  	-0.004162 
1973.178768  	-0.003195 
1975.107584  	-0.003638 
1977.036400  	-0.002020 
1978.965216  	-0.001267 
1980.894032  	-0.002026 
1982.822848  	-0.003322 
1984.751664  	-0.003065 
1986.680480  	-0.003699 
1988.609296  	-0.003087 
1990.538112  	-0.003038 
1992.466928  	-0.002818 
1994.395744  	-0.004086 
1996.324560  	-0.004084 
1998.253376  	-0.004232 
2000.182192  	-0.004274 
2002.111008  	-0.004201 
2004.039824  	-0.003463 
2005.968640  	-0.004324 
2007.897456  	-0.004039 
2009.826272  	-0.004257 
2011.755088  	-0.003206 
2013.683904  	-0.004040 
2015.612720  	-0.003374 
2017.541536  	-0.003239 
2019.470352  	-0.002526 
2021.399168  	-0.003957 
2023.327984  	-0.003762 
2025.256800  	-0.003016 
2027.185616  	-0.002546 
2029.114432  	-0.002738 
2031.043248  	-0.002395 
2032.972064  	-0.003113 
2034.900880  	-0.002580 
2036.829696  	-0.003283 
2038.758512  	-0.002376 
2040.687328  	-0.003026 
2042.616144  	-0.002651 
2044.544960  	-0.002779 
2046.473776  	-0.002367 
2048.402592  	-0.002474 
2050.331408  	-0.002790 
2052.260224  	-0.003402 
2054.189040  	-0.003399 
2056.117856  	-0.004055 
2058.046672  	-0.003825 
2059.975488  	-0.003787 
2061.904304  	-0.003722 
2063.833120  	-0.003868 
2065.761936  	-0.003959 
2067.690752  	-0.004529 
2069.619568  	-0.004073 
2071.548384  	-0.003635 
2073.477200  	-0.003524 
2075.406016  	-0.003309 
2077.334832  	-0.002952 
2079.263648  	-0.003436 
2081.192464  	-0.003464 
2083.121280  	-0.003198 
2085.050096  	-0.003131 
2086.978912  	-0.003588 
2088.907728  	-0.003387 
2090.836544  	-0.003373 
2092.765360  	-0.003374 
2094.694176  	-0.003344 
2096.622992  	-0.003222 
2098.551808  	-0.003303 
2100.480624  	-0.002851 
2102.409440  	-0.002946 
2104.338256  	-0.003071 
2106.267072  	-0.002841 
2108.195888  	-0.002588 
2110.124704  	-0.003051 
2112.053520  	-0.003217 
2113.982336  	-0.003289 
2115.911152  	-0.003257 
2117.839968  	-0.003247 
2119.768784  	-0.003073 
2121.697600  	-0.003399 
2123.626416  	-0.003525 
2125.555232  	-0.003861 
2127.484048  	-0.003387 
2129.412864  	-0.003399 
2131.341680  	-0.003937 
2133.270496  	-0.004118 
2135.199312  	-0.003348 
2137.128128  	-0.002992 
2139.056944  	-0.002808 
2140.985760  	-0.003612 
2142.914576  	-0.002816 
2144.843392  	-0.002465 
2146.772208  	-0.002728 
2148.701024  	-0.003266 
2150.629840  	-0.002748 
2152.558656  	-0.002252 
2154.487472  	-0.001727 
2156.416288  	-0.002458 
2158.345104  	-0.002051 
2160.273920  	-0.000331 
2162.202736  	0.001120 
2164.131552  	0.000520 
2166.060368  	-0.000456 
2167.989184  	-0.001024 
2169.918000  	-0.000048 
2171.846816  	-0.001227 
2173.775632  	-0.000906 
2175.704448  	-0.000093 
2177.633264  	0.000125 
2179.562080  	-0.000997 
2181.490896  	-0.001015 
2183.419712  	-0.001909 
2185.348528  	-0.002295 
2187.277344  	-0.002368 
2189.206160  	-0.002178 
2191.134976  	-0.002637 
2193.063792  	-0.002501 
2194.992608  	-0.002728 
2196.921424  	-0.002395 
2198.850240  	-0.002388 
2200.779056  	-0.002888 
2202.707872  	-0.003677 
2204.636688  	-0.003590 
2206.565504  	-0.002807 
2208.494320  	-0.002471 
2210.423136  	-0.003141 
2212.351952  	-0.002862 
2214.280768  	-0.003620 
2216.209584  	-0.003667 
2218.138400  	-0.003338 
2220.067216  	-0.002936 
2221.996032  	-0.003172 
2223.924848  	-0.002909 
2225.853664  	-0.002838 
2227.782480  	-0.002993 
2229.711296  	-0.003782 
2231.640112  	-0.004017 
2233.568928  	-0.003781 
2235.497744  	-0.003475 
2237.426560  	-0.004235 
2239.355376  	-0.004262 
2241.284192  	-0.003865 
2243.213008  	-0.003639 
2245.141824  	-0.003729 
2247.070640  	-0.003553 
2248.999456  	-0.003810 
2250.928272  	-0.003808 
2252.857088  	-0.004224 
2254.785904  	-0.004368 
2256.714720  	-0.004287 
2258.643536  	-0.004109 
2260.572352  	-0.004668 
2262.501168  	-0.005130 
2264.429984  	-0.004922 
2266.358800  	-0.004611 
2268.287616  	-0.004751 
2270.216432  	-0.004532 
2272.145248  	-0.004342 
2274.074064  	-0.004376 
2276.002880  	-0.004270 
2277.931696  	-0.003752 
2279.860512  	-0.003612 
2281.789328  	-0.003513 
2283.718144  	-0.003567 
2285.646960  	-0.003262 
2287.575776  	-0.003033 
2289.504592  	-0.003175 
2291.433408  	-0.003400 
2293.362224  	-0.003024 
2295.291040  	-0.002477 
2297.219856  	-0.002040 
2299.148672  	-0.001986 
2301.077488  	-0.001726 
2303.006304  	-0.001353 
2304.935120  	-0.000613 
2306.863936  	-0.000055 
2308.792752  	0.000191 
2310.721568  	0.000051 
2312.650384  	-0.000125 
2314.579200  	-0.000472 
2316.508016  	-0.000885 
2318.436832  	-0.000972 
2320.365648  	-0.001313 
2322.294464  	-0.002203 
2324.223280  	-0.003398 
2326.152096  	-0.004941 
2328.080912  	-0.005845 
2330.009728  	-0.006938 
2331.938544  	-0.008518 
2333.867360  	-0.009973 
2335.796176  	-0.010880 
2337.724992  	-0.011481 
2339.653808  	-0.011289 
2341.582624  	-0.011307 
2343.511440  	-0.010508 
2345.440256  	-0.009130 
2347.369072  	-0.006449 
2349.297888  	-0.004117 
2351.226704  	-0.004902 
2353.155520  	-0.008204 
2355.084336  	-0.010899 
2357.013152  	-0.012803 
2358.941968  	-0.013718 
2360.870784  	-0.014547 
2362.799600  	-0.014078 
2364.728416  	-0.013496 
2366.657232  	-0.011861 
2368.586048  	-0.009894 
2370.514864  	-0.008206 
2372.443680  	-0.006591 
2374.372496  	-0.004953 
2376.301312  	-0.003440 
2378.230128  	-0.002358 
2380.158944  	-0.002145 
2382.087760  	-0.002566 
2384.016576  	-0.003447 
2385.945392  	-0.004180 
2387.874208  	-0.004731 
2389.803024  	-0.004944 
2391.731840  	-0.005096 
2393.660656  	-0.005076 
2395.589472  	-0.005066 
2397.518288  	-0.004975 
2399.447104  	-0.005039 
2401.375920  	-0.005127 
2403.304736  	-0.005334 
2405.233552  	-0.005280 
2407.162368  	-0.005443 
2409.091184  	-0.005539 
2411.020000  	-0.005413 
2412.948816  	-0.005147 
2414.877632  	-0.005068 
2416.806448  	-0.005048 
2418.735264  	-0.005199 
2420.664080  	-0.005276 
2422.592896  	-0.005267 
2424.521712  	-0.005081 
2426.450528  	-0.005172 
2428.379344  	-0.005055 
2430.308160  	-0.004822 
2432.236976  	-0.004744 
2434.165792  	-0.004885 
2436.094608  	-0.004863 
2438.023424  	-0.004713 
2439.952240  	-0.004390 
2441.881056  	-0.004600 
2443.809872  	-0.004742 
2445.738688  	-0.004476 
2447.667504  	-0.004455 
2449.596320  	-0.004694 
2451.525136  	-0.004481 
2453.453952  	-0.004380 
2455.382768  	-0.004469 
2457.311584  	-0.004679 
2459.240400  	-0.004682 
2461.169216  	-0.004662 
2463.098032  	-0.004789 
2465.026848  	-0.004810 
2466.955664  	-0.004755 
2468.884480  	-0.004958 
2470.813296  	-0.004940 
2472.742112  	-0.004843 
2474.670928  	-0.004817 
2476.599744  	-0.004851 
2478.528560  	-0.004761 
2480.457376  	-0.004686 
2482.386192  	-0.004624 
2484.315008  	-0.004439 
2486.243824  	-0.004455 
2488.172640  	-0.004545 
2490.101456  	-0.004281 
2492.030272  	-0.004063 
2493.959088  	-0.004205 
2495.887904  	-0.004293 
2497.816720  	-0.004135 
2499.745536  	-0.003959 
2501.674352  	-0.003933 
2503.603168  	-0.003782 
2505.531984  	-0.003815 
2507.460800  	-0.004140 
2509.389616  	-0.004042 
2511.318432  	-0.003857 
2513.247248  	-0.003718 
2515.176064  	-0.003735 
2517.104880  	-0.003764 
2519.033696  	-0.003883 
2520.962512  	-0.003759 
2522.891328  	-0.003527 
2524.820144  	-0.003802 
2526.748960  	-0.004004 
2528.677776  	-0.003784 
2530.606592  	-0.003749 
2532.535408  	-0.003692 
2534.464224  	-0.003629 
2536.393040  	-0.003550 
2538.321856  	-0.003446 
2540.250672  	-0.003323 
2542.179488  	-0.003267 
2544.108304  	-0.003073 
2546.037120  	-0.002980 
2547.965936  	-0.003093 
2549.894752  	-0.003309 
2551.823568  	-0.003377 
2553.752384  	-0.003105 
2555.681200  	-0.002678 
2557.610016  	-0.002566 
2559.538832  	-0.002749 
2561.467648  	-0.002724 
2563.396464  	-0.002384 
2565.325280  	-0.002267 
2567.254096  	-0.002356 
2569.182912  	-0.002479 
2571.111728  	-0.002360 
2573.040544  	-0.002378 
2574.969360  	-0.002431 
2576.898176  	-0.002157 
2578.826992  	-0.001988 
2580.755808  	-0.002103 
2582.684624  	-0.002025 
2584.613440  	-0.001858 
2586.542256  	-0.001833 
2588.471072  	-0.001885 
2590.399888  	-0.001816 
2592.328704  	-0.001754 
2594.257520  	-0.001739 
2596.186336  	-0.001705 
2598.115152  	-0.001657 
2600.043968  	-0.001657 
2601.972784  	-0.001352 
2603.901600  	-0.001222 
2605.830416  	-0.001129 
2607.759232  	-0.001162 
2609.688048  	-0.001150 
2611.616864  	-0.001022 
2613.545680  	-0.000796 
2615.474496  	-0.000690 
2617.403312  	-0.000637 
2619.332128  	-0.000642 
2621.260944  	-0.000624 
2623.189760  	-0.000580 
2625.118576  	-0.000428 
2627.047392  	-0.000339 
2628.976208  	-0.000261 
2630.905024  	-0.000152 
2632.833840  	-0.000066 
2634.762656  	-0.000027 
2636.691472  	0.000016 
2638.620288  	0.000116 
2640.549104  	0.000288 
2642.477920  	0.000346 
2644.406736  	0.000469 
2646.335552  	0.000605 
2648.264368  	0.000718 
2650.193184  	0.000786 
2652.122000  	0.000868 
2654.050816  	0.001077 
2655.979632  	0.001152 
2657.908448  	0.001121 
2659.837264  	0.001251 
2661.766080  	0.001326 
2663.694896  	0.001383 
2665.623712  	0.001477 
2667.552528  	0.001714 
2669.481344  	0.001858 
2671.410160  	0.001902 
2673.338976  	0.002010 
2675.267792  	0.002121 
2677.196608  	0.002304 
2679.125424  	0.002411 
2681.054240  	0.002496 
2682.983056  	0.002600 
2684.911872  	0.002619 
2686.840688  	0.002748 
2688.769504  	0.002888 
2690.698320  	0.002891 
2692.627136  	0.002908 
2694.555952  	0.003017 
2696.484768  	0.003022 
2698.413584  	0.003036 
2700.342400  	0.003137 
2702.271216  	0.003343 
2704.200032  	0.003560 
2706.128848  	0.003605 
2708.057664  	0.003596 
2709.986480  	0.003664 
2711.915296  	0.003774 
2713.844112  	0.003884 
2715.772928  	0.004002 
2717.701744  	0.004189 
2719.630560  	0.004389 
2721.559376  	0.004470 
2723.488192  	0.004551 
2725.417008  	0.004743 
2727.345824  	0.004896 
2729.274640  	0.004937 
2731.203456  	0.005011 
2733.132272  	0.005226 
2735.061088  	0.005416 
2736.989904  	0.005503 
2738.918720  	0.005509 
2740.847536  	0.005583 
2742.776352  	0.005530 
2744.705168  	0.005540 
2746.633984  	0.005644 
2748.562800  	0.005750 
2750.491616  	0.005883 
2752.420432  	0.005997 
2754.349248  	0.005951 
2756.278064  	0.005869 
2758.206880  	0.005763 
2760.135696  	0.005743 
2762.064512  	0.005728 
2763.993328  	0.005776 
2765.922144  	0.005817 
2767.850960  	0.005831 
2769.779776  	0.005820 
2771.708592  	0.005802 
2773.637408  	0.005803 
2775.566224  	0.005887 
2777.495040  	0.005805 
2779.423856  	0.005802 
2781.352672  	0.005884 
2783.281488  	0.005867 
2785.210304  	0.005866 
2787.139120  	0.005849 
2789.067936  	0.005861 
2790.996752  	0.005892 
2792.925568  	0.005789 
2794.854384  	0.005811 
2796.783200  	0.005774 
2798.712016  	0.005608 
2800.640832  	0.005556 
2802.569648  	0.005650 
2804.498464  	0.005769 
2806.427280  	0.005700 
2808.356096  	0.005554 
2810.284912  	0.005657 
2812.213728  	0.005706 
2814.142544  	0.005560 
2816.071360  	0.005402 
2818.000176  	0.005258 
2819.928992  	0.005201 
2821.857808  	0.005153 
2823.786624  	0.004969 
2825.715440  	0.004848 
2827.644256  	0.004727 
2829.573072  	0.004651 
2831.501888  	0.004378 
2833.430704  	0.004047 
2835.359520  	0.003808 
2837.288336  	0.003551 
2839.217152  	0.003114 
2841.145968  	0.002763 
2843.074784  	0.002464 
2845.003600  	0.001992 
2846.932416  	0.001486 
2848.861232  	0.001127 
2850.790048  	0.000725 
2852.718864  	0.000220 
2854.647680  	-0.000167 
2856.576496  	-0.000717 
2858.505312  	-0.001357 
2860.434128  	-0.001933 
2862.362944  	-0.002668 
2864.291760  	-0.003552 
2866.220576  	-0.004197 
2868.149392  	-0.004477 
2870.078208  	-0.004743 
2872.007024  	-0.004830 
2873.935840  	-0.004732 
2875.864656  	-0.004882 
2877.793472  	-0.005218 
2879.722288  	-0.005536 
2881.651104  	-0.005984 
2883.579920  	-0.006220 
2885.508736  	-0.006041 
2887.437552  	-0.005762 
2889.366368  	-0.005732 
2891.295184  	-0.005970 
2893.224000  	-0.006222 
2895.152816  	-0.006267 
2897.081632  	-0.006688 
2899.010448  	-0.008360 
2900.939264  	-0.009713 
2902.868080  	-0.008402 
2904.796896  	-0.007188 
2906.725712  	-0.006728 
2908.654528  	-0.006134 
2910.583344  	-0.005717 
2912.512160  	-0.005205 
2914.440976  	-0.004190 
2916.369792  	-0.003424 
2918.298608  	-0.002967 
2920.227424  	-0.002514 
2922.156240  	-0.001879 
2924.085056  	-0.001101 
2926.013872  	-0.000190 
2927.942688  	0.000776 
2929.871504  	0.001629 
2931.800320  	0.002482 
2933.729136  	0.003211 
2935.657952  	0.003729 
2937.586768  	0.004429 
2939.515584  	0.005059 
2941.444400  	0.005347 
2943.373216  	0.005413 
2945.302032  	0.005665 
2947.230848  	0.005853 
2949.159664  	0.005567 
2951.088480  	0.004863 
2953.017296  	0.004250 
2954.946112  	0.003672 
2956.874928  	0.002968 
2958.803744  	0.002265 
2960.732560  	0.001802 
2962.661376  	0.001219 
2964.590192  	0.000298 
2966.519008  	-0.000902 
2968.447824  	-0.001928 
2970.376640  	-0.002754 
2972.305456  	-0.003244 
2974.234272  	-0.003047 
2976.163088  	-0.002750 
2978.091904  	-0.002755 
2980.020720  	-0.002751 
2981.949536  	-0.002530 
2983.878352  	-0.002622 
2985.807168  	-0.003549 
2987.735984  	-0.004618 
2989.664800  	-0.004274 
2991.593616  	-0.001203 
2993.522432  	0.000899 
2995.451248  	0.001459 
2997.380064  	0.002201 
2999.308880  	0.003409 
3001.237696  	0.004830 
3003.166512  	0.006317 
3005.095328  	0.007668 
3007.024144  	0.008995 
3008.952960  	0.010546 
3010.881776  	0.012107 
3012.810592  	0.013455 
3014.739408  	0.014723 
3016.668224  	0.015842 
3018.597040  	0.017054 
3020.525856  	0.018442 
3022.454672  	0.019552 
3024.383488  	0.020489 
3026.312304  	0.021425 
3028.241120  	0.022442 
3030.169936  	0.023343 
3032.098752  	0.024196 
3034.027568  	0.025046 
3035.956384  	0.025904 
3037.885200  	0.026841 
3039.814016  	0.027451 
3041.742832  	0.028005 
3043.671648  	0.028544 
3045.600464  	0.029143 
3047.529280  	0.029580 
3049.458096  	0.030081 
3051.386912  	0.030788 
3053.315728  	0.031470 
3055.244544  	0.032034 
3057.173360  	0.032575 
3059.102176  	0.033121 
3061.030992  	0.033799 
3062.959808  	0.034509 
3064.888624  	0.035044 
3066.817440  	0.035526 
3068.746256  	0.036307 
3070.675072  	0.037147 
3072.603888  	0.037826 
3074.532704  	0.038492 
3076.461520  	0.039335 
3078.390336  	0.040098 
3080.319152  	0.040736 
3082.247968  	0.041515 
3084.176784  	0.042198 
3086.105600  	0.042883 
3088.034416  	0.043601 
3089.963232  	0.044428 
3091.892048  	0.045061 
3093.820864  	0.045731 
3095.749680  	0.046517 
3097.678496  	0.047421 
3099.607312  	0.048158 
3101.536128  	0.048899 
3103.464944  	0.049838 
3105.393760  	0.050484 
3107.322576  	0.051089 
3109.251392  	0.051850 
3111.180208  	0.052516 
3113.109024  	0.053220 
3115.037840  	0.053983 
3116.966656  	0.054778 
3118.895472  	0.055442 
3120.824288  	0.056060 
3122.753104  	0.056648 
3124.681920  	0.057144 
3126.610736  	0.057662 
3128.539552  	0.058395 
3130.468368  	0.059138 
3132.397184  	0.059720 
3134.326000  	0.060244 
3136.254816  	0.060872 
3138.183632  	0.061570 
3140.112448  	0.062208 
3142.041264  	0.062697 
3143.970080  	0.063200 
3145.898896  	0.063829 
3147.827712  	0.064444 
3149.756528  	0.064893 
3151.685344  	0.065449 
3153.614160  	0.066315 
3155.542976  	0.067119 
3157.471792  	0.067693 
3159.400608  	0.068320 
3161.329424  	0.068859 
3163.258240  	0.069298 
3165.187056  	0.069847 
3167.115872  	0.070503 
3169.044688  	0.070952 
3170.973504  	0.071274 
3172.902320  	0.071666 
3174.831136  	0.072156 
3176.759952  	0.072666 
3178.688768  	0.072937 
3180.617584  	0.073374 
3182.546400  	0.073806 
3184.475216  	0.074012 
3186.404032  	0.074163 
3188.332848  	0.074521 
3190.261664  	0.074814 
3192.190480  	0.074887 
3194.119296  	0.074923 
3196.048112  	0.075204 
3197.976928  	0.075192 
3199.905744  	0.075138 
3201.834560  	0.075145 
3203.763376  	0.075090 
3205.692192  	0.075037 
3207.621008  	0.074947 
3209.549824  	0.074770 
3211.478640  	0.074833 
3213.407456  	0.074883 
3215.336272  	0.074816 
3217.265088  	0.074641 
3219.193904  	0.074423 
3221.122720  	0.074353 
3223.051536  	0.074175 
3224.980352  	0.074080 
3226.909168  	0.074003 
3228.837984  	0.073774 
3230.766800  	0.073563 
3232.695616  	0.073517 
3234.624432  	0.073491 
3236.553248  	0.073535 
3238.482064  	0.073583 
3240.410880  	0.073600 
3242.339696  	0.073656 
3244.268512  	0.073371 
3246.197328  	0.073431 
3248.126144  	0.073909 
3250.054960  	0.074144 
3251.983776  	0.074363 
3253.912592  	0.074772 
3255.841408  	0.074900 
3257.770224  	0.075001 
3259.699040  	0.075288 
3261.627856  	0.075623 
3263.556672  	0.075762 
3265.485488  	0.075963 
3267.414304  	0.076233 
3269.343120  	0.076510 
3271.271936  	0.076799 
3273.200752  	0.076886 
3275.129568  	0.077025 
3277.058384  	0.077322 
3278.987200  	0.077624 
3280.916016  	0.077927 
3282.844832  	0.078067 
3284.773648  	0.078073 
3286.702464  	0.078345 
3288.631280  	0.078699 
3290.560096  	0.078972 
3292.488912  	0.079420 
3294.417728  	0.079819 
3296.346544  	0.080144 
3298.275360  	0.080328 
3300.204176  	0.080561 
3302.132992  	0.080877 
3304.061808  	0.081231 
3305.990624  	0.081774 
3307.919440  	0.082234 
3309.848256  	0.082430 
3311.777072  	0.082641 
3313.705888  	0.083005 
3315.634704  	0.083563 
3317.563520  	0.083936 
3319.492336  	0.084134 
3321.421152  	0.084220 
3323.349968  	0.084488 
3325.278784  	0.084775 
3327.207600  	0.085073 
3329.136416  	0.085113 
3331.065232  	0.085200 
3332.994048  	0.085444 
3334.922864  	0.085578 
3336.851680  	0.085636 
3338.780496  	0.085523 
3340.709312  	0.085618 
3342.638128  	0.085653 
3344.566944  	0.085268 
3346.495760  	0.085031 
3348.424576  	0.084862 
3350.353392  	0.084718 
3352.282208  	0.084565 
3354.211024  	0.084191 
3356.139840  	0.083805 
3358.068656  	0.083483 
3359.997472  	0.083265 
3361.926288  	0.082906 
3363.855104  	0.082573 
3365.783920  	0.082283 
3367.712736  	0.081877 
3369.641552  	0.081532 
3371.570368  	0.081191 
3373.499184  	0.080956 
3375.428000  	0.080542 
3377.356816  	0.080029 
3379.285632  	0.079795 
3381.214448  	0.079553 
3383.143264  	0.079289 
3385.072080  	0.078996 
3387.000896  	0.078451 
3388.929712  	0.078064 
3390.858528  	0.077794 
3392.787344  	0.077416 
3394.716160  	0.077081 
3396.644976  	0.076928 
3398.573792  	0.076535 
3400.502608  	0.076149 
3402.431424  	0.075765 
3404.360240  	0.075188 
3406.289056  	0.074417 
3408.217872  	0.073928 
3410.146688  	0.073466 
3412.075504  	0.073081 
3414.004320  	0.072785 
3415.933136  	0.072477 
3417.861952  	0.071889 
3419.790768  	0.071286 
3421.719584  	0.070851 
3423.648400  	0.070451 
3425.577216  	0.069745 
3427.506032  	0.069116 
3429.434848  	0.068724 
3431.363664  	0.068323 
3433.292480  	0.067766 
3435.221296  	0.067199 
3437.150112  	0.066884 
3439.078928  	0.066542 
3441.007744  	0.065914 
3442.936560  	0.065467 
3444.865376  	0.065052 
3446.794192  	0.064086 
3448.723008  	0.063244 
3450.651824  	0.062825 
3452.580640  	0.062334 
3454.509456  	0.061888 
3456.438272  	0.061262 
3458.367088  	0.060476 
3460.295904  	0.060016 
3462.224720  	0.059313 
3464.153536  	0.058338 
3466.082352  	0.057641 
3468.011168  	0.056765 
3469.939984  	0.056010 
3471.868800  	0.055333 
3473.797616  	0.054512 
3475.726432  	0.053741 
3477.655248  	0.053185 
3479.584064  	0.052906 
3481.512880  	0.052135 
3483.441696  	0.050942 
3485.370512  	0.050259 
3487.299328  	0.049338 
3489.228144  	0.048461 
3491.156960  	0.047760 
3493.085776  	0.047281 
3495.014592  	0.046553 
3496.943408  	0.045763 
3498.872224  	0.045285 
3500.801040  	0.045149 
3502.729856  	0.044413 
3504.658672  	0.043222 
3506.587488  	0.042821 
3508.516304  	0.042540 
3510.445120  	0.041694 
3512.373936  	0.040802 
3514.302752  	0.040124 
3516.231568  	0.039764 
3518.160384  	0.039330 
3520.089200  	0.038760 
3522.018016  	0.038515 
3523.946832  	0.038257 
3525.875648  	0.037206 
3527.804464  	0.035938 
3529.733280  	0.035244 
3531.662096  	0.034747 
3533.590912  	0.034260 
3535.519728  	0.033982 
3537.448544  	0.033449 
3539.377360  	0.032587 
3541.306176  	0.031990 
3543.234992  	0.031861 
3545.163808  	0.031975 
3547.092624  	0.031007 
3549.021440  	0.029569 
3550.950256  	0.029070 
3552.879072  	0.028444 
3554.807888  	0.027788 
3556.736704  	0.027321 
3558.665520  	0.027181 
3560.594336  	0.026837 
3562.523152  	0.025878 
3564.451968  	0.025682 
3566.380784  	0.025769 
3568.309600  	0.024094 
3570.238416  	0.023049 
3572.167232  	0.022604 
3574.096048  	0.021747 
3576.024864  	0.020866 
3577.953680  	0.020360 
3579.882496  	0.019836 
3581.811312  	0.019355 
3583.740128  	0.019003 
3585.668944  	0.019057 
3587.597760  	0.017750 
3589.526576  	0.016120 
3591.455392  	0.015651 
3593.384208  	0.015332 
3595.313024  	0.014552 
3597.241840  	0.013309 
3599.170656  	0.011925 
3601.099472  	0.010971 
3603.028288  	0.010878 
3604.957104  	0.010804 
3606.885920  	0.009977 
3608.814736  	0.008690 
3610.743552  	0.008182 
3612.672368  	0.007239 
3614.601184  	0.006230 
3616.530000  	0.006176 
3618.458816  	0.004360 
3620.387632  	0.002757 
3622.316448  	0.003105 
3624.245264  	0.003134 
3626.174080  	0.002750 
3628.102896  	0.000139 
3630.031712  	-0.003107 
3631.960528  	-0.001638 
3633.889344  	-0.001936 
3635.818160  	-0.002896 
3637.746976  	-0.003704 
3639.675792  	-0.004072 
3641.604608  	-0.004253 
3643.533424  	-0.004506 
3645.462240  	-0.005280 
3647.391056  	-0.008117 
3649.319872  	-0.012356 
3651.248688  	-0.013662 
3653.177504  	-0.011287 
3655.106320  	-0.011612 
3657.035136  	-0.013969 
3658.963952  	-0.013828 
3660.892768  	-0.013741 
3662.821584  	-0.013910 
3664.750400  	-0.013922 
3666.679216  	-0.014182 
3668.608032  	-0.016209 
3670.536848  	-0.018883 
3672.465664  	-0.017116 
3674.394480  	-0.018307 
3676.323296  	-0.022096 
3678.252112  	-0.018624 
3680.180928  	-0.016906 
3682.109744  	-0.016401 
3684.038560  	-0.016412 
3685.967376  	-0.016353 
3687.896192  	-0.018616 
3689.825008  	-0.021148 
3691.753824  	-0.019769 
3693.682640  	-0.017451 
3695.611456  	-0.016273 
3697.540272  	-0.015489 
3699.469088  	-0.015082 
3701.397904  	-0.015906 
3703.326720  	-0.015527 
3705.255536  	-0.014122 
3707.184352  	-0.013758 
3709.113168  	-0.015204 
3711.041984  	-0.017179 
3712.970800  	-0.016127 
3714.899616  	-0.013576 
3716.828432  	-0.012860 
3718.757248  	-0.013007 
3720.686064  	-0.013369 
3722.614880  	-0.013881 
3724.543696  	-0.013458 
3726.472512  	-0.013537 
3728.401328  	-0.013513 
3730.330144  	-0.013927 
3732.258960  	-0.015584 
3734.187776  	-0.015346 
3736.116592  	-0.015926 
3738.045408  	-0.015557 
3739.974224  	-0.014009 
3741.903040  	-0.013197 
3743.831856  	-0.015054 
3745.760672  	-0.016806 
3747.689488  	-0.015424 
3749.618304  	-0.017694 
3751.547120  	-0.019232 
3753.475936  	-0.016781 
3755.404752  	-0.014393 
3757.333568  	-0.014066 
3759.262384  	-0.014845 
3761.191200  	-0.014627 
3763.120016  	-0.012949 
3765.048832  	-0.013298 
3766.977648  	-0.013459 
3768.906464  	-0.014300 
3770.835280  	-0.015009 
3772.764096  	-0.013530 
3774.692912  	-0.012710 
3776.621728  	-0.012638 
3778.550544  	-0.013964 
3780.479360  	-0.014965 
3782.408176  	-0.013585 
3784.336992  	-0.013583 
3786.265808  	-0.013471 
3788.194624  	-0.013235 
3790.123440  	-0.013222 
3792.052256  	-0.013062 
3793.981072  	-0.012881 
3795.909888  	-0.014075 
3797.838704  	-0.014310 
3799.767520  	-0.014725 
3801.696336  	-0.017937 
3803.625152  	-0.016082 
3805.553968  	-0.014860 
3807.482784  	-0.016026 
3809.411600  	-0.014172 
3811.340416  	-0.013028 
3813.269232  	-0.012834 
3815.198048  	-0.014934 
3817.126864  	-0.016191 
3819.055680  	-0.015122 
3820.984496  	-0.017967 
3822.913312  	-0.016646 
3824.842128  	-0.014043 
3826.770944  	-0.014343 
3828.699760  	-0.013884 
3830.628576  	-0.014139 
3832.557392  	-0.014832 
3834.486208  	-0.014743 
3836.415024  	-0.015648 
3838.343840  	-0.016895 
3840.272656  	-0.016317 
3842.201472  	-0.015139 
3844.130288  	-0.014757 
3846.059104  	-0.013602 
3847.987920  	-0.012722 
3849.916736  	-0.012713 
3851.845552  	-0.014826 
3853.774368  	-0.019593 
3855.703184  	-0.017072 
3857.632000  	-0.014323 
3859.560816  	-0.013172 
3861.489632  	-0.013235 
3863.418448  	-0.014104 
3865.347264  	-0.014471 
3867.276080  	-0.013297 
3869.204896  	-0.014425 
3871.133712  	-0.014894 
3873.062528  	-0.014106 
3874.991344  	-0.014495 
3876.920160  	-0.012891 
3878.848976  	-0.012393 
3880.777792  	-0.013142 
3882.706608  	-0.012589 
3884.635424  	-0.013037 
3886.564240  	-0.014191 
3888.493056  	-0.013148 
3890.421872  	-0.013477 
3892.350688  	-0.014452 
3894.279504  	-0.013286 
3896.208320  	-0.012287 
3898.137136  	-0.012164 
3900.065952  	-0.012399 
3901.994768  	-0.012483 
3903.923584  	-0.013414 
3905.852400  	-0.013597 
3907.781216  	-0.012920 
3909.710032  	-0.012721 
3911.638848  	-0.012832 
3913.567664  	-0.012526 
3915.496480  	-0.011884 
3917.425296  	-0.012099 
3919.354112  	-0.012620 
3921.282928  	-0.012590 
3923.211744  	-0.012119 
3925.140560  	-0.012128 
3927.069376  	-0.012335 
3928.998192  	-0.012366 
3930.927008  	-0.011956 
3932.855824  	-0.011744 
3934.784640  	-0.012130 
3936.713456  	-0.012313 
3938.642272  	-0.012052 
3940.571088  	-0.011740 
3942.499904  	-0.011777 
3944.428720  	-0.012168 
3946.357536  	-0.011876 
3948.286352  	-0.011609 
3950.215168  	-0.012156 
3952.143984  	-0.012653 
3954.072800  	-0.012662 
3956.001616  	-0.012381 
3957.930432  	-0.012307 
3959.859248  	-0.012246 
3961.788064  	-0.012297 
3963.716880  	-0.012718 
3965.645696  	-0.012925 
3967.574512  	-0.012685 
3969.503328  	-0.012404 
3971.432144  	-0.012409 
3973.360960  	-0.012437 
3975.289776  	-0.012416 
3977.218592  	-0.012557 
3979.147408  	-0.012634 
3981.076224  	-0.012607 
3983.005040  	-0.012524 
3984.933856  	-0.012473 
3986.862672  	-0.012647 
3988.791488  	-0.012562 
3990.720304  	-0.012295 
3992.649120  	-0.012323 
3994.577936  	-0.012523 
3996.506752  	-0.012555 
3998.435568  	-0.012577 
4000.364384  	-0.012587 