##TITLE=No Description
##DATA TYPE=INFRARED SPECTRUM
##XUNITS=1/CM
##YUNITS=Abs
399.264912  	0.617686 
401.193728  	0.615628 
403.122544  	0.636480 
405.051360  	0.618694 
406.980176  	0.601640 
408.908992  	0.588400 
410.837808  	0.595555 
412.766624  	0.579395 
414.695440  	0.573805 
416.624256  	0.573232 
418.553072  	0.586607 
420.481888  	0.581959 
422.410704  	0.578333 
424.339520  	0.572806 
426.268336  	0.567983 
428.197152  	0.565772 
430.125968  	0.563745 
432.054784  	0.552047 
433.983600  	0.554210 
435.912416  	0.550585 
437.841232  	0.545885 
439.770048  	0.539648 
441.698864  	0.540554 
443.627680  	0.537898 
445.556496  	0.540688 
447.485312  	0.540665 
449.414128  	0.540534 
451.342944  	0.537287 
453.271760  	0.535640 
455.200576  	0.531777 
457.129392  	0.541279 
459.058208  	0.544863 
460.987024  	0.544945 
462.915840  	0.540418 
464.844656  	0.541251 
466.773472  	0.537010 
468.702288  	0.536860 
470.631104  	0.535638 
472.559920  	0.537736 
474.488736  	0.534034 
476.417552  	0.531196 
478.346368  	0.526089 
480.275184  	0.526416 
482.204000  	0.527010 
484.132816  	0.529081 
486.061632  	0.528089 
487.990448  	0.531746 
489.919264  	0.527703 
491.848080  	0.527731 
493.776896  	0.530612 
495.705712  	0.529897 
497.634528  	0.523932 
499.563344  	0.521485 
501.492160  	0.515990 
503.420976  	0.515268 
505.349792  	0.515687 
507.278608  	0.520304 
509.207424  	0.522129 
511.136240  	0.522027 
513.065056  	0.519462 
514.993872  	0.522811 
516.922688  	0.524378 
518.851504  	0.527208 
520.780320  	0.527170 
522.709136  	0.527050 
524.637952  	0.524176 
526.566768  	0.523416 
528.495584  	0.521097 
530.424400  	0.519556 
532.353216  	0.514620 
534.282032  	0.512164 
536.210848  	0.507323 
538.139664  	0.499408 
540.068480  	0.490944 
541.997296  	0.485903 
543.926112  	0.482066 
545.854928  	0.479235 
547.783744  	0.474124 
549.712560  	0.470617 
551.641376  	0.466363 
553.570192  	0.462462 
555.499008  	0.457410 
557.427824  	0.454278 
559.356640  	0.450363 
561.285456  	0.446637 
563.214272  	0.442405 
565.143088  	0.438858 
567.071904  	0.435226 
569.000720  	0.432895 
570.929536  	0.429311 
572.858352  	0.425947 
574.787168  	0.423693 
576.715984  	0.421299 
578.644800  	0.416357 
580.573616  	0.412593 
582.502432  	0.408005 
584.431248  	0.404328 
586.360064  	0.400842 
588.288880  	0.398000 
590.217696  	0.395530 
592.146512  	0.393356 
594.075328  	0.390641 
596.004144  	0.389483 
597.932960  	0.387601 
599.861776  	0.385776 
601.790592  	0.383140 
603.719408  	0.381097 
605.648224  	0.379914 
607.577040  	0.378787 
609.505856  	0.376663 
611.434672  	0.375357 
613.363488  	0.373239 
615.292304  	0.371944 
617.221120  	0.370604 
619.149936  	0.369343 
621.078752  	0.367888 
623.007568  	0.367095 
624.936384  	0.365544 
626.865200  	0.363664 
628.794016  	0.362689 
630.722832  	0.362877 
632.651648  	0.362635 
634.580464  	0.362632 
636.509280  	0.362584 
638.438096  	0.362976 
640.366912  	0.362348 
642.295728  	0.360766 
644.224544  	0.358010 
646.153360  	0.355169 
648.082176  	0.351273 
650.010992  	0.346998 
651.939808  	0.342640 
653.868624  	0.338808 
655.797440  	0.334814 
657.726256  	0.331153 
659.655072  	0.326952 
661.583888  	0.322150 
663.512704  	0.317785 
665.441520  	0.315017 
667.370336  	0.309556 
669.299152  	0.302809 
671.227968  	0.300463 
673.156784  	0.297678 
675.085600  	0.295124 
677.014416  	0.292411 
678.943232  	0.290603 
680.872048  	0.289343 
682.800864  	0.287358 
684.729680  	0.285670 
686.658496  	0.284254 
688.587312  	0.283164 
690.516128  	0.282225 
692.444944  	0.281200 
694.373760  	0.279617 
696.302576  	0.277421 
698.231392  	0.275026 
700.160208  	0.272532 
702.089024  	0.270471 
704.017840  	0.268344 
705.946656  	0.265628 
707.875472  	0.263373 
709.804288  	0.261090 
711.733104  	0.258964 
713.661920  	0.257062 
715.590736  	0.255746 
717.519552  	0.255399 
719.448368  	0.256097 
721.377184  	0.256723 
723.306000  	0.257374 
725.234816  	0.257935 
727.163632  	0.257589 
729.092448  	0.255215 
731.021264  	0.251791 
732.950080  	0.248643 
734.878896  	0.245443 
736.807712  	0.242116 
738.736528  	0.239461 
740.665344  	0.237134 
742.594160  	0.235275 
744.522976  	0.233890 
746.451792  	0.232703 
748.380608  	0.231274 
750.309424  	0.229638 
752.238240  	0.228302 
754.167056  	0.227618 
756.095872  	0.226758 
758.024688  	0.226084 
759.953504  	0.225845 
761.882320  	0.226703 
763.811136  	0.227452 
765.739952  	0.226806 
767.668768  	0.224686 
769.597584  	0.222148 
771.526400  	0.220903 
773.455216  	0.222252 
775.384032  	0.226251 
777.312848  	0.232116 
779.241664  	0.236979 
781.170480  	0.237798 
783.099296  	0.234016 
785.028112  	0.228127 
786.956928  	0.221956 
788.885744  	0.216726 
790.814560  	0.212816 
792.743376  	0.210265 
794.672192  	0.208971 
796.601008  	0.208313 
798.529824  	0.205731 
800.458640  	0.200970 
802.387456  	0.197291 
804.316272  	0.195178 
806.245088  	0.193870 
808.173904  	0.193379 
810.102720  	0.193329 
812.031536  	0.193293 
813.960352  	0.193739 
815.889168  	0.194226 
817.817984  	0.194407 
819.746800  	0.195043 
821.675616  	0.195520 
823.604432  	0.195383 
825.533248  	0.195124 
827.462064  	0.194658 
829.390880  	0.193694 
831.319696  	0.192362 
833.248512  	0.190484 
835.177328  	0.188324 
837.106144  	0.185575 
839.034960  	0.182344 
840.963776  	0.178842 
842.892592  	0.174773 
844.821408  	0.170715 
846.750224  	0.167561 
848.679040  	0.164999 
850.607856  	0.163012 
852.536672  	0.161487 
854.465488  	0.160180 
856.394304  	0.159100 
858.323120  	0.157659 
860.251936  	0.155578 
862.180752  	0.153274 
864.109568  	0.150689 
866.038384  	0.148374 
867.967200  	0.146043 
869.896016  	0.143765 
871.824832  	0.142794 
873.753648  	0.142554 
875.682464  	0.143204 
877.611280  	0.144077 
879.540096  	0.145197 
881.468912  	0.147310 
883.397728  	0.148809 
885.326544  	0.149966 
887.255360  	0.150574 
889.184176  	0.149595 
891.112992  	0.147269 
893.041808  	0.145297 
894.970624  	0.142956 
896.899440  	0.139499 
898.828256  	0.134972 
900.757072  	0.130500 
902.685888  	0.127009 
904.614704  	0.125040 
906.543520  	0.125212 
908.472336  	0.126758 
910.401152  	0.129272 
912.329968  	0.132406 
914.258784  	0.135896 
916.187600  	0.139136 
918.116416  	0.141911 
920.045232  	0.143873 
921.974048  	0.145009 
923.902864  	0.145589 
925.831680  	0.145501 
927.760496  	0.145503 
929.689312  	0.146070 
931.618128  	0.147115 
933.546944  	0.147777 
935.475760  	0.148113 
937.404576  	0.148215 
939.333392  	0.148000 
941.262208  	0.148200 
943.191024  	0.150062 
945.119840  	0.154563 
947.048656  	0.161495 
948.977472  	0.170554 
950.906288  	0.181540 
952.835104  	0.193663 
954.763920  	0.206162 
956.692736  	0.218050 
958.621552  	0.228051 
960.550368  	0.234823 
962.479184  	0.237959 
964.408000  	0.236654 
966.336816  	0.231029 
968.265632  	0.221494 
970.194448  	0.209043 
972.123264  	0.194622 
974.052080  	0.179651 
975.980896  	0.165245 
977.909712  	0.151912 
979.838528  	0.140142 
981.767344  	0.130152 
983.696160  	0.122448 
985.624976  	0.117659 
987.553792  	0.116011 
989.482608  	0.117206 
991.411424  	0.120835 
993.340240  	0.126474 
995.269056  	0.133417 
997.197872  	0.140780 
999.126688  	0.148514 
1001.055504  	0.156420 
1002.984320  	0.164337 
1004.913136  	0.172159 
1006.841952  	0.179373 
1008.770768  	0.185428 
1010.699584  	0.189965 
1012.628400  	0.192709 
1014.557216  	0.193589 
1016.486032  	0.193629 
1018.414848  	0.193503 
1020.343664  	0.193110 
1022.272480  	0.192257 
1024.201296  	0.190846 
1026.130112  	0.187521 
1028.058928  	0.186546 
1029.987744  	0.189890 
1031.916560  	0.192407 
1033.845376  	0.194485 
1035.774192  	0.196674 
1037.703008  	0.200362 
1039.631824  	0.207949 
1041.560640  	0.218532 
1043.489456  	0.232571 
1045.418272  	0.249210 
1047.347088  	0.267337 
1049.275904  	0.284087 
1051.204720  	0.296935 
1053.133536  	0.304328 
1055.062352  	0.307020 
1056.991168  	0.306004 
1058.919984  	0.306358 
1060.848800  	0.306688 
1062.777616  	0.303618 
1064.706432  	0.296632 
1066.635248  	0.290729 
1068.564064  	0.287670 
1070.492880  	0.281480 
1072.421696  	0.273041 
1074.350512  	0.267618 
1076.279328  	0.265987 
1078.208144  	0.268605 
1080.136960  	0.274215 
1082.065776  	0.280481 
1083.994592  	0.284068 
1085.923408  	0.284405 
1087.852224  	0.280958 
1089.781040  	0.275005 
1091.709856  	0.267517 
1093.638672  	0.257311 
1095.567488  	0.244303 
1097.496304  	0.230372 
1099.425120  	0.215973 
1101.353936  	0.201525 
1103.282752  	0.187381 
1105.211568  	0.174136 
1107.140384  	0.161239 
1109.069200  	0.148912 
1110.998016  	0.138039 
1112.926832  	0.128485 
1114.855648  	0.119516 
1116.784464  	0.110868 
1118.713280  	0.102827 
1120.642096  	0.095494 
1122.570912  	0.088614 
1124.499728  	0.082053 
1126.428544  	0.076165 
1128.357360  	0.070948 
1130.286176  	0.066553 
1132.214992  	0.063013 
1134.143808  	0.060170 
1136.072624  	0.057532 
1138.001440  	0.055350 
1139.930256  	0.052961 
1141.859072  	0.050565 
1143.787888  	0.047996 
1145.716704  	0.045640 
1147.645520  	0.043372 
1149.574336  	0.041459 
1151.503152  	0.039857 
1153.431968  	0.039421 
1155.360784  	0.039768 
1157.289600  	0.040712 
1159.218416  	0.042242 
1161.147232  	0.044550 
1163.076048  	0.046995 
1165.004864  	0.049648 
1166.933680  	0.052089 
1168.862496  	0.054883 
1170.791312  	0.057792 
1172.720128  	0.061108 
1174.648944  	0.064291 
1176.577760  	0.067629 
1178.506576  	0.070672 
1180.435392  	0.073934 
1182.364208  	0.077071 
1184.293024  	0.080613 
1186.221840  	0.084453 
1188.150656  	0.088663 
1190.079472  	0.093399 
1192.008288  	0.099294 
1193.937104  	0.106567 
1195.865920  	0.115158 
1197.794736  	0.124660 
1199.723552  	0.134928 
1201.652368  	0.145379 
1203.581184  	0.155824 
1205.510000  	0.166075 
1207.438816  	0.175936 
1209.367632  	0.185303 
1211.296448  	0.193231 
1213.225264  	0.199771 
1215.154080  	0.204888 
1217.082896  	0.208587 
1219.011712  	0.210677 
1220.940528  	0.212346 
1222.869344  	0.213098 
1224.798160  	0.213015 
1226.726976  	0.212280 
1228.655792  	0.210954 
1230.584608  	0.208804 
1232.513424  	0.206154 
1234.442240  	0.202811 
1236.371056  	0.198614 
1238.299872  	0.193071 
1240.228688  	0.185239 
1242.157504  	0.177400 
1244.086320  	0.170545 
1246.015136  	0.162135 
1247.943952  	0.152986 
1249.872768  	0.143843 
1251.801584  	0.135718 
1253.730400  	0.127818 
1255.659216  	0.120173 
1257.588032  	0.112840 
1259.516848  	0.105939 
1261.445664  	0.099628 
1263.374480  	0.093790 
1265.303296  	0.088792 
1267.232112  	0.084890 
1269.160928  	0.081917 
1271.089744  	0.079556 
1273.018560  	0.078176 
1274.947376  	0.077750 
1276.876192  	0.077818 
1278.805008  	0.077501 
1280.733824  	0.076353 
1282.662640  	0.074155 
1284.591456  	0.071491 
1286.520272  	0.069268 
1288.449088  	0.067820 
1290.377904  	0.067036 
1292.306720  	0.067245 
1294.235536  	0.067399 
1296.164352  	0.066463 
1298.093168  	0.063953 
1300.021984  	0.060778 
1301.950800  	0.057359 
1303.879616  	0.054094 
1305.808432  	0.050648 
1307.737248  	0.047245 
1309.666064  	0.043962 
1311.594880  	0.041574 
1313.523696  	0.039682 
1315.452512  	0.038305 
1317.381328  	0.037515 
1319.310144  	0.037344 
1321.238960  	0.037475 
1323.167776  	0.038261 
1325.096592  	0.039242 
1327.025408  	0.039974 
1328.954224  	0.040039 
1330.883040  	0.039621 
1332.811856  	0.038696 
1334.740672  	0.038059 
1336.669488  	0.037893 
1338.598304  	0.038028 
1340.527120  	0.036655 
1342.455936  	0.035041 
1344.384752  	0.034650 
1346.313568  	0.034902 
1348.242384  	0.035563 
1350.171200  	0.036934 
1352.100016  	0.038649 
1354.028832  	0.040756 
1355.957648  	0.042781 
1357.886464  	0.045064 
1359.815280  	0.047602 
1361.744096  	0.050091 
1363.672912  	0.051550 
1365.601728  	0.052924 
1367.530544  	0.054514 
1369.459360  	0.055002 
1371.388176  	0.054757 
1373.316992  	0.053408 
1375.245808  	0.049955 
1377.174624  	0.047130 
1379.103440  	0.043930 
1381.032256  	0.040646 
1382.961072  	0.038253 
1384.889888  	0.037404 
1386.818704  	0.036628 
1388.747520  	0.034647 
1390.676336  	0.032249 
1392.605152  	0.028924 
1394.533968  	0.026804 
1396.462784  	0.029606 
1398.391600  	0.030907 
1400.320416  	0.030325 
1402.249232  	0.030743 
1404.178048  	0.031409 
1406.106864  	0.032054 
1408.035680  	0.034093 
1409.964496  	0.036821 
1411.893312  	0.039904 
1413.822128  	0.043076 
1415.750944  	0.046879 
1417.679760  	0.049336 
1419.608576  	0.048998 
1421.537392  	0.049445 
1423.466208  	0.049636 
1425.395024  	0.047779 
1427.323840  	0.046218 
1429.252656  	0.043520 
1431.181472  	0.041747 
1433.110288  	0.041675 
1435.039104  	0.042269 
1436.967920  	0.041613 
1438.896736  	0.042457 
1440.825552  	0.043736 
1442.754368  	0.044417 
1444.683184  	0.044637 
1446.612000  	0.044547 
1448.540816  	0.043447 
1450.469632  	0.044030 
1452.398448  	0.045006 
1454.327264  	0.045944 
1456.256080  	0.044880 
1458.184896  	0.042205 
1460.113712  	0.044020 
1462.042528  	0.045750 
1463.971344  	0.045446 
1465.900160  	0.045987 
1467.828976  	0.049060 
1469.757792  	0.052741 
1471.686608  	0.056056 
1473.615424  	0.062144 
1475.544240  	0.069349 
1477.473056  	0.075771 
1479.401872  	0.080406 
1481.330688  	0.083964 
1483.259504  	0.086185 
1485.188320  	0.087740 
1487.117136  	0.087387 
1489.045952  	0.086329 
1490.974768  	0.082869 
1492.903584  	0.080667 
1494.832400  	0.077097 
1496.761216  	0.069469 
1498.690032  	0.062848 
1500.618848  	0.058791 
1502.547664  	0.054896 
1504.476480  	0.050313 
1506.405296  	0.042598 
1508.334112  	0.039876 
1510.262928  	0.040402 
1512.191744  	0.038657 
1514.120560  	0.037638 
1516.049376  	0.036806 
1517.978192  	0.035940 
1519.907008  	0.037472 
1521.835824  	0.037775 
1523.764640  	0.042534 
1525.693456  	0.047278 
1527.622272  	0.049727 
1529.551088  	0.050716 
1531.479904  	0.050368 
1533.408720  	0.045814 
1535.337536  	0.042595 
1537.266352  	0.040628 
1539.195168  	0.031975 
1541.123984  	0.024224 
1543.052800  	0.027207 
1544.981616  	0.027940 
1546.910432  	0.027775 
1548.839248  	0.028332 
1550.768064  	0.028418 
1552.696880  	0.028342 
1554.625696  	0.028739 
1556.554512  	0.028739 
1558.483328  	0.025920 
1560.412144  	0.031112 
1562.340960  	0.039365 
1564.269776  	0.043845 
1566.198592  	0.049700 
1568.127408  	0.054221 
1570.056224  	0.059844 
1571.985040  	0.067985 
1573.913856  	0.073245 
1575.842672  	0.073887 
1577.771488  	0.076951 
1579.700304  	0.079449 
1581.629120  	0.079428 
1583.557936  	0.078792 
1585.486752  	0.079758 
1587.415568  	0.082432 
1589.344384  	0.087417 
1591.273200  	0.094068 
1593.202016  	0.102152 
1595.130832  	0.110524 
1597.059648  	0.119487 
1598.988464  	0.127096 
1600.917280  	0.133569 
1602.846096  	0.137703 
1604.774912  	0.140322 
1606.703728  	0.140311 
1608.632544  	0.138961 
1610.561360  	0.136570 
1612.490176  	0.135022 
1614.418992  	0.132562 
1616.347808  	0.128972 
1618.276624  	0.130176 
1620.205440  	0.135607 
1622.134256  	0.138750 
1624.063072  	0.144833 
1625.991888  	0.152867 
1627.920704  	0.161810 
1629.849520  	0.172678 
1631.778336  	0.183218 
1633.707152  	0.190322 
1635.635968  	0.197410 
1637.564784  	0.208596 
1639.493600  	0.217832 
1641.422416  	0.223471 
1643.351232  	0.227411 
1645.280048  	0.227051 
1647.208864  	0.224888 
1649.137680  	0.226554 
1651.066496  	0.227323 
1652.995312  	0.217542 
1654.924128  	0.216069 
1656.852944  	0.217858 
1658.781760  	0.215739 
1660.710576  	0.211375 
1662.639392  	0.205004 
1664.568208  	0.200469 
1666.497024  	0.197959 
1668.425840  	0.191375 
1670.354656  	0.183067 
1672.283472  	0.180064 
1674.212288  	0.176892 
1676.141104  	0.171559 
1678.069920  	0.171048 
1679.998736  	0.170049 
1681.927552  	0.168029 
1683.856368  	0.161823 
1685.785184  	0.161158 
1687.714000  	0.164076 
1689.642816  	0.163358 
1691.571632  	0.161644 
1693.500448  	0.160593 
1695.429264  	0.155608 
1697.358080  	0.151663 
1699.286896  	0.149127 
1701.215712  	0.142935 
1703.144528  	0.142766 
1705.073344  	0.138388 
1707.002160  	0.132141 
1708.930976  	0.127807 
1710.859792  	0.121470 
1712.788608  	0.114207 
1714.717424  	0.104872 
1716.646240  	0.092711 
1718.575056  	0.078344 
1720.503872  	0.070908 
1722.432688  	0.064334 
1724.361504  	0.054749 
1726.290320  	0.046873 
1728.219136  	0.040302 
1730.147952  	0.034350 
1732.076768  	0.029314 
1734.005584  	0.021934 
1735.934400  	0.017108 
1737.863216  	0.017316 
1739.792032  	0.013587 
1741.720848  	0.012577 
1743.649664  	0.012071 
1745.578480  	0.011193 
1747.507296  	0.009569 
1749.436112  	0.008634 
1751.364928  	0.007437 
1753.293744  	0.007113 
1755.222560  	0.006973 
1757.151376  	0.006165 
1759.080192  	0.005598 
1761.009008  	0.004920 
1762.937824  	0.003422 
1764.866640  	0.004102 
1766.795456  	0.004537 
1768.724272  	0.003961 
1770.653088  	0.001569 
1772.581904  	-0.001121 
1774.510720  	0.000294 
1776.439536  	0.002016 
1778.368352  	0.002208 
1780.297168  	0.001907 
1782.225984  	0.001474 
1784.154800  	0.001949 
1786.083616  	0.001264 
1788.012432  	0.001501 
1789.941248  	0.001691 
1791.870064  	0.000082 
1793.798880  	-0.001206 
1795.727696  	0.000510 
1797.656512  	0.000277 
1799.585328  	0.000030 
1801.514144  	0.000265 
1803.442960  	0.000353 
1805.371776  	-0.000171 
1807.300592  	0.000010 
1809.229408  	-0.000594 
1811.158224  	-0.001021 
1813.087040  	-0.001163 
1815.015856  	-0.000738 
1816.944672  	-0.000570 
1818.873488  	-0.000440 
1820.802304  	-0.000642 
1822.731120  	-0.000086 
1824.659936  	-0.000897 
1826.588752  	-0.001419 
1828.517568  	-0.002099 
1830.446384  	-0.002695 
1832.375200  	-0.001902 
1834.304016  	-0.001091 
1836.232832  	-0.001211 
1838.161648  	-0.000930 
1840.090464  	-0.000926 
1842.019280  	-0.000372 
1843.948096  	-0.001894 
1845.876912  	-0.001953 
1847.805728  	-0.001293 
1849.734544  	-0.001286 
1851.663360  	-0.001486 
1853.592176  	-0.001339 
1855.520992  	-0.001594 
1857.449808  	-0.001453 
1859.378624  	-0.001430 
1861.307440  	-0.001355 
1863.236256  	-0.001643 
1865.165072  	-0.001499 
1867.093888  	-0.002047 
1869.022704  	-0.002463 
1870.951520  	-0.002436 
1872.880336  	-0.001652 
1874.809152  	-0.001874 
1876.737968  	-0.001926 
1878.666784  	-0.002389 
1880.595600  	-0.001986 
1882.524416  	-0.002154 
1884.453232  	-0.002104 
1886.382048  	-0.002314 
1888.310864  	-0.001987 
1890.239680  	-0.002536 
1892.168496  	-0.002037 
1894.097312  	-0.001933 
1896.026128  	-0.001853 
1897.954944  	-0.002120 
1899.883760  	-0.001667 
1901.812576  	-0.002104 
1903.741392  	-0.002415 
1905.670208  	-0.002576 
1907.599024  	-0.001939 
1909.527840  	-0.002006 
1911.456656  	-0.001899 
1913.385472  	-0.002205 
1915.314288  	-0.001706 
1917.243104  	-0.002095 
1919.171920  	-0.002211 
1921.100736  	-0.002006 
1923.029552  	-0.001566 
1924.958368  	-0.002262 
1926.887184  	-0.002260 
1928.816000  	-0.002368 
1930.744816  	-0.002154 
1932.673632  	-0.002685 
1934.602448  	-0.002452 
1936.531264  	-0.002441 
1938.460080  	-0.001667 
1940.388896  	-0.001668 
1942.317712  	-0.002107 
1944.246528  	-0.003043 
1946.175344  	-0.001948 
1948.104160  	-0.002134 
1950.032976  	-0.002006 
1951.961792  	-0.002234 
1953.890608  	-0.001589 
1955.819424  	-0.002016 
1957.748240  	-0.002215 
1959.677056  	-0.003401 
1961.605872  	-0.002401 
1963.534688  	-0.002258 
1965.463504  	-0.001880 
1967.392320  	-0.002472 
1969.321136  	-0.001725 
1971.249952  	-0.001664 
1973.178768  	-0.000809 
1975.107584  	-0.002097 
1977.036400  	-0.001120 
1978.965216  	-0.000401 
1980.894032  	-0.000531 
1982.822848  	-0.001261 
1984.751664  	-0.001308 
1986.680480  	-0.002610 
1988.609296  	-0.002017 
1990.538112  	-0.002621 
1992.466928  	-0.001714 
1994.395744  	-0.001805 
1996.324560  	-0.001845 
1998.253376  	-0.002501 
2000.182192  	-0.002759 
2002.111008  	-0.003097 
2004.039824  	-0.002147 
2005.968640  	-0.002233 
2007.897456  	-0.001395 
2009.826272  	-0.002086 
2011.755088  	-0.001477 
2013.683904  	-0.001913 
2015.612720  	-0.001888 
2017.541536  	-0.002543 
2019.470352  	-0.001297 
2021.399168  	-0.001979 
2023.327984  	-0.001494 
2025.256800  	-0.000884 
2027.185616  	-0.000074 
2029.114432  	-0.000519 
2031.043248  	-0.000335 
2032.972064  	-0.001470 
2034.900880  	-0.000903 
2036.829696  	-0.001457 
2038.758512  	-0.000831 
2040.687328  	-0.001207 
2042.616144  	-0.001034 
2044.544960  	-0.001853 
2046.473776  	-0.001494 
2048.402592  	-0.001104 
2050.331408  	-0.001256 
2052.260224  	-0.002446 
2054.189040  	-0.002766 
2056.117856  	-0.003030 
2058.046672  	-0.002225 
2059.975488  	-0.002126 
2061.904304  	-0.002118 
2063.833120  	-0.002028 
2065.761936  	-0.001960 
2067.690752  	-0.002483 
2069.619568  	-0.001444 
2071.548384  	-0.001295 
2073.477200  	-0.001728 
2075.406016  	-0.001752 
2077.334832  	-0.001259 
2079.263648  	-0.001234 
2081.192464  	-0.001190 
2083.121280  	-0.001155 
2085.050096  	-0.000917 
2086.978912  	-0.001234 
2088.907728  	-0.001129 
2090.836544  	-0.001489 
2092.765360  	-0.001398 
2094.694176  	-0.001118 
2096.622992  	-0.000958 
2098.551808  	-0.001185 
2100.480624  	-0.000947 
2102.409440  	-0.001277 
2104.338256  	-0.001184 
2106.267072  	-0.000932 
2108.195888  	-0.000494 
2110.124704  	-0.000999 
2112.053520  	-0.001032 
2113.982336  	-0.001050 
2115.911152  	-0.000657 
2117.839968  	-0.000954 
2119.768784  	-0.001100 
2121.697600  	-0.001373 
2123.626416  	-0.001424 
2125.555232  	-0.001920 
2127.484048  	-0.001930 
2129.412864  	-0.002081 
2131.341680  	-0.002150 
2133.270496  	-0.002477 
2135.199312  	-0.001559 
2137.128128  	-0.000918 
2139.056944  	-0.000419 
2140.985760  	-0.000944 
2142.914576  	-0.000583 
2144.843392  	-0.000082 
2146.772208  	0.000062 
2148.701024  	-0.000896 
2150.629840  	0.000093 
2152.558656  	-0.000188 
2154.487472  	-0.000511 
2156.416288  	-0.000872 
2158.345104  	-0.000289 
2160.273920  	0.001010 
2162.202736  	0.002447 
2164.131552  	0.001900 
2166.060368  	0.001451 
2167.989184  	0.002146 
2169.918000  	0.002593 
2171.846816  	0.000444 
2173.775632  	0.000629 
2175.704448  	0.001339 
2177.633264  	0.000916 
2179.562080  	0.000164 
2181.490896  	0.000783 
2183.419712  	-0.000130 
2185.348528  	-0.000221 
2187.277344  	-0.000222 
2189.206160  	-0.000121 
2191.134976  	-0.000132 
2193.063792  	0.000325 
2194.992608  	-0.000056 
2196.921424  	-0.000166 
2198.850240  	-0.000446 
2200.779056  	-0.000922 
2202.707872  	-0.001409 
2204.636688  	-0.000438 
2206.565504  	0.000101 
2208.494320  	-0.000069 
2210.423136  	-0.001488 
2212.351952  	-0.001471 
2214.280768  	-0.000981 
2216.209584  	-0.000873 
2218.138400  	-0.001855 
2220.067216  	-0.001261 
2221.996032  	-0.001179 
2223.924848  	-0.000983 
2225.853664  	-0.000566 
2227.782480  	-0.000054 
2229.711296  	-0.000702 
2231.640112  	-0.001587 
2233.568928  	-0.001908 
2235.497744  	-0.001480 
2237.426560  	-0.001632 
2239.355376  	-0.001420 
2241.284192  	-0.001518 
2243.213008  	-0.001795 
2245.141824  	-0.001987 
2247.070640  	-0.001587 
2248.999456  	-0.001545 
2250.928272  	-0.001618 
2252.857088  	-0.001862 
2254.785904  	-0.001862 
2256.714720  	-0.002226 
2258.643536  	-0.002419 
2260.572352  	-0.002549 
2262.501168  	-0.002361 
2264.429984  	-0.002534 
2266.358800  	-0.002334 
2268.287616  	-0.002147 
2270.216432  	-0.001765 
2272.145248  	-0.001855 
2274.074064  	-0.002089 
2276.002880  	-0.002175 
2277.931696  	-0.001874 
2279.860512  	-0.001665 
2281.789328  	-0.001515 
2283.718144  	-0.001776 
2285.646960  	-0.001536 
2287.575776  	-0.001295 
2289.504592  	-0.001339 
2291.433408  	-0.001554 
2293.362224  	-0.001389 
2295.291040  	-0.001183 
2297.219856  	-0.000669 
2299.148672  	-0.000655 
2301.077488  	-0.000562 
2303.006304  	-0.000260 
2304.935120  	0.000133 
2306.863936  	0.000156 
2308.792752  	-0.000070 
2310.721568  	-0.000213 
2312.650384  	-0.000250 
2314.579200  	-0.000788 
2316.508016  	-0.001611 
2318.436832  	-0.002452 
2320.365648  	-0.003359 
2322.294464  	-0.004521 
2324.223280  	-0.006029 
2326.152096  	-0.008138 
2328.080912  	-0.009546 
2330.009728  	-0.011021 
2331.938544  	-0.012682 
2333.867360  	-0.013984 
2335.796176  	-0.014922 
2337.724992  	-0.015908 
2339.653808  	-0.015917 
2341.582624  	-0.015775 
2343.511440  	-0.014721 
2345.440256  	-0.012818 
2347.369072  	-0.009024 
2349.297888  	-0.006398 
2351.226704  	-0.008216 
2353.155520  	-0.012924 
2355.084336  	-0.016491 
2357.013152  	-0.019470 
2358.941968  	-0.021028 
2360.870784  	-0.021853 
2362.799600  	-0.020981 
2364.728416  	-0.019910 
2366.657232  	-0.017859 
2368.586048  	-0.015154 
2370.514864  	-0.012218 
2372.443680  	-0.009564 
2374.372496  	-0.006673 
2376.301312  	-0.004265 
2378.230128  	-0.002545 
2380.158944  	-0.001695 
2382.087760  	-0.001474 
2384.016576  	-0.001732 
2385.945392  	-0.002150 
2387.874208  	-0.002543 
2389.803024  	-0.002709 
2391.731840  	-0.002930 
2393.660656  	-0.002883 
2395.589472  	-0.002813 
2397.518288  	-0.002741 
2399.447104  	-0.002865 
2401.375920  	-0.002908 
2403.304736  	-0.003043 
2405.233552  	-0.002907 
2407.162368  	-0.003039 
2409.091184  	-0.003090 
2411.020000  	-0.003014 
2412.948816  	-0.002848 
2414.877632  	-0.002751 
2416.806448  	-0.002795 
2418.735264  	-0.002978 
2420.664080  	-0.003109 
2422.592896  	-0.003334 
2424.521712  	-0.003237 
2426.450528  	-0.003100 
2428.379344  	-0.002926 
2430.308160  	-0.002702 
2432.236976  	-0.002583 
2434.165792  	-0.002652 
2436.094608  	-0.002796 
2438.023424  	-0.002630 
2439.952240  	-0.002360 
2441.881056  	-0.002378 
2443.809872  	-0.002428 
2445.738688  	-0.002303 
2447.667504  	-0.002130 
2449.596320  	-0.002235 
2451.525136  	-0.002221 
2453.453952  	-0.002306 
2455.382768  	-0.002392 
2457.311584  	-0.002538 
2459.240400  	-0.002565 
2461.169216  	-0.002601 
2463.098032  	-0.002672 
2465.026848  	-0.002592 
2466.955664  	-0.002428 
2468.884480  	-0.002709 
2470.813296  	-0.002819 
2472.742112  	-0.002775 
2474.670928  	-0.002652 
2476.599744  	-0.002622 
2478.528560  	-0.002424 
2480.457376  	-0.002379 
2482.386192  	-0.002442 
2484.315008  	-0.002426 
2486.243824  	-0.002372 
2488.172640  	-0.002409 
2490.101456  	-0.002205 
2492.030272  	-0.002110 
2493.959088  	-0.002030 
2495.887904  	-0.001912 
2497.816720  	-0.001847 
2499.745536  	-0.001928 
2501.674352  	-0.001682 
2503.603168  	-0.001224 
2505.531984  	-0.001307 
2507.460800  	-0.001656 
2509.389616  	-0.001567 
2511.318432  	-0.001553 
2513.247248  	-0.001658 
2515.176064  	-0.001683 
2517.104880  	-0.001514 
2519.033696  	-0.001534 
2520.962512  	-0.001463 
2522.891328  	-0.001365 
2524.820144  	-0.001367 
2526.748960  	-0.001332 
2528.677776  	-0.001110 
2530.606592  	-0.001109 
2532.535408  	-0.001207 
2534.464224  	-0.001226 
2536.393040  	-0.001053 
2538.321856  	-0.000944 
2540.250672  	-0.000966 
2542.179488  	-0.000975 
2544.108304  	-0.000791 
2546.037120  	-0.000549 
2547.965936  	-0.000566 
2549.894752  	-0.000685 
2551.823568  	-0.000684 
2553.752384  	-0.000514 
2555.681200  	-0.000174 
2557.610016  	-0.000190 
2559.538832  	-0.000161 
2561.467648  	0.000086 
2563.396464  	0.000400 
2565.325280  	0.000463 
2567.254096  	0.000256 
2569.182912  	0.000161 
2571.111728  	0.000350 
2573.040544  	0.000196 
2574.969360  	0.000183 
2576.898176  	0.000548 
2578.826992  	0.000669 
2580.755808  	0.000742 
2582.684624  	0.000949 
2584.613440  	0.000998 
2586.542256  	0.000896 
2588.471072  	0.001032 
2590.399888  	0.001210 
2592.328704  	0.001143 
2594.257520  	0.001096 
2596.186336  	0.001278 
2598.115152  	0.001351 
2600.043968  	0.001184 
2601.972784  	0.001484 
2603.901600  	0.001738 
2605.830416  	0.001801 
2607.759232  	0.001914 
2609.688048  	0.001997 
2611.616864  	0.001964 
2613.545680  	0.002174 
2615.474496  	0.002436 
2617.403312  	0.002628 
2619.332128  	0.002681 
2621.260944  	0.002720 
2623.189760  	0.002620 
2625.118576  	0.002806 
2627.047392  	0.002956 
2628.976208  	0.003042 
2630.905024  	0.003156 
2632.833840  	0.003329 
2634.762656  	0.003512 
2636.691472  	0.003546 
2638.620288  	0.003533 
2640.549104  	0.003641 
2642.477920  	0.003757 
2644.406736  	0.004016 
2646.335552  	0.004274 
2648.264368  	0.004370 
2650.193184  	0.004287 
2652.122000  	0.004364 
2654.050816  	0.004594 
2655.979632  	0.004754 
2657.908448  	0.004899 
2659.837264  	0.005097 
2661.766080  	0.005150 
2663.694896  	0.005234 
2665.623712  	0.005339 
2667.552528  	0.005493 
2669.481344  	0.005721 
2671.410160  	0.005889 
2673.338976  	0.005977 
2675.267792  	0.006108 
2677.196608  	0.006242 
2679.125424  	0.006379 
2681.054240  	0.006568 
2682.983056  	0.006667 
2684.911872  	0.006693 
2686.840688  	0.006838 
2688.769504  	0.006971 
2690.698320  	0.007088 
2692.627136  	0.007165 
2694.555952  	0.007248 
2696.484768  	0.007312 
2698.413584  	0.007310 
2700.342400  	0.007401 
2702.271216  	0.007645 
2704.200032  	0.007772 
2706.128848  	0.007814 
2708.057664  	0.007904 
2709.986480  	0.008055 
2711.915296  	0.008273 
2713.844112  	0.008475 
2715.772928  	0.008529 
2717.701744  	0.008598 
2719.630560  	0.008849 
2721.559376  	0.009035 
2723.488192  	0.009150 
2725.417008  	0.009314 
2727.345824  	0.009533 
2729.274640  	0.009646 
2731.203456  	0.009808 
2733.132272  	0.009981 
2735.061088  	0.010051 
2736.989904  	0.010259 
2738.918720  	0.010400 
2740.847536  	0.010409 
2742.776352  	0.010423 
2744.705168  	0.010488 
2746.633984  	0.010543 
2748.562800  	0.010554 
2750.491616  	0.010643 
2752.420432  	0.010856 
2754.349248  	0.010831 
2756.278064  	0.010851 
2758.206880  	0.010794 
2760.135696  	0.010729 
2762.064512  	0.010721 
2763.993328  	0.010706 
2765.922144  	0.010680 
2767.850960  	0.010768 
2769.779776  	0.010860 
2771.708592  	0.010938 
2773.637408  	0.010888 
2775.566224  	0.010790 
2777.495040  	0.010725 
2779.423856  	0.010827 
2781.352672  	0.010913 
2783.281488  	0.010845 
2785.210304  	0.010756 
2787.139120  	0.010809 
2789.067936  	0.010884 
2790.996752  	0.010934 
2792.925568  	0.010883 
2794.854384  	0.010760 
2796.783200  	0.010727 
2798.712016  	0.010703 
2800.640832  	0.010709 
2802.569648  	0.010699 
2804.498464  	0.010612 
2806.427280  	0.010552 
2808.356096  	0.010654 
2810.284912  	0.010827 
2812.213728  	0.010779 
2814.142544  	0.010651 
2816.071360  	0.010640 
2818.000176  	0.010525 
2819.928992  	0.010432 
2821.857808  	0.010369 
2823.786624  	0.010259 
2825.715440  	0.010141 
2827.644256  	0.009887 
2829.573072  	0.009776 
2831.501888  	0.009497 
2833.430704  	0.009074 
2835.359520  	0.008795 
2837.288336  	0.008557 
2839.217152  	0.008222 
2841.145968  	0.007890 
2843.074784  	0.007488 
2845.003600  	0.006970 
2846.932416  	0.006453 
2848.861232  	0.006013 
2850.790048  	0.005591 
2852.718864  	0.005142 
2854.647680  	0.004672 
2856.576496  	0.004047 
2858.505312  	0.003348 
2860.434128  	0.002821 
2862.362944  	0.002185 
2864.291760  	0.001398 
2866.220576  	0.000817 
2868.149392  	0.000547 
2870.078208  	0.000324 
2872.007024  	0.000369 
2873.935840  	0.000526 
2875.864656  	0.000491 
2877.793472  	0.000454 
2879.722288  	0.000294 
2881.651104  	-0.000091 
2883.579920  	-0.000251 
2885.508736  	-0.000003 
2887.437552  	0.000298 
2889.366368  	0.000382 
2891.295184  	0.000104 
2893.224000  	-0.000119 
2895.152816  	-0.000045 
2897.081632  	-0.000315 
2899.010448  	-0.001946 
2900.939264  	-0.003444 
2902.868080  	-0.002229 
2904.796896  	-0.000895 
2906.725712  	-0.000361 
2908.654528  	0.000217 
2910.583344  	0.000673 
2912.512160  	0.001301 
2914.440976  	0.002399 
2916.369792  	0.003168 
2918.298608  	0.003830 
2920.227424  	0.004346 
2922.156240  	0.005041 
2924.085056  	0.006046 
2926.013872  	0.007156 
2927.942688  	0.008298 
2929.871504  	0.009415 
2931.800320  	0.010406 
2933.729136  	0.011288 
2935.657952  	0.011972 
2937.586768  	0.012718 
2939.515584  	0.013394 
2941.444400  	0.013646 
2943.373216  	0.013797 
2945.302032  	0.014087 
2947.230848  	0.014235 
2949.159664  	0.013988 
2951.088480  	0.013580 
2953.017296  	0.013155 
2954.946112  	0.012577 
2956.874928  	0.011858 
2958.803744  	0.011075 
2960.732560  	0.010370 
2962.661376  	0.009674 
2964.590192  	0.008753 
2966.519008  	0.007540 
2968.447824  	0.006521 
2970.376640  	0.005702 
2972.305456  	0.005168 
2974.234272  	0.005273 
2976.163088  	0.005555 
2978.091904  	0.005572 
2980.020720  	0.005582 
2981.949536  	0.005768 
2983.878352  	0.005561 
2985.807168  	0.004738 
2987.735984  	0.003914 
2989.664800  	0.004313 
2991.593616  	0.007422 
2993.522432  	0.009471 
2995.451248  	0.009991 
2997.380064  	0.010811 
2999.308880  	0.012095 
3001.237696  	0.013541 
3003.166512  	0.015072 
3005.095328  	0.016538 
3007.024144  	0.018151 
3008.952960  	0.019700 
3010.881776  	0.021287 
3012.810592  	0.022663 
3014.739408  	0.023841 
3016.668224  	0.025091 
3018.597040  	0.026493 
3020.525856  	0.027765 
3022.454672  	0.028975 
3024.383488  	0.030098 
3026.312304  	0.031053 
3028.241120  	0.032242 
3030.169936  	0.033390 
3032.098752  	0.034291 
3034.027568  	0.035123 
3035.956384  	0.036034 
3037.885200  	0.037026 
3039.814016  	0.037867 
3041.742832  	0.038545 
3043.671648  	0.039161 
3045.600464  	0.039949 
3047.529280  	0.040583 
3049.458096  	0.041200 
3051.386912  	0.041916 
3053.315728  	0.042586 
3055.244544  	0.043249 
3057.173360  	0.043850 
3059.102176  	0.044492 
3061.030992  	0.045316 
3062.959808  	0.046155 
3064.888624  	0.046989 
3066.817440  	0.047900 
3068.746256  	0.048907 
3070.675072  	0.049903 
3072.603888  	0.050670 
3074.532704  	0.051329 
3076.461520  	0.052179 
3078.390336  	0.053226 
3080.319152  	0.054130 
3082.247968  	0.055023 
3084.176784  	0.055815 
3086.105600  	0.056708 
3088.034416  	0.057622 
3089.963232  	0.058529 
3091.892048  	0.059250 
3093.820864  	0.060038 
3095.749680  	0.061065 
3097.678496  	0.062229 
3099.607312  	0.063201 
3101.536128  	0.064185 
3103.464944  	0.065315 
3105.393760  	0.066077 
3107.322576  	0.066830 
3109.251392  	0.067689 
3111.180208  	0.068456 
3113.109024  	0.069188 
3115.037840  	0.069945 
3116.966656  	0.070758 
3118.895472  	0.071537 
3120.824288  	0.072435 
3122.753104  	0.073290 
3124.681920  	0.073822 
3126.610736  	0.074349 
3128.539552  	0.075144 
3130.468368  	0.075965 
3132.397184  	0.076517 
3134.326000  	0.077215 
3136.254816  	0.077933 
3138.183632  	0.078669 
3140.112448  	0.079435 
3142.041264  	0.080058 
3143.970080  	0.080749 
3145.898896  	0.081538 
3147.827712  	0.082220 
3149.756528  	0.082743 
3151.685344  	0.083313 
3153.614160  	0.084055 
3155.542976  	0.084763 
3157.471792  	0.085533 
3159.400608  	0.086410 
3161.329424  	0.087266 
3163.258240  	0.087691 
3165.187056  	0.087995 
3167.115872  	0.088601 
3169.044688  	0.089220 
3170.973504  	0.089718 
3172.902320  	0.090072 
3174.831136  	0.090491 
3176.759952  	0.091000 
3178.688768  	0.091421 
3180.617584  	0.091847 
3182.546400  	0.092135 
3184.475216  	0.092310 
3186.404032  	0.092428 
3188.332848  	0.092690 
3190.261664  	0.092919 
3192.190480  	0.092999 
3194.119296  	0.093070 
3196.048112  	0.093277 
3197.976928  	0.093204 
3199.905744  	0.093113 
3201.834560  	0.093062 
3203.763376  	0.092928 
3205.692192  	0.092771 
3207.621008  	0.092717 
3209.549824  	0.092661 
3211.478640  	0.092599 
3213.407456  	0.092386 
3215.336272  	0.092066 
3217.265088  	0.091932 
3219.193904  	0.091821 
3221.122720  	0.091596 
3223.051536  	0.091496 
3224.980352  	0.091391 
3226.909168  	0.091207 
3228.837984  	0.090907 
3230.766800  	0.090735 
3232.695616  	0.090613 
3234.624432  	0.090418 
3236.553248  	0.090372 
3238.482064  	0.090433 
3240.410880  	0.090573 
3242.339696  	0.090730 
3244.268512  	0.090526 
3246.197328  	0.090693 
3248.126144  	0.090947 
3250.054960  	0.091038 
3251.983776  	0.091336 
3253.912592  	0.091558 
3255.841408  	0.091639 
3257.770224  	0.091863 
3259.699040  	0.092306 
3261.627856  	0.092787 
3263.556672  	0.093104 
3265.485488  	0.093074 
3267.414304  	0.093162 
3269.343120  	0.093500 
3271.271936  	0.093922 
3273.200752  	0.094081 
3275.129568  	0.094104 
3277.058384  	0.094334 
3278.987200  	0.094607 
3280.916016  	0.094810 
3282.844832  	0.094872 
3284.773648  	0.095023 
3286.702464  	0.095403 
3288.631280  	0.095772 
3290.560096  	0.096068 
3292.488912  	0.096446 
3294.417728  	0.096759 
3296.346544  	0.097073 
3298.275360  	0.097344 
3300.204176  	0.097708 
3302.132992  	0.098041 
3304.061808  	0.098247 
3305.990624  	0.098712 
3307.919440  	0.099113 
3309.848256  	0.099271 
3311.777072  	0.099423 
3313.705888  	0.099786 
3315.634704  	0.100405 
3317.563520  	0.100889 
3319.492336  	0.101192 
3321.421152  	0.101250 
3323.349968  	0.101447 
3325.278784  	0.101733 
3327.207600  	0.101867 
3329.136416  	0.101782 
3331.065232  	0.101761 
3332.994048  	0.101830 
3334.922864  	0.102143 
3336.851680  	0.102305 
3338.780496  	0.102104 
3340.709312  	0.101884 
3342.638128  	0.101663 
3344.566944  	0.101212 
3346.495760  	0.100849 
3348.424576  	0.100529 
3350.353392  	0.100200 
3352.282208  	0.099932 
3354.211024  	0.099736 
3356.139840  	0.099348 
3358.068656  	0.098849 
3359.997472  	0.098384 
3361.926288  	0.098102 
3363.855104  	0.097747 
3365.783920  	0.097198 
3367.712736  	0.096792 
3369.641552  	0.096462 
3371.570368  	0.095925 
3373.499184  	0.095499 
3375.428000  	0.094903 
3377.356816  	0.094368 
3379.285632  	0.094212 
3381.214448  	0.093969 
3383.143264  	0.093508 
3385.072080  	0.092943 
3387.000896  	0.092444 
3388.929712  	0.091957 
3390.858528  	0.091526 
3392.787344  	0.091130 
3394.716160  	0.090701 
3396.644976  	0.090306 
3398.573792  	0.089970 
3400.502608  	0.089565 
3402.431424  	0.088854 
3404.360240  	0.088147 
3406.289056  	0.087497 
3408.217872  	0.087179 
3410.146688  	0.086531 
3412.075504  	0.085813 
3414.004320  	0.085389 
3415.933136  	0.084963 
3417.861952  	0.084303 
3419.790768  	0.083954 
3421.719584  	0.083293 
3423.648400  	0.082609 
3425.577216  	0.082044 
3427.506032  	0.081413 
3429.434848  	0.080820 
3431.363664  	0.080221 
3433.292480  	0.079554 
3435.221296  	0.078854 
3437.150112  	0.078297 
3439.078928  	0.077767 
3441.007744  	0.077225 
3442.936560  	0.076740 
3444.865376  	0.076074 
3446.794192  	0.075160 
3448.723008  	0.074340 
3450.651824  	0.073601 
3452.580640  	0.072846 
3454.509456  	0.072298 
3456.438272  	0.071670 
3458.367088  	0.071114 
3460.295904  	0.070529 
3462.224720  	0.069462 
3464.153536  	0.068419 
3466.082352  	0.067554 
3468.011168  	0.066581 
3469.939984  	0.065803 
3471.868800  	0.065145 
3473.797616  	0.064392 
3475.726432  	0.063508 
3477.655248  	0.062674 
3479.584064  	0.062019 
3481.512880  	0.061153 
3483.441696  	0.060049 
3485.370512  	0.059352 
3487.299328  	0.058482 
3489.228144  	0.057560 
3491.156960  	0.056435 
3493.085776  	0.055482 
3495.014592  	0.054702 
3496.943408  	0.054150 
3498.872224  	0.053706 
3500.801040  	0.053285 
3502.729856  	0.052358 
3504.658672  	0.051082 
3506.587488  	0.050637 
3508.516304  	0.050304 
3510.445120  	0.049258 
3512.373936  	0.048247 
3514.302752  	0.047667 
3516.231568  	0.047271 
3518.160384  	0.046578 
3520.089200  	0.045809 
3522.018016  	0.045447 
3523.946832  	0.045282 
3525.875648  	0.044301 
3527.804464  	0.042872 
3529.733280  	0.042071 
3531.662096  	0.041616 
3533.590912  	0.041030 
3535.519728  	0.040726 
3537.448544  	0.040099 
3539.377360  	0.039258 
3541.306176  	0.038626 
3543.234992  	0.038462 
3545.163808  	0.038623 
3547.092624  	0.037551 
3549.021440  	0.035991 
3550.950256  	0.035182 
3552.879072  	0.034448 
3554.807888  	0.033812 
3556.736704  	0.033173 
3558.665520  	0.032682 
3560.594336  	0.032193 
3562.523152  	0.031290 
3564.451968  	0.030901 
3566.380784  	0.030840 
3568.309600  	0.029325 
3570.238416  	0.028317 
3572.167232  	0.027773 
3574.096048  	0.026921 
3576.024864  	0.026034 
3577.953680  	0.025316 
3579.882496  	0.024622 
3581.811312  	0.023979 
3583.740128  	0.023208 
3585.668944  	0.022845 
3587.597760  	0.021788 
3589.526576  	0.020561 
3591.455392  	0.019918 
3593.384208  	0.019397 
3595.313024  	0.018438 
3597.241840  	0.017147 
3599.170656  	0.015564 
3601.099472  	0.014655 
3603.028288  	0.014521 
3604.957104  	0.014219 
3606.885920  	0.013279 
3608.814736  	0.012061 
3610.743552  	0.011497 
3612.672368  	0.010295 
3614.601184  	0.009080 
3616.530000  	0.008674 
3618.458816  	0.006732 
3620.387632  	0.005280 
3622.316448  	0.005349 
3624.245264  	0.005038 
3626.174080  	0.004465 
3628.102896  	0.001886 
3630.031712  	-0.001005 
3631.960528  	0.000268 
3633.889344  	0.000150 
3635.818160  	-0.000625 
3637.746976  	-0.001702 
3639.675792  	-0.002272 
3641.604608  	-0.002596 
3643.533424  	-0.003141 
3645.462240  	-0.004187 
3647.391056  	-0.007409 
3649.319872  	-0.011565 
3651.248688  	-0.012212 
3653.177504  	-0.009863 
3655.106320  	-0.010483 
3657.035136  	-0.012803 
3658.963952  	-0.012547 
3660.892768  	-0.012463 
3662.821584  	-0.012657 
3664.750400  	-0.012702 
3666.679216  	-0.013060 
3668.608032  	-0.015298 
3670.536848  	-0.018284 
3672.465664  	-0.016812 
3674.394480  	-0.017955 
3676.323296  	-0.021433 
3678.252112  	-0.017850 
3680.180928  	-0.016026 
3682.109744  	-0.015648 
3684.038560  	-0.015808 
3685.967376  	-0.015958 
3687.896192  	-0.018534 
3689.825008  	-0.021304 
3691.753824  	-0.019579 
3693.682640  	-0.017100 
3695.611456  	-0.016069 
3697.540272  	-0.015355 
3699.469088  	-0.014873 
3701.397904  	-0.015693 
3703.326720  	-0.015378 
3705.255536  	-0.013880 
3707.184352  	-0.013751 
3709.113168  	-0.015604 
3711.041984  	-0.017627 
3712.970800  	-0.016130 
3714.899616  	-0.013302 
3716.828432  	-0.012617 
3718.757248  	-0.013021 
3720.686064  	-0.013552 
3722.614880  	-0.013923 
3724.543696  	-0.013263 
3726.472512  	-0.013408 
3728.401328  	-0.013538 
3730.330144  	-0.014196 
3732.258960  	-0.015981 
3734.187776  	-0.015644 
3736.116592  	-0.016115 
3738.045408  	-0.015517 
3739.974224  	-0.013733 
3741.903040  	-0.012914 
3743.831856  	-0.014750 
3745.760672  	-0.016556 
3747.689488  	-0.015365 
3749.618304  	-0.017684 
3751.547120  	-0.019251 
3753.475936  	-0.016615 
3755.404752  	-0.014176 
3757.333568  	-0.013788 
3759.262384  	-0.014397 
3761.191200  	-0.013925 
3763.120016  	-0.012544 
3765.048832  	-0.013021 
3766.977648  	-0.013106 
3768.906464  	-0.014011 
3770.835280  	-0.014505 
3772.764096  	-0.012873 
3774.692912  	-0.012239 
3776.621728  	-0.012296 
3778.550544  	-0.013530 
3780.479360  	-0.014258 
3782.408176  	-0.012950 
3784.336992  	-0.013049 
3786.265808  	-0.012864 
3788.194624  	-0.012407 
3790.123440  	-0.012464 
3792.052256  	-0.012588 
3793.981072  	-0.012621 
3795.909888  	-0.013907 
3797.838704  	-0.014103 
3799.767520  	-0.014504 
3801.696336  	-0.017833 
3803.625152  	-0.015876 
3805.553968  	-0.014597 
3807.482784  	-0.015604 
3809.411600  	-0.013537 
3811.340416  	-0.012299 
3813.269232  	-0.012377 
3815.198048  	-0.014802 
3817.126864  	-0.016115 
3819.055680  	-0.015145 
3820.984496  	-0.017665 
3822.913312  	-0.016239 
3824.842128  	-0.013783 
3826.770944  	-0.014017 
3828.699760  	-0.013479 
3830.628576  	-0.013567 
3832.557392  	-0.014383 
3834.486208  	-0.014628 
3836.415024  	-0.015734 
3838.343840  	-0.016829 
3840.272656  	-0.016008 
3842.201472  	-0.014598 
3844.130288  	-0.014060 
3846.059104  	-0.013005 
3847.987920  	-0.012430 
3849.916736  	-0.012875 
3851.845552  	-0.015335 
3853.774368  	-0.019715 
3855.703184  	-0.016775 
3857.632000  	-0.013944 
3859.560816  	-0.012738 
3861.489632  	-0.012904 
3863.418448  	-0.013931 
3865.347264  	-0.014271 
3867.276080  	-0.013064 
3869.204896  	-0.013891 
3871.133712  	-0.014209 
3873.062528  	-0.013543 
3874.991344  	-0.013933 
3876.920160  	-0.012519 
3878.848976  	-0.012036 
3880.777792  	-0.012802 
3882.706608  	-0.012292 
3884.635424  	-0.012611 
3886.564240  	-0.013703 
3888.493056  	-0.012763 
3890.421872  	-0.013031 
3892.350688  	-0.013693 
3894.279504  	-0.012656 
3896.208320  	-0.011807 
3898.137136  	-0.011750 
3900.065952  	-0.012260 
3901.994768  	-0.012340 
3903.923584  	-0.012977 
3905.852400  	-0.013136 
3907.781216  	-0.012557 
3909.710032  	-0.012245 
3911.638848  	-0.012036 
3913.567664  	-0.011842 
3915.496480  	-0.011621 
3917.425296  	-0.011903 
3919.354112  	-0.012298 
3921.282928  	-0.012161 
3923.211744  	-0.011675 
3925.140560  	-0.011755 
3927.069376  	-0.011973 
3928.998192  	-0.011900 
3930.927008  	-0.011411 
3932.855824  	-0.011296 
3934.784640  	-0.011651 
3936.713456  	-0.011767 
3938.642272  	-0.011596 
3940.571088  	-0.011205 
3942.499904  	-0.011136 
3944.428720  	-0.011483 
3946.357536  	-0.011326 
3948.286352  	-0.011055 
3950.215168  	-0.011624 
3952.143984  	-0.012205 
3954.072800  	-0.012142 
3956.001616  	-0.011836 
3957.930432  	-0.011997 
3959.859248  	-0.011943 
3961.788064  	-0.011780 
3963.716880  	-0.012000 
3965.645696  	-0.012321 
3967.574512  	-0.012235 
3969.503328  	-0.011907 
3971.432144  	-0.011926 
3973.360960  	-0.011897 
3975.289776  	-0.011835 
3977.218592  	-0.011785 
3979.147408  	-0.011855 
3981.076224  	-0.012003 
3983.005040  	-0.012088 
3984.933856  	-0.012099 
3986.862672  	-0.012142 
3988.791488  	-0.012026 
3990.720304  	-0.011863 
3992.649120  	-0.011936 
3994.577936  	-0.012059 
3996.506752  	-0.012108 
3998.435568  	-0.012200 
4000.364384  	-0.012097 