##TITLE=No Description
##DATA TYPE=INFRARED SPECTRUM
##XUNITS=1/CM
##YUNITS=Abs
399.264912  	0.604000 
401.193728  	0.597300 
403.122544  	0.592104 
405.051360  	0.583303 
406.980176  	0.584266 
408.908992  	0.574675 
410.837808  	0.569199 
412.766624  	0.562107 
414.695440  	0.557552 
416.624256  	0.554961 
418.553072  	0.574162 
420.481888  	0.562840 
422.410704  	0.557045 
424.339520  	0.553320 
426.268336  	0.549355 
428.197152  	0.541559 
430.125968  	0.546446 
432.054784  	0.539258 
433.983600  	0.537141 
435.912416  	0.535828 
437.841232  	0.541797 
439.770048  	0.537801 
441.698864  	0.536172 
443.627680  	0.531972 
445.556496  	0.530997 
447.485312  	0.525939 
449.414128  	0.528026 
451.342944  	0.534516 
453.271760  	0.534706 
455.200576  	0.529726 
457.129392  	0.532241 
459.058208  	0.530860 
460.987024  	0.530747 
462.915840  	0.526419 
464.844656  	0.529776 
466.773472  	0.527780 
468.702288  	0.529089 
470.631104  	0.530153 
472.559920  	0.534091 
474.488736  	0.532365 
476.417552  	0.531518 
478.346368  	0.529509 
480.275184  	0.528949 
482.204000  	0.522576 
484.132816  	0.519477 
486.061632  	0.516055 
487.990448  	0.520015 
489.919264  	0.521013 
491.848080  	0.519592 
493.776896  	0.520972 
495.705712  	0.521635 
497.634528  	0.516646 
499.563344  	0.515483 
501.492160  	0.511498 
503.420976  	0.513537 
505.349792  	0.510870 
507.278608  	0.510614 
509.207424  	0.511764 
511.136240  	0.513735 
513.065056  	0.515827 
514.993872  	0.519713 
516.922688  	0.520276 
518.851504  	0.521888 
520.780320  	0.519790 
522.709136  	0.518985 
524.637952  	0.518743 
526.566768  	0.519097 
528.495584  	0.514247 
530.424400  	0.512578 
532.353216  	0.509809 
534.282032  	0.505296 
536.210848  	0.496814 
538.139664  	0.490963 
540.068480  	0.486231 
541.997296  	0.482243 
543.926112  	0.475293 
545.854928  	0.471404 
547.783744  	0.467155 
549.712560  	0.464263 
551.641376  	0.461309 
553.570192  	0.457175 
555.499008  	0.452353 
557.427824  	0.449341 
559.356640  	0.444707 
561.285456  	0.441176 
563.214272  	0.437840 
565.143088  	0.434902 
567.071904  	0.430764 
569.000720  	0.426096 
570.929536  	0.422539 
572.858352  	0.420759 
574.787168  	0.417941 
576.715984  	0.414675 
578.644800  	0.410331 
580.573616  	0.406580 
582.502432  	0.401899 
584.431248  	0.398488 
586.360064  	0.394572 
588.288880  	0.391626 
590.217696  	0.389414 
592.146512  	0.387451 
594.075328  	0.384219 
596.004144  	0.382159 
597.932960  	0.380263 
599.861776  	0.379511 
601.790592  	0.378088 
603.719408  	0.376211 
605.648224  	0.375284 
607.577040  	0.374164 
609.505856  	0.372015 
611.434672  	0.370052 
613.363488  	0.368465 
615.292304  	0.367845 
617.221120  	0.366289 
619.149936  	0.364944 
621.078752  	0.363458 
623.007568  	0.362829 
624.936384  	0.361065 
626.865200  	0.359364 
628.794016  	0.358365 
630.722832  	0.358173 
632.651648  	0.357860 
634.580464  	0.357833 
636.509280  	0.358422 
638.438096  	0.359109 
640.366912  	0.358125 
642.295728  	0.356796 
644.224544  	0.354845 
646.153360  	0.350977 
648.082176  	0.346463 
650.010992  	0.342963 
651.939808  	0.339537 
653.868624  	0.335979 
655.797440  	0.331812 
657.726256  	0.327963 
659.655072  	0.323807 
661.583888  	0.319035 
663.512704  	0.314480 
665.441520  	0.311594 
667.370336  	0.306752 
669.299152  	0.299972 
671.227968  	0.296800 
673.156784  	0.293810 
675.085600  	0.291306 
677.014416  	0.288685 
678.943232  	0.286650 
680.872048  	0.285630 
682.800864  	0.284220 
684.729680  	0.282586 
686.658496  	0.281004 
688.587312  	0.279481 
690.516128  	0.278034 
692.444944  	0.277184 
694.373760  	0.276287 
696.302576  	0.274706 
698.231392  	0.272046 
700.160208  	0.269397 
702.089024  	0.267188 
704.017840  	0.264850 
705.946656  	0.262479 
707.875472  	0.260155 
709.804288  	0.257764 
711.733104  	0.255832 
713.661920  	0.254184 
715.590736  	0.252966 
717.519552  	0.252358 
719.448368  	0.252798 
721.377184  	0.253725 
723.306000  	0.255194 
725.234816  	0.255937 
727.163632  	0.255468 
729.092448  	0.252930 
731.021264  	0.249303 
732.950080  	0.246038 
734.878896  	0.242754 
736.807712  	0.239420 
738.736528  	0.236990 
740.665344  	0.235100 
742.594160  	0.233119 
744.522976  	0.231523 
746.451792  	0.230216 
748.380608  	0.228821 
750.309424  	0.227501 
752.238240  	0.226542 
754.167056  	0.225792 
756.095872  	0.224913 
758.024688  	0.224054 
759.953504  	0.223724 
761.882320  	0.224935 
763.811136  	0.226105 
765.739952  	0.225614 
767.668768  	0.223439 
769.597584  	0.220652 
771.526400  	0.219380 
773.455216  	0.221141 
775.384032  	0.225321 
777.312848  	0.231714 
779.241664  	0.237098 
781.170480  	0.237769 
783.099296  	0.234078 
785.028112  	0.228148 
786.956928  	0.221570 
788.885744  	0.216126 
790.814560  	0.212217 
792.743376  	0.209438 
794.672192  	0.208486 
796.601008  	0.207817 
798.529824  	0.204825 
800.458640  	0.200372 
802.387456  	0.196329 
804.316272  	0.194015 
806.245088  	0.193094 
808.173904  	0.192780 
810.102720  	0.192883 
812.031536  	0.192994 
813.960352  	0.193504 
815.889168  	0.194184 
817.817984  	0.194837 
819.746800  	0.195391 
821.675616  	0.196130 
823.604432  	0.196555 
825.533248  	0.196520 
827.462064  	0.196348 
829.390880  	0.195837 
831.319696  	0.194532 
833.248512  	0.192620 
835.177328  	0.190023 
837.106144  	0.186937 
839.034960  	0.183723 
840.963776  	0.179763 
842.892592  	0.175644 
844.821408  	0.171861 
846.750224  	0.168680 
848.679040  	0.166038 
850.607856  	0.163994 
852.536672  	0.162375 
854.465488  	0.160888 
856.394304  	0.159800 
858.323120  	0.158443 
860.251936  	0.156826 
862.180752  	0.154626 
864.109568  	0.151612 
866.038384  	0.149018 
867.967200  	0.147160 
869.896016  	0.145335 
871.824832  	0.144094 
873.753648  	0.144022 
875.682464  	0.144918 
877.611280  	0.145818 
879.540096  	0.147251 
881.468912  	0.149766 
883.397728  	0.151715 
885.326544  	0.153122 
887.255360  	0.153469 
889.184176  	0.152289 
891.112992  	0.150139 
893.041808  	0.148408 
894.970624  	0.146015 
896.899440  	0.142253 
898.828256  	0.137547 
900.757072  	0.132941 
902.685888  	0.129271 
904.614704  	0.127305 
906.543520  	0.127403 
908.472336  	0.129123 
910.401152  	0.132135 
912.329968  	0.135361 
914.258784  	0.138902 
916.187600  	0.142252 
918.116416  	0.145120 
920.045232  	0.147340 
921.974048  	0.148490 
923.902864  	0.148880 
925.831680  	0.149200 
927.760496  	0.149786 
929.689312  	0.150521 
931.618128  	0.151464 
933.546944  	0.152302 
935.475760  	0.152929 
937.404576  	0.152990 
939.333392  	0.152579 
941.262208  	0.152891 
943.191024  	0.154946 
945.119840  	0.159495 
947.048656  	0.166745 
948.977472  	0.176505 
950.906288  	0.188318 
952.835104  	0.201525 
954.763920  	0.215530 
956.692736  	0.228428 
958.621552  	0.239121 
960.550368  	0.246371 
962.479184  	0.249621 
964.408000  	0.248031 
966.336816  	0.241859 
968.265632  	0.231630 
970.194448  	0.218468 
972.123264  	0.203131 
974.052080  	0.187260 
975.980896  	0.171858 
977.909712  	0.157851 
979.838528  	0.145402 
981.767344  	0.134904 
983.696160  	0.126806 
985.624976  	0.121880 
987.553792  	0.120240 
989.482608  	0.121617 
991.411424  	0.125626 
993.340240  	0.131677 
995.269056  	0.139090 
997.197872  	0.147146 
999.126688  	0.155438 
1001.055504  	0.163755 
1002.984320  	0.171981 
1004.913136  	0.180078 
1006.841952  	0.187885 
1008.770768  	0.194479 
1010.699584  	0.199126 
1012.628400  	0.201834 
1014.557216  	0.202874 
1016.486032  	0.203123 
1018.414848  	0.202697 
1020.343664  	0.202134 
1022.272480  	0.201235 
1024.201296  	0.199745 
1026.130112  	0.196566 
1028.058928  	0.195771 
1029.987744  	0.199356 
1031.916560  	0.202144 
1033.845376  	0.204367 
1035.774192  	0.207051 
1037.703008  	0.211438 
1039.631824  	0.219787 
1041.560640  	0.231360 
1043.489456  	0.246341 
1045.418272  	0.263979 
1047.347088  	0.283052 
1049.275904  	0.299998 
1051.204720  	0.312495 
1053.133536  	0.318952 
1055.062352  	0.320327 
1056.991168  	0.318384 
1058.919984  	0.317896 
1060.848800  	0.317308 
1062.777616  	0.313765 
1064.706432  	0.306497 
1066.635248  	0.299822 
1068.564064  	0.296322 
1070.492880  	0.290145 
1072.421696  	0.281203 
1074.350512  	0.275126 
1076.279328  	0.273510 
1078.208144  	0.276545 
1080.136960  	0.282556 
1082.065776  	0.288940 
1083.994592  	0.292230 
1085.923408  	0.292090 
1087.852224  	0.288032 
1089.781040  	0.281087 
1091.709856  	0.272642 
1093.638672  	0.262059 
1095.567488  	0.248803 
1097.496304  	0.234548 
1099.425120  	0.219582 
1101.353936  	0.204438 
1103.282752  	0.189946 
1105.211568  	0.176501 
1107.140384  	0.163448 
1109.069200  	0.151180 
1110.998016  	0.140239 
1112.926832  	0.130412 
1114.855648  	0.121333 
1116.784464  	0.112738 
1118.713280  	0.104726 
1120.642096  	0.097218 
1122.570912  	0.090260 
1124.499728  	0.083598 
1126.428544  	0.077723 
1128.357360  	0.072465 
1130.286176  	0.068099 
1132.214992  	0.064294 
1134.143808  	0.061335 
1136.072624  	0.059006 
1138.001440  	0.057017 
1139.930256  	0.054481 
1141.859072  	0.052059 
1143.787888  	0.049509 
1145.716704  	0.047130 
1147.645520  	0.044834 
1149.574336  	0.042888 
1151.503152  	0.041391 
1153.431968  	0.040860 
1155.360784  	0.041056 
1157.289600  	0.042161 
1159.218416  	0.043953 
1161.147232  	0.046323 
1163.076048  	0.048925 
1165.004864  	0.051812 
1166.933680  	0.054522 
1168.862496  	0.057425 
1170.791312  	0.060381 
1172.720128  	0.063898 
1174.648944  	0.067320 
1176.577760  	0.070641 
1178.506576  	0.073811 
1180.435392  	0.077221 
1182.364208  	0.080512 
1184.293024  	0.084372 
1186.221840  	0.088546 
1188.150656  	0.093144 
1190.079472  	0.098264 
1192.008288  	0.104613 
1193.937104  	0.112403 
1195.865920  	0.121526 
1197.794736  	0.131349 
1199.723552  	0.141957 
1201.652368  	0.153017 
1203.581184  	0.164195 
1205.510000  	0.174858 
1207.438816  	0.185030 
1209.367632  	0.194569 
1211.296448  	0.202626 
1213.225264  	0.209079 
1215.154080  	0.213854 
1217.082896  	0.217431 
1219.011712  	0.219531 
1220.940528  	0.220760 
1222.869344  	0.221227 
1224.798160  	0.220977 
1226.726976  	0.219827 
1228.655792  	0.218137 
1230.584608  	0.215667 
1232.513424  	0.212825 
1234.442240  	0.208967 
1236.371056  	0.204256 
1238.299872  	0.198404 
1240.228688  	0.190321 
1242.157504  	0.181960 
1244.086320  	0.174764 
1246.015136  	0.166160 
1247.943952  	0.156799 
1249.872768  	0.147492 
1251.801584  	0.139323 
1253.730400  	0.131282 
1255.659216  	0.123361 
1257.588032  	0.115948 
1259.516848  	0.108906 
1261.445664  	0.102415 
1263.374480  	0.096643 
1265.303296  	0.091608 
1267.232112  	0.087528 
1269.160928  	0.084457 
1271.089744  	0.082131 
1273.018560  	0.080911 
1274.947376  	0.080575 
1276.876192  	0.080811 
1278.805008  	0.080618 
1280.733824  	0.079347 
1282.662640  	0.077092 
1284.591456  	0.074459 
1286.520272  	0.072223 
1288.449088  	0.070771 
1290.377904  	0.070160 
1292.306720  	0.070364 
1294.235536  	0.070459 
1296.164352  	0.069599 
1298.093168  	0.067082 
1300.021984  	0.063833 
1301.950800  	0.060380 
1303.879616  	0.057080 
1305.808432  	0.053496 
1307.737248  	0.049856 
1309.666064  	0.046366 
1311.594880  	0.043782 
1313.523696  	0.041709 
1315.452512  	0.040299 
1317.381328  	0.039582 
1319.310144  	0.039370 
1321.238960  	0.039615 
1323.167776  	0.040516 
1325.096592  	0.041441 
1327.025408  	0.042161 
1328.954224  	0.042262 
1330.883040  	0.041841 
1332.811856  	0.040895 
1334.740672  	0.040282 
1336.669488  	0.040125 
1338.598304  	0.040128 
1340.527120  	0.038669 
1342.455936  	0.037152 
1344.384752  	0.036772 
1346.313568  	0.037048 
1348.242384  	0.037794 
1350.171200  	0.039202 
1352.100016  	0.041036 
1354.028832  	0.043245 
1355.957648  	0.045325 
1357.886464  	0.047692 
1359.815280  	0.050268 
1361.744096  	0.052839 
1363.672912  	0.054486 
1365.601728  	0.055915 
1367.530544  	0.057454 
1369.459360  	0.058141 
1371.388176  	0.058078 
1373.316992  	0.056728 
1375.245808  	0.053151 
1377.174624  	0.050192 
1379.103440  	0.046879 
1381.032256  	0.043542 
1382.961072  	0.041153 
1384.889888  	0.040320 
1386.818704  	0.039536 
1388.747520  	0.037531 
1390.676336  	0.035005 
1392.605152  	0.031639 
1394.533968  	0.029528 
1396.462784  	0.032302 
1398.391600  	0.033567 
1400.320416  	0.032981 
1402.249232  	0.033430 
1404.178048  	0.034156 
1406.106864  	0.034891 
1408.035680  	0.036900 
1409.964496  	0.039545 
1411.893312  	0.042678 
1413.822128  	0.045888 
1415.750944  	0.049865 
1417.679760  	0.052564 
1419.608576  	0.052327 
1421.537392  	0.052624 
1423.466208  	0.052624 
1425.395024  	0.050804 
1427.323840  	0.049336 
1429.252656  	0.046581 
1431.181472  	0.044625 
1433.110288  	0.044534 
1435.039104  	0.045232 
1436.967920  	0.044665 
1438.896736  	0.045700 
1440.825552  	0.047070 
1442.754368  	0.047782 
1444.683184  	0.047985 
1446.612000  	0.047874 
1448.540816  	0.046777 
1450.469632  	0.047300 
1452.398448  	0.048256 
1454.327264  	0.049403 
1456.256080  	0.048612 
1458.184896  	0.045689 
1460.113712  	0.047264 
1462.042528  	0.049085 
1463.971344  	0.048814 
1465.900160  	0.049224 
1467.828976  	0.052187 
1469.757792  	0.055895 
1471.686608  	0.059264 
1473.615424  	0.065591 
1475.544240  	0.073029 
1477.473056  	0.079597 
1479.401872  	0.084227 
1481.330688  	0.087897 
1483.259504  	0.090375 
1485.188320  	0.092119 
1487.117136  	0.091875 
1489.045952  	0.090845 
1490.974768  	0.087282 
1492.903584  	0.084961 
1494.832400  	0.081272 
1496.761216  	0.073454 
1498.690032  	0.066381 
1500.618848  	0.061998 
1502.547664  	0.057939 
1504.476480  	0.053343 
1506.405296  	0.045596 
1508.334112  	0.042655 
1510.262928  	0.043116 
1512.191744  	0.041315 
1514.120560  	0.040219 
1516.049376  	0.039424 
1517.978192  	0.038645 
1519.907008  	0.040278 
1521.835824  	0.040862 
1523.764640  	0.045855 
1525.693456  	0.050753 
1527.622272  	0.053216 
1529.551088  	0.054033 
1531.479904  	0.053583 
1533.408720  	0.048742 
1535.337536  	0.045195 
1537.266352  	0.043276 
1539.195168  	0.034829 
1541.123984  	0.026992 
1543.052800  	0.029723 
1544.981616  	0.030254 
1546.910432  	0.030073 
1548.839248  	0.030586 
1550.768064  	0.030718 
1552.696880  	0.030639 
1554.625696  	0.031014 
1556.554512  	0.031324 
1558.483328  	0.028698 
1560.412144  	0.033784 
1562.340960  	0.042256 
1564.269776  	0.046934 
1566.198592  	0.053057 
1568.127408  	0.057733 
1570.056224  	0.063506 
1571.985040  	0.071778 
1573.913856  	0.077213 
1575.842672  	0.078166 
1577.771488  	0.081456 
1579.700304  	0.083917 
1581.629120  	0.083891 
1583.557936  	0.083226 
1585.486752  	0.084184 
1587.415568  	0.086898 
1589.344384  	0.092061 
1591.273200  	0.098977 
1593.202016  	0.107302 
1595.130832  	0.116008 
1597.059648  	0.125359 
1598.988464  	0.133212 
1600.917280  	0.139969 
1602.846096  	0.144201 
1604.774912  	0.146934 
1606.703728  	0.146957 
1608.632544  	0.145604 
1610.561360  	0.143120 
1612.490176  	0.141440 
1614.418992  	0.138926 
1616.347808  	0.135467 
1618.276624  	0.136715 
1620.205440  	0.141974 
1622.134256  	0.145180 
1624.063072  	0.151432 
1625.991888  	0.159397 
1627.920704  	0.168441 
1629.849520  	0.179646 
1631.778336  	0.190323 
1633.707152  	0.197408 
1635.635968  	0.204823 
1637.564784  	0.215972 
1639.493600  	0.224791 
1641.422416  	0.230069 
1643.351232  	0.233741 
1645.280048  	0.233455 
1647.208864  	0.231444 
1649.137680  	0.232483 
1651.066496  	0.232635 
1652.995312  	0.223353 
1654.924128  	0.222031 
1656.852944  	0.223249 
1658.781760  	0.220991 
1660.710576  	0.216656 
1662.639392  	0.210078 
1664.568208  	0.205440 
1666.497024  	0.202785 
1668.425840  	0.196025 
1670.354656  	0.187654 
1672.283472  	0.184369 
1674.212288  	0.180967 
1676.141104  	0.175565 
1678.069920  	0.174845 
1679.998736  	0.173744 
1681.927552  	0.172002 
1683.856368  	0.165929 
1685.785184  	0.164891 
1687.714000  	0.167600 
1689.642816  	0.166965 
1691.571632  	0.165234 
1693.500448  	0.164157 
1695.429264  	0.159319 
1697.358080  	0.155712 
1699.286896  	0.153118 
1701.215712  	0.147180 
1703.144528  	0.147101 
1705.073344  	0.142553 
1707.002160  	0.136116 
1708.930976  	0.131828 
1710.859792  	0.125449 
1712.788608  	0.117890 
1714.717424  	0.108310 
1716.646240  	0.095950 
1718.575056  	0.081549 
1720.503872  	0.073995 
1722.432688  	0.067013 
1724.361504  	0.057122 
1726.290320  	0.049102 
1728.219136  	0.042364 
1730.147952  	0.036258 
1732.076768  	0.031124 
1734.005584  	0.023580 
1735.934400  	0.018682 
1737.863216  	0.018929 
1739.792032  	0.015103 
1741.720848  	0.014062 
1743.649664  	0.013563 
1745.578480  	0.012570 
1747.507296  	0.010680 
1749.436112  	0.009697 
1751.364928  	0.008524 
1753.293744  	0.008179 
1755.222560  	0.007990 
1757.151376  	0.007190 
1759.080192  	0.006731 
1761.009008  	0.006043 
1762.937824  	0.004481 
1764.866640  	0.005192 
1766.795456  	0.005628 
1768.724272  	0.005048 
1770.653088  	0.002832 
1772.581904  	0.000053 
1774.510720  	0.001356 
1776.439536  	0.003184 
1778.368352  	0.003530 
1780.297168  	0.003178 
1782.225984  	0.002571 
1784.154800  	0.002951 
1786.083616  	0.002292 
1788.012432  	0.002687 
1789.941248  	0.002946 
1791.870064  	0.001320 
1793.798880  	0.000045 
1795.727696  	0.001578 
1797.656512  	0.001243 
1799.585328  	0.001167 
1801.514144  	0.001537 
1803.442960  	0.001590 
1805.371776  	0.000996 
1807.300592  	0.001241 
1809.229408  	0.000674 
1811.158224  	0.000262 
1813.087040  	0.000156 
1815.015856  	0.000626 
1816.944672  	0.000656 
1818.873488  	0.000682 
1820.802304  	0.000439 
1822.731120  	0.001094 
1824.659936  	0.000500 
1826.588752  	-0.000114 
1828.517568  	-0.000785 
1830.446384  	-0.001261 
1832.375200  	-0.000510 
1834.304016  	0.000150 
1836.232832  	0.000081 
1838.161648  	0.000383 
1840.090464  	0.000232 
1842.019280  	0.000904 
1843.948096  	-0.000402 
1845.876912  	-0.000516 
1847.805728  	0.000164 
1849.734544  	0.000155 
1851.663360  	-0.000176 
1853.592176  	-0.000032 
1855.520992  	-0.000190 
1857.449808  	0.000095 
1859.378624  	-0.000142 
1861.307440  	-0.000246 
1863.236256  	-0.000385 
1865.165072  	0.000039 
1867.093888  	-0.000279 
1869.022704  	-0.000763 
1870.951520  	-0.000844 
1872.880336  	-0.000380 
1874.809152  	-0.000592 
1876.737968  	-0.000471 
1878.666784  	-0.000850 
1880.595600  	-0.000346 
1882.524416  	-0.000568 
1884.453232  	-0.000551 
1886.382048  	-0.000570 
1888.310864  	-0.000147 
1890.239680  	-0.001076 
1892.168496  	-0.000887 
1894.097312  	-0.000386 
1896.026128  	0.000056 
1897.954944  	-0.000581 
1899.883760  	-0.000648 
1901.812576  	-0.000870 
1903.741392  	-0.000777 
1905.670208  	-0.000635 
1907.599024  	-0.000117 
1909.527840  	-0.000478 
1911.456656  	-0.000332 
1913.385472  	-0.000434 
1915.314288  	0.000307 
1917.243104  	-0.000074 
1919.171920  	-0.000431 
1921.100736  	-0.000411 
1923.029552  	-0.000052 
1924.958368  	-0.000493 
1926.887184  	-0.000370 
1928.816000  	-0.000623 
1930.744816  	-0.000700 
1932.673632  	-0.001323 
1934.602448  	-0.000816 
1936.531264  	-0.000371 
1938.460080  	0.000264 
1940.388896  	-0.000215 
1942.317712  	-0.000472 
1944.246528  	-0.001068 
1946.175344  	-0.000164 
1948.104160  	-0.000641 
1950.032976  	-0.000628 
1951.961792  	-0.000474 
1953.890608  	0.000003 
1955.819424  	-0.000648 
1957.748240  	0.000171 
1959.677056  	-0.000427 
1961.605872  	0.000386 
1963.534688  	0.000231 
1965.463504  	0.000789 
1967.392320  	0.000051 
1969.321136  	0.000345 
1971.249952  	0.000070 
1973.178768  	0.000860 
1975.107584  	0.000177 
1977.036400  	0.001304 
1978.965216  	0.001906 
1980.894032  	0.001983 
1982.822848  	0.001122 
1984.751664  	0.001651 
1986.680480  	0.000780 
1988.609296  	0.000709 
1990.538112  	-0.000042 
1992.466928  	0.000548 
1994.395744  	-0.000233 
1996.324560  	-0.000210 
1998.253376  	-0.000719 
2000.182192  	-0.000395 
2002.111008  	-0.000240 
2004.039824  	0.000390 
2005.968640  	-0.000177 
2007.897456  	0.001265 
2009.826272  	0.000868 
2011.755088  	0.001699 
2013.683904  	0.000855 
2015.612720  	0.001224 
2017.541536  	0.000833 
2019.470352  	0.000542 
2021.399168  	-0.000166 
2023.327984  	0.001185 
2025.256800  	0.001434 
2027.185616  	0.001404 
2029.114432  	0.000529 
2031.043248  	0.000822 
2032.972064  	0.000922 
2034.900880  	0.001094 
2036.829696  	-0.000025 
2038.758512  	0.000997 
2040.687328  	0.000713 
2042.616144  	0.001480 
2044.544960  	0.001350 
2046.473776  	0.001780 
2048.402592  	0.001223 
2050.331408  	0.000705 
2052.260224  	-0.000025 
2054.189040  	-0.000187 
2056.117856  	-0.000560 
2058.046672  	-0.000023 
2059.975488  	-0.000440 
2061.904304  	-0.000211 
2063.833120  	-0.000037 
2065.761936  	-0.000092 
2067.690752  	-0.000954 
2069.619568  	-0.000519 
2071.548384  	-0.000087 
2073.477200  	-0.000222 
2075.406016  	-0.000012 
2077.334832  	0.000426 
2079.263648  	0.000111 
2081.192464  	-0.000005 
2083.121280  	0.000082 
2085.050096  	-0.000105 
2086.978912  	-0.000578 
2088.907728  	-0.000339 
2090.836544  	-0.000513 
2092.765360  	0.000076 
2094.694176  	0.000416 
2096.622992  	0.000372 
2098.551808  	0.000205 
2100.480624  	0.000365 
2102.409440  	-0.000066 
2104.338256  	0.000272 
2106.267072  	0.000653 
2108.195888  	0.000994 
2110.124704  	0.000445 
2112.053520  	0.000405 
2113.982336  	0.000361 
2115.911152  	0.000599 
2117.839968  	0.000577 
2119.768784  	0.000356 
2121.697600  	0.000259 
2123.626416  	0.000570 
2125.555232  	-0.000092 
2127.484048  	0.000096 
2129.412864  	-0.000181 
2131.341680  	-0.000306 
2133.270496  	-0.000327 
2135.199312  	0.000918 
2137.128128  	0.001435 
2139.056944  	0.001559 
2140.985760  	0.001399 
2142.914576  	0.001534 
2144.843392  	0.000803 
2146.772208  	0.000816 
2148.701024  	0.000918 
2150.629840  	0.002142 
2152.558656  	0.001814 
2154.487472  	0.001288 
2156.416288  	0.000317 
2158.345104  	0.000924 
2160.273920  	0.002129 
2162.202736  	0.003706 
2164.131552  	0.002961 
2166.060368  	0.003343 
2167.989184  	0.003306 
2169.918000  	0.004017 
2171.846816  	0.002959 
2173.775632  	0.002999 
2175.704448  	0.002842 
2177.633264  	0.002304 
2179.562080  	0.001272 
2181.490896  	0.001647 
2183.419712  	0.001736 
2185.348528  	0.001820 
2187.277344  	0.001499 
2189.206160  	0.001215 
2191.134976  	0.000848 
2193.063792  	0.001134 
2194.992608  	0.000573 
2196.921424  	0.000933 
2198.850240  	0.001274 
2200.779056  	0.001642 
2202.707872  	0.000681 
2204.636688  	0.000686 
2206.565504  	0.000825 
2208.494320  	0.000957 
2210.423136  	0.000728 
2212.351952  	0.000679 
2214.280768  	0.000068 
2216.209584  	0.000405 
2218.138400  	-0.000084 
2220.067216  	0.000155 
2221.996032  	0.000371 
2223.924848  	0.000648 
2225.853664  	0.000538 
2227.782480  	0.000779 
2229.711296  	0.000068 
2231.640112  	-0.000655 
2233.568928  	-0.000673 
2235.497744  	-0.000395 
2237.426560  	-0.000505 
2239.355376  	-0.000352 
2241.284192  	-0.000484 
2243.213008  	-0.000273 
2245.141824  	-0.000484 
2247.070640  	-0.000083 
2248.999456  	-0.000272 
2250.928272  	-0.000756 
2252.857088  	-0.000997 
2254.785904  	-0.000744 
2256.714720  	-0.001448 
2258.643536  	-0.001774 
2260.572352  	-0.001655 
2262.501168  	-0.001326 
2264.429984  	-0.001208 
2266.358800  	-0.001183 
2268.287616  	-0.001349 
2270.216432  	-0.001328 
2272.145248  	-0.001320 
2274.074064  	-0.001296 
2276.002880  	-0.001112 
2277.931696  	-0.000504 
2279.860512  	-0.000369 
2281.789328  	-0.000248 
2283.718144  	-0.000439 
2285.646960  	-0.000302 
2287.575776  	-0.000078 
2289.504592  	-0.000059 
2291.433408  	-0.000122 
2293.362224  	0.000107 
2295.291040  	0.000294 
2297.219856  	0.000780 
2299.148672  	0.000868 
2301.077488  	0.000877 
2303.006304  	0.001061 
2304.935120  	0.001752 
2306.863936  	0.002310 
2308.792752  	0.002486 
2310.721568  	0.002017 
2312.650384  	0.001754 
2314.579200  	0.001354 
2316.508016  	0.000784 
2318.436832  	0.000212 
2320.365648  	-0.000502 
2322.294464  	-0.001572 
2324.223280  	-0.002817 
2326.152096  	-0.004614 
2328.080912  	-0.005994 
2330.009728  	-0.007275 
2331.938544  	-0.008729 
2333.867360  	-0.010212 
2335.796176  	-0.011235 
2337.724992  	-0.011863 
2339.653808  	-0.011832 
2341.582624  	-0.011922 
2343.511440  	-0.011030 
2345.440256  	-0.009241 
2347.369072  	-0.005680 
2349.297888  	-0.003216 
2351.226704  	-0.004691 
2353.155520  	-0.008479 
2355.084336  	-0.011466 
2357.013152  	-0.014258 
2358.941968  	-0.015669 
2360.870784  	-0.016576 
2362.799600  	-0.015970 
2364.728416  	-0.015215 
2366.657232  	-0.013366 
2368.586048  	-0.010691 
2370.514864  	-0.008187 
2372.443680  	-0.005945 
2374.372496  	-0.003689 
2376.301312  	-0.001835 
2378.230128  	-0.000391 
2380.158944  	0.000159 
2382.087760  	0.000070 
2384.016576  	-0.000451 
2385.945392  	-0.000938 
2387.874208  	-0.001291 
2389.803024  	-0.001487 
2391.731840  	-0.001755 
2393.660656  	-0.001796 
2395.589472  	-0.001832 
2397.518288  	-0.001778 
2399.447104  	-0.001791 
2401.375920  	-0.001794 
2403.304736  	-0.001952 
2405.233552  	-0.001849 
2407.162368  	-0.001861 
2409.091184  	-0.001678 
2411.020000  	-0.001733 
2412.948816  	-0.001813 
2414.877632  	-0.001753 
2416.806448  	-0.001609 
2418.735264  	-0.001693 
2420.664080  	-0.001589 
2422.592896  	-0.001475 
2424.521712  	-0.001470 
2426.450528  	-0.001725 
2428.379344  	-0.001742 
2430.308160  	-0.001579 
2432.236976  	-0.001296 
2434.165792  	-0.001258 
2436.094608  	-0.001392 
2438.023424  	-0.001413 
2439.952240  	-0.001234 
2441.881056  	-0.001251 
2443.809872  	-0.001349 
2445.738688  	-0.001264 
2447.667504  	-0.000909 
2449.596320  	-0.000787 
2451.525136  	-0.000763 
2453.453952  	-0.000788 
2455.382768  	-0.000939 
2457.311584  	-0.001335 
2459.240400  	-0.001424 
2461.169216  	-0.001326 
2463.098032  	-0.001273 
2465.026848  	-0.001329 
2466.955664  	-0.001288 
2468.884480  	-0.001352 
2470.813296  	-0.001338 
2472.742112  	-0.001347 
2474.670928  	-0.001272 
2476.599744  	-0.001105 
2478.528560  	-0.000998 
2480.457376  	-0.001136 
2482.386192  	-0.001085 
2484.315008  	-0.000833 
2486.243824  	-0.000899 
2488.172640  	-0.000834 
2490.101456  	-0.000485 
2492.030272  	-0.000409 
2493.959088  	-0.000381 
2495.887904  	-0.000311 
2497.816720  	-0.000311 
2499.745536  	-0.000346 
2501.674352  	-0.000230 
2503.603168  	0.000104 
2505.531984  	0.000202 
2507.460800  	-0.000197 
2509.389616  	-0.000432 
2511.318432  	-0.000344 
2513.247248  	-0.000078 
2515.176064  	0.000023 
2517.104880  	-0.000004 
2519.033696  	-0.000130 
2520.962512  	0.000124 
2522.891328  	0.000374 
2524.820144  	0.000247 
2526.748960  	0.000283 
2528.677776  	0.000533 
2530.606592  	0.000425 
2532.535408  	0.000350 
2534.464224  	0.000467 
2536.393040  	0.000383 
2538.321856  	0.000432 
2540.250672  	0.000658 
2542.179488  	0.000599 
2544.108304  	0.000774 
2546.037120  	0.000993 
2547.965936  	0.000934 
2549.894752  	0.000938 
2551.823568  	0.001103 
2553.752384  	0.001232 
2555.681200  	0.001514 
2557.610016  	0.001592 
2559.538832  	0.001734 
2561.467648  	0.001894 
2563.396464  	0.001896 
2565.325280  	0.001977 
2567.254096  	0.002023 
2569.182912  	0.001958 
2571.111728  	0.001966 
2573.040544  	0.001879 
2574.969360  	0.002144 
2576.898176  	0.002361 
2578.826992  	0.002200 
2580.755808  	0.002162 
2582.684624  	0.002404 
2584.613440  	0.002506 
2586.542256  	0.002555 
2588.471072  	0.002677 
2590.399888  	0.002772 
2592.328704  	0.002904 
2594.257520  	0.002919 
2596.186336  	0.002843 
2598.115152  	0.002981 
2600.043968  	0.002942 
2601.972784  	0.003165 
2603.901600  	0.003265 
2605.830416  	0.003386 
2607.759232  	0.003639 
2609.688048  	0.003780 
2611.616864  	0.003854 
2613.545680  	0.004023 
2615.474496  	0.004145 
2617.403312  	0.004256 
2619.332128  	0.004293 
2621.260944  	0.004424 
2623.189760  	0.004555 
2625.118576  	0.004688 
2627.047392  	0.004782 
2628.976208  	0.004923 
2630.905024  	0.004920 
2632.833840  	0.004920 
2634.762656  	0.005160 
2636.691472  	0.005320 
2638.620288  	0.005353 
2640.549104  	0.005451 
2642.477920  	0.005487 
2644.406736  	0.005682 
2646.335552  	0.005923 
2648.264368  	0.006101 
2650.193184  	0.006238 
2652.122000  	0.006448 
2654.050816  	0.006638 
2655.979632  	0.006767 
2657.908448  	0.006974 
2659.837264  	0.007154 
2661.766080  	0.007181 
2663.694896  	0.007252 
2665.623712  	0.007366 
2667.552528  	0.007580 
2669.481344  	0.007751 
2671.410160  	0.007865 
2673.338976  	0.007969 
2675.267792  	0.008142 
2677.196608  	0.008398 
2679.125424  	0.008479 
2681.054240  	0.008617 
2682.983056  	0.008867 
2684.911872  	0.008938 
2686.840688  	0.009029 
2688.769504  	0.009141 
2690.698320  	0.009169 
2692.627136  	0.009199 
2694.555952  	0.009427 
2696.484768  	0.009558 
2698.413584  	0.009620 
2700.342400  	0.009652 
2702.271216  	0.009777 
2704.200032  	0.010085 
2706.128848  	0.010236 
2708.057664  	0.010166 
2709.986480  	0.010240 
2711.915296  	0.010466 
2713.844112  	0.010728 
2715.772928  	0.010813 
2717.701744  	0.010985 
2719.630560  	0.011278 
2721.559376  	0.011383 
2723.488192  	0.011514 
2725.417008  	0.011801 
2727.345824  	0.011961 
2729.274640  	0.012043 
2731.203456  	0.012220 
2733.132272  	0.012459 
2735.061088  	0.012685 
2736.989904  	0.012842 
2738.918720  	0.012859 
2740.847536  	0.012881 
2742.776352  	0.012919 
2744.705168  	0.013094 
2746.633984  	0.013225 
2748.562800  	0.013207 
2750.491616  	0.013215 
2752.420432  	0.013422 
2754.349248  	0.013433 
2756.278064  	0.013397 
2758.206880  	0.013319 
2760.135696  	0.013300 
2762.064512  	0.013442 
2763.993328  	0.013556 
2765.922144  	0.013479 
2767.850960  	0.013417 
2769.779776  	0.013480 
2771.708592  	0.013562 
2773.637408  	0.013437 
2775.566224  	0.013283 
2777.495040  	0.013224 
2779.423856  	0.013349 
2781.352672  	0.013402 
2783.281488  	0.013351 
2785.210304  	0.013296 
2787.139120  	0.013223 
2789.067936  	0.013259 
2790.996752  	0.013355 
2792.925568  	0.013305 
2794.854384  	0.013326 
2796.783200  	0.013303 
2798.712016  	0.013184 
2800.640832  	0.013052 
2802.569648  	0.013130 
2804.498464  	0.013118 
2806.427280  	0.013045 
2808.356096  	0.013132 
2810.284912  	0.013208 
2812.213728  	0.013185 
2814.142544  	0.013155 
2816.071360  	0.013133 
2818.000176  	0.012986 
2819.928992  	0.012819 
2821.857808  	0.012734 
2823.786624  	0.012636 
2825.715440  	0.012544 
2827.644256  	0.012375 
2829.573072  	0.012302 
2831.501888  	0.011986 
2833.430704  	0.011533 
2835.359520  	0.011219 
2837.288336  	0.010898 
2839.217152  	0.010532 
2841.145968  	0.010218 
2843.074784  	0.009951 
2845.003600  	0.009468 
2846.932416  	0.008872 
2848.861232  	0.008444 
2850.790048  	0.007974 
2852.718864  	0.007468 
2854.647680  	0.006993 
2856.576496  	0.006561 
2858.505312  	0.005968 
2860.434128  	0.005315 
2862.362944  	0.004622 
2864.291760  	0.003941 
2866.220576  	0.003376 
2868.149392  	0.003066 
2870.078208  	0.002854 
2872.007024  	0.002857 
2873.935840  	0.003026 
2875.864656  	0.003105 
2877.793472  	0.003003 
2879.722288  	0.002934 
2881.651104  	0.002702 
2883.579920  	0.002591 
2885.508736  	0.002826 
2887.437552  	0.003091 
2889.366368  	0.003191 
2891.295184  	0.002958 
2893.224000  	0.002748 
2895.152816  	0.002781 
2897.081632  	0.002427 
2899.010448  	0.000690 
2900.939264  	-0.000866 
2902.868080  	0.000481 
2904.796896  	0.001971 
2906.725712  	0.002596 
2908.654528  	0.003232 
2910.583344  	0.003661 
2912.512160  	0.004226 
2914.440976  	0.005386 
2916.369792  	0.006317 
2918.298608  	0.006924 
2920.227424  	0.007522 
2922.156240  	0.008365 
2924.085056  	0.009290 
2926.013872  	0.010340 
2927.942688  	0.011445 
2929.871504  	0.012520 
2931.800320  	0.013569 
2933.729136  	0.014475 
2935.657952  	0.015263 
2937.586768  	0.016102 
2939.515584  	0.016837 
2941.444400  	0.017114 
2943.373216  	0.017305 
2945.302032  	0.017695 
2947.230848  	0.017925 
2949.159664  	0.017653 
2951.088480  	0.017084 
2953.017296  	0.016559 
2954.946112  	0.015992 
2956.874928  	0.015378 
2958.803744  	0.014568 
2960.732560  	0.013971 
2962.661376  	0.013325 
2964.590192  	0.012299 
2966.519008  	0.011083 
2968.447824  	0.010055 
2970.376640  	0.009244 
2972.305456  	0.008738 
2974.234272  	0.008884 
2976.163088  	0.009132 
2978.091904  	0.009135 
2980.020720  	0.009191 
2981.949536  	0.009533 
2983.878352  	0.009351 
2985.807168  	0.008388 
2987.735984  	0.007528 
2989.664800  	0.007891 
2991.593616  	0.010874 
2993.522432  	0.012912 
2995.451248  	0.013584 
2997.380064  	0.014586 
2999.308880  	0.015792 
3001.237696  	0.017130 
3003.166512  	0.018722 
3005.095328  	0.020271 
3007.024144  	0.021836 
3008.952960  	0.023288 
3010.881776  	0.024823 
3012.810592  	0.026370 
3014.739408  	0.027752 
3016.668224  	0.029014 
3018.597040  	0.030337 
3020.525856  	0.031637 
3022.454672  	0.032861 
3024.383488  	0.034133 
3026.312304  	0.035216 
3028.241120  	0.036286 
3030.169936  	0.037251 
3032.098752  	0.038185 
3034.027568  	0.039224 
3035.956384  	0.040253 
3037.885200  	0.041241 
3039.814016  	0.041986 
3041.742832  	0.042775 
3043.671648  	0.043433 
3045.600464  	0.044159 
3047.529280  	0.044844 
3049.458096  	0.045528 
3051.386912  	0.046303 
3053.315728  	0.047009 
3055.244544  	0.047872 
3057.173360  	0.048745 
3059.102176  	0.049420 
3061.030992  	0.050126 
3062.959808  	0.050933 
3064.888624  	0.051864 
3066.817440  	0.052760 
3068.746256  	0.053699 
3070.675072  	0.054659 
3072.603888  	0.055651 
3074.532704  	0.056673 
3076.461520  	0.057615 
3078.390336  	0.058456 
3080.319152  	0.059345 
3082.247968  	0.060304 
3084.176784  	0.061210 
3086.105600  	0.062215 
3088.034416  	0.063170 
3089.963232  	0.064267 
3091.892048  	0.065213 
3093.820864  	0.065941 
3095.749680  	0.066760 
3097.678496  	0.067885 
3099.607312  	0.068903 
3101.536128  	0.069953 
3103.464944  	0.070994 
3105.393760  	0.071843 
3107.322576  	0.072693 
3109.251392  	0.073678 
3111.180208  	0.074644 
3113.109024  	0.075453 
3115.037840  	0.076160 
3116.966656  	0.076920 
3118.895472  	0.077717 
3120.824288  	0.078519 
3122.753104  	0.079262 
3124.681920  	0.079933 
3126.610736  	0.080569 
3128.539552  	0.081507 
3130.468368  	0.082330 
3132.397184  	0.082970 
3134.326000  	0.083636 
3136.254816  	0.084424 
3138.183632  	0.085191 
3140.112448  	0.085881 
3142.041264  	0.086645 
3143.970080  	0.087325 
3145.898896  	0.087872 
3147.827712  	0.088720 
3149.756528  	0.089545 
3151.685344  	0.090027 
3153.614160  	0.090589 
3155.542976  	0.091463 
3157.471792  	0.092491 
3159.400608  	0.093397 
3161.329424  	0.093930 
3163.258240  	0.094179 
3165.187056  	0.094724 
3167.115872  	0.095521 
3169.044688  	0.096065 
3170.973504  	0.096530 
3172.902320  	0.097010 
3174.831136  	0.097514 
3176.759952  	0.097795 
3178.688768  	0.098033 
3180.617584  	0.098511 
3182.546400  	0.098910 
3184.475216  	0.099062 
3186.404032  	0.099118 
3188.332848  	0.099351 
3190.261664  	0.099719 
3192.190480  	0.099865 
3194.119296  	0.099795 
3196.048112  	0.099943 
3197.976928  	0.099907 
3199.905744  	0.099715 
3201.834560  	0.099408 
3203.763376  	0.099276 
3205.692192  	0.099274 
3207.621008  	0.099057 
3209.549824  	0.098909 
3211.478640  	0.098927 
3213.407456  	0.098866 
3215.336272  	0.098667 
3217.265088  	0.098519 
3219.193904  	0.098259 
3221.122720  	0.097896 
3223.051536  	0.097718 
3224.980352  	0.097627 
3226.909168  	0.097466 
3228.837984  	0.097093 
3230.766800  	0.096935 
3232.695616  	0.097093 
3234.624432  	0.097040 
3236.553248  	0.096822 
3238.482064  	0.096614 
3240.410880  	0.096460 
3242.339696  	0.096666 
3244.268512  	0.096580 
3246.197328  	0.096652 
3248.126144  	0.097079 
3250.054960  	0.097433 
3251.983776  	0.097684 
3253.912592  	0.097683 
3255.841408  	0.097876 
3257.770224  	0.098330 
3259.699040  	0.098732 
3261.627856  	0.099133 
3263.556672  	0.099182 
3265.485488  	0.099158 
3267.414304  	0.099411 
3269.343120  	0.099860 
3271.271936  	0.100144 
3273.200752  	0.100201 
3275.129568  	0.100281 
3277.058384  	0.100796 
3278.987200  	0.101127 
3280.916016  	0.101162 
3282.844832  	0.101308 
3284.773648  	0.101505 
3286.702464  	0.101837 
3288.631280  	0.102092 
3290.560096  	0.102493 
3292.488912  	0.102840 
3294.417728  	0.103093 
3296.346544  	0.103335 
3298.275360  	0.103611 
3300.204176  	0.104023 
3302.132992  	0.104471 
3304.061808  	0.104832 
3305.990624  	0.105088 
3307.919440  	0.105258 
3309.848256  	0.105703 
3311.777072  	0.106122 
3313.705888  	0.106270 
3315.634704  	0.106663 
3317.563520  	0.107122 
3319.492336  	0.107568 
3321.421152  	0.107759 
3323.349968  	0.107893 
3325.278784  	0.107978 
3327.207600  	0.108070 
3329.136416  	0.108127 
3331.065232  	0.108285 
3332.994048  	0.108399 
3334.922864  	0.108377 
3336.851680  	0.108236 
3338.780496  	0.108031 
3340.709312  	0.108012 
3342.638128  	0.107922 
3344.566944  	0.107265 
3346.495760  	0.106851 
3348.424576  	0.106587 
3350.353392  	0.106372 
3352.282208  	0.106198 
3354.211024  	0.105925 
3356.139840  	0.105489 
3358.068656  	0.104943 
3359.997472  	0.104409 
3361.926288  	0.103946 
3363.855104  	0.103575 
3365.783920  	0.103027 
3367.712736  	0.102458 
3369.641552  	0.101954 
3371.570368  	0.101448 
3373.499184  	0.101013 
3375.428000  	0.100696 
3377.356816  	0.100313 
3379.285632  	0.100079 
3381.214448  	0.099786 
3383.143264  	0.099222 
3385.072080  	0.098573 
3387.000896  	0.098140 
3388.929712  	0.097701 
3390.858528  	0.097229 
3392.787344  	0.096879 
3394.716160  	0.096340 
3396.644976  	0.095821 
3398.573792  	0.095329 
3400.502608  	0.094931 
3402.431424  	0.094521 
3404.360240  	0.093876 
3406.289056  	0.093010 
3408.217872  	0.092406 
3410.146688  	0.091797 
3412.075504  	0.091347 
3414.004320  	0.091017 
3415.933136  	0.090593 
3417.861952  	0.089740 
3419.790768  	0.089038 
3421.719584  	0.088407 
3423.648400  	0.087889 
3425.577216  	0.087254 
3427.506032  	0.086552 
3429.434848  	0.085944 
3431.363664  	0.085424 
3433.292480  	0.084700 
3435.221296  	0.083914 
3437.150112  	0.083379 
3439.078928  	0.082912 
3441.007744  	0.082296 
3442.936560  	0.081710 
3444.865376  	0.081155 
3446.794192  	0.080208 
3448.723008  	0.079055 
3450.651824  	0.078283 
3452.580640  	0.077889 
3454.509456  	0.077439 
3456.438272  	0.076592 
3458.367088  	0.075827 
3460.295904  	0.075155 
3462.224720  	0.074215 
3464.153536  	0.073203 
3466.082352  	0.072391 
3468.011168  	0.071383 
3469.939984  	0.070558 
3471.868800  	0.069729 
3473.797616  	0.068848 
3475.726432  	0.067934 
3477.655248  	0.067081 
3479.584064  	0.066450 
3481.512880  	0.065453 
3483.441696  	0.064219 
3485.370512  	0.063452 
3487.299328  	0.062316 
3489.228144  	0.061449 
3491.156960  	0.060674 
3493.085776  	0.059846 
3495.014592  	0.059098 
3496.943408  	0.058398 
3498.872224  	0.057658 
3500.801040  	0.057442 
3502.729856  	0.056631 
3504.658672  	0.055212 
3506.587488  	0.054621 
3508.516304  	0.054183 
3510.445120  	0.053303 
3512.373936  	0.052389 
3514.302752  	0.051546 
3516.231568  	0.051064 
3518.160384  	0.050557 
3520.089200  	0.049900 
3522.018016  	0.049280 
3523.946832  	0.048937 
3525.875648  	0.048092 
3527.804464  	0.046717 
3529.733280  	0.045825 
3531.662096  	0.045093 
3533.590912  	0.044482 
3535.519728  	0.044260 
3537.448544  	0.043539 
3539.377360  	0.042324 
3541.306176  	0.041591 
3543.234992  	0.041487 
3545.163808  	0.041664 
3547.092624  	0.040741 
3549.021440  	0.039171 
3550.950256  	0.038469 
3552.879072  	0.037725 
3554.807888  	0.036863 
3556.736704  	0.036079 
3558.665520  	0.035613 
3560.594336  	0.035088 
3562.523152  	0.034296 
3564.451968  	0.034240 
3566.380784  	0.034022 
3568.309600  	0.032046 
3570.238416  	0.031107 
3572.167232  	0.030778 
3574.096048  	0.029766 
3576.024864  	0.028807 
3577.953680  	0.028289 
3579.882496  	0.027484 
3581.811312  	0.026628 
3583.740128  	0.026122 
3585.668944  	0.025947 
3587.597760  	0.024471 
3589.526576  	0.022964 
3591.455392  	0.022579 
3593.384208  	0.022072 
3595.313024  	0.021037 
3597.241840  	0.019801 
3599.170656  	0.018509 
3601.099472  	0.017399 
3603.028288  	0.016966 
3604.957104  	0.016814 
3606.885920  	0.015958 
3608.814736  	0.014410 
3610.743552  	0.013843 
3612.672368  	0.012647 
3614.601184  	0.011252 
3616.530000  	0.010927 
3618.458816  	0.008974 
3620.387632  	0.007325 
3622.316448  	0.007466 
3624.245264  	0.007271 
3626.174080  	0.006648 
3628.102896  	0.004100 
3630.031712  	0.001082 
3631.960528  	0.002308 
3633.889344  	0.001917 
3635.818160  	0.001044 
3637.746976  	0.000147 
3639.675792  	-0.000451 
3641.604608  	-0.000918 
3643.533424  	-0.001471 
3645.462240  	-0.002151 
3647.391056  	-0.005019 
3649.319872  	-0.009573 
3651.248688  	-0.010952 
3653.177504  	-0.008489 
3655.106320  	-0.008805 
3657.035136  	-0.011324 
3658.963952  	-0.011109 
3660.892768  	-0.010991 
3662.821584  	-0.011387 
3664.750400  	-0.011568 
3666.679216  	-0.011828 
3668.608032  	-0.013851 
3670.536848  	-0.016779 
3672.465664  	-0.015253 
3674.394480  	-0.016244 
3676.323296  	-0.020144 
3678.252112  	-0.016694 
3680.180928  	-0.014936 
3682.109744  	-0.014240 
3684.038560  	-0.014343 
3685.967376  	-0.014370 
3687.896192  	-0.016786 
3689.825008  	-0.019927 
3691.753824  	-0.018570 
3693.682640  	-0.015984 
3695.611456  	-0.014692 
3697.540272  	-0.013922 
3699.469088  	-0.013376 
3701.397904  	-0.014349 
3703.326720  	-0.014293 
3705.255536  	-0.012787 
3707.184352  	-0.012280 
3709.113168  	-0.013861 
3711.041984  	-0.016160 
3712.970800  	-0.015168 
3714.899616  	-0.012233 
3716.828432  	-0.011229 
3718.757248  	-0.011818 
3720.686064  	-0.012396 
3722.614880  	-0.012730 
3724.543696  	-0.012061 
3726.472512  	-0.012147 
3728.401328  	-0.012127 
3730.330144  	-0.012746 
3732.258960  	-0.014402 
3734.187776  	-0.013991 
3736.116592  	-0.014802 
3738.045408  	-0.014527 
3739.974224  	-0.012680 
3741.903040  	-0.011470 
3743.831856  	-0.013372 
3745.760672  	-0.015907 
3747.689488  	-0.014194 
3749.618304  	-0.016459 
3751.547120  	-0.018214 
3753.475936  	-0.015851 
3755.404752  	-0.013276 
3757.333568  	-0.012664 
3759.262384  	-0.013520 
3761.191200  	-0.013353 
3763.120016  	-0.011470 
3765.048832  	-0.011835 
3766.977648  	-0.012013 
3768.906464  	-0.012580 
3770.835280  	-0.013324 
3772.764096  	-0.012052 
3774.692912  	-0.011332 
3776.621728  	-0.011062 
3778.550544  	-0.012313 
3780.479360  	-0.013495 
3782.408176  	-0.012053 
3784.336992  	-0.012120 
3786.265808  	-0.011981 
3788.194624  	-0.011433 
3790.123440  	-0.011459 
3792.052256  	-0.011461 
3793.981072  	-0.011427 
3795.909888  	-0.012758 
3797.838704  	-0.013108 
3799.767520  	-0.013248 
3801.696336  	-0.016714 
3803.625152  	-0.015066 
3805.553968  	-0.013512 
3807.482784  	-0.014823 
3809.411600  	-0.012996 
3811.340416  	-0.011571 
3813.269232  	-0.011312 
3815.198048  	-0.013616 
3817.126864  	-0.015168 
3819.055680  	-0.013732 
3820.984496  	-0.016531 
3822.913312  	-0.015561 
3824.842128  	-0.012750 
3826.770944  	-0.012835 
3828.699760  	-0.012236 
3830.628576  	-0.012486 
3832.557392  	-0.013568 
3834.486208  	-0.013489 
3836.415024  	-0.014278 
3838.343840  	-0.015704 
3840.272656  	-0.015194 
3842.201472  	-0.013577 
3844.130288  	-0.013122 
3846.059104  	-0.012148 
3847.987920  	-0.011303 
3849.916736  	-0.011390 
3851.845552  	-0.013472 
3853.774368  	-0.018581 
3855.703184  	-0.016182 
3857.632000  	-0.013031 
3859.560816  	-0.011562 
3861.489632  	-0.011622 
3863.418448  	-0.012653 
3865.347264  	-0.013359 
3867.276080  	-0.012180 
3869.204896  	-0.013026 
3871.133712  	-0.013749 
3873.062528  	-0.012756 
3874.991344  	-0.013147 
3876.920160  	-0.011434 
3878.848976  	-0.010669 
3880.777792  	-0.011830 
3882.706608  	-0.011239 
3884.635424  	-0.011324 
3886.564240  	-0.012755 
3888.493056  	-0.011685 
3890.421872  	-0.011933 
3892.350688  	-0.012949 
3894.279504  	-0.011734 
3896.208320  	-0.010698 
3898.137136  	-0.010632 
3900.065952  	-0.011209 
3901.994768  	-0.011246 
3903.923584  	-0.012108 
3905.852400  	-0.012453 
3907.781216  	-0.011749 
3909.710032  	-0.011393 
3911.638848  	-0.011182 
3913.567664  	-0.010798 
3915.496480  	-0.010511 
3917.425296  	-0.010819 
3919.354112  	-0.011163 
3921.282928  	-0.011077 
3923.211744  	-0.010654 
3925.140560  	-0.010822 
3927.069376  	-0.010924 
3928.998192  	-0.010834 
3930.927008  	-0.010578 
3932.855824  	-0.010557 
3934.784640  	-0.010929 
3936.713456  	-0.011065 
3938.642272  	-0.010864 
3940.571088  	-0.010408 
3942.499904  	-0.010387 
3944.428720  	-0.010678 
3946.357536  	-0.010321 
3948.286352  	-0.010167 
3950.215168  	-0.010783 
3952.143984  	-0.011363 
3954.072800  	-0.011367 
3956.001616  	-0.011010 
3957.930432  	-0.010919 
3959.859248  	-0.010838 
3961.788064  	-0.010739 
3963.716880  	-0.011070 
3965.645696  	-0.011279 
3967.574512  	-0.011130 
3969.503328  	-0.010822 
3971.432144  	-0.010843 
3973.360960  	-0.010979 
3975.289776  	-0.010937 
3977.218592  	-0.010749 
3979.147408  	-0.010827 
3981.076224  	-0.010888 
3983.005040  	-0.010869 
3984.933856  	-0.010893 
3986.862672  	-0.010968 
3988.791488  	-0.010795 
3990.720304  	-0.010637 
3992.649120  	-0.010693 
3994.577936  	-0.010816 
3996.506752  	-0.010902 
3998.435568  	-0.010976 
4000.364384  	-0.010969 