##TITLE=No Description
##DATA TYPE=INFRARED SPECTRUM
##XUNITS=1/CM
##YUNITS=Abs
399.264912  	0.601131 
401.193728  	0.586681 
403.122544  	0.601159 
405.051360  	0.591407 
406.980176  	0.589974 
408.908992  	0.577956 
410.837808  	0.571838 
412.766624  	0.571856 
414.695440  	0.578325 
416.624256  	0.575828 
418.553072  	0.584680 
420.481888  	0.568157 
422.410704  	0.563526 
424.339520  	0.559560 
426.268336  	0.561035 
428.197152  	0.555798 
430.125968  	0.552584 
432.054784  	0.543604 
433.983600  	0.542620 
435.912416  	0.540584 
437.841232  	0.540446 
439.770048  	0.537162 
441.698864  	0.538602 
443.627680  	0.527760 
445.556496  	0.529599 
447.485312  	0.530936 
449.414128  	0.532863 
451.342944  	0.532208 
453.271760  	0.530124 
455.200576  	0.524351 
457.129392  	0.530658 
459.058208  	0.531087 
460.987024  	0.532694 
462.915840  	0.531219 
464.844656  	0.531903 
466.773472  	0.528074 
468.702288  	0.531022 
470.631104  	0.531016 
472.559920  	0.527036 
474.488736  	0.523811 
476.417552  	0.526457 
478.346368  	0.523812 
480.275184  	0.524603 
482.204000  	0.525031 
484.132816  	0.524911 
486.061632  	0.519988 
487.990448  	0.525354 
489.919264  	0.523962 
491.848080  	0.519560 
493.776896  	0.516316 
495.705712  	0.516059 
497.634528  	0.512766 
499.563344  	0.514343 
501.492160  	0.510657 
503.420976  	0.510083 
505.349792  	0.511426 
507.278608  	0.511593 
509.207424  	0.509614 
511.136240  	0.512284 
513.065056  	0.514065 
514.993872  	0.517512 
516.922688  	0.518207 
518.851504  	0.522504 
520.780320  	0.521022 
522.709136  	0.516794 
524.637952  	0.516151 
526.566768  	0.517687 
528.495584  	0.512976 
530.424400  	0.510458 
532.353216  	0.506077 
534.282032  	0.500342 
536.210848  	0.493021 
538.139664  	0.489198 
540.068480  	0.482577 
541.997296  	0.477094 
543.926112  	0.472640 
545.854928  	0.470586 
547.783744  	0.467115 
549.712560  	0.463878 
551.641376  	0.458134 
553.570192  	0.453679 
555.499008  	0.450260 
557.427824  	0.448151 
559.356640  	0.443138 
561.285456  	0.439329 
563.214272  	0.435749 
565.143088  	0.433100 
567.071904  	0.428943 
569.000720  	0.424652 
570.929536  	0.421448 
572.858352  	0.419677 
574.787168  	0.417672 
576.715984  	0.415757 
578.644800  	0.411683 
580.573616  	0.407216 
582.502432  	0.402086 
584.431248  	0.398388 
586.360064  	0.394492 
588.288880  	0.391478 
590.217696  	0.389357 
592.146512  	0.387245 
594.075328  	0.383688 
596.004144  	0.381755 
597.932960  	0.380474 
599.861776  	0.379162 
601.790592  	0.376690 
603.719408  	0.374905 
605.648224  	0.372478 
607.577040  	0.371405 
609.505856  	0.371118 
611.434672  	0.370176 
613.363488  	0.367642 
615.292304  	0.366363 
617.221120  	0.365171 
619.149936  	0.364399 
621.078752  	0.362777 
623.007568  	0.361140 
624.936384  	0.359467 
626.865200  	0.358282 
628.794016  	0.357081 
630.722832  	0.356782 
632.651648  	0.356910 
634.580464  	0.357295 
636.509280  	0.357078 
638.438096  	0.357413 
640.366912  	0.356981 
642.295728  	0.355519 
644.224544  	0.352608 
646.153360  	0.349570 
648.082176  	0.345200 
650.010992  	0.341379 
651.939808  	0.337541 
653.868624  	0.333451 
655.797440  	0.329424 
657.726256  	0.325533 
659.655072  	0.321256 
661.583888  	0.317147 
663.512704  	0.313283 
665.441520  	0.309469 
667.370336  	0.302163 
669.299152  	0.296252 
671.227968  	0.295093 
673.156784  	0.292233 
675.085600  	0.289542 
677.014416  	0.287136 
678.943232  	0.285228 
680.872048  	0.283523 
682.800864  	0.281787 
684.729680  	0.280946 
686.658496  	0.279654 
688.587312  	0.278457 
690.516128  	0.276625 
692.444944  	0.275257 
694.373760  	0.274735 
696.302576  	0.273273 
698.231392  	0.270514 
700.160208  	0.268096 
702.089024  	0.265888 
704.017840  	0.263693 
705.946656  	0.260942 
707.875472  	0.258471 
709.804288  	0.256629 
711.733104  	0.254708 
713.661920  	0.252557 
715.590736  	0.251294 
717.519552  	0.250828 
719.448368  	0.250992 
721.377184  	0.251867 
723.306000  	0.253211 
725.234816  	0.253805 
727.163632  	0.253233 
729.092448  	0.250937 
731.021264  	0.247465 
732.950080  	0.243765 
734.878896  	0.240782 
736.807712  	0.237671 
738.736528  	0.235056 
740.665344  	0.233085 
742.594160  	0.231202 
744.522976  	0.229500 
746.451792  	0.228117 
748.380608  	0.226705 
750.309424  	0.225489 
752.238240  	0.224494 
754.167056  	0.223602 
756.095872  	0.222726 
758.024688  	0.221984 
759.953504  	0.221553 
761.882320  	0.222442 
763.811136  	0.223271 
765.739952  	0.222580 
767.668768  	0.220228 
769.597584  	0.217573 
771.526400  	0.216475 
773.455216  	0.218042 
775.384032  	0.222382 
777.312848  	0.228212 
779.241664  	0.233005 
781.170480  	0.233592 
783.099296  	0.229608 
785.028112  	0.223676 
786.956928  	0.217338 
788.885744  	0.212144 
790.814560  	0.208483 
792.743376  	0.206082 
794.672192  	0.204936 
796.601008  	0.204187 
798.529824  	0.201455 
800.458640  	0.196934 
802.387456  	0.193204 
804.316272  	0.191119 
806.245088  	0.190045 
808.173904  	0.189443 
810.102720  	0.189065 
812.031536  	0.188966 
813.960352  	0.189421 
815.889168  	0.189852 
817.817984  	0.190154 
819.746800  	0.190603 
821.675616  	0.191200 
823.604432  	0.191464 
825.533248  	0.191305 
827.462064  	0.190972 
829.390880  	0.190207 
831.319696  	0.188817 
833.248512  	0.186959 
835.177328  	0.184754 
837.106144  	0.181924 
839.034960  	0.178374 
840.963776  	0.174548 
842.892592  	0.170911 
844.821408  	0.167566 
846.750224  	0.164497 
848.679040  	0.162092 
850.607856  	0.160115 
852.536672  	0.158385 
854.465488  	0.157052 
856.394304  	0.155905 
858.323120  	0.154717 
860.251936  	0.152905 
862.180752  	0.150644 
864.109568  	0.148059 
866.038384  	0.145319 
867.967200  	0.142976 
869.896016  	0.141030 
871.824832  	0.140002 
873.753648  	0.139977 
875.682464  	0.140796 
877.611280  	0.141738 
879.540096  	0.142895 
881.468912  	0.144961 
883.397728  	0.146493 
885.326544  	0.147666 
887.255360  	0.147960 
889.184176  	0.146921 
891.112992  	0.145068 
893.041808  	0.143335 
894.970624  	0.140811 
896.899440  	0.137278 
898.828256  	0.132822 
900.757072  	0.128177 
902.685888  	0.124660 
904.614704  	0.122814 
906.543520  	0.122751 
908.472336  	0.124174 
910.401152  	0.126782 
912.329968  	0.129952 
914.258784  	0.133283 
916.187600  	0.136283 
918.116416  	0.138945 
920.045232  	0.140909 
921.974048  	0.142038 
923.902864  	0.142567 
925.831680  	0.142668 
927.760496  	0.142816 
929.689312  	0.143360 
931.618128  	0.144433 
933.546944  	0.145370 
935.475760  	0.145809 
937.404576  	0.145754 
939.333392  	0.145546 
941.262208  	0.145947 
943.191024  	0.147756 
945.119840  	0.151882 
947.048656  	0.158668 
948.977472  	0.167930 
950.906288  	0.179043 
952.835104  	0.191318 
954.763920  	0.204188 
956.692736  	0.216187 
958.621552  	0.226392 
960.550368  	0.233132 
962.479184  	0.236190 
964.408000  	0.235071 
966.336816  	0.229730 
968.265632  	0.220289 
970.194448  	0.207841 
972.123264  	0.193544 
974.052080  	0.178675 
975.980896  	0.164173 
977.909712  	0.150667 
979.838528  	0.138715 
981.767344  	0.128775 
983.696160  	0.121009 
985.624976  	0.116132 
987.553792  	0.114306 
989.482608  	0.115404 
991.411424  	0.118953 
993.340240  	0.124303 
995.269056  	0.131238 
997.197872  	0.138636 
999.126688  	0.146080 
1001.055504  	0.153851 
1002.984320  	0.161645 
1004.913136  	0.169219 
1006.841952  	0.176515 
1008.770768  	0.182595 
1010.699584  	0.186977 
1012.628400  	0.189586 
1014.557216  	0.190781 
1016.486032  	0.191111 
1018.414848  	0.190741 
1020.343664  	0.190184 
1022.272480  	0.189488 
1024.201296  	0.188057 
1026.130112  	0.184669 
1028.058928  	0.183721 
1029.987744  	0.187277 
1031.916560  	0.189895 
1033.845376  	0.191730 
1035.774192  	0.193840 
1037.703008  	0.197567 
1039.631824  	0.205370 
1041.560640  	0.216100 
1043.489456  	0.230092 
1045.418272  	0.246791 
1047.347088  	0.264780 
1049.275904  	0.280817 
1051.204720  	0.292983 
1053.133536  	0.300062 
1055.062352  	0.302208 
1056.991168  	0.300362 
1058.919984  	0.300524 
1060.848800  	0.300939 
1062.777616  	0.297995 
1064.706432  	0.290764 
1066.635248  	0.284559 
1068.564064  	0.282268 
1070.492880  	0.276855 
1072.421696  	0.268398 
1074.350512  	0.262739 
1076.279328  	0.261666 
1078.208144  	0.264986 
1080.136960  	0.270823 
1082.065776  	0.277433 
1083.994592  	0.281510 
1085.923408  	0.281664 
1087.852224  	0.277617 
1089.781040  	0.271294 
1091.709856  	0.263908 
1093.638672  	0.253950 
1095.567488  	0.241107 
1097.496304  	0.227106 
1099.425120  	0.212571 
1101.353936  	0.198178 
1103.282752  	0.184262 
1105.211568  	0.171094 
1107.140384  	0.158344 
1109.069200  	0.146510 
1110.998016  	0.135827 
1112.926832  	0.126136 
1114.855648  	0.117024 
1116.784464  	0.108703 
1118.713280  	0.100966 
1120.642096  	0.093626 
1122.570912  	0.086902 
1124.499728  	0.080549 
1126.428544  	0.074823 
1128.357360  	0.069472 
1130.286176  	0.065153 
1132.214992  	0.061582 
1134.143808  	0.058778 
1136.072624  	0.056337 
1138.001440  	0.054348 
1139.930256  	0.052042 
1141.859072  	0.049693 
1143.787888  	0.047173 
1145.716704  	0.044734 
1147.645520  	0.042376 
1149.574336  	0.040620 
1151.503152  	0.039186 
1153.431968  	0.038664 
1155.360784  	0.038797 
1157.289600  	0.039687 
1159.218416  	0.041354 
1161.147232  	0.043637 
1163.076048  	0.045916 
1165.004864  	0.048656 
1166.933680  	0.051328 
1168.862496  	0.054185 
1170.791312  	0.056866 
1172.720128  	0.060284 
1174.648944  	0.063470 
1176.577760  	0.066536 
1178.506576  	0.069633 
1180.435392  	0.073012 
1182.364208  	0.076117 
1184.293024  	0.079769 
1186.221840  	0.083716 
1188.150656  	0.087961 
1190.079472  	0.092684 
1192.008288  	0.098572 
1193.937104  	0.105717 
1195.865920  	0.114124 
1197.794736  	0.123390 
1199.723552  	0.133636 
1201.652368  	0.144085 
1203.581184  	0.154500 
1205.510000  	0.164565 
1207.438816  	0.174423 
1209.367632  	0.183685 
1211.296448  	0.191283 
1213.225264  	0.197646 
1215.154080  	0.202510 
1217.082896  	0.205949 
1219.011712  	0.207987 
1220.940528  	0.209355 
1222.869344  	0.210150 
1224.798160  	0.209944 
1226.726976  	0.208992 
1228.655792  	0.207720 
1230.584608  	0.205673 
1232.513424  	0.203173 
1234.442240  	0.199830 
1236.371056  	0.195590 
1238.299872  	0.190121 
1240.228688  	0.182372 
1242.157504  	0.174608 
1244.086320  	0.167906 
1246.015136  	0.159483 
1247.943952  	0.150321 
1249.872768  	0.141404 
1251.801584  	0.133657 
1253.730400  	0.125852 
1255.659216  	0.118158 
1257.588032  	0.111129 
1259.516848  	0.104345 
1261.445664  	0.097909 
1263.374480  	0.092242 
1265.303296  	0.087550 
1267.232112  	0.083668 
1269.160928  	0.080696 
1271.089744  	0.078454 
1273.018560  	0.077135 
1274.947376  	0.076662 
1276.876192  	0.076762 
1278.805008  	0.076525 
1280.733824  	0.075327 
1282.662640  	0.073150 
1284.591456  	0.070665 
1286.520272  	0.068426 
1288.449088  	0.066955 
1290.377904  	0.066320 
1292.306720  	0.066564 
1294.235536  	0.066655 
1296.164352  	0.065776 
1298.093168  	0.063419 
1300.021984  	0.060289 
1301.950800  	0.056933 
1303.879616  	0.053800 
1305.808432  	0.050413 
1307.737248  	0.047016 
1309.666064  	0.043701 
1311.594880  	0.041301 
1313.523696  	0.039398 
1315.452512  	0.038088 
1317.381328  	0.037309 
1319.310144  	0.037091 
1321.238960  	0.037202 
1323.167776  	0.037941 
1325.096592  	0.038917 
1327.025408  	0.039654 
1328.954224  	0.039642 
1330.883040  	0.039132 
1332.811856  	0.038245 
1334.740672  	0.037699 
1336.669488  	0.037661 
1338.598304  	0.037899 
1340.527120  	0.036512 
1342.455936  	0.034796 
1344.384752  	0.034293 
1346.313568  	0.034507 
1348.242384  	0.035146 
1350.171200  	0.036427 
1352.100016  	0.038184 
1354.028832  	0.040419 
1355.957648  	0.042441 
1357.886464  	0.044636 
1359.815280  	0.047178 
1361.744096  	0.049900 
1363.672912  	0.051393 
1365.601728  	0.052507 
1367.530544  	0.053984 
1369.459360  	0.054523 
1371.388176  	0.054370 
1373.316992  	0.053192 
1375.245808  	0.049786 
1377.174624  	0.046870 
1379.103440  	0.043760 
1381.032256  	0.040583 
1382.961072  	0.038197 
1384.889888  	0.037417 
1386.818704  	0.036765 
1388.747520  	0.034846 
1390.676336  	0.032413 
1392.605152  	0.029113 
1394.533968  	0.027158 
1396.462784  	0.030034 
1398.391600  	0.031282 
1400.320416  	0.030553 
1402.249232  	0.030874 
1404.178048  	0.031585 
1406.106864  	0.032216 
1408.035680  	0.034067 
1409.964496  	0.036742 
1411.893312  	0.039787 
1413.822128  	0.042947 
1415.750944  	0.046935 
1417.679760  	0.049676 
1419.608576  	0.049325 
1421.537392  	0.049554 
1423.466208  	0.049626 
1425.395024  	0.047748 
1427.323840  	0.046299 
1429.252656  	0.043661 
1431.181472  	0.041688 
1433.110288  	0.041619 
1435.039104  	0.042371 
1436.967920  	0.041796 
1438.896736  	0.042548 
1440.825552  	0.043849 
1442.754368  	0.044619 
1444.683184  	0.044870 
1446.612000  	0.044818 
1448.540816  	0.043806 
1450.469632  	0.044309 
1452.398448  	0.045242 
1454.327264  	0.046332 
1456.256080  	0.045734 
1458.184896  	0.043008 
1460.113712  	0.044353 
1462.042528  	0.045903 
1463.971344  	0.045594 
1465.900160  	0.045952 
1467.828976  	0.048821 
1469.757792  	0.052374 
1471.686608  	0.055612 
1473.615424  	0.061649 
1475.544240  	0.068860 
1477.473056  	0.075067 
1479.401872  	0.079350 
1481.330688  	0.082862 
1483.259504  	0.085194 
1485.188320  	0.086869 
1487.117136  	0.086698 
1489.045952  	0.085872 
1490.974768  	0.082499 
1492.903584  	0.080116 
1494.832400  	0.076678 
1496.761216  	0.069336 
1498.690032  	0.062649 
1500.618848  	0.058484 
1502.547664  	0.054532 
1504.476480  	0.050109 
1506.405296  	0.043157 
1508.334112  	0.040593 
1510.262928  	0.040760 
1512.191744  	0.038788 
1514.120560  	0.037791 
1516.049376  	0.037178 
1517.978192  	0.036166 
1519.907008  	0.037557 
1521.835824  	0.038059 
1523.764640  	0.042914 
1525.693456  	0.047711 
1527.622272  	0.049910 
1529.551088  	0.050508 
1531.479904  	0.050099 
1533.408720  	0.045639 
1535.337536  	0.042385 
1537.266352  	0.040602 
1539.195168  	0.032619 
1541.123984  	0.025060 
1543.052800  	0.027739 
1544.981616  	0.028303 
1546.910432  	0.027819 
1548.839248  	0.028226 
1550.768064  	0.028353 
1552.696880  	0.028268 
1554.625696  	0.028764 
1556.554512  	0.029045 
1558.483328  	0.026663 
1560.412144  	0.031240 
1562.340960  	0.038996 
1564.269776  	0.043321 
1566.198592  	0.048992 
1568.127408  	0.053473 
1570.056224  	0.059057 
1571.985040  	0.066884 
1573.913856  	0.072033 
1575.842672  	0.072895 
1577.771488  	0.076072 
1579.700304  	0.078394 
1581.629120  	0.078345 
1583.557936  	0.077772 
1585.486752  	0.078641 
1587.415568  	0.081216 
1589.344384  	0.086089 
1591.273200  	0.092572 
1593.202016  	0.100485 
1595.130832  	0.108769 
1597.059648  	0.117541 
1598.988464  	0.125018 
1600.917280  	0.131523 
1602.846096  	0.135609 
1604.774912  	0.138329 
1606.703728  	0.138351 
1608.632544  	0.136995 
1610.561360  	0.134621 
1612.490176  	0.133125 
1614.418992  	0.130725 
1616.347808  	0.127286 
1618.276624  	0.128529 
1620.205440  	0.133708 
1622.134256  	0.136734 
1624.063072  	0.142688 
1625.991888  	0.150277 
1627.920704  	0.158915 
1629.849520  	0.169491 
1631.778336  	0.179661 
1633.707152  	0.186584 
1635.635968  	0.194126 
1637.564784  	0.205068 
1639.493600  	0.213471 
1641.422416  	0.218835 
1643.351232  	0.222771 
1645.280048  	0.222458 
1647.208864  	0.220714 
1649.137680  	0.222097 
1651.066496  	0.222283 
1652.995312  	0.213792 
1654.924128  	0.213063 
1656.852944  	0.214078 
1658.781760  	0.211732 
1660.710576  	0.207391 
1662.639392  	0.201078 
1664.568208  	0.196613 
1666.497024  	0.194117 
1668.425840  	0.187812 
1670.354656  	0.179846 
1672.283472  	0.176848 
1674.212288  	0.173566 
1676.141104  	0.168299 
1678.069920  	0.167512 
1679.998736  	0.166549 
1681.927552  	0.164827 
1683.856368  	0.158938 
1685.785184  	0.157976 
1687.714000  	0.160675 
1689.642816  	0.160187 
1691.571632  	0.158377 
1693.500448  	0.157202 
1695.429264  	0.152625 
1697.358080  	0.149341 
1699.286896  	0.147064 
1701.215712  	0.141577 
1703.144528  	0.141185 
1705.073344  	0.136719 
1707.002160  	0.130505 
1708.930976  	0.126384 
1710.859792  	0.120243 
1712.788608  	0.113087 
1714.717424  	0.104049 
1716.646240  	0.092107 
1718.575056  	0.077910 
1720.503872  	0.070356 
1722.432688  	0.063744 
1724.361504  	0.054244 
1726.290320  	0.046348 
1728.219136  	0.039960 
1730.147952  	0.034272 
1732.076768  	0.029310 
1734.005584  	0.021963 
1735.934400  	0.017058 
1737.863216  	0.017213 
1739.792032  	0.013469 
1741.720848  	0.012364 
1743.649664  	0.011974 
1745.578480  	0.011219 
1747.507296  	0.009515 
1749.436112  	0.008605 
1751.364928  	0.007383 
1753.293744  	0.006833 
1755.222560  	0.006714 
1757.151376  	0.006004 
1759.080192  	0.005483 
1761.009008  	0.004795 
1762.937824  	0.003258 
1764.866640  	0.003854 
1766.795456  	0.004244 
1768.724272  	0.003722 
1770.653088  	0.001601 
1772.581904  	-0.001118 
1774.510720  	0.000053 
1776.439536  	0.001831 
1778.368352  	0.002191 
1780.297168  	0.001785 
1782.225984  	0.001195 
1784.154800  	0.001642 
1786.083616  	0.000966 
1788.012432  	0.001210 
1789.941248  	0.001614 
1791.870064  	0.000251 
1793.798880  	-0.001078 
1795.727696  	0.000498 
1797.656512  	0.000218 
1799.585328  	-0.000109 
1801.514144  	0.000167 
1803.442960  	0.000238 
1805.371776  	-0.000346 
1807.300592  	-0.000028 
1809.229408  	-0.000513 
1811.158224  	-0.000892 
1813.087040  	-0.001046 
1815.015856  	-0.000546 
1816.944672  	-0.000540 
1818.873488  	-0.000650 
1820.802304  	-0.000882 
1822.731120  	-0.000237 
1824.659936  	-0.000831 
1826.588752  	-0.001375 
1828.517568  	-0.002060 
1830.446384  	-0.002881 
1832.375200  	-0.002112 
1834.304016  	-0.001031 
1836.232832  	-0.001186 
1838.161648  	-0.001200 
1840.090464  	-0.001368 
1842.019280  	-0.000671 
1843.948096  	-0.002041 
1845.876912  	-0.001917 
1847.805728  	-0.001110 
1849.734544  	-0.001212 
1851.663360  	-0.001570 
1853.592176  	-0.001653 
1855.520992  	-0.001864 
1857.449808  	-0.001557 
1859.378624  	-0.001518 
1861.307440  	-0.001349 
1863.236256  	-0.001640 
1865.165072  	-0.001556 
1867.093888  	-0.001872 
1869.022704  	-0.002149 
1870.951520  	-0.002195 
1872.880336  	-0.001700 
1874.809152  	-0.002129 
1876.737968  	-0.002156 
1878.666784  	-0.002416 
1880.595600  	-0.001827 
1882.524416  	-0.001906 
1884.453232  	-0.001875 
1886.382048  	-0.002036 
1888.310864  	-0.001920 
1890.239680  	-0.002827 
1892.168496  	-0.002240 
1894.097312  	-0.002083 
1896.026128  	-0.001913 
1897.954944  	-0.002242 
1899.883760  	-0.001911 
1901.812576  	-0.001945 
1903.741392  	-0.002209 
1905.670208  	-0.002219 
1907.599024  	-0.001373 
1909.527840  	-0.001864 
1911.456656  	-0.001796 
1913.385472  	-0.001939 
1915.314288  	-0.001836 
1917.243104  	-0.002406 
1919.171920  	-0.002607 
1921.100736  	-0.002310 
1923.029552  	-0.001834 
1924.958368  	-0.002473 
1926.887184  	-0.001947 
1928.816000  	-0.002012 
1930.744816  	-0.001933 
1932.673632  	-0.002321 
1934.602448  	-0.001946 
1936.531264  	-0.002006 
1938.460080  	-0.001547 
1940.388896  	-0.002060 
1942.317712  	-0.002233 
1944.246528  	-0.002456 
1946.175344  	-0.001656 
1948.104160  	-0.001786 
1950.032976  	-0.001439 
1951.961792  	-0.002456 
1953.890608  	-0.002288 
1955.819424  	-0.002148 
1957.748240  	-0.001227 
1959.677056  	-0.001705 
1961.605872  	-0.001235 
1963.534688  	-0.002744 
1965.463504  	-0.001923 
1967.392320  	-0.001117 
1969.321136  	-0.000633 
1971.249952  	-0.001145 
1973.178768  	-0.000094 
1975.107584  	-0.000741 
1977.036400  	-0.000090 
1978.965216  	0.000616 
1980.894032  	-0.000058 
1982.822848  	-0.000697 
1984.751664  	-0.000573 
1986.680480  	-0.001944 
1988.609296  	-0.000627 
1990.538112  	-0.001193 
1992.466928  	-0.001477 
1994.395744  	-0.002158 
1996.324560  	-0.001977 
1998.253376  	-0.002137 
2000.182192  	-0.002014 
2002.111008  	-0.002079 
2004.039824  	-0.001056 
2005.968640  	-0.001794 
2007.897456  	-0.000737 
2009.826272  	-0.000878 
2011.755088  	-0.000483 
2013.683904  	-0.000856 
2015.612720  	-0.000614 
2017.541536  	-0.001563 
2019.470352  	-0.001820 
2021.399168  	-0.002872 
2023.327984  	-0.002087 
2025.256800  	-0.000741 
2027.185616  	0.000540 
2029.114432  	0.000537 
2031.043248  	0.001483 
2032.972064  	0.000224 
2034.900880  	-0.000816 
2036.829696  	-0.001576 
2038.758512  	-0.000538 
2040.687328  	-0.001650 
2042.616144  	-0.001241 
2044.544960  	-0.001381 
2046.473776  	-0.001389 
2048.402592  	-0.001009 
2050.331408  	-0.000414 
2052.260224  	-0.001457 
2054.189040  	-0.001614 
2056.117856  	-0.001654 
2058.046672  	-0.001520 
2059.975488  	-0.001898 
2061.904304  	-0.001732 
2063.833120  	-0.001827 
2065.761936  	-0.001580 
2067.690752  	-0.001836 
2069.619568  	-0.001430 
2071.548384  	-0.001565 
2073.477200  	-0.001553 
2075.406016  	-0.001152 
2077.334832  	-0.000866 
2079.263648  	-0.001425 
2081.192464  	-0.001452 
2083.121280  	-0.001467 
2085.050096  	-0.001461 
2086.978912  	-0.001755 
2088.907728  	-0.001398 
2090.836544  	-0.001755 
2092.765360  	-0.001490 
2094.694176  	-0.001042 
2096.622992  	-0.000946 
2098.551808  	-0.001254 
2100.480624  	-0.000740 
2102.409440  	-0.001276 
2104.338256  	-0.001462 
2106.267072  	-0.001102 
2108.195888  	-0.000656 
2110.124704  	-0.000934 
2112.053520  	-0.000793 
2113.982336  	-0.000803 
2115.911152  	-0.000951 
2117.839968  	-0.001202 
2119.768784  	-0.001223 
2121.697600  	-0.001807 
2123.626416  	-0.001563 
2125.555232  	-0.001781 
2127.484048  	-0.001606 
2129.412864  	-0.001979 
2131.341680  	-0.002341 
2133.270496  	-0.002253 
2135.199312  	-0.001377 
2137.128128  	-0.000886 
2139.056944  	-0.000333 
2140.985760  	-0.000921 
2142.914576  	-0.000576 
2144.843392  	-0.000922 
2146.772208  	-0.001304 
2148.701024  	-0.001551 
2150.629840  	-0.000120 
2152.558656  	-0.000048 
2154.487472  	-0.000314 
2156.416288  	-0.000665 
2158.345104  	0.000561 
2160.273920  	0.002016 
2162.202736  	0.003385 
2164.131552  	0.002004 
2166.060368  	0.002179 
2167.989184  	0.002756 
2169.918000  	0.003054 
2171.846816  	0.001472 
2173.775632  	0.001199 
2175.704448  	0.001437 
2177.633264  	0.001456 
2179.562080  	0.000833 
2181.490896  	0.001164 
2183.419712  	0.000641 
2185.348528  	0.000451 
2187.277344  	-0.000105 
2189.206160  	0.000214 
2191.134976  	0.000100 
2193.063792  	0.000097 
2194.992608  	0.000025 
2196.921424  	0.000465 
2198.850240  	0.000619 
2200.779056  	0.000612 
2202.707872  	-0.000689 
2204.636688  	-0.001008 
2206.565504  	-0.000386 
2208.494320  	-0.000193 
2210.423136  	-0.001012 
2212.351952  	-0.001063 
2214.280768  	-0.001092 
2216.209584  	-0.000855 
2218.138400  	-0.001140 
2220.067216  	-0.000998 
2221.996032  	-0.000979 
2223.924848  	-0.000714 
2225.853664  	-0.000567 
2227.782480  	-0.000463 
2229.711296  	-0.001432 
2231.640112  	-0.001955 
2233.568928  	-0.001607 
2235.497744  	-0.001157 
2237.426560  	-0.001483 
2239.355376  	-0.001214 
2241.284192  	-0.001031 
2243.213008  	-0.001209 
2245.141824  	-0.001739 
2247.070640  	-0.001725 
2248.999456  	-0.001810 
2250.928272  	-0.001903 
2252.857088  	-0.002243 
2254.785904  	-0.002196 
2256.714720  	-0.002707 
2258.643536  	-0.002837 
2260.572352  	-0.002838 
2262.501168  	-0.002635 
2264.429984  	-0.002645 
2266.358800  	-0.002734 
2268.287616  	-0.003049 
2270.216432  	-0.002840 
2272.145248  	-0.002653 
2274.074064  	-0.002492 
2276.002880  	-0.002316 
2277.931696  	-0.002015 
2279.860512  	-0.001893 
2281.789328  	-0.001610 
2283.718144  	-0.001625 
2285.646960  	-0.001481 
2287.575776  	-0.001482 
2289.504592  	-0.001628 
2291.433408  	-0.001851 
2293.362224  	-0.001626 
2295.291040  	-0.001300 
2297.219856  	-0.000762 
2299.148672  	-0.000581 
2301.077488  	-0.000389 
2303.006304  	-0.000314 
2304.935120  	-0.000069 
2306.863936  	0.000135 
2308.792752  	0.000047 
2310.721568  	-0.000214 
2312.650384  	-0.000523 
2314.579200  	-0.001222 
2316.508016  	-0.001962 
2318.436832  	-0.002671 
2320.365648  	-0.003671 
2322.294464  	-0.004787 
2324.223280  	-0.006155 
2326.152096  	-0.008100 
2328.080912  	-0.009610 
2330.009728  	-0.011191 
2331.938544  	-0.012930 
2333.867360  	-0.014202 
2335.796176  	-0.015115 
2337.724992  	-0.016198 
2339.653808  	-0.016229 
2341.582624  	-0.016215 
2343.511440  	-0.015433 
2345.440256  	-0.013405 
2347.369072  	-0.009103 
2349.297888  	-0.006279 
2351.226704  	-0.008347 
2353.155520  	-0.013034 
2355.084336  	-0.016404 
2357.013152  	-0.019239 
2358.941968  	-0.021066 
2360.870784  	-0.022346 
2362.799600  	-0.021597 
2364.728416  	-0.020290 
2366.657232  	-0.017879 
2368.586048  	-0.015410 
2370.514864  	-0.012731 
2372.443680  	-0.009640 
2374.372496  	-0.006687 
2376.301312  	-0.004434 
2378.230128  	-0.002767 
2380.158944  	-0.002024 
2382.087760  	-0.001848 
2384.016576  	-0.001940 
2385.945392  	-0.002335 
2387.874208  	-0.002720 
2389.803024  	-0.002931 
2391.731840  	-0.003197 
2393.660656  	-0.003240 
2395.589472  	-0.003165 
2397.518288  	-0.003031 
2399.447104  	-0.003074 
2401.375920  	-0.003009 
2403.304736  	-0.003397 
2405.233552  	-0.003415 
2407.162368  	-0.003332 
2409.091184  	-0.003230 
2411.020000  	-0.003345 
2412.948816  	-0.003453 
2414.877632  	-0.003215 
2416.806448  	-0.002886 
2418.735264  	-0.003038 
2420.664080  	-0.003327 
2422.592896  	-0.003304 
2424.521712  	-0.003129 
2426.450528  	-0.003164 
2428.379344  	-0.003103 
2430.308160  	-0.002973 
2432.236976  	-0.002769 
2434.165792  	-0.002803 
2436.094608  	-0.002831 
2438.023424  	-0.002591 
2439.952240  	-0.002364 
2441.881056  	-0.002554 
2443.809872  	-0.002594 
2445.738688  	-0.002550 
2447.667504  	-0.002310 
2449.596320  	-0.002247 
2451.525136  	-0.002276 
2453.453952  	-0.002243 
2455.382768  	-0.002174 
2457.311584  	-0.002229 
2459.240400  	-0.002363 
2461.169216  	-0.002501 
2463.098032  	-0.002695 
2465.026848  	-0.002834 
2466.955664  	-0.002767 
2468.884480  	-0.002844 
2470.813296  	-0.002941 
2472.742112  	-0.002909 
2474.670928  	-0.002761 
2476.599744  	-0.002680 
2478.528560  	-0.002459 
2480.457376  	-0.002432 
2482.386192  	-0.002451 
2484.315008  	-0.002405 
2486.243824  	-0.002554 
2488.172640  	-0.002639 
2490.101456  	-0.002245 
2492.030272  	-0.001919 
2493.959088  	-0.001934 
2495.887904  	-0.001940 
2497.816720  	-0.001875 
2499.745536  	-0.001924 
2501.674352  	-0.001839 
2503.603168  	-0.001656 
2505.531984  	-0.001619 
2507.460800  	-0.001867 
2509.389616  	-0.001825 
2511.318432  	-0.001783 
2513.247248  	-0.001746 
2515.176064  	-0.001656 
2517.104880  	-0.001566 
2519.033696  	-0.001698 
2520.962512  	-0.001523 
2522.891328  	-0.001320 
2524.820144  	-0.001279 
2526.748960  	-0.001225 
2528.677776  	-0.001163 
2530.606592  	-0.001260 
2532.535408  	-0.001239 
2534.464224  	-0.001193 
2536.393040  	-0.001200 
2538.321856  	-0.001171 
2540.250672  	-0.001010 
2542.179488  	-0.000867 
2544.108304  	-0.000716 
2546.037120  	-0.000627 
2547.965936  	-0.000655 
2549.894752  	-0.000593 
2551.823568  	-0.000645 
2553.752384  	-0.000546 
2555.681200  	-0.000147 
2557.610016  	-0.000099 
2559.538832  	0.000031 
2561.467648  	0.000200 
2563.396464  	0.000275 
2565.325280  	0.000422 
2567.254096  	0.000418 
2569.182912  	0.000414 
2571.111728  	0.000419 
2573.040544  	0.000433 
2574.969360  	0.000621 
2576.898176  	0.000902 
2578.826992  	0.000836 
2580.755808  	0.000739 
2582.684624  	0.001038 
2584.613440  	0.001132 
2586.542256  	0.001097 
2588.471072  	0.001191 
2590.399888  	0.001215 
2592.328704  	0.001239 
2594.257520  	0.001315 
2596.186336  	0.001399 
2598.115152  	0.001457 
2600.043968  	0.001331 
2601.972784  	0.001537 
2603.901600  	0.001599 
2605.830416  	0.001763 
2607.759232  	0.001991 
2609.688048  	0.002113 
2611.616864  	0.002219 
2613.545680  	0.002345 
2615.474496  	0.002519 
2617.403312  	0.002717 
2619.332128  	0.002691 
2621.260944  	0.002611 
2623.189760  	0.002622 
2625.118576  	0.002829 
2627.047392  	0.002970 
2628.976208  	0.003126 
2630.905024  	0.003284 
2632.833840  	0.003438 
2634.762656  	0.003570 
2636.691472  	0.003534 
2638.620288  	0.003614 
2640.549104  	0.003861 
2642.477920  	0.003874 
2644.406736  	0.003993 
2646.335552  	0.004152 
2648.264368  	0.004230 
2650.193184  	0.004298 
2652.122000  	0.004440 
2654.050816  	0.004662 
2655.979632  	0.004893 
2657.908448  	0.004986 
2659.837264  	0.005072 
2661.766080  	0.005185 
2663.694896  	0.005226 
2665.623712  	0.005288 
2667.552528  	0.005536 
2669.481344  	0.005710 
2671.410160  	0.005769 
2673.338976  	0.005875 
2675.267792  	0.006040 
2677.196608  	0.006225 
2679.125424  	0.006374 
2681.054240  	0.006601 
2682.983056  	0.006734 
2684.911872  	0.006704 
2686.840688  	0.006838 
2688.769504  	0.006977 
2690.698320  	0.007063 
2692.627136  	0.007175 
2694.555952  	0.007279 
2696.484768  	0.007317 
2698.413584  	0.007300 
2700.342400  	0.007391 
2702.271216  	0.007632 
2704.200032  	0.007849 
2706.128848  	0.007933 
2708.057664  	0.007973 
2709.986480  	0.008082 
2711.915296  	0.008241 
2713.844112  	0.008501 
2715.772928  	0.008628 
2717.701744  	0.008679 
2719.630560  	0.008881 
2721.559376  	0.009090 
2723.488192  	0.009234 
2725.417008  	0.009415 
2727.345824  	0.009627 
2729.274640  	0.009756 
2731.203456  	0.009874 
2733.132272  	0.010020 
2735.061088  	0.010133 
2736.989904  	0.010246 
2738.918720  	0.010303 
2740.847536  	0.010382 
2742.776352  	0.010445 
2744.705168  	0.010601 
2746.633984  	0.010742 
2748.562800  	0.010773 
2750.491616  	0.010839 
2752.420432  	0.010991 
2754.349248  	0.010999 
2756.278064  	0.010895 
2758.206880  	0.010706 
2760.135696  	0.010724 
2762.064512  	0.010816 
2763.993328  	0.010867 
2765.922144  	0.010835 
2767.850960  	0.010843 
2769.779776  	0.010863 
2771.708592  	0.010864 
2773.637408  	0.010785 
2775.566224  	0.010767 
2777.495040  	0.010771 
2779.423856  	0.010831 
2781.352672  	0.010839 
2783.281488  	0.010827 
2785.210304  	0.010785 
2787.139120  	0.010780 
2789.067936  	0.010805 
2790.996752  	0.010841 
2792.925568  	0.010768 
2794.854384  	0.010668 
2796.783200  	0.010611 
2798.712016  	0.010606 
2800.640832  	0.010644 
2802.569648  	0.010724 
2804.498464  	0.010752 
2806.427280  	0.010674 
2808.356096  	0.010630 
2810.284912  	0.010700 
2812.213728  	0.010702 
2814.142544  	0.010604 
2816.071360  	0.010553 
2818.000176  	0.010440 
2819.928992  	0.010360 
2821.857808  	0.010356 
2823.786624  	0.010222 
2825.715440  	0.010022 
2827.644256  	0.009828 
2829.573072  	0.009713 
2831.501888  	0.009411 
2833.430704  	0.009028 
2835.359520  	0.008755 
2837.288336  	0.008472 
2839.217152  	0.008117 
2841.145968  	0.007757 
2843.074784  	0.007422 
2845.003600  	0.006998 
2846.932416  	0.006593 
2848.861232  	0.006283 
2850.790048  	0.005788 
2852.718864  	0.005287 
2854.647680  	0.004875 
2856.576496  	0.004303 
2858.505312  	0.003662 
2860.434128  	0.003090 
2862.362944  	0.002341 
2864.291760  	0.001509 
2866.220576  	0.000917 
2868.149392  	0.000572 
2870.078208  	0.000306 
2872.007024  	0.000307 
2873.935840  	0.000441 
2875.864656  	0.000467 
2877.793472  	0.000332 
2879.722288  	0.000199 
2881.651104  	-0.000145 
2883.579920  	-0.000299 
2885.508736  	-0.000038 
2887.437552  	0.000331 
2889.366368  	0.000471 
2891.295184  	0.000246 
2893.224000  	0.000073 
2895.152816  	0.000169 
2897.081632  	-0.000117 
2899.010448  	-0.001875 
2900.939264  	-0.003410 
2902.868080  	-0.002127 
2904.796896  	-0.000782 
2906.725712  	-0.000266 
2908.654528  	0.000330 
2910.583344  	0.000781 
2912.512160  	0.001405 
2914.440976  	0.002566 
2916.369792  	0.003495 
2918.298608  	0.004093 
2920.227424  	0.004556 
2922.156240  	0.005249 
2924.085056  	0.006199 
2926.013872  	0.007256 
2927.942688  	0.008313 
2929.871504  	0.009297 
2931.800320  	0.010352 
2933.729136  	0.011313 
2935.657952  	0.011890 
2937.586768  	0.012565 
2939.515584  	0.013341 
2941.444400  	0.013693 
2943.373216  	0.013776 
2945.302032  	0.014113 
2947.230848  	0.014437 
2949.159664  	0.014135 
2951.088480  	0.013580 
2953.017296  	0.013123 
2954.946112  	0.012413 
2956.874928  	0.011570 
2958.803744  	0.010767 
2960.732560  	0.010194 
2962.661376  	0.009561 
2964.590192  	0.008646 
2966.519008  	0.007417 
2968.447824  	0.006228 
2970.376640  	0.005373 
2972.305456  	0.004918 
2974.234272  	0.005166 
2976.163088  	0.005535 
2978.091904  	0.005542 
2980.020720  	0.005500 
2981.949536  	0.005689 
2983.878352  	0.005520 
2985.807168  	0.004670 
2987.735984  	0.003673 
2989.664800  	0.003966 
2991.593616  	0.007041 
2993.522432  	0.009128 
2995.451248  	0.009783 
2997.380064  	0.010653 
2999.308880  	0.011822 
3001.237696  	0.013251 
3003.166512  	0.014951 
3005.095328  	0.016446 
3007.024144  	0.017967 
3008.952960  	0.019562 
3010.881776  	0.020924 
3012.810592  	0.022322 
3014.739408  	0.023722 
3016.668224  	0.025018 
3018.597040  	0.026313 
3020.525856  	0.027509 
3022.454672  	0.028734 
3024.383488  	0.030011 
3026.312304  	0.031062 
3028.241120  	0.032145 
3030.169936  	0.033203 
3032.098752  	0.034069 
3034.027568  	0.034892 
3035.956384  	0.035812 
3037.885200  	0.036730 
3039.814016  	0.037608 
3041.742832  	0.038472 
3043.671648  	0.039075 
3045.600464  	0.039747 
3047.529280  	0.040376 
3049.458096  	0.041002 
3051.386912  	0.041758 
3053.315728  	0.042451 
3055.244544  	0.043316 
3057.173360  	0.044046 
3059.102176  	0.044586 
3061.030992  	0.045311 
3062.959808  	0.046184 
3064.888624  	0.046873 
3066.817440  	0.047745 
3068.746256  	0.048859 
3070.675072  	0.049850 
3072.603888  	0.050676 
3074.532704  	0.051472 
3076.461520  	0.052333 
3078.390336  	0.053109 
3080.319152  	0.053941 
3082.247968  	0.054965 
3084.176784  	0.055965 
3086.105600  	0.056963 
3088.034416  	0.057759 
3089.963232  	0.058686 
3091.892048  	0.059587 
3093.820864  	0.060313 
3095.749680  	0.061139 
3097.678496  	0.062193 
3099.607312  	0.063156 
3101.536128  	0.064153 
3103.464944  	0.065245 
3105.393760  	0.066025 
3107.322576  	0.066777 
3109.251392  	0.067571 
3111.180208  	0.068277 
3113.109024  	0.069170 
3115.037840  	0.070021 
3116.966656  	0.070731 
3118.895472  	0.071362 
3120.824288  	0.072129 
3122.753104  	0.072949 
3124.681920  	0.073647 
3126.610736  	0.074232 
3128.539552  	0.075072 
3130.468368  	0.075821 
3132.397184  	0.076348 
3134.326000  	0.077129 
3136.254816  	0.077809 
3138.183632  	0.078420 
3140.112448  	0.079148 
3142.041264  	0.079848 
3143.970080  	0.080380 
3145.898896  	0.081051 
3147.827712  	0.081833 
3149.756528  	0.082518 
3151.685344  	0.083109 
3153.614160  	0.083791 
3155.542976  	0.084575 
3157.471792  	0.085264 
3159.400608  	0.085972 
3161.329424  	0.086691 
3163.258240  	0.087173 
3165.187056  	0.087794 
3167.115872  	0.088348 
3169.044688  	0.088722 
3170.973504  	0.089103 
3172.902320  	0.089603 
3174.831136  	0.090148 
3176.759952  	0.090630 
3178.688768  	0.090981 
3180.617584  	0.091366 
3182.546400  	0.091719 
3184.475216  	0.091926 
3186.404032  	0.091948 
3188.332848  	0.092171 
3190.261664  	0.092472 
3192.190480  	0.092587 
3194.119296  	0.092511 
3196.048112  	0.092519 
3197.976928  	0.092534 
3199.905744  	0.092592 
3201.834560  	0.092380 
3203.763376  	0.092299 
3205.692192  	0.092108 
3207.621008  	0.091837 
3209.549824  	0.091728 
3211.478640  	0.091692 
3213.407456  	0.091643 
3215.336272  	0.091593 
3217.265088  	0.091500 
3219.193904  	0.091257 
3221.122720  	0.091126 
3223.051536  	0.090860 
3224.980352  	0.090489 
3226.909168  	0.090250 
3228.837984  	0.090088 
3230.766800  	0.090026 
3232.695616  	0.090070 
3234.624432  	0.090042 
3236.553248  	0.090068 
3238.482064  	0.090008 
3240.410880  	0.089748 
3242.339696  	0.089769 
3244.268512  	0.089793 
3246.197328  	0.089988 
3248.126144  	0.090243 
3250.054960  	0.090522 
3251.983776  	0.090778 
3253.912592  	0.090835 
3255.841408  	0.091160 
3257.770224  	0.091519 
3259.699040  	0.091703 
3261.627856  	0.091839 
3263.556672  	0.092116 
3265.485488  	0.092393 
3267.414304  	0.092494 
3269.343120  	0.092880 
3271.271936  	0.093242 
3273.200752  	0.093345 
3275.129568  	0.093456 
3277.058384  	0.093823 
3278.987200  	0.094007 
3280.916016  	0.094195 
3282.844832  	0.094402 
3284.773648  	0.094593 
3286.702464  	0.094848 
3288.631280  	0.095080 
3290.560096  	0.095421 
3292.488912  	0.095931 
3294.417728  	0.096046 
3296.346544  	0.096297 
3298.275360  	0.096671 
3300.204176  	0.097053 
3302.132992  	0.097289 
3304.061808  	0.097443 
3305.990624  	0.097910 
3307.919440  	0.098328 
3309.848256  	0.098543 
3311.777072  	0.098827 
3313.705888  	0.099104 
3315.634704  	0.099577 
3317.563520  	0.100004 
3319.492336  	0.100137 
3321.421152  	0.100261 
3323.349968  	0.100581 
3325.278784  	0.100866 
3327.207600  	0.100944 
3329.136416  	0.100790 
3331.065232  	0.100932 
3332.994048  	0.101229 
3334.922864  	0.101259 
3336.851680  	0.101240 
3338.780496  	0.101221 
3340.709312  	0.101044 
3342.638128  	0.100689 
3344.566944  	0.100124 
3346.495760  	0.099802 
3348.424576  	0.099622 
3350.353392  	0.099356 
3352.282208  	0.099076 
3354.211024  	0.098738 
3356.139840  	0.098410 
3358.068656  	0.098121 
3359.997472  	0.097675 
3361.926288  	0.097170 
3363.855104  	0.096648 
3365.783920  	0.096245 
3367.712736  	0.095906 
3369.641552  	0.095487 
3371.570368  	0.094837 
3373.499184  	0.094312 
3375.428000  	0.093906 
3377.356816  	0.093603 
3379.285632  	0.093356 
3381.214448  	0.092899 
3383.143264  	0.092423 
3385.072080  	0.092008 
3387.000896  	0.091556 
3388.929712  	0.091127 
3390.858528  	0.090723 
3392.787344  	0.090324 
3394.716160  	0.089943 
3396.644976  	0.089651 
3398.573792  	0.089059 
3400.502608  	0.088448 
3402.431424  	0.087996 
3404.360240  	0.087443 
3406.289056  	0.086795 
3408.217872  	0.086210 
3410.146688  	0.085528 
3412.075504  	0.085155 
3414.004320  	0.084749 
3415.933136  	0.084249 
3417.861952  	0.083605 
3419.790768  	0.083052 
3421.719584  	0.082530 
3423.648400  	0.081945 
3425.577216  	0.081211 
3427.506032  	0.080608 
3429.434848  	0.080076 
3431.363664  	0.079486 
3433.292480  	0.078882 
3435.221296  	0.078154 
3437.150112  	0.077514 
3439.078928  	0.077035 
3441.007744  	0.076469 
3442.936560  	0.076010 
3444.865376  	0.075527 
3446.794192  	0.074536 
3448.723008  	0.073472 
3450.651824  	0.072844 
3452.580640  	0.072311 
3454.509456  	0.071767 
3456.438272  	0.071098 
3458.367088  	0.070458 
3460.295904  	0.069838 
3462.224720  	0.068702 
3464.153536  	0.067671 
3466.082352  	0.066940 
3468.011168  	0.065864 
3469.939984  	0.064972 
3471.868800  	0.064446 
3473.797616  	0.063666 
3475.726432  	0.062696 
3477.655248  	0.061838 
3479.584064  	0.061254 
3481.512880  	0.060493 
3483.441696  	0.059353 
3485.370512  	0.058518 
3487.299328  	0.057608 
3489.228144  	0.056937 
3491.156960  	0.056070 
3493.085776  	0.055123 
3495.014592  	0.054273 
3496.943408  	0.053596 
3498.872224  	0.052946 
3500.801040  	0.052782 
3502.729856  	0.052042 
3504.658672  	0.050747 
3506.587488  	0.050135 
3508.516304  	0.049664 
3510.445120  	0.048639 
3512.373936  	0.047700 
3514.302752  	0.047176 
3516.231568  	0.046833 
3518.160384  	0.046243 
3520.089200  	0.045475 
3522.018016  	0.045087 
3523.946832  	0.044958 
3525.875648  	0.044061 
3527.804464  	0.042713 
3529.733280  	0.041691 
3531.662096  	0.041025 
3533.590912  	0.040601 
3535.519728  	0.040304 
3537.448544  	0.039641 
3539.377360  	0.038496 
3541.306176  	0.037934 
3543.234992  	0.037836 
3545.163808  	0.037902 
3547.092624  	0.037122 
3549.021440  	0.035582 
3550.950256  	0.034745 
3552.879072  	0.034056 
3554.807888  	0.033497 
3556.736704  	0.032773 
3558.665520  	0.032120 
3560.594336  	0.031575 
3562.523152  	0.030658 
3564.451968  	0.030544 
3566.380784  	0.030830 
3568.309600  	0.029298 
3570.238416  	0.027943 
3572.167232  	0.027309 
3574.096048  	0.026456 
3576.024864  	0.025445 
3577.953680  	0.024953 
3579.882496  	0.024252 
3581.811312  	0.023365 
3583.740128  	0.022670 
3585.668944  	0.022608 
3587.597760  	0.021582 
3589.526576  	0.020164 
3591.455392  	0.019484 
3593.384208  	0.019032 
3595.313024  	0.018016 
3597.241840  	0.016692 
3599.170656  	0.015387 
3601.099472  	0.014472 
3603.028288  	0.014142 
3604.957104  	0.013791 
3606.885920  	0.013149 
3608.814736  	0.012119 
3610.743552  	0.011674 
3612.672368  	0.010526 
3614.601184  	0.009145 
3616.530000  	0.008624 
3618.458816  	0.006914 
3620.387632  	0.005252 
3622.316448  	0.005108 
3624.245264  	0.004746 
3626.174080  	0.004266 
3628.102896  	0.001802 
3630.031712  	-0.001207 
3631.960528  	0.000205 
3633.889344  	-0.000025 
3635.818160  	-0.000868 
3637.746976  	-0.001844 
3639.675792  	-0.002386 
3641.604608  	-0.002784 
3643.533424  	-0.003348 
3645.462240  	-0.004410 
3647.391056  	-0.007417 
3649.319872  	-0.011661 
3651.248688  	-0.012647 
3653.177504  	-0.010239 
3655.106320  	-0.010584 
3657.035136  	-0.012904 
3658.963952  	-0.012833 
3660.892768  	-0.012965 
3662.821584  	-0.013241 
3664.750400  	-0.013284 
3666.679216  	-0.013278 
3668.608032  	-0.015168 
3670.536848  	-0.017993 
3672.465664  	-0.016429 
3674.394480  	-0.017476 
3676.323296  	-0.020988 
3678.252112  	-0.017741 
3680.180928  	-0.015966 
3682.109744  	-0.015519 
3684.038560  	-0.015994 
3685.967376  	-0.016281 
3687.896192  	-0.018628 
3689.825008  	-0.021286 
3691.753824  	-0.019761 
3693.682640  	-0.017305 
3695.611456  	-0.016240 
3697.540272  	-0.015534 
3699.469088  	-0.014857 
3701.397904  	-0.015630 
3703.326720  	-0.015592 
3705.255536  	-0.014169 
3707.184352  	-0.013912 
3709.113168  	-0.015454 
3711.041984  	-0.017328 
3712.970800  	-0.016131 
3714.899616  	-0.013423 
3716.828432  	-0.012737 
3718.757248  	-0.013252 
3720.686064  	-0.013723 
3722.614880  	-0.013988 
3724.543696  	-0.013496 
3726.472512  	-0.013662 
3728.401328  	-0.013710 
3730.330144  	-0.014389 
3732.258960  	-0.015965 
3734.187776  	-0.015165 
3736.116592  	-0.015547 
3738.045408  	-0.015300 
3739.974224  	-0.013851 
3741.903040  	-0.013098 
3743.831856  	-0.014912 
3745.760672  	-0.016403 
3747.689488  	-0.015129 
3749.618304  	-0.017587 
3751.547120  	-0.018988 
3753.475936  	-0.016661 
3755.404752  	-0.014347 
3757.333568  	-0.013859 
3759.262384  	-0.014527 
3761.191200  	-0.014463 
3763.120016  	-0.012931 
3765.048832  	-0.013445 
3766.977648  	-0.013614 
3768.906464  	-0.014154 
3770.835280  	-0.014639 
3772.764096  	-0.013356 
3774.692912  	-0.012736 
3776.621728  	-0.012649 
3778.550544  	-0.013838 
3780.479360  	-0.014651 
3782.408176  	-0.013334 
3784.336992  	-0.013399 
3786.265808  	-0.013161 
3788.194624  	-0.012774 
3790.123440  	-0.012941 
3792.052256  	-0.012996 
3793.981072  	-0.012879 
3795.909888  	-0.014068 
3797.838704  	-0.014204 
3799.767520  	-0.014654 
3801.696336  	-0.017975 
3803.625152  	-0.016032 
3805.553968  	-0.014800 
3807.482784  	-0.016068 
3809.411600  	-0.014165 
3811.340416  	-0.012900 
3813.269232  	-0.012567 
3815.198048  	-0.014953 
3817.126864  	-0.016386 
3819.055680  	-0.015150 
3820.984496  	-0.017624 
3822.913312  	-0.016157 
3824.842128  	-0.013787 
3826.770944  	-0.014093 
3828.699760  	-0.013468 
3830.628576  	-0.013708 
3832.557392  	-0.014575 
3834.486208  	-0.014567 
3836.415024  	-0.015578 
3838.343840  	-0.016877 
3840.272656  	-0.016128 
3842.201472  	-0.014728 
3844.130288  	-0.014350 
3846.059104  	-0.013369 
3847.987920  	-0.012732 
3849.916736  	-0.012959 
3851.845552  	-0.015241 
3853.774368  	-0.019922 
3855.703184  	-0.016907 
3857.632000  	-0.014058 
3859.560816  	-0.012935 
3861.489632  	-0.013041 
3863.418448  	-0.013982 
3865.347264  	-0.014157 
3867.276080  	-0.012879 
3869.204896  	-0.014117 
3871.133712  	-0.014567 
3873.062528  	-0.013804 
3874.991344  	-0.014136 
3876.920160  	-0.012645 
3878.848976  	-0.012174 
3880.777792  	-0.012862 
3882.706608  	-0.012424 
3884.635424  	-0.012806 
3886.564240  	-0.013710 
3888.493056  	-0.012829 
3890.421872  	-0.013390 
3892.350688  	-0.014157 
3894.279504  	-0.013038 
3896.208320  	-0.012310 
3898.137136  	-0.012205 
3900.065952  	-0.012270 
3901.994768  	-0.012222 
3903.923584  	-0.013222 
3905.852400  	-0.013626 
3907.781216  	-0.012961 
3909.710032  	-0.012665 
3911.638848  	-0.012572 
3913.567664  	-0.012220 
3915.496480  	-0.011855 
3917.425296  	-0.011994 
3919.354112  	-0.012306 
3921.282928  	-0.012217 
3923.211744  	-0.011899 
3925.140560  	-0.012053 
3927.069376  	-0.012275 
3928.998192  	-0.012195 
3930.927008  	-0.011832 
3932.855824  	-0.011815 
3934.784640  	-0.012167 
3936.713456  	-0.012213 
3938.642272  	-0.011857 
3940.571088  	-0.011554 
3942.499904  	-0.011686 
3944.428720  	-0.012021 
3946.357536  	-0.011704 
3948.286352  	-0.011475 
3950.215168  	-0.011950 
3952.143984  	-0.012436 
3954.072800  	-0.012457 
3956.001616  	-0.012245 
3957.930432  	-0.012217 
3959.859248  	-0.012156 
3961.788064  	-0.012109 
3963.716880  	-0.012416 
3965.645696  	-0.012677 
3967.574512  	-0.012591 
3969.503328  	-0.012367 
3971.432144  	-0.012366 
3973.360960  	-0.012365 
3975.289776  	-0.012329 
3977.218592  	-0.012302 
3979.147408  	-0.012374 
3981.076224  	-0.012284 
3983.005040  	-0.012259 
3984.933856  	-0.012405 
3986.862672  	-0.012458 
3988.791488  	-0.012230 
3990.720304  	-0.012077 
3992.649120  	-0.012225 
3994.577936  	-0.012344 
3996.506752  	-0.012325 
3998.435568  	-0.012279 
4000.364384  	-0.012287 