##TITLE=No Description
##DATA TYPE=INFRARED SPECTRUM
##XUNITS=1/CM
##YUNITS=Abs
399.264912  	0.606850 
401.193728  	0.589405 
403.122544  	0.579186 
405.051360  	0.581243 
406.980176  	0.598266 
408.908992  	0.578460 
410.837808  	0.576691 
412.766624  	0.568033 
414.695440  	0.559974 
416.624256  	0.551417 
418.553072  	0.564326 
420.481888  	0.564166 
422.410704  	0.563129 
424.339520  	0.554997 
426.268336  	0.546100 
428.197152  	0.541811 
430.125968  	0.540159 
432.054784  	0.534278 
433.983600  	0.536257 
435.912416  	0.528173 
437.841232  	0.522387 
439.770048  	0.520364 
441.698864  	0.525037 
443.627680  	0.520130 
445.556496  	0.520147 
447.485312  	0.519336 
449.414128  	0.520858 
451.342944  	0.517218 
453.271760  	0.515684 
455.200576  	0.512424 
457.129392  	0.519793 
459.058208  	0.522372 
460.987024  	0.525264 
462.915840  	0.520591 
464.844656  	0.516865 
466.773472  	0.516609 
468.702288  	0.523552 
470.631104  	0.521625 
472.559920  	0.523657 
474.488736  	0.521605 
476.417552  	0.519788 
478.346368  	0.516423 
480.275184  	0.519495 
482.204000  	0.517258 
484.132816  	0.515264 
486.061632  	0.511974 
487.990448  	0.512400 
489.919264  	0.512220 
491.848080  	0.511072 
493.776896  	0.507751 
495.705712  	0.505136 
497.634528  	0.500892 
499.563344  	0.503915 
501.492160  	0.502805 
503.420976  	0.504466 
505.349792  	0.502984 
507.278608  	0.504699 
509.207424  	0.504080 
511.136240  	0.502886 
513.065056  	0.504474 
514.993872  	0.508307 
516.922688  	0.507504 
518.851504  	0.508772 
520.780320  	0.508899 
522.709136  	0.509164 
524.637952  	0.507461 
526.566768  	0.506449 
528.495584  	0.503491 
530.424400  	0.502655 
532.353216  	0.498709 
534.282032  	0.494610 
536.210848  	0.486576 
538.139664  	0.480362 
540.068480  	0.475675 
541.997296  	0.472257 
543.926112  	0.466397 
545.854928  	0.461680 
547.783744  	0.457255 
549.712560  	0.453839 
551.641376  	0.449500 
553.570192  	0.446516 
555.499008  	0.443303 
557.427824  	0.439952 
559.356640  	0.435218 
561.285456  	0.431490 
563.214272  	0.427660 
565.143088  	0.424438 
567.071904  	0.419882 
569.000720  	0.416431 
570.929536  	0.414239 
572.858352  	0.412966 
574.787168  	0.410222 
576.715984  	0.407131 
578.644800  	0.402642 
580.573616  	0.397947 
582.502432  	0.392730 
584.431248  	0.389575 
586.360064  	0.385801 
588.288880  	0.383679 
590.217696  	0.382000 
592.146512  	0.380189 
594.075328  	0.377641 
596.004144  	0.375324 
597.932960  	0.372584 
599.861776  	0.370876 
601.790592  	0.368434 
603.719408  	0.366780 
605.648224  	0.365809 
607.577040  	0.364719 
609.505856  	0.362875 
611.434672  	0.361281 
613.363488  	0.358907 
615.292304  	0.358293 
617.221120  	0.357653 
619.149936  	0.356234 
621.078752  	0.354590 
623.007568  	0.354117 
624.936384  	0.352743 
626.865200  	0.351196 
628.794016  	0.350010 
630.722832  	0.349848 
632.651648  	0.349550 
634.580464  	0.349694 
636.509280  	0.349961 
638.438096  	0.350194 
640.366912  	0.349275 
642.295728  	0.347426 
644.224544  	0.344941 
646.153360  	0.342151 
648.082176  	0.338381 
650.010992  	0.334234 
651.939808  	0.330136 
653.868624  	0.326656 
655.797440  	0.322605 
657.726256  	0.318405 
659.655072  	0.314414 
661.583888  	0.310334 
663.512704  	0.306382 
665.441520  	0.303755 
667.370336  	0.298217 
669.299152  	0.291430 
671.227968  	0.289405 
673.156784  	0.286465 
675.085600  	0.284152 
677.014416  	0.281977 
678.943232  	0.279535 
680.872048  	0.278172 
682.800864  	0.276658 
684.729680  	0.274754 
686.658496  	0.273554 
688.587312  	0.272904 
690.516128  	0.271522 
692.444944  	0.270690 
694.373760  	0.269908 
696.302576  	0.267944 
698.231392  	0.265312 
700.160208  	0.263094 
702.089024  	0.260863 
704.017840  	0.258152 
705.946656  	0.255307 
707.875472  	0.252908 
709.804288  	0.250993 
711.733104  	0.249072 
713.661920  	0.247136 
715.590736  	0.246038 
717.519552  	0.245608 
719.448368  	0.246060 
721.377184  	0.246721 
723.306000  	0.247618 
725.234816  	0.248146 
727.163632  	0.247827 
729.092448  	0.245595 
731.021264  	0.242426 
732.950080  	0.239063 
734.878896  	0.235775 
736.807712  	0.232740 
738.736528  	0.230141 
740.665344  	0.228284 
742.594160  	0.226724 
744.522976  	0.225076 
746.451792  	0.223539 
748.380608  	0.222049 
750.309424  	0.220856 
752.238240  	0.220074 
754.167056  	0.219395 
756.095872  	0.218059 
758.024688  	0.217091 
759.953504  	0.216712 
761.882320  	0.217748 
763.811136  	0.218707 
765.739952  	0.217916 
767.668768  	0.215726 
769.597584  	0.213469 
771.526400  	0.212482 
773.455216  	0.213982 
775.384032  	0.218108 
777.312848  	0.223937 
779.241664  	0.229126 
781.170480  	0.229913 
783.099296  	0.226127 
785.028112  	0.220142 
786.956928  	0.213907 
788.885744  	0.208736 
790.814560  	0.204958 
792.743376  	0.202445 
794.672192  	0.201396 
796.601008  	0.200877 
798.529824  	0.198086 
800.458640  	0.193172 
802.387456  	0.189540 
804.316272  	0.187607 
806.245088  	0.186447 
808.173904  	0.185959 
810.102720  	0.186055 
812.031536  	0.186025 
813.960352  	0.186536 
815.889168  	0.187044 
817.817984  	0.187438 
819.746800  	0.187741 
821.675616  	0.188247 
823.604432  	0.188637 
825.533248  	0.188523 
827.462064  	0.188016 
829.390880  	0.187148 
831.319696  	0.186018 
833.248512  	0.184168 
835.177328  	0.181816 
837.106144  	0.178873 
839.034960  	0.175678 
840.963776  	0.172305 
842.892592  	0.168424 
844.821408  	0.164852 
846.750224  	0.161777 
848.679040  	0.159014 
850.607856  	0.156800 
852.536672  	0.155220 
854.465488  	0.154033 
856.394304  	0.152916 
858.323120  	0.151657 
860.251936  	0.149542 
862.180752  	0.147116 
864.109568  	0.144697 
866.038384  	0.141973 
867.967200  	0.139849 
869.896016  	0.137976 
871.824832  	0.136910 
873.753648  	0.136787 
875.682464  	0.137485 
877.611280  	0.138188 
879.540096  	0.139308 
881.468912  	0.141569 
883.397728  	0.143153 
885.326544  	0.144343 
887.255360  	0.144570 
889.184176  	0.143479 
891.112992  	0.141384 
893.041808  	0.139493 
894.970624  	0.137359 
896.899440  	0.133948 
898.828256  	0.129560 
900.757072  	0.125158 
902.685888  	0.121634 
904.614704  	0.119637 
906.543520  	0.119729 
908.472336  	0.121356 
910.401152  	0.124106 
912.329968  	0.127157 
914.258784  	0.130527 
916.187600  	0.133944 
918.116416  	0.136839 
920.045232  	0.138697 
921.974048  	0.139696 
923.902864  	0.140307 
925.831680  	0.140341 
927.760496  	0.140513 
929.689312  	0.141138 
931.618128  	0.142297 
933.546944  	0.143147 
935.475760  	0.143465 
937.404576  	0.143541 
939.333392  	0.143251 
941.262208  	0.143548 
943.191024  	0.145562 
945.119840  	0.149961 
947.048656  	0.156858 
948.977472  	0.165957 
950.906288  	0.176975 
952.835104  	0.189172 
954.763920  	0.201717 
956.692736  	0.213293 
958.621552  	0.223355 
960.550368  	0.230390 
962.479184  	0.233374 
964.408000  	0.231921 
966.336816  	0.226257 
968.265632  	0.216820 
970.194448  	0.204554 
972.123264  	0.190524 
974.052080  	0.175812 
975.980896  	0.161557 
977.909712  	0.148319 
979.838528  	0.136408 
981.767344  	0.126686 
983.696160  	0.119155 
985.624976  	0.114420 
987.553792  	0.112756 
989.482608  	0.113938 
991.411424  	0.117731 
993.340240  	0.123195 
995.269056  	0.129943 
997.197872  	0.137347 
999.126688  	0.144995 
1001.055504  	0.152782 
1002.984320  	0.160553 
1004.913136  	0.168122 
1006.841952  	0.175272 
1008.770768  	0.181324 
1010.699584  	0.185725 
1012.628400  	0.188215 
1014.557216  	0.189204 
1016.486032  	0.189433 
1018.414848  	0.189097 
1020.343664  	0.188416 
1022.272480  	0.187686 
1024.201296  	0.186471 
1026.130112  	0.183151 
1028.058928  	0.182059 
1029.987744  	0.185463 
1031.916560  	0.187826 
1033.845376  	0.189680 
1035.774192  	0.191915 
1037.703008  	0.195739 
1039.631824  	0.203158 
1041.560640  	0.213281 
1043.489456  	0.226847 
1045.418272  	0.243282 
1047.347088  	0.261106 
1049.275904  	0.276854 
1051.204720  	0.288670 
1053.133536  	0.295476 
1055.062352  	0.297727 
1056.991168  	0.296252 
1058.919984  	0.296343 
1060.848800  	0.296503 
1062.777616  	0.293245 
1064.706432  	0.286265 
1066.635248  	0.279936 
1068.564064  	0.277118 
1070.492880  	0.271543 
1072.421696  	0.263263 
1074.350512  	0.257628 
1076.279328  	0.256013 
1078.208144  	0.258781 
1080.136960  	0.264341 
1082.065776  	0.270554 
1083.994592  	0.274048 
1085.923408  	0.273971 
1087.852224  	0.270272 
1089.781040  	0.264618 
1091.709856  	0.257729 
1093.638672  	0.248185 
1095.567488  	0.235520 
1097.496304  	0.221861 
1099.425120  	0.207932 
1101.353936  	0.193847 
1103.282752  	0.180178 
1105.211568  	0.167205 
1107.140384  	0.154752 
1109.069200  	0.143129 
1110.998016  	0.132538 
1112.926832  	0.123103 
1114.855648  	0.114502 
1116.784464  	0.106317 
1118.713280  	0.098674 
1120.642096  	0.091524 
1122.570912  	0.084712 
1124.499728  	0.078232 
1126.428544  	0.072617 
1128.357360  	0.067564 
1130.286176  	0.063485 
1132.214992  	0.060004 
1134.143808  	0.057083 
1136.072624  	0.054667 
1138.001440  	0.052811 
1139.930256  	0.050414 
1141.859072  	0.047927 
1143.787888  	0.045408 
1145.716704  	0.043215 
1147.645520  	0.040946 
1149.574336  	0.039012 
1151.503152  	0.037528 
1153.431968  	0.037010 
1155.360784  	0.037101 
1157.289600  	0.038173 
1159.218416  	0.039879 
1161.147232  	0.042057 
1163.076048  	0.044404 
1165.004864  	0.047156 
1166.933680  	0.049768 
1168.862496  	0.052484 
1170.791312  	0.055237 
1172.720128  	0.058606 
1174.648944  	0.061850 
1176.577760  	0.065087 
1178.506576  	0.068192 
1180.435392  	0.071397 
1182.364208  	0.074379 
1184.293024  	0.077865 
1186.221840  	0.081617 
1188.150656  	0.085853 
1190.079472  	0.090581 
1192.008288  	0.096581 
1193.937104  	0.103838 
1195.865920  	0.112237 
1197.794736  	0.121459 
1199.723552  	0.131570 
1201.652368  	0.141792 
1203.581184  	0.152194 
1205.510000  	0.162097 
1207.438816  	0.171519 
1209.367632  	0.180408 
1211.296448  	0.188020 
1213.225264  	0.194130 
1215.154080  	0.198505 
1217.082896  	0.201813 
1219.011712  	0.203990 
1220.940528  	0.205462 
1222.869344  	0.206079 
1224.798160  	0.205806 
1226.726976  	0.204882 
1228.655792  	0.203553 
1230.584608  	0.201494 
1232.513424  	0.198824 
1234.442240  	0.195501 
1236.371056  	0.191303 
1238.299872  	0.185892 
1240.228688  	0.178153 
1242.157504  	0.170307 
1244.086320  	0.163761 
1246.015136  	0.155793 
1247.943952  	0.146869 
1249.872768  	0.138064 
1251.801584  	0.130447 
1253.730400  	0.122760 
1255.659216  	0.115135 
1257.588032  	0.108073 
1259.516848  	0.101418 
1261.445664  	0.095306 
1263.374480  	0.089821 
1265.303296  	0.085121 
1267.232112  	0.081262 
1269.160928  	0.078425 
1271.089744  	0.076188 
1273.018560  	0.074858 
1274.947376  	0.074495 
1276.876192  	0.074586 
1278.805008  	0.074282 
1280.733824  	0.073067 
1282.662640  	0.070819 
1284.591456  	0.068284 
1286.520272  	0.066226 
1288.449088  	0.064917 
1290.377904  	0.064305 
1292.306720  	0.064493 
1294.235536  	0.064495 
1296.164352  	0.063638 
1298.093168  	0.061225 
1300.021984  	0.058135 
1301.950800  	0.054947 
1303.879616  	0.051922 
1305.808432  	0.048518 
1307.737248  	0.045117 
1309.666064  	0.041843 
1311.594880  	0.039571 
1313.523696  	0.037782 
1315.452512  	0.036471 
1317.381328  	0.035756 
1319.310144  	0.035579 
1321.238960  	0.035647 
1323.167776  	0.036350 
1325.096592  	0.037244 
1327.025408  	0.037993 
1328.954224  	0.038087 
1330.883040  	0.037678 
1332.811856  	0.036812 
1334.740672  	0.036252 
1336.669488  	0.036241 
1338.598304  	0.036518 
1340.527120  	0.034977 
1342.455936  	0.033184 
1344.384752  	0.032753 
1346.313568  	0.033102 
1348.242384  	0.033806 
1350.171200  	0.035154 
1352.100016  	0.036857 
1354.028832  	0.039016 
1355.957648  	0.041074 
1357.886464  	0.043320 
1359.815280  	0.045833 
1361.744096  	0.048454 
1363.672912  	0.049825 
1365.601728  	0.051052 
1367.530544  	0.052605 
1369.459360  	0.053045 
1371.388176  	0.052832 
1373.316992  	0.051578 
1375.245808  	0.048025 
1377.174624  	0.045234 
1379.103440  	0.042118 
1381.032256  	0.038848 
1382.961072  	0.036426 
1384.889888  	0.035835 
1386.818704  	0.035153 
1388.747520  	0.033016 
1390.676336  	0.030661 
1392.605152  	0.027580 
1394.533968  	0.025576 
1396.462784  	0.028413 
1398.391600  	0.029768 
1400.320416  	0.028858 
1402.249232  	0.029311 
1404.178048  	0.030020 
1406.106864  	0.030554 
1408.035680  	0.032537 
1409.964496  	0.035272 
1411.893312  	0.038309 
1413.822128  	0.041491 
1415.750944  	0.045586 
1417.679760  	0.048408 
1419.608576  	0.047514 
1421.537392  	0.047739 
1423.466208  	0.048058 
1425.395024  	0.046197 
1427.323840  	0.044815 
1429.252656  	0.042096 
1431.181472  	0.040149 
1433.110288  	0.040285 
1435.039104  	0.041226 
1436.967920  	0.040156 
1438.896736  	0.040809 
1440.825552  	0.042205 
1442.754368  	0.042882 
1444.683184  	0.043182 
1446.612000  	0.043262 
1448.540816  	0.041983 
1450.469632  	0.042470 
1452.398448  	0.043578 
1454.327264  	0.045007 
1456.256080  	0.044394 
1458.184896  	0.040854 
1460.113712  	0.042346 
1462.042528  	0.044305 
1463.971344  	0.044032 
1465.900160  	0.044156 
1467.828976  	0.047290 
1469.757792  	0.051150 
1471.686608  	0.054458 
1473.615424  	0.060192 
1475.544240  	0.067208 
1477.473056  	0.073191 
1479.401872  	0.077512 
1481.330688  	0.080837 
1483.259504  	0.083019 
1485.188320  	0.084778 
1487.117136  	0.084626 
1489.045952  	0.083663 
1490.974768  	0.079909 
1492.903584  	0.077749 
1494.832400  	0.074501 
1496.761216  	0.066953 
1498.690032  	0.060289 
1500.618848  	0.056289 
1502.547664  	0.052798 
1504.476480  	0.048975 
1506.405296  	0.041804 
1508.334112  	0.038450 
1510.262928  	0.038815 
1512.191744  	0.037007 
1514.120560  	0.036232 
1516.049376  	0.035710 
1517.978192  	0.034726 
1519.907008  	0.036551 
1521.835824  	0.036525 
1523.764640  	0.041163 
1525.693456  	0.045871 
1527.622272  	0.047944 
1529.551088  	0.048789 
1531.479904  	0.048689 
1533.408720  	0.043880 
1535.337536  	0.040696 
1537.266352  	0.039658 
1539.195168  	0.031466 
1541.123984  	0.023168 
1543.052800  	0.026057 
1544.981616  	0.026571 
1546.910432  	0.026274 
1548.839248  	0.026963 
1550.768064  	0.026850 
1552.696880  	0.026965 
1554.625696  	0.027539 
1556.554512  	0.028154 
1558.483328  	0.025183 
1560.412144  	0.028559 
1562.340960  	0.037251 
1564.269776  	0.041916 
1566.198592  	0.047624 
1568.127408  	0.052213 
1570.056224  	0.057312 
1571.985040  	0.065206 
1573.913856  	0.070682 
1575.842672  	0.071223 
1577.771488  	0.073970 
1579.700304  	0.076505 
1581.629120  	0.076483 
1583.557936  	0.075874 
1585.486752  	0.076755 
1587.415568  	0.079366 
1589.344384  	0.084212 
1591.273200  	0.090725 
1593.202016  	0.098584 
1595.130832  	0.106658 
1597.059648  	0.115215 
1598.988464  	0.122566 
1600.917280  	0.128903 
1602.846096  	0.132874 
1604.774912  	0.135349 
1606.703728  	0.135332 
1608.632544  	0.134072 
1610.561360  	0.131827 
1612.490176  	0.130258 
1614.418992  	0.128041 
1616.347808  	0.124671 
1618.276624  	0.125746 
1620.205440  	0.130986 
1622.134256  	0.133989 
1624.063072  	0.139825 
1625.991888  	0.147495 
1627.920704  	0.155945 
1629.849520  	0.166443 
1631.778336  	0.176611 
1633.707152  	0.183254 
1635.635968  	0.189901 
1637.564784  	0.200300 
1639.493600  	0.208852 
1641.422416  	0.214207 
1643.351232  	0.217868 
1645.280048  	0.217557 
1647.208864  	0.215748 
1649.137680  	0.216935 
1651.066496  	0.217082 
1652.995312  	0.207850 
1654.924128  	0.206722 
1656.852944  	0.208081 
1658.781760  	0.205992 
1660.710576  	0.201813 
1662.639392  	0.195594 
1664.568208  	0.191213 
1666.497024  	0.188890 
1668.425840  	0.182756 
1670.354656  	0.174762 
1672.283472  	0.171865 
1674.212288  	0.168607 
1676.141104  	0.163447 
1678.069920  	0.163225 
1679.998736  	0.162459 
1681.927552  	0.160806 
1683.856368  	0.154635 
1685.785184  	0.153344 
1687.714000  	0.156245 
1689.642816  	0.155552 
1691.571632  	0.153824 
1693.500448  	0.152915 
1695.429264  	0.148010 
1697.358080  	0.144537 
1699.286896  	0.142086 
1701.215712  	0.135949 
1703.144528  	0.136121 
1705.073344  	0.131953 
1707.002160  	0.125672 
1708.930976  	0.121512 
1710.859792  	0.115543 
1712.788608  	0.108786 
1714.717424  	0.100013 
1716.646240  	0.088211 
1718.575056  	0.074096 
1720.503872  	0.067144 
1722.432688  	0.060927 
1724.361504  	0.051546 
1726.290320  	0.043958 
1728.219136  	0.037910 
1730.147952  	0.032382 
1732.076768  	0.027775 
1734.005584  	0.020033 
1735.934400  	0.015129 
1737.863216  	0.015907 
1739.792032  	0.011938 
1741.720848  	0.010834 
1743.649664  	0.010611 
1745.578480  	0.009969 
1747.507296  	0.008424 
1749.436112  	0.007332 
1751.364928  	0.005711 
1753.293744  	0.005244 
1755.222560  	0.005453 
1757.151376  	0.004632 
1759.080192  	0.004243 
1761.009008  	0.003572 
1762.937824  	0.001710 
1764.866640  	0.002530 
1766.795456  	0.003232 
1768.724272  	0.002644 
1770.653088  	0.000642 
1772.581904  	-0.002610 
1774.510720  	-0.001547 
1776.439536  	0.000441 
1778.368352  	0.000913 
1780.297168  	0.000388 
1782.225984  	-0.000159 
1784.154800  	0.000477 
1786.083616  	-0.000239 
1788.012432  	0.000208 
1789.941248  	0.000754 
1791.870064  	-0.000979 
1793.798880  	-0.002643 
1795.727696  	-0.000802 
1797.656512  	-0.000920 
1799.585328  	-0.001053 
1801.514144  	-0.001004 
1803.442960  	-0.001149 
1805.371776  	-0.001661 
1807.300592  	-0.001261 
1809.229408  	-0.001749 
1811.158224  	-0.002215 
1813.087040  	-0.002470 
1815.015856  	-0.001972 
1816.944672  	-0.001874 
1818.873488  	-0.001898 
1820.802304  	-0.002021 
1822.731120  	-0.001130 
1824.659936  	-0.001859 
1826.588752  	-0.002416 
1828.517568  	-0.002841 
1830.446384  	-0.003781 
1832.375200  	-0.003123 
1834.304016  	-0.002260 
1836.232832  	-0.002359 
1838.161648  	-0.002082 
1840.090464  	-0.002112 
1842.019280  	-0.001202 
1843.948096  	-0.002785 
1845.876912  	-0.003307 
1847.805728  	-0.002441 
1849.734544  	-0.002401 
1851.663360  	-0.002731 
1853.592176  	-0.002843 
1855.520992  	-0.002908 
1857.449808  	-0.002624 
1859.378624  	-0.002739 
1861.307440  	-0.002651 
1863.236256  	-0.002811 
1865.165072  	-0.002356 
1867.093888  	-0.002517 
1869.022704  	-0.003207 
1870.951520  	-0.003603 
1872.880336  	-0.003018 
1874.809152  	-0.003175 
1876.737968  	-0.003054 
1878.666784  	-0.003445 
1880.595600  	-0.002745 
1882.524416  	-0.002979 
1884.453232  	-0.003091 
1886.382048  	-0.003209 
1888.310864  	-0.002809 
1890.239680  	-0.003591 
1892.168496  	-0.003478 
1894.097312  	-0.003352 
1896.026128  	-0.003051 
1897.954944  	-0.002890 
1899.883760  	-0.002614 
1901.812576  	-0.003290 
1903.741392  	-0.003357 
1905.670208  	-0.003260 
1907.599024  	-0.002749 
1909.527840  	-0.003049 
1911.456656  	-0.002815 
1913.385472  	-0.002987 
1915.314288  	-0.002170 
1917.243104  	-0.002618 
1919.171920  	-0.003216 
1921.100736  	-0.003217 
1923.029552  	-0.002900 
1924.958368  	-0.003439 
1926.887184  	-0.003057 
1928.816000  	-0.003298 
1930.744816  	-0.003206 
1932.673632  	-0.003438 
1934.602448  	-0.003054 
1936.531264  	-0.002910 
1938.460080  	-0.002477 
1940.388896  	-0.002928 
1942.317712  	-0.003164 
1944.246528  	-0.003667 
1946.175344  	-0.002871 
1948.104160  	-0.003001 
1950.032976  	-0.002687 
1951.961792  	-0.003408 
1953.890608  	-0.003317 
1955.819424  	-0.003839 
1957.748240  	-0.003066 
1959.677056  	-0.003316 
1961.605872  	-0.002690 
1963.534688  	-0.002800 
1965.463504  	-0.001960 
1967.392320  	-0.002865 
1969.321136  	-0.002610 
1971.249952  	-0.002752 
1973.178768  	-0.001147 
1975.107584  	-0.001834 
1977.036400  	-0.000791 
1978.965216  	-0.000343 
1980.894032  	-0.000605 
1982.822848  	-0.001984 
1984.751664  	-0.001523 
1986.680480  	-0.002329 
1988.609296  	-0.001517 
1990.538112  	-0.001890 
1992.466928  	-0.002465 
1994.395744  	-0.003369 
1996.324560  	-0.002471 
1998.253376  	-0.003176 
2000.182192  	-0.003779 
2002.111008  	-0.003328 
2004.039824  	-0.001873 
2005.968640  	-0.002208 
2007.897456  	-0.001527 
2009.826272  	-0.002319 
2011.755088  	-0.002265 
2013.683904  	-0.002920 
2015.612720  	-0.002458 
2017.541536  	-0.003053 
2019.470352  	-0.002264 
2021.399168  	-0.003125 
2023.327984  	-0.002746 
2025.256800  	-0.001323 
2027.185616  	-0.000796 
2029.114432  	-0.002187 
2031.043248  	-0.001771 
2032.972064  	-0.001978 
2034.900880  	-0.001450 
2036.829696  	-0.002734 
2038.758512  	-0.001565 
2040.687328  	-0.001519 
2042.616144  	-0.001359 
2044.544960  	-0.001920 
2046.473776  	-0.001827 
2048.402592  	-0.002529 
2050.331408  	-0.002354 
2052.260224  	-0.003061 
2054.189040  	-0.003276 
2056.117856  	-0.003230 
2058.046672  	-0.002485 
2059.975488  	-0.002955 
2061.904304  	-0.003301 
2063.833120  	-0.003068 
2065.761936  	-0.002913 
2067.690752  	-0.003130 
2069.619568  	-0.002547 
2071.548384  	-0.002915 
2073.477200  	-0.002844 
2075.406016  	-0.002534 
2077.334832  	-0.002455 
2079.263648  	-0.002646 
2081.192464  	-0.002406 
2083.121280  	-0.002431 
2085.050096  	-0.002472 
2086.978912  	-0.002510 
2088.907728  	-0.002157 
2090.836544  	-0.002499 
2092.765360  	-0.002509 
2094.694176  	-0.002536 
2096.622992  	-0.002305 
2098.551808  	-0.002686 
2100.480624  	-0.002225 
2102.409440  	-0.002153 
2104.338256  	-0.002161 
2106.267072  	-0.002217 
2108.195888  	-0.001888 
2110.124704  	-0.001814 
2112.053520  	-0.001714 
2113.982336  	-0.002268 
2115.911152  	-0.002375 
2117.839968  	-0.002260 
2119.768784  	-0.002242 
2121.697600  	-0.002462 
2123.626416  	-0.002300 
2125.555232  	-0.002514 
2127.484048  	-0.002293 
2129.412864  	-0.002358 
2131.341680  	-0.002418 
2133.270496  	-0.002953 
2135.199312  	-0.002368 
2137.128128  	-0.001638 
2139.056944  	-0.000931 
2140.985760  	-0.001239 
2142.914576  	-0.000983 
2144.843392  	-0.001127 
2146.772208  	-0.001215 
2148.701024  	-0.002001 
2150.629840  	-0.000804 
2152.558656  	-0.000583 
2154.487472  	-0.000317 
2156.416288  	-0.000837 
2158.345104  	-0.000522 
2160.273920  	0.000860 
2162.202736  	0.001722 
2164.131552  	0.000338 
2166.060368  	0.000072 
2167.989184  	0.000730 
2169.918000  	0.001710 
2171.846816  	0.000506 
2173.775632  	0.000560 
2175.704448  	0.000560 
2177.633264  	0.000878 
2179.562080  	0.000111 
2181.490896  	-0.000227 
2183.419712  	-0.000914 
2185.348528  	-0.000763 
2187.277344  	-0.001084 
2189.206160  	-0.000989 
2191.134976  	-0.001055 
2193.063792  	-0.001088 
2194.992608  	-0.001704 
2196.921424  	-0.001731 
2198.850240  	-0.001261 
2200.779056  	-0.000942 
2202.707872  	-0.001761 
2204.636688  	-0.001957 
2206.565504  	-0.001656 
2208.494320  	-0.001743 
2210.423136  	-0.002345 
2212.351952  	-0.001734 
2214.280768  	-0.001706 
2216.209584  	-0.001773 
2218.138400  	-0.002487 
2220.067216  	-0.002326 
2221.996032  	-0.002188 
2223.924848  	-0.001852 
2225.853664  	-0.001922 
2227.782480  	-0.001945 
2229.711296  	-0.002401 
2231.640112  	-0.002959 
2233.568928  	-0.003356 
2235.497744  	-0.002874 
2237.426560  	-0.002952 
2239.355376  	-0.003051 
2241.284192  	-0.002988 
2243.213008  	-0.002854 
2245.141824  	-0.003577 
2247.070640  	-0.003664 
2248.999456  	-0.003259 
2250.928272  	-0.003138 
2252.857088  	-0.003643 
2254.785904  	-0.003516 
2256.714720  	-0.003581 
2258.643536  	-0.003673 
2260.572352  	-0.004249 
2262.501168  	-0.004091 
2264.429984  	-0.003752 
2266.358800  	-0.003429 
2268.287616  	-0.003717 
2270.216432  	-0.003965 
2272.145248  	-0.004151 
2274.074064  	-0.004065 
2276.002880  	-0.003822 
2277.931696  	-0.003391 
2279.860512  	-0.003583 
2281.789328  	-0.003595 
2283.718144  	-0.003581 
2285.646960  	-0.003277 
2287.575776  	-0.002950 
2289.504592  	-0.003018 
2291.433408  	-0.003062 
2293.362224  	-0.002625 
2295.291040  	-0.002198 
2297.219856  	-0.001678 
2299.148672  	-0.001609 
2301.077488  	-0.001389 
2303.006304  	-0.001385 
2304.935120  	-0.001010 
2306.863936  	-0.000581 
2308.792752  	-0.000352 
2310.721568  	-0.000468 
2312.650384  	-0.000724 
2314.579200  	-0.001542 
2316.508016  	-0.002259 
2318.436832  	-0.002821 
2320.365648  	-0.003597 
2322.294464  	-0.004705 
2324.223280  	-0.006025 
2326.152096  	-0.007769 
2328.080912  	-0.009156 
2330.009728  	-0.010802 
2331.938544  	-0.012575 
2333.867360  	-0.013668 
2335.796176  	-0.014402 
2337.724992  	-0.015455 
2339.653808  	-0.015877 
2341.582624  	-0.015952 
2343.511440  	-0.015150 
2345.440256  	-0.013565 
2347.369072  	-0.009503 
2349.297888  	-0.006244 
2351.226704  	-0.007621 
2353.155520  	-0.011734 
2355.084336  	-0.014893 
2357.013152  	-0.017770 
2358.941968  	-0.019589 
2360.870784  	-0.021041 
2362.799600  	-0.020411 
2364.728416  	-0.019180 
2366.657232  	-0.017343 
2368.586048  	-0.014949 
2370.514864  	-0.012406 
2372.443680  	-0.010002 
2374.372496  	-0.007406 
2376.301312  	-0.005185 
2378.230128  	-0.003597 
2380.158944  	-0.002745 
2382.087760  	-0.002631 
2384.016576  	-0.003188 
2385.945392  	-0.003706 
2387.874208  	-0.003977 
2389.803024  	-0.004122 
2391.731840  	-0.004537 
2393.660656  	-0.004721 
2395.589472  	-0.004579 
2397.518288  	-0.004328 
2399.447104  	-0.004453 
2401.375920  	-0.004654 
2403.304736  	-0.004871 
2405.233552  	-0.004769 
2407.162368  	-0.004839 
2409.091184  	-0.004880 
2411.020000  	-0.004851 
2412.948816  	-0.004735 
2414.877632  	-0.004560 
2416.806448  	-0.004411 
2418.735264  	-0.004617 
2420.664080  	-0.004745 
2422.592896  	-0.004825 
2424.521712  	-0.004710 
2426.450528  	-0.004853 
2428.379344  	-0.004627 
2430.308160  	-0.004381 
2432.236976  	-0.004219 
2434.165792  	-0.004368 
2436.094608  	-0.004464 
2438.023424  	-0.004399 
2439.952240  	-0.004109 
2441.881056  	-0.003960 
2443.809872  	-0.003965 
2445.738688  	-0.003877 
2447.667504  	-0.003750 
2449.596320  	-0.003813 
2451.525136  	-0.003734 
2453.453952  	-0.003849 
2455.382768  	-0.003918 
2457.311584  	-0.003943 
2459.240400  	-0.004031 
2461.169216  	-0.004086 
2463.098032  	-0.004033 
2465.026848  	-0.004002 
2466.955664  	-0.004037 
2468.884480  	-0.004186 
2470.813296  	-0.004283 
2472.742112  	-0.004498 
2474.670928  	-0.004422 
2476.599744  	-0.004295 
2478.528560  	-0.004144 
2480.457376  	-0.004168 
2482.386192  	-0.003983 
2484.315008  	-0.003735 
2486.243824  	-0.003672 
2488.172640  	-0.003768 
2490.101456  	-0.003565 
2492.030272  	-0.003419 
2493.959088  	-0.003531 
2495.887904  	-0.003614 
2497.816720  	-0.003636 
2499.745536  	-0.003487 
2501.674352  	-0.003164 
2503.603168  	-0.002829 
2505.531984  	-0.002853 
2507.460800  	-0.003287 
2509.389616  	-0.003354 
2511.318432  	-0.003177 
2513.247248  	-0.002946 
2515.176064  	-0.002905 
2517.104880  	-0.003026 
2519.033696  	-0.003127 
2520.962512  	-0.003043 
2522.891328  	-0.002919 
2524.820144  	-0.002885 
2526.748960  	-0.002881 
2528.677776  	-0.002602 
2530.606592  	-0.002563 
2532.535408  	-0.002597 
2534.464224  	-0.002775 
2536.393040  	-0.002943 
2538.321856  	-0.002734 
2540.250672  	-0.002514 
2542.179488  	-0.002573 
2544.108304  	-0.002449 
2546.037120  	-0.002449 
2547.965936  	-0.002296 
2549.894752  	-0.002199 
2551.823568  	-0.002137 
2553.752384  	-0.001986 
2555.681200  	-0.001774 
2557.610016  	-0.001688 
2559.538832  	-0.001567 
2561.467648  	-0.001451 
2563.396464  	-0.001272 
2565.325280  	-0.001124 
2567.254096  	-0.001211 
2569.182912  	-0.001370 
2571.111728  	-0.001239 
2573.040544  	-0.001312 
2574.969360  	-0.001202 
2576.898176  	-0.000765 
2578.826992  	-0.000775 
2580.755808  	-0.001107 
2582.684624  	-0.001005 
2584.613440  	-0.000737 
2586.542256  	-0.000669 
2588.471072  	-0.000597 
2590.399888  	-0.000517 
2592.328704  	-0.000551 
2594.257520  	-0.000520 
2596.186336  	-0.000466 
2598.115152  	-0.000461 
2600.043968  	-0.000495 
2601.972784  	-0.000317 
2603.901600  	-0.000240 
2605.830416  	-0.000098 
2607.759232  	0.000056 
2609.688048  	0.000267 
2611.616864  	0.000519 
2613.545680  	0.000604 
2615.474496  	0.000613 
2617.403312  	0.000770 
2619.332128  	0.000904 
2621.260944  	0.001018 
2623.189760  	0.001035 
2625.118576  	0.001062 
2627.047392  	0.001111 
2628.976208  	0.001227 
2630.905024  	0.001363 
2632.833840  	0.001455 
2634.762656  	0.001562 
2636.691472  	0.001549 
2638.620288  	0.001574 
2640.549104  	0.001796 
2642.477920  	0.001976 
2644.406736  	0.002164 
2646.335552  	0.002307 
2648.264368  	0.002411 
2650.193184  	0.002496 
2652.122000  	0.002624 
2654.050816  	0.002836 
2655.979632  	0.003011 
2657.908448  	0.003109 
2659.837264  	0.003220 
2661.766080  	0.003301 
2663.694896  	0.003457 
2665.623712  	0.003555 
2667.552528  	0.003683 
2669.481344  	0.003834 
2671.410160  	0.003965 
2673.338976  	0.004076 
2675.267792  	0.004315 
2677.196608  	0.004500 
2679.125424  	0.004572 
2681.054240  	0.004703 
2682.983056  	0.004926 
2684.911872  	0.004972 
2686.840688  	0.005028 
2688.769504  	0.005176 
2690.698320  	0.005199 
2692.627136  	0.005163 
2694.555952  	0.005268 
2696.484768  	0.005441 
2698.413584  	0.005589 
2700.342400  	0.005634 
2702.271216  	0.005772 
2704.200032  	0.005970 
2706.128848  	0.006079 
2708.057664  	0.006078 
2709.986480  	0.006160 
2711.915296  	0.006340 
2713.844112  	0.006510 
2715.772928  	0.006587 
2717.701744  	0.006788 
2719.630560  	0.006996 
2721.559376  	0.007085 
2723.488192  	0.007262 
2725.417008  	0.007488 
2727.345824  	0.007642 
2729.274640  	0.007725 
2731.203456  	0.007838 
2733.132272  	0.007972 
2735.061088  	0.008136 
2736.989904  	0.008325 
2738.918720  	0.008409 
2740.847536  	0.008520 
2742.776352  	0.008545 
2744.705168  	0.008550 
2746.633984  	0.008646 
2748.562800  	0.008727 
2750.491616  	0.008812 
2752.420432  	0.008974 
2754.349248  	0.008958 
2756.278064  	0.008903 
2758.206880  	0.008805 
2760.135696  	0.008827 
2762.064512  	0.008765 
2763.993328  	0.008712 
2765.922144  	0.008763 
2767.850960  	0.008913 
2769.779776  	0.008998 
2771.708592  	0.009014 
2773.637408  	0.008891 
2775.566224  	0.008843 
2777.495040  	0.008803 
2779.423856  	0.008896 
2781.352672  	0.008922 
2783.281488  	0.008809 
2785.210304  	0.008882 
2787.139120  	0.008954 
2789.067936  	0.008902 
2790.996752  	0.008941 
2792.925568  	0.008918 
2794.854384  	0.008835 
2796.783200  	0.008786 
2798.712016  	0.008690 
2800.640832  	0.008671 
2802.569648  	0.008800 
2804.498464  	0.008883 
2806.427280  	0.008827 
2808.356096  	0.008756 
2810.284912  	0.008824 
2812.213728  	0.008880 
2814.142544  	0.008728 
2816.071360  	0.008657 
2818.000176  	0.008558 
2819.928992  	0.008467 
2821.857808  	0.008395 
2823.786624  	0.008223 
2825.715440  	0.008119 
2827.644256  	0.007992 
2829.573072  	0.007875 
2831.501888  	0.007554 
2833.430704  	0.007169 
2835.359520  	0.006846 
2837.288336  	0.006617 
2839.217152  	0.006280 
2841.145968  	0.005960 
2843.074784  	0.005558 
2845.003600  	0.005085 
2846.932416  	0.004767 
2848.861232  	0.004466 
2850.790048  	0.004001 
2852.718864  	0.003435 
2854.647680  	0.002959 
2856.576496  	0.002426 
2858.505312  	0.001843 
2860.434128  	0.001266 
2862.362944  	0.000490 
2864.291760  	-0.000331 
2866.220576  	-0.000976 
2868.149392  	-0.001261 
2870.078208  	-0.001414 
2872.007024  	-0.001462 
2873.935840  	-0.001370 
2875.864656  	-0.001438 
2877.793472  	-0.001614 
2879.722288  	-0.001743 
2881.651104  	-0.002001 
2883.579920  	-0.002192 
2885.508736  	-0.002071 
2887.437552  	-0.001728 
2889.366368  	-0.001469 
2891.295184  	-0.001738 
2893.224000  	-0.002049 
2895.152816  	-0.002031 
2897.081632  	-0.002292 
2899.010448  	-0.004034 
2900.939264  	-0.005619 
2902.868080  	-0.004251 
2904.796896  	-0.002842 
2906.725712  	-0.002208 
2908.654528  	-0.001561 
2910.583344  	-0.001191 
2912.512160  	-0.000557 
2914.440976  	0.000607 
2916.369792  	0.001512 
2918.298608  	0.002109 
2920.227424  	0.002568 
2922.156240  	0.003261 
2924.085056  	0.004174 
2926.013872  	0.005262 
2927.942688  	0.006339 
2929.871504  	0.007300 
2931.800320  	0.008302 
2933.729136  	0.009075 
2935.657952  	0.009696 
2937.586768  	0.010423 
2939.515584  	0.011073 
2941.444400  	0.011404 
2943.373216  	0.011591 
2945.302032  	0.011962 
2947.230848  	0.012070 
2949.159664  	0.011809 
2951.088480  	0.011372 
2953.017296  	0.010835 
2954.946112  	0.010157 
2956.874928  	0.009341 
2958.803744  	0.008588 
2960.732560  	0.008061 
2962.661376  	0.007332 
2964.590192  	0.006408 
2966.519008  	0.005213 
2968.447824  	0.004183 
2970.376640  	0.003362 
2972.305456  	0.002808 
2974.234272  	0.003001 
2976.163088  	0.003354 
2978.091904  	0.003335 
2980.020720  	0.003371 
2981.949536  	0.003591 
2983.878352  	0.003329 
2985.807168  	0.002444 
2987.735984  	0.001444 
2989.664800  	0.001718 
2991.593616  	0.004874 
2993.522432  	0.006956 
2995.451248  	0.007578 
2997.380064  	0.008437 
2999.308880  	0.009588 
3001.237696  	0.011012 
3003.166512  	0.012650 
3005.095328  	0.014073 
3007.024144  	0.015508 
3008.952960  	0.017161 
3010.881776  	0.018666 
3012.810592  	0.020093 
3014.739408  	0.021452 
3016.668224  	0.022730 
3018.597040  	0.024051 
3020.525856  	0.025340 
3022.454672  	0.026484 
3024.383488  	0.027485 
3026.312304  	0.028583 
3028.241120  	0.029730 
3030.169936  	0.030807 
3032.098752  	0.031710 
3034.027568  	0.032567 
3035.956384  	0.033502 
3037.885200  	0.034373 
3039.814016  	0.035070 
3041.742832  	0.035783 
3043.671648  	0.036489 
3045.600464  	0.037185 
3047.529280  	0.037763 
3049.458096  	0.038440 
3051.386912  	0.039226 
3053.315728  	0.039880 
3055.244544  	0.040510 
3057.173360  	0.041272 
3059.102176  	0.041841 
3061.030992  	0.042482 
3062.959808  	0.043405 
3064.888624  	0.044165 
3066.817440  	0.044847 
3068.746256  	0.045923 
3070.675072  	0.046977 
3072.603888  	0.047814 
3074.532704  	0.048615 
3076.461520  	0.049439 
3078.390336  	0.050309 
3080.319152  	0.051055 
3082.247968  	0.051869 
3084.176784  	0.052692 
3086.105600  	0.053621 
3088.034416  	0.054502 
3089.963232  	0.055475 
3091.892048  	0.056217 
3093.820864  	0.056965 
3095.749680  	0.057833 
3097.678496  	0.058793 
3099.607312  	0.059773 
3101.536128  	0.060812 
3103.464944  	0.061813 
3105.393760  	0.062466 
3107.322576  	0.063287 
3109.251392  	0.064180 
3111.180208  	0.064803 
3113.109024  	0.065643 
3115.037840  	0.066510 
3116.966656  	0.067261 
3118.895472  	0.068016 
3120.824288  	0.068830 
3122.753104  	0.069417 
3124.681920  	0.069840 
3126.610736  	0.070344 
3128.539552  	0.071135 
3130.468368  	0.072056 
3132.397184  	0.072719 
3134.326000  	0.073336 
3136.254816  	0.074042 
3138.183632  	0.074770 
3140.112448  	0.075400 
3142.041264  	0.075947 
3143.970080  	0.076530 
3145.898896  	0.077204 
3147.827712  	0.077817 
3149.756528  	0.078397 
3151.685344  	0.078886 
3153.614160  	0.079776 
3155.542976  	0.080640 
3157.471792  	0.081306 
3159.400608  	0.081950 
3161.329424  	0.082570 
3163.258240  	0.082942 
3165.187056  	0.083495 
3167.115872  	0.084170 
3169.044688  	0.084573 
3170.973504  	0.085012 
3172.902320  	0.085431 
3174.831136  	0.085913 
3176.759952  	0.086448 
3178.688768  	0.086716 
3180.617584  	0.086991 
3182.546400  	0.087294 
3184.475216  	0.087455 
3186.404032  	0.087479 
3188.332848  	0.087754 
3190.261664  	0.088128 
3192.190480  	0.088389 
3194.119296  	0.088308 
3196.048112  	0.088260 
3197.976928  	0.088242 
3199.905744  	0.088227 
3201.834560  	0.088113 
3203.763376  	0.088004 
3205.692192  	0.088004 
3207.621008  	0.087761 
3209.549824  	0.087579 
3211.478640  	0.087561 
3213.407456  	0.087482 
3215.336272  	0.087302 
3217.265088  	0.087142 
3219.193904  	0.086960 
3221.122720  	0.086751 
3223.051536  	0.086555 
3224.980352  	0.086248 
3226.909168  	0.086042 
3228.837984  	0.085849 
3230.766800  	0.085770 
3232.695616  	0.085708 
3234.624432  	0.085637 
3236.553248  	0.085522 
3238.482064  	0.085593 
3240.410880  	0.085580 
3242.339696  	0.085760 
3244.268512  	0.085718 
3246.197328  	0.085698 
3248.126144  	0.085868 
3250.054960  	0.085977 
3251.983776  	0.086194 
3253.912592  	0.086476 
3255.841408  	0.086675 
3257.770224  	0.086898 
3259.699040  	0.087211 
3261.627856  	0.087572 
3263.556672  	0.087782 
3265.485488  	0.087727 
3267.414304  	0.088019 
3269.343120  	0.088506 
3271.271936  	0.088748 
3273.200752  	0.088765 
3275.129568  	0.088883 
3277.058384  	0.089198 
3278.987200  	0.089384 
3280.916016  	0.089514 
3282.844832  	0.089701 
3284.773648  	0.089760 
3286.702464  	0.089972 
3288.631280  	0.090368 
3290.560096  	0.090851 
3292.488912  	0.091324 
3294.417728  	0.091436 
3296.346544  	0.091590 
3298.275360  	0.091812 
3300.204176  	0.092097 
3302.132992  	0.092559 
3304.061808  	0.092811 
3305.990624  	0.093148 
3307.919440  	0.093629 
3309.848256  	0.093827 
3311.777072  	0.093768 
3313.705888  	0.093925 
3315.634704  	0.094676 
3317.563520  	0.095212 
3319.492336  	0.095318 
3321.421152  	0.095474 
3323.349968  	0.095736 
3325.278784  	0.095835 
3327.207600  	0.095957 
3329.136416  	0.095977 
3331.065232  	0.096085 
3332.994048  	0.096189 
3334.922864  	0.096338 
3336.851680  	0.096380 
3338.780496  	0.096163 
3340.709312  	0.096001 
3342.638128  	0.095914 
3344.566944  	0.095450 
3346.495760  	0.095031 
3348.424576  	0.094816 
3350.353392  	0.094596 
3352.282208  	0.094212 
3354.211024  	0.093893 
3356.139840  	0.093527 
3358.068656  	0.093080 
3359.997472  	0.092833 
3361.926288  	0.092327 
3363.855104  	0.091719 
3365.783920  	0.091320 
3367.712736  	0.090890 
3369.641552  	0.090454 
3371.570368  	0.090035 
3373.499184  	0.089612 
3375.428000  	0.089293 
3377.356816  	0.088978 
3379.285632  	0.088758 
3381.214448  	0.088337 
3383.143264  	0.087742 
3385.072080  	0.087207 
3387.000896  	0.086811 
3388.929712  	0.086484 
3390.858528  	0.086104 
3392.787344  	0.085798 
3394.716160  	0.085393 
3396.644976  	0.084929 
3398.573792  	0.084524 
3400.502608  	0.084058 
3402.431424  	0.083472 
3404.360240  	0.082825 
3406.289056  	0.082096 
3408.217872  	0.081479 
3410.146688  	0.081070 
3412.075504  	0.080754 
3414.004320  	0.080268 
3415.933136  	0.079706 
3417.861952  	0.078968 
3419.790768  	0.078432 
3421.719584  	0.077967 
3423.648400  	0.077434 
3425.577216  	0.076805 
3427.506032  	0.076291 
3429.434848  	0.075744 
3431.363664  	0.075119 
3433.292480  	0.074556 
3435.221296  	0.073914 
3437.150112  	0.073345 
3439.078928  	0.072840 
3441.007744  	0.072186 
3442.936560  	0.071591 
3444.865376  	0.071083 
3446.794192  	0.070186 
3448.723008  	0.069405 
3450.651824  	0.068744 
3452.580640  	0.067894 
3454.509456  	0.067401 
3456.438272  	0.066932 
3458.367088  	0.066291 
3460.295904  	0.065656 
3462.224720  	0.064803 
3464.153536  	0.063950 
3466.082352  	0.063079 
3468.011168  	0.062073 
3469.939984  	0.061322 
3471.868800  	0.060608 
3473.797616  	0.059571 
3475.726432  	0.058527 
3477.655248  	0.057876 
3479.584064  	0.057636 
3481.512880  	0.056929 
3483.441696  	0.055696 
3485.370512  	0.054988 
3487.299328  	0.053961 
3489.228144  	0.053099 
3491.156960  	0.052467 
3493.085776  	0.051836 
3495.014592  	0.050974 
3496.943408  	0.050133 
3498.872224  	0.049646 
3500.801040  	0.049540 
3502.729856  	0.048567 
3504.658672  	0.047198 
3506.587488  	0.046749 
3508.516304  	0.046471 
3510.445120  	0.045703 
3512.373936  	0.044793 
3514.302752  	0.044068 
3516.231568  	0.043685 
3518.160384  	0.043125 
3520.089200  	0.042434 
3522.018016  	0.041996 
3523.946832  	0.041622 
3525.875648  	0.040832 
3527.804464  	0.039576 
3529.733280  	0.038549 
3531.662096  	0.037731 
3533.590912  	0.037282 
3535.519728  	0.037252 
3537.448544  	0.036770 
3539.377360  	0.035749 
3541.306176  	0.035183 
3543.234992  	0.035076 
3545.163808  	0.035121 
3547.092624  	0.034092 
3549.021440  	0.032573 
3550.950256  	0.031885 
3552.879072  	0.031169 
3554.807888  	0.030558 
3556.736704  	0.029908 
3558.665520  	0.029532 
3560.594336  	0.029239 
3562.523152  	0.028477 
3564.451968  	0.028460 
3566.380784  	0.028294 
3568.309600  	0.026252 
3570.238416  	0.025296 
3572.167232  	0.024884 
3574.096048  	0.023890 
3576.024864  	0.022892 
3577.953680  	0.022370 
3579.882496  	0.021829 
3581.811312  	0.021285 
3583.740128  	0.020986 
3585.668944  	0.020856 
3587.597760  	0.019099 
3589.526576  	0.017571 
3591.455392  	0.017425 
3593.384208  	0.016970 
3595.313024  	0.015908 
3597.241840  	0.014771 
3599.170656  	0.013209 
3601.099472  	0.011951 
3603.028288  	0.012016 
3604.957104  	0.012147 
3606.885920  	0.011386 
3608.814736  	0.009763 
3610.743552  	0.009448 
3612.672368  	0.008405 
3614.601184  	0.007063 
3616.530000  	0.007100 
3618.458816  	0.004942 
3620.387632  	0.002724 
3622.316448  	0.002983 
3624.245264  	0.003213 
3626.174080  	0.003281 
3628.102896  	0.000317 
3630.031712  	-0.003974 
3631.960528  	-0.001804 
3633.889344  	-0.001904 
3635.818160  	-0.002762 
3637.746976  	-0.003603 
3639.675792  	-0.004123 
3641.604608  	-0.004405 
3643.533424  	-0.004685 
3645.462240  	-0.005006 
3647.391056  	-0.008029 
3649.319872  	-0.013486 
3651.248688  	-0.015525 
3653.177504  	-0.012117 
3655.106320  	-0.012129 
3657.035136  	-0.015077 
3658.963952  	-0.014582 
3660.892768  	-0.014305 
3662.821584  	-0.014538 
3664.750400  	-0.014405 
3666.679216  	-0.014202 
3668.608032  	-0.016506 
3670.536848  	-0.020542 
3672.465664  	-0.017912 
3674.394480  	-0.018623 
3676.323296  	-0.024083 
3678.252112  	-0.020200 
3680.180928  	-0.018116 
3682.109744  	-0.017242 
3684.038560  	-0.017223 
3685.967376  	-0.016972 
3687.896192  	-0.019677 
3689.825008  	-0.023186 
3691.753824  	-0.021859 
3693.682640  	-0.019099 
3695.611456  	-0.017711 
3697.540272  	-0.016877 
3699.469088  	-0.016030 
3701.397904  	-0.017098 
3703.326720  	-0.017191 
3705.255536  	-0.015400 
3707.184352  	-0.014794 
3709.113168  	-0.016326 
3711.041984  	-0.018922 
3712.970800  	-0.018298 
3714.899616  	-0.015127 
3716.828432  	-0.014021 
3718.757248  	-0.014517 
3720.686064  	-0.014876 
3722.614880  	-0.015118 
3724.543696  	-0.014588 
3726.472512  	-0.015082 
3728.401328  	-0.014986 
3730.330144  	-0.014976 
3732.258960  	-0.016727 
3734.187776  	-0.016317 
3736.116592  	-0.017788 
3738.045408  	-0.017570 
3739.974224  	-0.015255 
3741.903040  	-0.013376 
3743.831856  	-0.016135 
3745.760672  	-0.019094 
3747.689488  	-0.016130 
3749.618304  	-0.018587 
3751.547120  	-0.021330 
3753.475936  	-0.019139 
3755.404752  	-0.015891 
3757.333568  	-0.015323 
3759.262384  	-0.016345 
3761.191200  	-0.016232 
3763.120016  	-0.014070 
3765.048832  	-0.014813 
3766.977648  	-0.014989 
3768.906464  	-0.015499 
3770.835280  	-0.016656 
3772.764096  	-0.014986 
3774.692912  	-0.013900 
3776.621728  	-0.013660 
3778.550544  	-0.015106 
3780.479360  	-0.016433 
3782.408176  	-0.014812 
3784.336992  	-0.014941 
3786.265808  	-0.014911 
3788.194624  	-0.014384 
3790.123440  	-0.014350 
3792.052256  	-0.014319 
3793.981072  	-0.013972 
3795.909888  	-0.015243 
3797.838704  	-0.015392 
3799.767520  	-0.015362 
3801.696336  	-0.019921 
3803.625152  	-0.017891 
3805.553968  	-0.016050 
3807.482784  	-0.018120 
3809.411600  	-0.015758 
3811.340416  	-0.014035 
3813.269232  	-0.013528 
3815.198048  	-0.016234 
3817.126864  	-0.018151 
3819.055680  	-0.016046 
3820.984496  	-0.019749 
3822.913312  	-0.018970 
3824.842128  	-0.015549 
3826.770944  	-0.015814 
3828.699760  	-0.015003 
3830.628576  	-0.015008 
3832.557392  	-0.015908 
3834.486208  	-0.015618 
3836.415024  	-0.016718 
3838.343840  	-0.018804 
3840.272656  	-0.018095 
3842.201472  	-0.016468 
3844.130288  	-0.016302 
3846.059104  	-0.015040 
3847.987920  	-0.013732 
3849.916736  	-0.013356 
3851.845552  	-0.015491 
3853.774368  	-0.022463 
3855.703184  	-0.019739 
3857.632000  	-0.015887 
3859.560816  	-0.014084 
3861.489632  	-0.014011 
3863.418448  	-0.015096 
3865.347264  	-0.015943 
3867.276080  	-0.014068 
3869.204896  	-0.015266 
3871.133712  	-0.016503 
3873.062528  	-0.015174 
3874.991344  	-0.016015 
3876.920160  	-0.014047 
3878.848976  	-0.013211 
3880.777792  	-0.014755 
3882.706608  	-0.013966 
3884.635424  	-0.014020 
3886.564240  	-0.015909 
3888.493056  	-0.014119 
3890.421872  	-0.014380 
3892.350688  	-0.015974 
3894.279504  	-0.014659 
3896.208320  	-0.013150 
3898.137136  	-0.012896 
3900.065952  	-0.013638 
3901.994768  	-0.013788 
3903.923584  	-0.015002 
3905.852400  	-0.015516 
3907.781216  	-0.014692 
3909.710032  	-0.014257 
3911.638848  	-0.014188 
3913.567664  	-0.013731 
3915.496480  	-0.013216 
3917.425296  	-0.013638 
3919.354112  	-0.014068 
3921.282928  	-0.013832 
3923.211744  	-0.013191 
3925.140560  	-0.013585 
3927.069376  	-0.013772 
3928.998192  	-0.013605 
3930.927008  	-0.013258 
3932.855824  	-0.013412 
3934.784640  	-0.013667 
3936.713456  	-0.013760 
3938.642272  	-0.013492 
3940.571088  	-0.012901 
3942.499904  	-0.013159 
3944.428720  	-0.013607 
3946.357536  	-0.013164 
3948.286352  	-0.013021 
3950.215168  	-0.013530 
3952.143984  	-0.014115 
3954.072800  	-0.014196 
3956.001616  	-0.013967 
3957.930432  	-0.013909 
3959.859248  	-0.013832 
3961.788064  	-0.013921 
3963.716880  	-0.014222 
3965.645696  	-0.014305 
3967.574512  	-0.014125 
3969.503328  	-0.013821 
3971.432144  	-0.013890 
3973.360960  	-0.013910 
3975.289776  	-0.013906 
3977.218592  	-0.013991 
3979.147408  	-0.013963 
3981.076224  	-0.013856 
3983.005040  	-0.013873 
3984.933856  	-0.013966 
3986.862672  	-0.013985 
3988.791488  	-0.013796 
3990.720304  	-0.013742 
3992.649120  	-0.013800 
3994.577936  	-0.013914 
3996.506752  	-0.013983 
3998.435568  	-0.014113 
4000.364384  	-0.014065 