##TITLE=No Description
##DATA TYPE=INFRARED SPECTRUM
##XUNITS=1/CM
##YUNITS=Abs
399.264912  	0.538302 
401.193728  	0.533268 
403.122544  	0.532606 
405.051360  	0.530468 
406.980176  	0.527591 
408.908992  	0.519655 
410.837808  	0.526411 
412.766624  	0.521377 
414.695440  	0.516534 
416.624256  	0.500840 
418.553072  	0.495734 
420.481888  	0.501626 
422.410704  	0.507668 
424.339520  	0.500538 
426.268336  	0.494121 
428.197152  	0.492831 
430.125968  	0.499681 
432.054784  	0.494994 
433.983600  	0.497298 
435.912416  	0.494424 
437.841232  	0.487457 
439.770048  	0.482017 
441.698864  	0.484645 
443.627680  	0.484340 
445.556496  	0.487703 
447.485312  	0.481172 
449.414128  	0.476987 
451.342944  	0.473117 
453.271760  	0.476277 
455.200576  	0.472860 
457.129392  	0.473581 
459.058208  	0.475019 
460.987024  	0.475861 
462.915840  	0.472263 
464.844656  	0.473303 
466.773472  	0.472752 
468.702288  	0.478103 
470.631104  	0.476052 
472.559920  	0.477578 
474.488736  	0.474678 
476.417552  	0.473700 
478.346368  	0.465723 
480.275184  	0.463050 
482.204000  	0.463882 
484.132816  	0.465658 
486.061632  	0.464656 
487.990448  	0.466812 
489.919264  	0.465091 
491.848080  	0.463824 
493.776896  	0.460056 
495.705712  	0.459410 
497.634528  	0.457759 
499.563344  	0.457878 
501.492160  	0.455657 
503.420976  	0.456547 
505.349792  	0.454715 
507.278608  	0.454451 
509.207424  	0.454988 
511.136240  	0.457346 
513.065056  	0.455698 
514.993872  	0.456802 
516.922688  	0.458528 
518.851504  	0.461673 
520.780320  	0.460077 
522.709136  	0.459450 
524.637952  	0.458397 
526.566768  	0.457051 
528.495584  	0.453900 
530.424400  	0.452774 
532.353216  	0.448535 
534.282032  	0.444118 
536.210848  	0.438014 
538.139664  	0.433560 
540.068480  	0.428438 
541.997296  	0.426262 
543.926112  	0.422649 
545.854928  	0.418526 
547.783744  	0.414229 
549.712560  	0.411800 
551.641376  	0.407562 
553.570192  	0.403568 
555.499008  	0.399906 
557.427824  	0.397470 
559.356640  	0.393215 
561.285456  	0.390104 
563.214272  	0.386857 
565.143088  	0.384436 
567.071904  	0.380982 
569.000720  	0.377257 
570.929536  	0.374591 
572.858352  	0.373340 
574.787168  	0.370945 
576.715984  	0.368566 
578.644800  	0.365283 
580.573616  	0.362127 
582.502432  	0.357992 
584.431248  	0.354543 
586.360064  	0.350728 
588.288880  	0.348407 
590.217696  	0.345973 
592.146512  	0.343793 
594.075328  	0.341180 
596.004144  	0.339871 
597.932960  	0.338021 
599.861776  	0.336475 
601.790592  	0.333802 
603.719408  	0.331695 
605.648224  	0.330190 
607.577040  	0.329771 
609.505856  	0.328670 
611.434672  	0.327321 
613.363488  	0.325833 
615.292304  	0.324953 
617.221120  	0.323242 
619.149936  	0.321737 
621.078752  	0.320497 
623.007568  	0.319462 
624.936384  	0.317527 
626.865200  	0.316064 
628.794016  	0.315189 
630.722832  	0.314519 
632.651648  	0.314137 
634.580464  	0.314295 
636.509280  	0.314100 
638.438096  	0.314628 
640.366912  	0.314063 
642.295728  	0.312674 
644.224544  	0.309708 
646.153360  	0.306419 
648.082176  	0.303055 
650.010992  	0.299538 
651.939808  	0.295510 
653.868624  	0.292172 
655.797440  	0.289117 
657.726256  	0.286010 
659.655072  	0.282610 
661.583888  	0.278995 
663.512704  	0.275183 
665.441520  	0.271888 
667.370336  	0.266112 
669.299152  	0.261401 
671.227968  	0.259948 
673.156784  	0.256869 
675.085600  	0.254139 
677.014416  	0.252318 
678.943232  	0.250379 
680.872048  	0.249344 
682.800864  	0.248664 
684.729680  	0.246987 
686.658496  	0.245269 
688.587312  	0.244274 
690.516128  	0.242750 
692.444944  	0.241933 
694.373760  	0.241252 
696.302576  	0.239886 
698.231392  	0.237852 
700.160208  	0.235629 
702.089024  	0.233530 
704.017840  	0.231271 
705.946656  	0.228535 
707.875472  	0.225893 
709.804288  	0.224312 
711.733104  	0.222832 
713.661920  	0.221199 
715.590736  	0.219633 
717.519552  	0.219204 
719.448368  	0.219527 
721.377184  	0.219924 
723.306000  	0.220593 
725.234816  	0.220720 
727.163632  	0.220341 
729.092448  	0.218474 
731.021264  	0.215667 
732.950080  	0.212458 
734.878896  	0.209860 
736.807712  	0.207356 
738.736528  	0.205176 
740.665344  	0.203181 
742.594160  	0.201380 
744.522976  	0.200035 
746.451792  	0.198921 
748.380608  	0.197319 
750.309424  	0.195955 
752.238240  	0.194975 
754.167056  	0.194363 
756.095872  	0.193281 
758.024688  	0.192408 
759.953504  	0.191996 
761.882320  	0.192658 
763.811136  	0.193281 
765.739952  	0.192567 
767.668768  	0.190299 
769.597584  	0.188127 
771.526400  	0.187347 
773.455216  	0.188496 
775.384032  	0.191624 
777.312848  	0.196444 
779.241664  	0.200649 
781.170480  	0.201271 
783.099296  	0.197938 
785.028112  	0.193029 
786.956928  	0.187658 
788.885744  	0.183223 
790.814560  	0.180211 
792.743376  	0.178270 
794.672192  	0.177281 
796.601008  	0.176466 
798.529824  	0.174065 
800.458640  	0.169852 
802.387456  	0.166458 
804.316272  	0.164773 
806.245088  	0.163795 
808.173904  	0.163088 
810.102720  	0.162615 
812.031536  	0.162364 
813.960352  	0.162406 
815.889168  	0.162477 
817.817984  	0.162636 
819.746800  	0.162837 
821.675616  	0.163040 
823.604432  	0.162953 
825.533248  	0.162630 
827.462064  	0.161974 
829.390880  	0.160972 
831.319696  	0.159967 
833.248512  	0.158371 
835.177328  	0.156352 
837.106144  	0.154210 
839.034960  	0.151675 
840.963776  	0.148709 
842.892592  	0.145680 
844.821408  	0.142457 
846.750224  	0.139735 
848.679040  	0.137564 
850.607856  	0.135791 
852.536672  	0.134395 
854.465488  	0.133089 
856.394304  	0.132053 
858.323120  	0.130937 
860.251936  	0.129064 
862.180752  	0.126796 
864.109568  	0.124327 
866.038384  	0.122063 
867.967200  	0.119882 
869.896016  	0.118219 
871.824832  	0.117354 
873.753648  	0.116840 
875.682464  	0.116976 
877.611280  	0.117435 
879.540096  	0.118287 
881.468912  	0.120155 
883.397728  	0.121364 
885.326544  	0.122131 
887.255360  	0.122435 
889.184176  	0.121420 
891.112992  	0.119587 
893.041808  	0.118359 
894.970624  	0.116583 
896.899440  	0.113574 
898.828256  	0.109812 
900.757072  	0.106252 
902.685888  	0.103332 
904.614704  	0.101659 
906.543520  	0.101829 
908.472336  	0.103153 
910.401152  	0.105269 
912.329968  	0.107770 
914.258784  	0.110497 
916.187600  	0.113003 
918.116416  	0.115207 
920.045232  	0.116807 
921.974048  	0.117696 
923.902864  	0.118139 
925.831680  	0.118008 
927.760496  	0.117855 
929.689312  	0.118217 
931.618128  	0.119054 
933.546944  	0.119798 
935.475760  	0.120112 
937.404576  	0.119985 
939.333392  	0.119741 
941.262208  	0.119923 
943.191024  	0.121455 
945.119840  	0.124841 
947.048656  	0.130347 
948.977472  	0.137588 
950.906288  	0.146272 
952.835104  	0.155991 
954.763920  	0.166272 
956.692736  	0.175780 
958.621552  	0.183802 
960.550368  	0.189123 
962.479184  	0.191595 
964.408000  	0.190804 
966.336816  	0.186675 
968.265632  	0.179354 
970.194448  	0.169381 
972.123264  	0.158036 
974.052080  	0.146167 
975.980896  	0.134313 
977.909712  	0.123158 
979.838528  	0.113317 
981.767344  	0.105202 
983.696160  	0.098796 
985.624976  	0.094604 
987.553792  	0.092946 
989.482608  	0.093652 
991.411424  	0.096331 
993.340240  	0.100600 
995.269056  	0.105922 
997.197872  	0.111765 
999.126688  	0.117715 
1001.055504  	0.123724 
1002.984320  	0.129653 
1004.913136  	0.135677 
1006.841952  	0.141597 
1008.770768  	0.146355 
1010.699584  	0.149572 
1012.628400  	0.151428 
1014.557216  	0.152151 
1016.486032  	0.152239 
1018.414848  	0.152104 
1020.343664  	0.151832 
1022.272480  	0.151055 
1024.201296  	0.149767 
1026.130112  	0.146668 
1028.058928  	0.145481 
1029.987744  	0.148473 
1031.916560  	0.150321 
1033.845376  	0.151212 
1035.774192  	0.152113 
1037.703008  	0.154267 
1039.631824  	0.160057 
1041.560640  	0.168031 
1043.489456  	0.178176 
1045.418272  	0.190286 
1047.347088  	0.203920 
1049.275904  	0.216523 
1051.204720  	0.226305 
1053.133536  	0.232156 
1055.062352  	0.234253 
1056.991168  	0.233481 
1058.919984  	0.234308 
1060.848800  	0.235380 
1062.777616  	0.233530 
1064.706432  	0.227681 
1066.635248  	0.222560 
1068.564064  	0.221651 
1070.492880  	0.218208 
1072.421696  	0.211785 
1074.350512  	0.207341 
1076.279328  	0.206047 
1078.208144  	0.208552 
1080.136960  	0.213604 
1082.065776  	0.219224 
1083.994592  	0.222760 
1085.923408  	0.224025 
1087.852224  	0.222133 
1089.781040  	0.217913 
1091.709856  	0.212602 
1093.638672  	0.205410 
1095.567488  	0.195476 
1097.496304  	0.184330 
1099.425120  	0.172636 
1101.353936  	0.161043 
1103.282752  	0.149715 
1105.211568  	0.138913 
1107.140384  	0.128670 
1109.069200  	0.119026 
1110.998016  	0.110172 
1112.926832  	0.102160 
1114.855648  	0.094795 
1116.784464  	0.087775 
1118.713280  	0.081261 
1120.642096  	0.075409 
1122.570912  	0.069859 
1124.499728  	0.064420 
1126.428544  	0.059724 
1128.357360  	0.055259 
1130.286176  	0.051513 
1132.214992  	0.048537 
1134.143808  	0.046338 
1136.072624  	0.044409 
1138.001440  	0.042715 
1139.930256  	0.040608 
1141.859072  	0.038547 
1143.787888  	0.036482 
1145.716704  	0.034582 
1147.645520  	0.032779 
1149.574336  	0.031299 
1151.503152  	0.029920 
1153.431968  	0.029361 
1155.360784  	0.029395 
1157.289600  	0.030220 
1159.218416  	0.031499 
1161.147232  	0.033157 
1163.076048  	0.035194 
1165.004864  	0.037394 
1166.933680  	0.039354 
1168.862496  	0.041666 
1170.791312  	0.043866 
1172.720128  	0.046636 
1174.648944  	0.049302 
1176.577760  	0.051932 
1178.506576  	0.054495 
1180.435392  	0.057105 
1182.364208  	0.059647 
1184.293024  	0.062502 
1186.221840  	0.065542 
1188.150656  	0.068839 
1190.079472  	0.072613 
1192.008288  	0.077357 
1193.937104  	0.083166 
1195.865920  	0.089936 
1197.794736  	0.097288 
1199.723552  	0.105448 
1201.652368  	0.113701 
1203.581184  	0.121871 
1205.510000  	0.129929 
1207.438816  	0.137564 
1209.367632  	0.144859 
1211.296448  	0.151011 
1213.225264  	0.155896 
1215.154080  	0.159544 
1217.082896  	0.162107 
1219.011712  	0.163565 
1220.940528  	0.164859 
1222.869344  	0.165629 
1224.798160  	0.165598 
1226.726976  	0.165103 
1228.655792  	0.164153 
1230.584608  	0.162505 
1232.513424  	0.160485 
1234.442240  	0.158200 
1236.371056  	0.155353 
1238.299872  	0.151333 
1240.228688  	0.145027 
1242.157504  	0.138691 
1244.086320  	0.133632 
1246.015136  	0.127169 
1247.943952  	0.119861 
1249.872768  	0.112565 
1251.801584  	0.106373 
1253.730400  	0.100067 
1255.659216  	0.093806 
1257.588032  	0.088054 
1259.516848  	0.082619 
1261.445664  	0.077556 
1263.374480  	0.072938 
1265.303296  	0.069064 
1267.232112  	0.065938 
1269.160928  	0.063587 
1271.089744  	0.061737 
1273.018560  	0.060635 
1274.947376  	0.060219 
1276.876192  	0.060212 
1278.805008  	0.059939 
1280.733824  	0.058943 
1282.662640  	0.057073 
1284.591456  	0.054881 
1286.520272  	0.053170 
1288.449088  	0.052071 
1290.377904  	0.051478 
1292.306720  	0.051572 
1294.235536  	0.051548 
1296.164352  	0.050871 
1298.093168  	0.049010 
1300.021984  	0.046476 
1301.950800  	0.043819 
1303.879616  	0.041286 
1305.808432  	0.038462 
1307.737248  	0.035746 
1309.666064  	0.033147 
1311.594880  	0.031278 
1313.523696  	0.029785 
1315.452512  	0.028745 
1317.381328  	0.028117 
1319.310144  	0.027846 
1321.238960  	0.027740 
1323.167776  	0.028275 
1325.096592  	0.028987 
1327.025408  	0.029561 
1328.954224  	0.029634 
1330.883040  	0.029274 
1332.811856  	0.028510 
1334.740672  	0.028082 
1336.669488  	0.028168 
1338.598304  	0.028603 
1340.527120  	0.027430 
1342.455936  	0.025610 
1344.384752  	0.025023 
1346.313568  	0.025165 
1348.242384  	0.025696 
1350.171200  	0.026818 
1352.100016  	0.028152 
1354.028832  	0.029842 
1355.957648  	0.031446 
1357.886464  	0.033293 
1359.815280  	0.035475 
1361.744096  	0.037823 
1363.672912  	0.038917 
1365.601728  	0.039485 
1367.530544  	0.040497 
1369.459360  	0.040809 
1371.388176  	0.040590 
1373.316992  	0.039503 
1375.245808  	0.036510 
1377.174624  	0.034028 
1379.103440  	0.031390 
1381.032256  	0.028526 
1382.961072  	0.026434 
1384.889888  	0.025967 
1386.818704  	0.025799 
1388.747520  	0.024224 
1390.676336  	0.021922 
1392.605152  	0.018762 
1394.533968  	0.017153 
1396.462784  	0.020116 
1398.391600  	0.021316 
1400.320416  	0.020434 
1402.249232  	0.020412 
1404.178048  	0.020956 
1406.106864  	0.021415 
1408.035680  	0.022923 
1409.964496  	0.025256 
1411.893312  	0.027885 
1413.822128  	0.030565 
1415.750944  	0.034169 
1417.679760  	0.036734 
1419.608576  	0.036522 
1421.537392  	0.036637 
1423.466208  	0.036802 
1425.395024  	0.035345 
1427.323840  	0.034160 
1429.252656  	0.032072 
1431.181472  	0.030639 
1433.110288  	0.030652 
1435.039104  	0.031268 
1436.967920  	0.030705 
1438.896736  	0.030971 
1440.825552  	0.031920 
1442.754368  	0.032521 
1444.683184  	0.032694 
1446.612000  	0.032635 
1448.540816  	0.031718 
1450.469632  	0.032114 
1452.398448  	0.033057 
1454.327264  	0.034078 
1456.256080  	0.033669 
1458.184896  	0.031290 
1460.113712  	0.032396 
1462.042528  	0.033704 
1463.971344  	0.033384 
1465.900160  	0.033852 
1467.828976  	0.036341 
1469.757792  	0.039212 
1471.686608  	0.041989 
1473.615424  	0.047107 
1475.544240  	0.052939 
1477.473056  	0.057871 
1479.401872  	0.061162 
1481.330688  	0.063934 
1483.259504  	0.065782 
1485.188320  	0.067118 
1487.117136  	0.067110 
1489.045952  	0.066634 
1490.974768  	0.063923 
1492.903584  	0.061694 
1494.832400  	0.058588 
1496.761216  	0.052713 
1498.690032  	0.047537 
1500.618848  	0.044413 
1502.547664  	0.041350 
1504.476480  	0.037528 
1506.405296  	0.031839 
1508.334112  	0.030767 
1510.262928  	0.030871 
1512.191744  	0.028943 
1514.120560  	0.028076 
1516.049376  	0.027674 
1517.978192  	0.026681 
1519.907008  	0.027758 
1521.835824  	0.027910 
1523.764640  	0.031634 
1525.693456  	0.035562 
1527.622272  	0.037515 
1529.551088  	0.038134 
1531.479904  	0.037831 
1533.408720  	0.034080 
1535.337536  	0.031599 
1537.266352  	0.030046 
1539.195168  	0.022867 
1541.123984  	0.016700 
1543.052800  	0.019692 
1544.981616  	0.020444 
1546.910432  	0.019876 
1548.839248  	0.020278 
1550.768064  	0.020405 
1552.696880  	0.020151 
1554.625696  	0.020491 
1556.554512  	0.020522 
1558.483328  	0.017976 
1560.412144  	0.021765 
1562.340960  	0.028378 
1564.269776  	0.031848 
1566.198592  	0.036504 
1568.127408  	0.039910 
1570.056224  	0.044286 
1571.985040  	0.050783 
1573.913856  	0.054540 
1575.842672  	0.054855 
1577.771488  	0.058070 
1579.700304  	0.060017 
1581.629120  	0.059851 
1583.557936  	0.059360 
1585.486752  	0.060059 
1587.415568  	0.062106 
1589.344384  	0.066054 
1591.273200  	0.071236 
1593.202016  	0.077381 
1595.130832  	0.083854 
1597.059648  	0.090766 
1598.988464  	0.096516 
1600.917280  	0.101587 
1602.846096  	0.104764 
1604.774912  	0.106825 
1606.703728  	0.106801 
1608.632544  	0.105925 
1610.561360  	0.104176 
1612.490176  	0.102908 
1614.418992  	0.100471 
1616.347808  	0.097701 
1618.276624  	0.099538 
1620.205440  	0.103303 
1622.134256  	0.105287 
1624.063072  	0.110478 
1625.991888  	0.116371 
1627.920704  	0.123049 
1629.849520  	0.131631 
1631.778336  	0.139041 
1633.707152  	0.143096 
1635.635968  	0.149375 
1637.564784  	0.159819 
1639.493600  	0.166018 
1641.422416  	0.170026 
1643.351232  	0.172144 
1645.280048  	0.171044 
1647.208864  	0.171593 
1649.137680  	0.173119 
1651.066496  	0.170662 
1652.995312  	0.164979 
1654.924128  	0.168097 
1656.852944  	0.167527 
1658.781760  	0.165015 
1660.710576  	0.161197 
1662.639392  	0.156740 
1664.568208  	0.154033 
1666.497024  	0.151217 
1668.425840  	0.145908 
1670.354656  	0.140722 
1672.283472  	0.138375 
1674.212288  	0.135046 
1676.141104  	0.132152 
1678.069920  	0.131503 
1679.998736  	0.130541 
1681.927552  	0.128322 
1683.856368  	0.123627 
1685.785184  	0.124903 
1687.714000  	0.126339 
1689.642816  	0.125769 
1691.571632  	0.124334 
1693.500448  	0.122608 
1695.429264  	0.118848 
1697.358080  	0.116789 
1699.286896  	0.113763 
1701.215712  	0.111242 
1703.144528  	0.110683 
1705.073344  	0.106647 
1707.002160  	0.102144 
1708.930976  	0.098887 
1710.859792  	0.093854 
1712.788608  	0.087857 
1714.717424  	0.080579 
1716.646240  	0.071189 
1718.575056  	0.060223 
1720.503872  	0.054305 
1722.432688  	0.048879 
1724.361504  	0.041358 
1726.290320  	0.034941 
1728.219136  	0.029778 
1730.147952  	0.025276 
1732.076768  	0.021413 
1734.005584  	0.015072 
1735.934400  	0.011083 
1737.863216  	0.011450 
1739.792032  	0.008166 
1741.720848  	0.007394 
1743.649664  	0.007323 
1745.578480  	0.006647 
1747.507296  	0.005248 
1749.436112  	0.004563 
1751.364928  	0.003705 
1753.293744  	0.003032 
1755.222560  	0.002996 
1757.151376  	0.002395 
1759.080192  	0.001880 
1761.009008  	0.001296 
1762.937824  	-0.000063 
1764.866640  	0.000479 
1766.795456  	0.001163 
1768.724272  	0.000705 
1770.653088  	-0.001342 
1772.581904  	-0.004006 
1774.510720  	-0.002795 
1776.439536  	-0.001177 
1778.368352  	-0.000785 
1780.297168  	-0.001083 
1782.225984  	-0.001534 
1784.154800  	-0.001070 
1786.083616  	-0.001698 
1788.012432  	-0.001486 
1789.941248  	-0.001091 
1791.870064  	-0.002512 
1793.798880  	-0.003689 
1795.727696  	-0.002061 
1797.656512  	-0.002347 
1799.585328  	-0.002533 
1801.514144  	-0.002136 
1803.442960  	-0.002236 
1805.371776  	-0.002875 
1807.300592  	-0.002537 
1809.229408  	-0.002926 
1811.158224  	-0.003364 
1813.087040  	-0.003577 
1815.015856  	-0.003246 
1816.944672  	-0.002980 
1818.873488  	-0.002946 
1820.802304  	-0.003197 
1822.731120  	-0.002633 
1824.659936  	-0.003155 
1826.588752  	-0.003670 
1828.517568  	-0.004316 
1830.446384  	-0.004879 
1832.375200  	-0.003894 
1834.304016  	-0.003150 
1836.232832  	-0.003467 
1838.161648  	-0.003498 
1840.090464  	-0.003444 
1842.019280  	-0.002577 
1843.948096  	-0.003885 
1845.876912  	-0.004100 
1847.805728  	-0.003403 
1849.734544  	-0.003533 
1851.663360  	-0.003766 
1853.592176  	-0.003742 
1855.520992  	-0.003928 
1857.449808  	-0.003623 
1859.378624  	-0.003615 
1861.307440  	-0.003709 
1863.236256  	-0.004054 
1865.165072  	-0.003781 
1867.093888  	-0.003879 
1869.022704  	-0.004439 
1870.951520  	-0.004762 
1872.880336  	-0.004107 
1874.809152  	-0.004081 
1876.737968  	-0.004252 
1878.666784  	-0.004482 
1880.595600  	-0.003807 
1882.524416  	-0.004083 
1884.453232  	-0.004374 
1886.382048  	-0.004512 
1888.310864  	-0.004297 
1890.239680  	-0.004799 
1892.168496  	-0.004467 
1894.097312  	-0.004282 
1896.026128  	-0.004107 
1897.954944  	-0.004445 
1899.883760  	-0.004351 
1901.812576  	-0.004680 
1903.741392  	-0.004923 
1905.670208  	-0.004866 
1907.599024  	-0.004316 
1909.527840  	-0.004431 
1911.456656  	-0.003851 
1913.385472  	-0.004033 
1915.314288  	-0.003843 
1917.243104  	-0.003994 
1919.171920  	-0.004191 
1921.100736  	-0.003884 
1923.029552  	-0.003287 
1924.958368  	-0.003889 
1926.887184  	-0.003946 
1928.816000  	-0.004365 
1930.744816  	-0.004233 
1932.673632  	-0.004249 
1934.602448  	-0.004253 
1936.531264  	-0.004190 
1938.460080  	-0.003311 
1940.388896  	-0.003507 
1942.317712  	-0.003715 
1944.246528  	-0.004077 
1946.175344  	-0.003284 
1948.104160  	-0.003200 
1950.032976  	-0.003056 
1951.961792  	-0.003485 
1953.890608  	-0.003493 
1955.819424  	-0.003658 
1957.748240  	-0.002982 
1959.677056  	-0.003630 
1961.605872  	-0.003707 
1963.534688  	-0.004233 
1965.463504  	-0.003340 
1967.392320  	-0.003512 
1969.321136  	-0.003156 
1971.249952  	-0.002886 
1973.178768  	-0.001670 
1975.107584  	-0.002613 
1977.036400  	-0.002359 
1978.965216  	-0.001457 
1980.894032  	-0.001983 
1982.822848  	-0.003330 
1984.751664  	-0.002950 
1986.680480  	-0.003181 
1988.609296  	-0.002462 
1990.538112  	-0.002566 
1992.466928  	-0.002351 
1994.395744  	-0.002948 
1996.324560  	-0.002797 
1998.253376  	-0.003717 
2000.182192  	-0.004351 
2002.111008  	-0.003788 
2004.039824  	-0.002334 
2005.968640  	-0.002844 
2007.897456  	-0.002687 
2009.826272  	-0.002853 
2011.755088  	-0.002384 
2013.683904  	-0.002886 
2015.612720  	-0.002513 
2017.541536  	-0.002666 
2019.470352  	-0.002540 
2021.399168  	-0.004038 
2023.327984  	-0.004534 
2025.256800  	-0.002790 
2027.185616  	-0.001582 
2029.114432  	-0.002232 
2031.043248  	-0.001523 
2032.972064  	-0.002154 
2034.900880  	-0.002146 
2036.829696  	-0.001786 
2038.758512  	-0.001208 
2040.687328  	-0.003085 
2042.616144  	-0.003181 
2044.544960  	-0.003129 
2046.473776  	-0.002829 
2048.402592  	-0.003211 
2050.331408  	-0.003495 
2052.260224  	-0.004065 
2054.189040  	-0.003935 
2056.117856  	-0.004074 
2058.046672  	-0.004010 
2059.975488  	-0.004414 
2061.904304  	-0.004584 
2063.833120  	-0.004413 
2065.761936  	-0.004000 
2067.690752  	-0.004315 
2069.619568  	-0.003760 
2071.548384  	-0.003533 
2073.477200  	-0.003923 
2075.406016  	-0.003978 
2077.334832  	-0.003425 
2079.263648  	-0.003291 
2081.192464  	-0.003330 
2083.121280  	-0.003751 
2085.050096  	-0.004011 
2086.978912  	-0.004153 
2088.907728  	-0.003549 
2090.836544  	-0.003667 
2092.765360  	-0.003594 
2094.694176  	-0.003434 
2096.622992  	-0.003484 
2098.551808  	-0.003510 
2100.480624  	-0.003093 
2102.409440  	-0.003331 
2104.338256  	-0.003549 
2106.267072  	-0.003473 
2108.195888  	-0.003262 
2110.124704  	-0.003342 
2112.053520  	-0.003274 
2113.982336  	-0.003772 
2115.911152  	-0.003908 
2117.839968  	-0.003770 
2119.768784  	-0.003628 
2121.697600  	-0.003894 
2123.626416  	-0.004099 
2125.555232  	-0.004246 
2127.484048  	-0.003708 
2129.412864  	-0.003985 
2131.341680  	-0.004275 
2133.270496  	-0.004517 
2135.199312  	-0.003680 
2137.128128  	-0.002703 
2139.056944  	-0.002702 
2140.985760  	-0.003253 
2142.914576  	-0.002935 
2144.843392  	-0.002743 
2146.772208  	-0.002377 
2148.701024  	-0.002811 
2150.629840  	-0.001742 
2152.558656  	-0.001271 
2154.487472  	-0.001451 
2156.416288  	-0.002020 
2158.345104  	-0.001045 
2160.273920  	0.000052 
2162.202736  	0.000670 
2164.131552  	-0.000438 
2166.060368  	-0.001019 
2167.989184  	-0.000560 
2169.918000  	0.000434 
2171.846816  	-0.000435 
2173.775632  	-0.000166 
2175.704448  	0.000030 
2177.633264  	-0.000209 
2179.562080  	-0.000901 
2181.490896  	-0.000704 
2183.419712  	-0.001479 
2185.348528  	-0.001748 
2187.277344  	-0.001876 
2189.206160  	-0.001958 
2191.134976  	-0.003234 
2193.063792  	-0.003158 
2194.992608  	-0.002615 
2196.921424  	-0.002275 
2198.850240  	-0.002074 
2200.779056  	-0.002414 
2202.707872  	-0.003216 
2204.636688  	-0.002804 
2206.565504  	-0.002478 
2208.494320  	-0.002473 
2210.423136  	-0.002879 
2212.351952  	-0.002819 
2214.280768  	-0.003073 
2216.209584  	-0.002997 
2218.138400  	-0.003903 
2220.067216  	-0.004018 
2221.996032  	-0.003649 
2223.924848  	-0.003248 
2225.853664  	-0.002967 
2227.782480  	-0.002961 
2229.711296  	-0.004049 
2231.640112  	-0.004419 
2233.568928  	-0.004158 
2235.497744  	-0.003727 
2237.426560  	-0.003817 
2239.355376  	-0.003814 
2241.284192  	-0.004057 
2243.213008  	-0.003951 
2245.141824  	-0.003921 
2247.070640  	-0.003932 
2248.999456  	-0.004129 
2250.928272  	-0.004314 
2252.857088  	-0.004323 
2254.785904  	-0.004395 
2256.714720  	-0.005325 
2258.643536  	-0.005265 
2260.572352  	-0.005085 
2262.501168  	-0.005019 
2264.429984  	-0.004896 
2266.358800  	-0.004636 
2268.287616  	-0.004703 
2270.216432  	-0.004873 
2272.145248  	-0.005089 
2274.074064  	-0.005100 
2276.002880  	-0.004699 
2277.931696  	-0.004217 
2279.860512  	-0.004441 
2281.789328  	-0.004404 
2283.718144  	-0.004389 
2285.646960  	-0.004408 
2287.575776  	-0.004334 
2289.504592  	-0.004328 
2291.433408  	-0.004409 
2293.362224  	-0.004242 
2295.291040  	-0.003966 
2297.219856  	-0.003740 
2299.148672  	-0.003829 
2301.077488  	-0.003608 
2303.006304  	-0.003395 
2304.935120  	-0.003160 
2306.863936  	-0.003114 
2308.792752  	-0.003069 
2310.721568  	-0.003491 
2312.650384  	-0.004259 
2314.579200  	-0.005003 
2316.508016  	-0.005627 
2318.436832  	-0.006564 
2320.365648  	-0.007812 
2322.294464  	-0.009169 
2324.223280  	-0.010494 
2326.152096  	-0.012271 
2328.080912  	-0.013917 
2330.009728  	-0.015903 
2331.938544  	-0.017797 
2333.867360  	-0.018984 
2335.796176  	-0.019881 
2337.724992  	-0.020923 
2339.653808  	-0.021253 
2341.582624  	-0.021410 
2343.511440  	-0.020321 
2345.440256  	-0.017847 
2347.369072  	-0.013211 
2349.297888  	-0.010376 
2351.226704  	-0.012734 
2353.155520  	-0.017954 
2355.084336  	-0.022071 
2357.013152  	-0.025255 
2358.941968  	-0.026840 
2360.870784  	-0.027858 
2362.799600  	-0.027031 
2364.728416  	-0.025605 
2366.657232  	-0.023367 
2368.586048  	-0.020263 
2370.514864  	-0.017060 
2372.443680  	-0.013874 
2374.372496  	-0.010638 
2376.301312  	-0.007939 
2378.230128  	-0.005947 
2380.158944  	-0.004807 
2382.087760  	-0.004338 
2384.016576  	-0.004430 
2385.945392  	-0.004657 
2387.874208  	-0.004983 
2389.803024  	-0.005311 
2391.731840  	-0.005535 
2393.660656  	-0.005543 
2395.589472  	-0.005594 
2397.518288  	-0.005607 
2399.447104  	-0.005713 
2401.375920  	-0.005716 
2403.304736  	-0.005786 
2405.233552  	-0.005706 
2407.162368  	-0.005815 
2409.091184  	-0.005808 
2411.020000  	-0.005679 
2412.948816  	-0.005535 
2414.877632  	-0.005489 
2416.806448  	-0.005542 
2418.735264  	-0.005668 
2420.664080  	-0.005729 
2422.592896  	-0.005781 
2424.521712  	-0.005647 
2426.450528  	-0.005602 
2428.379344  	-0.005417 
2430.308160  	-0.005289 
2432.236976  	-0.005228 
2434.165792  	-0.005351 
2436.094608  	-0.005287 
2438.023424  	-0.005092 
2439.952240  	-0.004970 
2441.881056  	-0.004925 
2443.809872  	-0.004935 
2445.738688  	-0.004800 
2447.667504  	-0.004618 
2449.596320  	-0.004806 
2451.525136  	-0.004932 
2453.453952  	-0.004954 
2455.382768  	-0.004909 
2457.311584  	-0.004925 
2459.240400  	-0.004944 
2461.169216  	-0.005054 
2463.098032  	-0.005312 
2465.026848  	-0.005301 
2466.955664  	-0.005235 
2468.884480  	-0.005333 
2470.813296  	-0.005278 
2472.742112  	-0.005387 
2474.670928  	-0.005388 
2476.599744  	-0.005342 
2478.528560  	-0.004990 
2480.457376  	-0.005032 
2482.386192  	-0.005001 
2484.315008  	-0.004876 
2486.243824  	-0.004908 
2488.172640  	-0.004858 
2490.101456  	-0.004691 
2492.030272  	-0.004661 
2493.959088  	-0.004519 
2495.887904  	-0.004481 
2497.816720  	-0.004503 
2499.745536  	-0.004233 
2501.674352  	-0.004088 
2503.603168  	-0.003934 
2505.531984  	-0.003877 
2507.460800  	-0.004276 
2509.389616  	-0.004544 
2511.318432  	-0.004454 
2513.247248  	-0.004259 
2515.176064  	-0.004121 
2517.104880  	-0.004065 
2519.033696  	-0.004210 
2520.962512  	-0.004128 
2522.891328  	-0.003975 
2524.820144  	-0.003964 
2526.748960  	-0.003923 
2528.677776  	-0.003920 
2530.606592  	-0.004015 
2532.535408  	-0.004000 
2534.464224  	-0.003805 
2536.393040  	-0.003652 
2538.321856  	-0.003747 
2540.250672  	-0.003741 
2542.179488  	-0.003759 
2544.108304  	-0.003626 
2546.037120  	-0.003468 
2547.965936  	-0.003428 
2549.894752  	-0.003408 
2551.823568  	-0.003495 
2553.752384  	-0.003463 
2555.681200  	-0.003133 
2557.610016  	-0.002993 
2559.538832  	-0.002942 
2561.467648  	-0.002733 
2563.396464  	-0.002654 
2565.325280  	-0.002707 
2567.254096  	-0.002785 
2569.182912  	-0.002761 
2571.111728  	-0.002639 
2573.040544  	-0.002586 
2574.969360  	-0.002497 
2576.898176  	-0.002408 
2578.826992  	-0.002511 
2580.755808  	-0.002522 
2582.684624  	-0.002352 
2584.613440  	-0.002187 
2586.542256  	-0.002136 
2588.471072  	-0.002168 
2590.399888  	-0.002059 
2592.328704  	-0.002171 
2594.257520  	-0.002139 
2596.186336  	-0.001967 
2598.115152  	-0.001876 
2600.043968  	-0.001954 
2601.972784  	-0.001878 
2603.901600  	-0.001885 
2605.830416  	-0.001752 
2607.759232  	-0.001693 
2609.688048  	-0.001676 
2611.616864  	-0.001576 
2613.545680  	-0.001353 
2615.474496  	-0.001225 
2617.403312  	-0.001225 
2619.332128  	-0.001136 
2621.260944  	-0.001024 
2623.189760  	-0.001065 
2625.118576  	-0.001060 
2627.047392  	-0.000960 
2628.976208  	-0.000811 
2630.905024  	-0.000767 
2632.833840  	-0.000816 
2634.762656  	-0.000688 
2636.691472  	-0.000563 
2638.620288  	-0.000418 
2640.549104  	-0.000366 
2642.477920  	-0.000402 
2644.406736  	-0.000252 
2646.335552  	-0.000071 
2648.264368  	-0.000040 
2650.193184  	-0.000077 
2652.122000  	0.000053 
2654.050816  	0.000210 
2655.979632  	0.000322 
2657.908448  	0.000416 
2659.837264  	0.000524 
2661.766080  	0.000537 
2663.694896  	0.000649 
2665.623712  	0.000802 
2667.552528  	0.000897 
2669.481344  	0.000958 
2671.410160  	0.001121 
2673.338976  	0.001315 
2675.267792  	0.001451 
2677.196608  	0.001596 
2679.125424  	0.001629 
2681.054240  	0.001702 
2682.983056  	0.001886 
2684.911872  	0.001906 
2686.840688  	0.001963 
2688.769504  	0.001978 
2690.698320  	0.002014 
2692.627136  	0.002116 
2694.555952  	0.002250 
2696.484768  	0.002306 
2698.413584  	0.002332 
2700.342400  	0.002357 
2702.271216  	0.002504 
2704.200032  	0.002705 
2706.128848  	0.002796 
2708.057664  	0.002735 
2709.986480  	0.002826 
2711.915296  	0.002972 
2713.844112  	0.003103 
2715.772928  	0.003147 
2717.701744  	0.003225 
2719.630560  	0.003434 
2721.559376  	0.003487 
2723.488192  	0.003571 
2725.417008  	0.003838 
2727.345824  	0.003951 
2729.274640  	0.004023 
2731.203456  	0.004174 
2733.132272  	0.004331 
2735.061088  	0.004419 
2736.989904  	0.004572 
2738.918720  	0.004621 
2740.847536  	0.004614 
2742.776352  	0.004559 
2744.705168  	0.004632 
2746.633984  	0.004775 
2748.562800  	0.004813 
2750.491616  	0.004889 
2752.420432  	0.005021 
2754.349248  	0.004934 
2756.278064  	0.004841 
2758.206880  	0.004699 
2760.135696  	0.004660 
2762.064512  	0.004759 
2763.993328  	0.004835 
2765.922144  	0.004806 
2767.850960  	0.004817 
2769.779776  	0.004798 
2771.708592  	0.004815 
2773.637408  	0.004730 
2775.566224  	0.004687 
2777.495040  	0.004668 
2779.423856  	0.004746 
2781.352672  	0.004741 
2783.281488  	0.004696 
2785.210304  	0.004691 
2787.139120  	0.004730 
2789.067936  	0.004778 
2790.996752  	0.004828 
2792.925568  	0.004751 
2794.854384  	0.004715 
2796.783200  	0.004742 
2798.712016  	0.004666 
2800.640832  	0.004545 
2802.569648  	0.004689 
2804.498464  	0.004775 
2806.427280  	0.004695 
2808.356096  	0.004607 
2810.284912  	0.004622 
2812.213728  	0.004625 
2814.142544  	0.004619 
2816.071360  	0.004543 
2818.000176  	0.004349 
2819.928992  	0.004282 
2821.857808  	0.004200 
2823.786624  	0.004072 
2825.715440  	0.003939 
2827.644256  	0.003761 
2829.573072  	0.003615 
2831.501888  	0.003302 
2833.430704  	0.002977 
2835.359520  	0.002716 
2837.288336  	0.002484 
2839.217152  	0.002178 
2841.145968  	0.001814 
2843.074784  	0.001428 
2845.003600  	0.000966 
2846.932416  	0.000568 
2848.861232  	0.000188 
2850.790048  	-0.000240 
2852.718864  	-0.000623 
2854.647680  	-0.001091 
2856.576496  	-0.001707 
2858.505312  	-0.002305 
2860.434128  	-0.002970 
2862.362944  	-0.003713 
2864.291760  	-0.004501 
2866.220576  	-0.005180 
2868.149392  	-0.005560 
2870.078208  	-0.005810 
2872.007024  	-0.005907 
2873.935840  	-0.005847 
2875.864656  	-0.005878 
2877.793472  	-0.006166 
2879.722288  	-0.006515 
2881.651104  	-0.006950 
2883.579920  	-0.007236 
2885.508736  	-0.007110 
2887.437552  	-0.006889 
2889.366368  	-0.006895 
2891.295184  	-0.007256 
2893.224000  	-0.007539 
2895.152816  	-0.007445 
2897.081632  	-0.007661 
2899.010448  	-0.009409 
2900.939264  	-0.011061 
2902.868080  	-0.009741 
2904.796896  	-0.008284 
2906.725712  	-0.007780 
2908.654528  	-0.007238 
2910.583344  	-0.006826 
2912.512160  	-0.006274 
2914.440976  	-0.005191 
2916.369792  	-0.004408 
2918.298608  	-0.003983 
2920.227424  	-0.003647 
2922.156240  	-0.003101 
2924.085056  	-0.002335 
2926.013872  	-0.001438 
2927.942688  	-0.000530 
2929.871504  	0.000312 
2931.800320  	0.001104 
2933.729136  	0.001780 
2935.657952  	0.002307 
2937.586768  	0.002879 
2939.515584  	0.003406 
2941.444400  	0.003652 
2943.373216  	0.003764 
2945.302032  	0.004012 
2947.230848  	0.004187 
2949.159664  	0.003866 
2951.088480  	0.003271 
2953.017296  	0.002689 
2954.946112  	0.002059 
2956.874928  	0.001465 
2958.803744  	0.000662 
2960.732560  	-0.000015 
2962.661376  	-0.000537 
2964.590192  	-0.001436 
2966.519008  	-0.002640 
2968.447824  	-0.003634 
2970.376640  	-0.004442 
2972.305456  	-0.005009 
2974.234272  	-0.004754 
2976.163088  	-0.004341 
2978.091904  	-0.004219 
2980.020720  	-0.004249 
2981.949536  	-0.004030 
2983.878352  	-0.004235 
2985.807168  	-0.005284 
2987.735984  	-0.006180 
2989.664800  	-0.005731 
2991.593616  	-0.002676 
2993.522432  	-0.000663 
2995.451248  	-0.000182 
2997.380064  	0.000607 
2999.308880  	0.001840 
3001.237696  	0.003149 
3003.166512  	0.004644 
3005.095328  	0.006130 
3007.024144  	0.007522 
3008.952960  	0.008842 
3010.881776  	0.010343 
3012.810592  	0.011774 
3014.739408  	0.012945 
3016.668224  	0.014115 
3018.597040  	0.015476 
3020.525856  	0.016732 
3022.454672  	0.017823 
3024.383488  	0.018834 
3026.312304  	0.019805 
3028.241120  	0.020708 
3030.169936  	0.021611 
3032.098752  	0.022460 
3034.027568  	0.023295 
3035.956384  	0.024120 
3037.885200  	0.024847 
3039.814016  	0.025503 
3041.742832  	0.026204 
3043.671648  	0.026675 
3045.600464  	0.027156 
3047.529280  	0.027668 
3049.458096  	0.028248 
3051.386912  	0.028897 
3053.315728  	0.029423 
3055.244544  	0.029928 
3057.173360  	0.030581 
3059.102176  	0.030974 
3061.030992  	0.031489 
3062.959808  	0.032262 
3064.888624  	0.032887 
3066.817440  	0.033396 
3068.746256  	0.034103 
3070.675072  	0.034845 
3072.603888  	0.035465 
3074.532704  	0.036167 
3076.461520  	0.036806 
3078.390336  	0.037396 
3080.319152  	0.038077 
3082.247968  	0.038795 
3084.176784  	0.039465 
3086.105600  	0.040159 
3088.034416  	0.040867 
3089.963232  	0.041465 
3091.892048  	0.042101 
3093.820864  	0.042787 
3095.749680  	0.043515 
3097.678496  	0.044245 
3099.607312  	0.045013 
3101.536128  	0.045979 
3103.464944  	0.046792 
3105.393760  	0.047268 
3107.322576  	0.047740 
3109.251392  	0.048469 
3111.180208  	0.049018 
3113.109024  	0.049553 
3115.037840  	0.050180 
3116.966656  	0.050815 
3118.895472  	0.051425 
3120.824288  	0.051985 
3122.753104  	0.052565 
3124.681920  	0.052974 
3126.610736  	0.053315 
3128.539552  	0.053867 
3130.468368  	0.054511 
3132.397184  	0.054989 
3134.326000  	0.055478 
3136.254816  	0.055983 
3138.183632  	0.056544 
3140.112448  	0.057054 
3142.041264  	0.057566 
3143.970080  	0.058021 
3145.898896  	0.058550 
3147.827712  	0.059235 
3149.756528  	0.059737 
3151.685344  	0.060027 
3153.614160  	0.060665 
3155.542976  	0.061302 
3157.471792  	0.061723 
3159.400608  	0.062284 
3161.329424  	0.062813 
3163.258240  	0.063165 
3165.187056  	0.063529 
3167.115872  	0.064044 
3169.044688  	0.064443 
3170.973504  	0.064739 
3172.902320  	0.065051 
3174.831136  	0.065347 
3176.759952  	0.065816 
3178.688768  	0.066239 
3180.617584  	0.066369 
3182.546400  	0.066544 
3184.475216  	0.066720 
3186.404032  	0.066686 
3188.332848  	0.066829 
3190.261664  	0.067047 
3192.190480  	0.067201 
3194.119296  	0.067090 
3196.048112  	0.067115 
3197.976928  	0.067254 
3199.905744  	0.067283 
3201.834560  	0.067114 
3203.763376  	0.066998 
3205.692192  	0.067052 
3207.621008  	0.066876 
3209.549824  	0.066853 
3211.478640  	0.066913 
3213.407456  	0.066808 
3215.336272  	0.066618 
3217.265088  	0.066372 
3219.193904  	0.066169 
3221.122720  	0.066020 
3223.051536  	0.065876 
3224.980352  	0.065717 
3226.909168  	0.065649 
3228.837984  	0.065558 
3230.766800  	0.065496 
3232.695616  	0.065488 
3234.624432  	0.065297 
3236.553248  	0.065193 
3238.482064  	0.065319 
3240.410880  	0.065269 
3242.339696  	0.065307 
3244.268512  	0.065173 
3246.197328  	0.065262 
3248.126144  	0.065512 
3250.054960  	0.065706 
3251.983776  	0.065791 
3253.912592  	0.065913 
3255.841408  	0.066097 
3257.770224  	0.066350 
3259.699040  	0.066487 
3261.627856  	0.066792 
3263.556672  	0.066994 
3265.485488  	0.067028 
3267.414304  	0.067049 
3269.343120  	0.067436 
3271.271936  	0.067698 
3273.200752  	0.067642 
3275.129568  	0.067697 
3277.058384  	0.068044 
3278.987200  	0.068195 
3280.916016  	0.068287 
3282.844832  	0.068482 
3284.773648  	0.068686 
3286.702464  	0.068814 
3288.631280  	0.069034 
3290.560096  	0.069365 
3292.488912  	0.069570 
3294.417728  	0.069654 
3296.346544  	0.069984 
3298.275360  	0.070331 
3300.204176  	0.070590 
3302.132992  	0.070775 
3304.061808  	0.070953 
3305.990624  	0.071265 
3307.919440  	0.071534 
3309.848256  	0.071721 
3311.777072  	0.071897 
3313.705888  	0.072033 
3315.634704  	0.072490 
3317.563520  	0.072959 
3319.492336  	0.073121 
3321.421152  	0.073104 
3323.349968  	0.073182 
3325.278784  	0.073294 
3327.207600  	0.073467 
3329.136416  	0.073592 
3331.065232  	0.073703 
3332.994048  	0.073771 
3334.922864  	0.073900 
3336.851680  	0.073910 
3338.780496  	0.073800 
3340.709312  	0.073584 
3342.638128  	0.073323 
3344.566944  	0.072959 
3346.495760  	0.072744 
3348.424576  	0.072414 
3350.353392  	0.072095 
3352.282208  	0.071811 
3354.211024  	0.071621 
3356.139840  	0.071561 
3358.068656  	0.071437 
3359.997472  	0.070967 
3361.926288  	0.070604 
3363.855104  	0.070380 
3365.783920  	0.069929 
3367.712736  	0.069498 
3369.641552  	0.069251 
3371.570368  	0.068883 
3373.499184  	0.068551 
3375.428000  	0.068164 
3377.356816  	0.067772 
3379.285632  	0.067787 
3381.214448  	0.067675 
3383.143264  	0.067278 
3385.072080  	0.066811 
3387.000896  	0.066326 
3388.929712  	0.066065 
3390.858528  	0.065975 
3392.787344  	0.065771 
3394.716160  	0.065315 
3396.644976  	0.064956 
3398.573792  	0.064683 
3400.502608  	0.064220 
3402.431424  	0.063817 
3404.360240  	0.063390 
3406.289056  	0.062792 
3408.217872  	0.062329 
3410.146688  	0.061867 
3412.075504  	0.061625 
3414.004320  	0.061291 
3415.933136  	0.060945 
3417.861952  	0.060309 
3419.790768  	0.059897 
3421.719584  	0.059645 
3423.648400  	0.059260 
3425.577216  	0.058588 
3427.506032  	0.058037 
3429.434848  	0.057536 
3431.363664  	0.057144 
3433.292480  	0.056898 
3435.221296  	0.056427 
3437.150112  	0.055916 
3439.078928  	0.055473 
3441.007744  	0.054760 
3442.936560  	0.054479 
3444.865376  	0.054326 
3446.794192  	0.053734 
3448.723008  	0.053061 
3450.651824  	0.052477 
3452.580640  	0.051968 
3454.509456  	0.051409 
3456.438272  	0.051027 
3458.367088  	0.050582 
3460.295904  	0.049880 
3462.224720  	0.049143 
3464.153536  	0.048623 
3466.082352  	0.048143 
3468.011168  	0.047333 
3469.939984  	0.046527 
3471.868800  	0.045957 
3473.797616  	0.045349 
3475.726432  	0.044697 
3477.655248  	0.043998 
3479.584064  	0.043630 
3481.512880  	0.043195 
3483.441696  	0.042407 
3485.370512  	0.041702 
3487.299328  	0.040895 
3489.228144  	0.040232 
3491.156960  	0.039637 
3493.085776  	0.039037 
3495.014592  	0.038362 
3496.943408  	0.037815 
3498.872224  	0.037339 
3500.801040  	0.037275 
3502.729856  	0.036922 
3504.658672  	0.035964 
3506.587488  	0.035302 
3508.516304  	0.034845 
3510.445120  	0.034281 
3512.373936  	0.033490 
3514.302752  	0.032925 
3516.231568  	0.032656 
3518.160384  	0.032290 
3520.089200  	0.031664 
3522.018016  	0.031466 
3523.946832  	0.031725 
3525.875648  	0.030910 
3527.804464  	0.029627 
3529.733280  	0.028929 
3531.662096  	0.028373 
3533.590912  	0.027878 
3535.519728  	0.027669 
3537.448544  	0.027331 
3539.377360  	0.026543 
3541.306176  	0.026009 
3543.234992  	0.025972 
3545.163808  	0.026457 
3547.092624  	0.025990 
3549.021440  	0.024511 
3550.950256  	0.023589 
3552.879072  	0.023060 
3554.807888  	0.022492 
3556.736704  	0.021931 
3558.665520  	0.021794 
3560.594336  	0.021602 
3562.523152  	0.020828 
3564.451968  	0.020669 
3566.380784  	0.021219 
3568.309600  	0.020150 
3570.238416  	0.018757 
3572.167232  	0.017964 
3574.096048  	0.017181 
3576.024864  	0.016595 
3577.953680  	0.016253 
3579.882496  	0.015709 
3581.811312  	0.015262 
3583.740128  	0.014780 
3585.668944  	0.014673 
3587.597760  	0.014078 
3589.526576  	0.012788 
3591.455392  	0.011997 
3593.384208  	0.011626 
3595.313024  	0.011015 
3597.241840  	0.009751 
3599.170656  	0.008356 
3601.099472  	0.007774 
3603.028288  	0.007904 
3604.957104  	0.007574 
3606.885920  	0.006809 
3608.814736  	0.005999 
3610.743552  	0.005776 
3612.672368  	0.004857 
3614.601184  	0.003826 
3616.530000  	0.003438 
3618.458816  	0.001953 
3620.387632  	0.000702 
3622.316448  	0.000503 
3624.245264  	0.000237 
3626.174080  	-0.000060 
3628.102896  	-0.002237 
3630.031712  	-0.004449 
3631.960528  	-0.003428 
3633.889344  	-0.003828 
3635.818160  	-0.004450 
3637.746976  	-0.005147 
3639.675792  	-0.005562 
3641.604608  	-0.005892 
3643.533424  	-0.006167 
3645.462240  	-0.006787 
3647.391056  	-0.009292 
3649.319872  	-0.013095 
3651.248688  	-0.013848 
3653.177504  	-0.011748 
3655.106320  	-0.012573 
3657.035136  	-0.014765 
3658.963952  	-0.014420 
3660.892768  	-0.014504 
3662.821584  	-0.014816 
3664.750400  	-0.014794 
3666.679216  	-0.014872 
3668.608032  	-0.016802 
3670.536848  	-0.019412 
3672.465664  	-0.017283 
3674.394480  	-0.018223 
3676.323296  	-0.021903 
3678.252112  	-0.018694 
3680.180928  	-0.017111 
3682.109744  	-0.016709 
3684.038560  	-0.016974 
3685.967376  	-0.016901 
3687.896192  	-0.019022 
3689.825008  	-0.021465 
3691.753824  	-0.020101 
3693.682640  	-0.017896 
3695.611456  	-0.016979 
3697.540272  	-0.016273 
3699.469088  	-0.015567 
3701.397904  	-0.016151 
3703.326720  	-0.016050 
3705.255536  	-0.014745 
3707.184352  	-0.014331 
3709.113168  	-0.015664 
3711.041984  	-0.017566 
3712.970800  	-0.016573 
3714.899616  	-0.013841 
3716.828432  	-0.013176 
3718.757248  	-0.013711 
3720.686064  	-0.014333 
3722.614880  	-0.014521 
3724.543696  	-0.013822 
3726.472512  	-0.014124 
3728.401328  	-0.014115 
3730.330144  	-0.014692 
3732.258960  	-0.016166 
3734.187776  	-0.015477 
3736.116592  	-0.015866 
3738.045408  	-0.015592 
3739.974224  	-0.014011 
3741.903040  	-0.013067 
3743.831856  	-0.015182 
3745.760672  	-0.016786 
3747.689488  	-0.015282 
3749.618304  	-0.017654 
3751.547120  	-0.019183 
3753.475936  	-0.016772 
3755.404752  	-0.014421 
3757.333568  	-0.014066 
3759.262384  	-0.014686 
3761.191200  	-0.014476 
3763.120016  	-0.013084 
3765.048832  	-0.013706 
3766.977648  	-0.013627 
3768.906464  	-0.014343 
3770.835280  	-0.015105 
3772.764096  	-0.013624 
3774.692912  	-0.012968 
3776.621728  	-0.012908 
3778.550544  	-0.014102 
3780.479360  	-0.014927 
3782.408176  	-0.013593 
3784.336992  	-0.013727 
3786.265808  	-0.013568 
3788.194624  	-0.013338 
3790.123440  	-0.013412 
3792.052256  	-0.013386 
3793.981072  	-0.013298 
3795.909888  	-0.014347 
3797.838704  	-0.014177 
3799.767520  	-0.014623 
3801.696336  	-0.018110 
3803.625152  	-0.016355 
3805.553968  	-0.015342 
3807.482784  	-0.016538 
3809.411600  	-0.014397 
3811.340416  	-0.013132 
3813.269232  	-0.012942 
3815.198048  	-0.015097 
3817.126864  	-0.016152 
3819.055680  	-0.015098 
3820.984496  	-0.017936 
3822.913312  	-0.016699 
3824.842128  	-0.014307 
3826.770944  	-0.014563 
3828.699760  	-0.013820 
3830.628576  	-0.014116 
3832.557392  	-0.015005 
3834.486208  	-0.014835 
3836.415024  	-0.015686 
3838.343840  	-0.016951 
3840.272656  	-0.016077 
3842.201472  	-0.014826 
3844.130288  	-0.014676 
3846.059104  	-0.013727 
3847.987920  	-0.012985 
3849.916736  	-0.012992 
3851.845552  	-0.015094 
3853.774368  	-0.019570 
3855.703184  	-0.016716 
3857.632000  	-0.014067 
3859.560816  	-0.013078 
3861.489632  	-0.013291 
3863.418448  	-0.013876 
3865.347264  	-0.014188 
3867.276080  	-0.013214 
3869.204896  	-0.014366 
3871.133712  	-0.014634 
3873.062528  	-0.013840 
3874.991344  	-0.014332 
3876.920160  	-0.012880 
3878.848976  	-0.012466 
3880.777792  	-0.013186 
3882.706608  	-0.012495 
3884.635424  	-0.012792 
3886.564240  	-0.013885 
3888.493056  	-0.013123 
3890.421872  	-0.013600 
3892.350688  	-0.014363 
3894.279504  	-0.013400 
3896.208320  	-0.012416 
3898.137136  	-0.012126 
3900.065952  	-0.012308 
3901.994768  	-0.012230 
3903.923584  	-0.013202 
3905.852400  	-0.013771 
3907.781216  	-0.013445 
3909.710032  	-0.013065 
3911.638848  	-0.012938 
3913.567664  	-0.012665 
3915.496480  	-0.012268 
3917.425296  	-0.012381 
3919.354112  	-0.012704 
3921.282928  	-0.012471 
3923.211744  	-0.011962 
3925.140560  	-0.012185 
3927.069376  	-0.012526 
3928.998192  	-0.012539 
3930.927008  	-0.012170 
3932.855824  	-0.011929 
3934.784640  	-0.012270 
3936.713456  	-0.012490 
3938.642272  	-0.012292 
3940.571088  	-0.011994 
3942.499904  	-0.011920 
3944.428720  	-0.012117 
3946.357536  	-0.011860 
3948.286352  	-0.011676 
3950.215168  	-0.012142 
3952.143984  	-0.012763 
3954.072800  	-0.012943 
3956.001616  	-0.012694 
3957.930432  	-0.012622 
3959.859248  	-0.012667 
3961.788064  	-0.012703 
3963.716880  	-0.012918 
3965.645696  	-0.013054 
3967.574512  	-0.012850 
3969.503328  	-0.012602 
3971.432144  	-0.012738 
3973.360960  	-0.012846 
3975.289776  	-0.012718 
3977.218592  	-0.012632 
3979.147408  	-0.012805 
3981.076224  	-0.012933 
3983.005040  	-0.012926 
3984.933856  	-0.012853 
3986.862672  	-0.012752 
3988.791488  	-0.012470 
3990.720304  	-0.012367 
3992.649120  	-0.012550 
3994.577936  	-0.012816 
3996.506752  	-0.012889 
3998.435568  	-0.012848 
4000.364384  	-0.012849 