##TITLE=No Description
##DATA TYPE=INFRARED SPECTRUM
##XUNITS=1/CM
##YUNITS=Abs
399.264912  	0.591422 
401.193728  	0.576731 
403.122544  	0.579694 
405.051360  	0.579943 
406.980176  	0.582000 
408.908992  	0.577439 
410.837808  	0.579341 
412.766624  	0.579635 
414.695440  	0.584683 
416.624256  	0.574325 
418.553072  	0.560022 
420.481888  	0.544045 
422.410704  	0.553609 
424.339520  	0.555171 
426.268336  	0.542502 
428.197152  	0.536829 
430.125968  	0.548953 
432.054784  	0.546997 
433.983600  	0.538640 
435.912416  	0.529872 
437.841232  	0.530438 
439.770048  	0.526739 
441.698864  	0.525374 
443.627680  	0.527857 
445.556496  	0.529475 
447.485312  	0.522313 
449.414128  	0.519621 
451.342944  	0.520799 
453.271760  	0.521763 
455.200576  	0.518451 
457.129392  	0.523275 
459.058208  	0.521716 
460.987024  	0.526920 
462.915840  	0.526880 
464.844656  	0.524248 
466.773472  	0.521916 
468.702288  	0.526718 
470.631104  	0.530680 
472.559920  	0.531921 
474.488736  	0.520907 
476.417552  	0.518639 
478.346368  	0.516229 
480.275184  	0.518117 
482.204000  	0.516553 
484.132816  	0.512045 
486.061632  	0.508800 
487.990448  	0.513438 
489.919264  	0.513629 
491.848080  	0.513481 
493.776896  	0.511634 
495.705712  	0.510135 
497.634528  	0.508917 
499.563344  	0.508586 
501.492160  	0.504106 
503.420976  	0.503181 
505.349792  	0.506168 
507.278608  	0.509837 
509.207424  	0.506650 
511.136240  	0.506099 
513.065056  	0.506366 
514.993872  	0.510038 
516.922688  	0.511950 
518.851504  	0.514051 
520.780320  	0.515606 
522.709136  	0.516951 
524.637952  	0.513865 
526.566768  	0.511855 
528.495584  	0.508100 
530.424400  	0.507753 
532.353216  	0.501848 
534.282032  	0.498189 
536.210848  	0.493031 
538.139664  	0.485669 
540.068480  	0.477917 
541.997296  	0.474142 
543.926112  	0.470256 
545.854928  	0.466449 
547.783744  	0.461792 
549.712560  	0.457944 
551.641376  	0.453764 
553.570192  	0.450741 
555.499008  	0.446687 
557.427824  	0.442696 
559.356640  	0.438281 
561.285456  	0.434877 
563.214272  	0.432448 
565.143088  	0.429323 
567.071904  	0.424483 
569.000720  	0.421077 
570.929536  	0.418040 
572.858352  	0.415365 
574.787168  	0.412049 
576.715984  	0.409556 
578.644800  	0.406862 
580.573616  	0.403145 
582.502432  	0.397067 
584.431248  	0.393043 
586.360064  	0.389755 
588.288880  	0.387061 
590.217696  	0.384863 
592.146512  	0.382664 
594.075328  	0.379717 
596.004144  	0.377335 
597.932960  	0.375494 
599.861776  	0.374423 
601.790592  	0.372621 
603.719408  	0.371152 
605.648224  	0.369458 
607.577040  	0.368069 
609.505856  	0.366404 
611.434672  	0.364772 
613.363488  	0.363476 
615.292304  	0.362465 
617.221120  	0.361025 
619.149936  	0.360475 
621.078752  	0.358985 
623.007568  	0.357558 
624.936384  	0.355525 
626.865200  	0.354149 
628.794016  	0.353090 
630.722832  	0.352622 
632.651648  	0.353190 
634.580464  	0.353630 
636.509280  	0.353366 
638.438096  	0.353221 
640.366912  	0.352429 
642.295728  	0.351510 
644.224544  	0.349382 
646.153360  	0.345690 
648.082176  	0.341017 
650.010992  	0.337143 
651.939808  	0.333755 
653.868624  	0.330382 
655.797440  	0.325942 
657.726256  	0.321915 
659.655072  	0.318189 
661.583888  	0.314222 
663.512704  	0.309787 
665.441520  	0.306312 
667.370336  	0.300452 
669.299152  	0.294499 
671.227968  	0.292748 
673.156784  	0.289739 
675.085600  	0.287091 
677.014416  	0.284784 
678.943232  	0.282806 
680.872048  	0.281402 
682.800864  	0.279637 
684.729680  	0.277988 
686.658496  	0.276652 
688.587312  	0.275647 
690.516128  	0.274188 
692.444944  	0.272873 
694.373760  	0.271628 
696.302576  	0.269885 
698.231392  	0.267823 
700.160208  	0.265790 
702.089024  	0.263424 
704.017840  	0.260876 
705.946656  	0.258161 
707.875472  	0.255724 
709.804288  	0.253526 
711.733104  	0.251568 
713.661920  	0.249742 
715.590736  	0.248699 
717.519552  	0.248582 
719.448368  	0.249004 
721.377184  	0.249573 
723.306000  	0.250548 
725.234816  	0.251201 
727.163632  	0.251025 
729.092448  	0.248695 
731.021264  	0.244983 
732.950080  	0.241700 
734.878896  	0.238538 
736.807712  	0.235049 
738.736528  	0.232395 
740.665344  	0.230587 
742.594160  	0.229076 
744.522976  	0.227865 
746.451792  	0.226438 
748.380608  	0.224969 
750.309424  	0.223725 
752.238240  	0.222498 
754.167056  	0.221686 
756.095872  	0.220686 
758.024688  	0.219708 
759.953504  	0.219660 
761.882320  	0.221098 
763.811136  	0.222133 
765.739952  	0.221464 
767.668768  	0.218751 
769.597584  	0.216120 
771.526400  	0.215326 
773.455216  	0.217056 
775.384032  	0.221114 
777.312848  	0.226969 
779.241664  	0.231990 
781.170480  	0.232782 
783.099296  	0.229067 
785.028112  	0.223055 
786.956928  	0.216605 
788.885744  	0.211393 
790.814560  	0.207836 
792.743376  	0.205325 
794.672192  	0.204010 
796.601008  	0.203164 
798.529824  	0.200472 
800.458640  	0.196124 
802.387456  	0.192344 
804.316272  	0.190209 
806.245088  	0.189052 
808.173904  	0.188594 
810.102720  	0.188704 
812.031536  	0.188685 
813.960352  	0.189061 
815.889168  	0.189671 
817.817984  	0.190216 
819.746800  	0.191005 
821.675616  	0.191754 
823.604432  	0.191997 
825.533248  	0.191786 
827.462064  	0.191326 
829.390880  	0.190607 
831.319696  	0.189633 
833.248512  	0.187806 
835.177328  	0.185264 
837.106144  	0.182428 
839.034960  	0.179128 
840.963776  	0.175270 
842.892592  	0.171296 
844.821408  	0.167555 
846.750224  	0.164318 
848.679040  	0.161669 
850.607856  	0.159737 
852.536672  	0.158394 
854.465488  	0.156855 
856.394304  	0.155682 
858.323120  	0.154533 
860.251936  	0.152764 
862.180752  	0.150394 
864.109568  	0.147704 
866.038384  	0.145164 
867.967200  	0.142952 
869.896016  	0.140991 
871.824832  	0.140025 
873.753648  	0.139951 
875.682464  	0.140810 
877.611280  	0.141536 
879.540096  	0.142714 
881.468912  	0.145242 
883.397728  	0.147133 
885.326544  	0.148329 
887.255360  	0.148553 
889.184176  	0.147581 
891.112992  	0.145534 
893.041808  	0.143554 
894.970624  	0.141104 
896.899440  	0.137541 
898.828256  	0.133054 
900.757072  	0.128616 
902.685888  	0.125215 
904.614704  	0.123296 
906.543520  	0.123447 
908.472336  	0.124912 
910.401152  	0.127593 
912.329968  	0.130872 
914.258784  	0.134376 
916.187600  	0.137638 
918.116416  	0.140451 
920.045232  	0.142546 
921.974048  	0.143832 
923.902864  	0.144422 
925.831680  	0.144535 
927.760496  	0.144853 
929.689312  	0.145526 
931.618128  	0.146444 
933.546944  	0.147070 
935.475760  	0.147699 
937.404576  	0.147868 
939.333392  	0.147452 
941.262208  	0.147607 
943.191024  	0.149613 
945.119840  	0.154148 
947.048656  	0.161325 
948.977472  	0.170812 
950.906288  	0.182195 
952.835104  	0.194829 
954.763920  	0.207968 
956.692736  	0.220367 
958.621552  	0.230885 
960.550368  	0.237838 
962.479184  	0.241027 
964.408000  	0.239684 
966.336816  	0.233851 
968.265632  	0.223982 
970.194448  	0.211324 
972.123264  	0.196617 
974.052080  	0.181282 
975.980896  	0.166542 
977.909712  	0.152956 
979.838528  	0.140765 
981.767344  	0.130719 
983.696160  	0.123148 
985.624976  	0.118231 
987.553792  	0.116349 
989.482608  	0.117598 
991.411424  	0.121440 
993.340240  	0.127268 
995.269056  	0.134300 
997.197872  	0.141945 
999.126688  	0.149865 
1001.055504  	0.157932 
1002.984320  	0.165920 
1004.913136  	0.173715 
1006.841952  	0.181264 
1008.770768  	0.187516 
1010.699584  	0.191915 
1012.628400  	0.194614 
1014.557216  	0.195760 
1016.486032  	0.196011 
1018.414848  	0.195471 
1020.343664  	0.194821 
1022.272480  	0.193875 
1024.201296  	0.192625 
1026.130112  	0.189596 
1028.058928  	0.188641 
1029.987744  	0.191868 
1031.916560  	0.194597 
1033.845376  	0.196819 
1035.774192  	0.199022 
1037.703008  	0.203171 
1039.631824  	0.211256 
1041.560640  	0.222042 
1043.489456  	0.236023 
1045.418272  	0.252676 
1047.347088  	0.270994 
1049.275904  	0.287501 
1051.204720  	0.299514 
1053.133536  	0.305822 
1055.062352  	0.307622 
1056.991168  	0.305928 
1058.919984  	0.305531 
1060.848800  	0.305218 
1062.777616  	0.301893 
1064.706432  	0.294623 
1066.635248  	0.288105 
1068.564064  	0.285206 
1070.492880  	0.279598 
1072.421696  	0.271286 
1074.350512  	0.265685 
1076.279328  	0.264151 
1078.208144  	0.266759 
1080.136960  	0.272305 
1082.065776  	0.278908 
1083.994592  	0.282706 
1085.923408  	0.282722 
1087.852224  	0.278893 
1089.781040  	0.272737 
1091.709856  	0.264855 
1093.638672  	0.254647 
1095.567488  	0.241675 
1097.496304  	0.227747 
1099.425120  	0.213160 
1101.353936  	0.198756 
1103.282752  	0.184834 
1105.211568  	0.171654 
1107.140384  	0.158990 
1109.069200  	0.146983 
1110.998016  	0.136372 
1112.926832  	0.126601 
1114.855648  	0.117569 
1116.784464  	0.109301 
1118.713280  	0.101502 
1120.642096  	0.094040 
1122.570912  	0.087211 
1124.499728  	0.080713 
1126.428544  	0.075006 
1128.357360  	0.069851 
1130.286176  	0.065611 
1132.214992  	0.062056 
1134.143808  	0.059180 
1136.072624  	0.056634 
1138.001440  	0.054623 
1139.930256  	0.052265 
1141.859072  	0.049924 
1143.787888  	0.047525 
1145.716704  	0.045221 
1147.645520  	0.042920 
1149.574336  	0.041187 
1151.503152  	0.039691 
1153.431968  	0.039036 
1155.360784  	0.039239 
1157.289600  	0.040274 
1159.218416  	0.041968 
1161.147232  	0.044382 
1163.076048  	0.046769 
1165.004864  	0.049319 
1166.933680  	0.051816 
1168.862496  	0.054700 
1170.791312  	0.057653 
1172.720128  	0.061017 
1174.648944  	0.064345 
1176.577760  	0.067799 
1178.506576  	0.070979 
1180.435392  	0.074209 
1182.364208  	0.077425 
1184.293024  	0.081044 
1186.221840  	0.084854 
1188.150656  	0.089209 
1190.079472  	0.094252 
1192.008288  	0.100424 
1193.937104  	0.107902 
1195.865920  	0.116520 
1197.794736  	0.125972 
1199.723552  	0.136311 
1201.652368  	0.146826 
1203.581184  	0.157451 
1205.510000  	0.167901 
1207.438816  	0.177731 
1209.367632  	0.186657 
1211.296448  	0.194343 
1213.225264  	0.200882 
1215.154080  	0.205484 
1217.082896  	0.208811 
1219.011712  	0.210952 
1220.940528  	0.212389 
1222.869344  	0.213031 
1224.798160  	0.212711 
1226.726976  	0.211692 
1228.655792  	0.210301 
1230.584608  	0.207884 
1232.513424  	0.205026 
1234.442240  	0.201535 
1236.371056  	0.197259 
1238.299872  	0.191789 
1240.228688  	0.183774 
1242.157504  	0.175697 
1244.086320  	0.168862 
1246.015136  	0.160667 
1247.943952  	0.151665 
1249.872768  	0.142610 
1251.801584  	0.134663 
1253.730400  	0.126822 
1255.659216  	0.119193 
1257.588032  	0.111915 
1259.516848  	0.105014 
1261.445664  	0.098819 
1263.374480  	0.093161 
1265.303296  	0.088262 
1267.232112  	0.084365 
1269.160928  	0.081410 
1271.089744  	0.079260 
1273.018560  	0.078047 
1274.947376  	0.077660 
1276.876192  	0.077688 
1278.805008  	0.077386 
1280.733824  	0.076207 
1282.662640  	0.074097 
1284.591456  	0.071558 
1286.520272  	0.069311 
1288.449088  	0.067935 
1290.377904  	0.067217 
1292.306720  	0.067392 
1294.235536  	0.067502 
1296.164352  	0.066626 
1298.093168  	0.064185 
1300.021984  	0.061041 
1301.950800  	0.057685 
1303.879616  	0.054525 
1305.808432  	0.051093 
1307.737248  	0.047610 
1309.666064  	0.044223 
1311.594880  	0.041774 
1313.523696  	0.039870 
1315.452512  	0.038639 
1317.381328  	0.037908 
1319.310144  	0.037666 
1321.238960  	0.037836 
1323.167776  	0.038609 
1325.096592  	0.039497 
1327.025408  	0.040238 
1328.954224  	0.040360 
1330.883040  	0.039835 
1332.811856  	0.038916 
1334.740672  	0.038437 
1336.669488  	0.038307 
1338.598304  	0.038412 
1340.527120  	0.037043 
1342.455936  	0.035366 
1344.384752  	0.034948 
1346.313568  	0.035224 
1348.242384  	0.035887 
1350.171200  	0.037305 
1352.100016  	0.039060 
1354.028832  	0.041177 
1355.957648  	0.043203 
1357.886464  	0.045487 
1359.815280  	0.048090 
1361.744096  	0.050814 
1363.672912  	0.052322 
1365.601728  	0.053555 
1367.530544  	0.055121 
1369.459360  	0.055696 
1371.388176  	0.055564 
1373.316992  	0.054250 
1375.245808  	0.050721 
1377.174624  	0.047867 
1379.103440  	0.044673 
1381.032256  	0.041391 
1382.961072  	0.038998 
1384.889888  	0.038232 
1386.818704  	0.037549 
1388.747520  	0.035527 
1390.676336  	0.033075 
1392.605152  	0.029810 
1394.533968  	0.027913 
1396.462784  	0.030800 
1398.391600  	0.031992 
1400.320416  	0.031227 
1402.249232  	0.031579 
1404.178048  	0.032308 
1406.106864  	0.033002 
1408.035680  	0.034948 
1409.964496  	0.037653 
1411.893312  	0.040735 
1413.822128  	0.043868 
1415.750944  	0.047851 
1417.679760  	0.050575 
1419.608576  	0.050229 
1421.537392  	0.050604 
1423.466208  	0.050677 
1425.395024  	0.048664 
1427.323840  	0.047171 
1429.252656  	0.044617 
1431.181472  	0.042755 
1433.110288  	0.042691 
1435.039104  	0.043509 
1436.967920  	0.042885 
1438.896736  	0.043663 
1440.825552  	0.044893 
1442.754368  	0.045545 
1444.683184  	0.045863 
1446.612000  	0.045908 
1448.540816  	0.044753 
1450.469632  	0.045205 
1452.398448  	0.046227 
1454.327264  	0.047417 
1456.256080  	0.046671 
1458.184896  	0.043800 
1460.113712  	0.045305 
1462.042528  	0.046946 
1463.971344  	0.046585 
1465.900160  	0.046884 
1467.828976  	0.049889 
1469.757792  	0.053584 
1471.686608  	0.056881 
1473.615424  	0.062865 
1475.544240  	0.070025 
1477.473056  	0.076211 
1479.401872  	0.080665 
1481.330688  	0.084219 
1483.259504  	0.086506 
1485.188320  	0.088197 
1487.117136  	0.088082 
1489.045952  	0.087248 
1490.974768  	0.083630 
1492.903584  	0.081329 
1494.832400  	0.077869 
1496.761216  	0.070303 
1498.690032  	0.063557 
1500.618848  	0.059300 
1502.547664  	0.055432 
1504.476480  	0.051102 
1506.405296  	0.043740 
1508.334112  	0.040916 
1510.262928  	0.041261 
1512.191744  	0.039360 
1514.120560  	0.038429 
1516.049376  	0.037768 
1517.978192  	0.036930 
1519.907008  	0.038605 
1521.835824  	0.038888 
1523.764640  	0.043461 
1525.693456  	0.048263 
1527.622272  	0.050722 
1529.551088  	0.051568 
1531.479904  	0.051284 
1533.408720  	0.046617 
1535.337536  	0.043189 
1537.266352  	0.041466 
1539.195168  	0.033317 
1541.123984  	0.025528 
1543.052800  	0.028216 
1544.981616  	0.028663 
1546.910432  	0.028364 
1548.839248  	0.028975 
1550.768064  	0.029164 
1552.696880  	0.029108 
1554.625696  	0.029581 
1556.554512  	0.029937 
1558.483328  	0.027264 
1560.412144  	0.031625 
1562.340960  	0.039854 
1564.269776  	0.044360 
1566.198592  	0.050301 
1568.127408  	0.054927 
1570.056224  	0.060478 
1571.985040  	0.068490 
1573.913856  	0.073814 
1575.842672  	0.074583 
1577.771488  	0.077721 
1579.700304  	0.080150 
1581.629120  	0.080032 
1583.557936  	0.079409 
1585.486752  	0.080342 
1587.415568  	0.083036 
1589.344384  	0.088028 
1591.273200  	0.094556 
1593.202016  	0.102484 
1595.130832  	0.110848 
1597.059648  	0.119775 
1598.988464  	0.127330 
1600.917280  	0.133864 
1602.846096  	0.137996 
1604.774912  	0.140542 
1606.703728  	0.140629 
1608.632544  	0.139391 
1610.561360  	0.136998 
1612.490176  	0.135386 
1614.418992  	0.132956 
1616.347808  	0.129477 
1618.276624  	0.130704 
1620.205440  	0.135939 
1622.134256  	0.138943 
1624.063072  	0.144856 
1625.991888  	0.152661 
1627.920704  	0.161401 
1629.849520  	0.172126 
1631.778336  	0.182381 
1633.707152  	0.189142 
1635.635968  	0.196074 
1637.564784  	0.206719 
1639.493600  	0.215331 
1641.422416  	0.220700 
1643.351232  	0.224264 
1645.280048  	0.223726 
1647.208864  	0.221677 
1649.137680  	0.223058 
1651.066496  	0.223303 
1652.995312  	0.214077 
1654.924128  	0.213406 
1656.852944  	0.214679 
1658.781760  	0.212322 
1660.710576  	0.208110 
1662.639392  	0.201838 
1664.568208  	0.197269 
1666.497024  	0.194786 
1668.425840  	0.188408 
1670.354656  	0.180324 
1672.283472  	0.177161 
1674.212288  	0.173907 
1676.141104  	0.168797 
1678.069920  	0.168195 
1679.998736  	0.167207 
1681.927552  	0.165332 
1683.856368  	0.159008 
1685.785184  	0.157943 
1687.714000  	0.160736 
1689.642816  	0.160111 
1691.571632  	0.158517 
1693.500448  	0.157503 
1695.429264  	0.152811 
1697.358080  	0.149392 
1699.286896  	0.146932 
1701.215712  	0.141357 
1703.144528  	0.141265 
1705.073344  	0.136746 
1707.002160  	0.130467 
1708.930976  	0.126310 
1710.859792  	0.120278 
1712.788608  	0.113222 
1714.717424  	0.104100 
1716.646240  	0.091961 
1718.575056  	0.077652 
1720.503872  	0.070448 
1722.432688  	0.063922 
1724.361504  	0.054446 
1726.290320  	0.046748 
1728.219136  	0.040328 
1730.147952  	0.034433 
1732.076768  	0.029453 
1734.005584  	0.021887 
1735.934400  	0.016977 
1737.863216  	0.017370 
1739.792032  	0.013594 
1741.720848  	0.012487 
1743.649664  	0.012136 
1745.578480  	0.011299 
1747.507296  	0.009549 
1749.436112  	0.008525 
1751.364928  	0.007268 
1753.293744  	0.006843 
1755.222560  	0.006712 
1757.151376  	0.006052 
1759.080192  	0.005623 
1761.009008  	0.004989 
1762.937824  	0.003300 
1764.866640  	0.003915 
1766.795456  	0.004361 
1768.724272  	0.003817 
1770.653088  	0.001734 
1772.581904  	-0.000999 
1774.510720  	0.000193 
1776.439536  	0.001930 
1778.368352  	0.002267 
1780.297168  	0.001873 
1782.225984  	0.001282 
1784.154800  	0.001810 
1786.083616  	0.001124 
1788.012432  	0.001400 
1789.941248  	0.001711 
1791.870064  	0.000123 
1793.798880  	-0.001294 
1795.727696  	0.000421 
1797.656512  	0.000216 
1799.585328  	0.000043 
1801.514144  	0.000311 
1803.442960  	0.000244 
1805.371776  	-0.000354 
1807.300592  	0.000025 
1809.229408  	-0.000564 
1811.158224  	-0.000971 
1813.087040  	-0.001065 
1815.015856  	-0.000709 
1816.944672  	-0.000712 
1818.873488  	-0.000597 
1820.802304  	-0.000660 
1822.731120  	-0.000079 
1824.659936  	-0.000740 
1826.588752  	-0.001240 
1828.517568  	-0.001809 
1830.446384  	-0.002361 
1832.375200  	-0.001581 
1834.304016  	-0.000745 
1836.232832  	-0.000850 
1838.161648  	-0.000768 
1840.090464  	-0.001015 
1842.019280  	-0.000325 
1843.948096  	-0.001724 
1845.876912  	-0.001769 
1847.805728  	-0.001028 
1849.734544  	-0.001016 
1851.663360  	-0.001270 
1853.592176  	-0.001167 
1855.520992  	-0.001362 
1857.449808  	-0.001011 
1859.378624  	-0.001299 
1861.307440  	-0.001394 
1863.236256  	-0.001543 
1865.165072  	-0.001287 
1867.093888  	-0.001515 
1869.022704  	-0.001832 
1870.951520  	-0.002005 
1872.880336  	-0.001350 
1874.809152  	-0.001703 
1876.737968  	-0.001830 
1878.666784  	-0.001974 
1880.595600  	-0.001355 
1882.524416  	-0.001623 
1884.453232  	-0.001621 
1886.382048  	-0.001905 
1888.310864  	-0.001624 
1890.239680  	-0.002092 
1892.168496  	-0.001680 
1894.097312  	-0.001644 
1896.026128  	-0.001420 
1897.954944  	-0.001599 
1899.883760  	-0.001495 
1901.812576  	-0.001944 
1903.741392  	-0.001951 
1905.670208  	-0.001756 
1907.599024  	-0.001347 
1909.527840  	-0.001684 
1911.456656  	-0.001433 
1913.385472  	-0.001456 
1915.314288  	-0.000965 
1917.243104  	-0.001230 
1919.171920  	-0.001606 
1921.100736  	-0.001674 
1923.029552  	-0.001348 
1924.958368  	-0.001947 
1926.887184  	-0.001801 
1928.816000  	-0.002082 
1930.744816  	-0.001714 
1932.673632  	-0.001765 
1934.602448  	-0.001617 
1936.531264  	-0.001832 
1938.460080  	-0.001136 
1940.388896  	-0.001578 
1942.317712  	-0.001687 
1944.246528  	-0.002089 
1946.175344  	-0.001108 
1948.104160  	-0.001579 
1950.032976  	-0.001417 
1951.961792  	-0.001285 
1953.890608  	-0.001325 
1955.819424  	-0.002329 
1957.748240  	-0.001559 
1959.677056  	-0.001644 
1961.605872  	-0.001061 
1963.534688  	-0.002067 
1965.463504  	-0.001681 
1967.392320  	-0.002578 
1969.321136  	-0.002249 
1971.249952  	-0.001308 
1973.178768  	0.000433 
1975.107584  	-0.000297 
1977.036400  	0.000184 
1978.965216  	0.000221 
1980.894032  	-0.000069 
1982.822848  	-0.000926 
1984.751664  	-0.000823 
1986.680480  	-0.001386 
1988.609296  	-0.000518 
1990.538112  	-0.000833 
1992.466928  	-0.001160 
1994.395744  	-0.002622 
1996.324560  	-0.002513 
1998.253376  	-0.002823 
2000.182192  	-0.002011 
2002.111008  	-0.001389 
2004.039824  	-0.000645 
2005.968640  	-0.001168 
2007.897456  	-0.001027 
2009.826272  	-0.001055 
2011.755088  	0.000606 
2013.683904  	-0.000359 
2015.612720  	-0.001048 
2017.541536  	-0.001920 
2019.470352  	-0.001091 
2021.399168  	-0.002549 
2023.327984  	-0.002501 
2025.256800  	-0.001490 
2027.185616  	0.000049 
2029.114432  	0.000251 
2031.043248  	0.000509 
2032.972064  	-0.000054 
2034.900880  	0.000902 
2036.829696  	-0.000108 
2038.758512  	0.000238 
2040.687328  	-0.000458 
2042.616144  	-0.000032 
2044.544960  	-0.000504 
2046.473776  	-0.000159 
2048.402592  	-0.000140 
2050.331408  	-0.000205 
2052.260224  	-0.001297 
2054.189040  	-0.001231 
2056.117856  	-0.001752 
2058.046672  	-0.002035 
2059.975488  	-0.002229 
2061.904304  	-0.002258 
2063.833120  	-0.002187 
2065.761936  	-0.001871 
2067.690752  	-0.002074 
2069.619568  	-0.001232 
2071.548384  	-0.001137 
2073.477200  	-0.001524 
2075.406016  	-0.001556 
2077.334832  	-0.001463 
2079.263648  	-0.001801 
2081.192464  	-0.001374 
2083.121280  	-0.001460 
2085.050096  	-0.001505 
2086.978912  	-0.001576 
2088.907728  	-0.001334 
2090.836544  	-0.001378 
2092.765360  	-0.000892 
2094.694176  	-0.000615 
2096.622992  	-0.001025 
2098.551808  	-0.001285 
2100.480624  	-0.000831 
2102.409440  	-0.001051 
2104.338256  	-0.001034 
2106.267072  	-0.000567 
2108.195888  	-0.000485 
2110.124704  	-0.001176 
2112.053520  	-0.000800 
2113.982336  	-0.000721 
2115.911152  	-0.001010 
2117.839968  	-0.001512 
2119.768784  	-0.001287 
2121.697600  	-0.001140 
2123.626416  	-0.000821 
2125.555232  	-0.001129 
2127.484048  	-0.000975 
2129.412864  	-0.001065 
2131.341680  	-0.001196 
2133.270496  	-0.001036 
2135.199312  	-0.000487 
2137.128128  	-0.000789 
2139.056944  	-0.000885 
2140.985760  	-0.001013 
2142.914576  	-0.000832 
2144.843392  	-0.000495 
2146.772208  	0.000188 
2148.701024  	-0.000009 
2150.629840  	0.000631 
2152.558656  	0.000261 
2154.487472  	0.000272 
2156.416288  	0.000140 
2158.345104  	0.001534 
2160.273920  	0.002586 
2162.202736  	0.002701 
2164.131552  	0.001373 
2166.060368  	0.001479 
2167.989184  	0.001945 
2169.918000  	0.003162 
2171.846816  	0.001949 
2173.775632  	0.001168 
2175.704448  	0.001263 
2177.633264  	0.001564 
2179.562080  	0.001604 
2181.490896  	0.002386 
2183.419712  	0.001084 
2185.348528  	0.000314 
2187.277344  	0.000098 
2189.206160  	0.000373 
2191.134976  	0.000116 
2193.063792  	0.000744 
2194.992608  	0.000846 
2196.921424  	0.000483 
2198.850240  	0.000022 
2200.779056  	0.000121 
2202.707872  	-0.000365 
2204.636688  	-0.000361 
2206.565504  	0.000074 
2208.494320  	0.000031 
2210.423136  	-0.000842 
2212.351952  	-0.000927 
2214.280768  	-0.000926 
2216.209584  	-0.000514 
2218.138400  	-0.000845 
2220.067216  	-0.000847 
2221.996032  	-0.000586 
2223.924848  	-0.000202 
2225.853664  	-0.000306 
2227.782480  	-0.000088 
2229.711296  	-0.000856 
2231.640112  	-0.001353 
2233.568928  	-0.001515 
2235.497744  	-0.001503 
2237.426560  	-0.001906 
2239.355376  	-0.002050 
2241.284192  	-0.002074 
2243.213008  	-0.001776 
2245.141824  	-0.001878 
2247.070640  	-0.001393 
2248.999456  	-0.001291 
2250.928272  	-0.001444 
2252.857088  	-0.001789 
2254.785904  	-0.002074 
2256.714720  	-0.002542 
2258.643536  	-0.002415 
2260.572352  	-0.002406 
2262.501168  	-0.002299 
2264.429984  	-0.002560 
2266.358800  	-0.002613 
2268.287616  	-0.002300 
2270.216432  	-0.002066 
2272.145248  	-0.002100 
2274.074064  	-0.002256 
2276.002880  	-0.002288 
2277.931696  	-0.001800 
2279.860512  	-0.001872 
2281.789328  	-0.001807 
2283.718144  	-0.001749 
2285.646960  	-0.001342 
2287.575776  	-0.001222 
2289.504592  	-0.001471 
2291.433408  	-0.001812 
2293.362224  	-0.001237 
2295.291040  	-0.000627 
2297.219856  	-0.000261 
2299.148672  	-0.000416 
2301.077488  	-0.000186 
2303.006304  	-0.000001 
2304.935120  	0.000317 
2306.863936  	0.000543 
2308.792752  	0.000876 
2310.721568  	0.000645 
2312.650384  	0.000173 
2314.579200  	-0.000466 
2316.508016  	-0.001011 
2318.436832  	-0.001607 
2320.365648  	-0.002443 
2322.294464  	-0.003651 
2324.223280  	-0.005072 
2326.152096  	-0.006851 
2328.080912  	-0.008121 
2330.009728  	-0.009783 
2331.938544  	-0.011538 
2333.867360  	-0.012839 
2335.796176  	-0.013869 
2337.724992  	-0.014839 
2339.653808  	-0.014722 
2341.582624  	-0.014616 
2343.511440  	-0.013697 
2345.440256  	-0.011757 
2347.369072  	-0.007906 
2349.297888  	-0.005149 
2351.226704  	-0.006804 
2353.155520  	-0.011217 
2355.084336  	-0.014531 
2357.013152  	-0.017527 
2358.941968  	-0.018983 
2360.870784  	-0.019595 
2362.799600  	-0.018838 
2364.728416  	-0.018156 
2366.657232  	-0.016597 
2368.586048  	-0.013842 
2370.514864  	-0.010921 
2372.443680  	-0.008497 
2374.372496  	-0.006051 
2376.301312  	-0.003757 
2378.230128  	-0.002006 
2380.158944  	-0.001172 
2382.087760  	-0.001097 
2384.016576  	-0.001530 
2385.945392  	-0.002023 
2387.874208  	-0.002337 
2389.803024  	-0.002589 
2391.731840  	-0.002946 
2393.660656  	-0.003027 
2395.589472  	-0.002991 
2397.518288  	-0.002857 
2399.447104  	-0.002960 
2401.375920  	-0.002983 
2403.304736  	-0.003080 
2405.233552  	-0.003009 
2407.162368  	-0.003170 
2409.091184  	-0.003183 
2411.020000  	-0.003121 
2412.948816  	-0.002898 
2414.877632  	-0.002779 
2416.806448  	-0.002698 
2418.735264  	-0.002961 
2420.664080  	-0.003071 
2422.592896  	-0.003180 
2424.521712  	-0.003170 
2426.450528  	-0.003143 
2428.379344  	-0.002854 
2430.308160  	-0.002690 
2432.236976  	-0.002550 
2434.165792  	-0.002667 
2436.094608  	-0.002711 
2438.023424  	-0.002523 
2439.952240  	-0.002213 
2441.881056  	-0.002230 
2443.809872  	-0.002338 
2445.738688  	-0.002375 
2447.667504  	-0.002335 
2449.596320  	-0.002295 
2451.525136  	-0.001933 
2453.453952  	-0.001874 
2455.382768  	-0.002181 
2457.311584  	-0.002348 
2459.240400  	-0.002387 
2461.169216  	-0.002508 
2463.098032  	-0.002393 
2465.026848  	-0.002270 
2466.955664  	-0.002280 
2468.884480  	-0.002414 
2470.813296  	-0.002432 
2472.742112  	-0.002423 
2474.670928  	-0.002522 
2476.599744  	-0.002558 
2478.528560  	-0.002342 
2480.457376  	-0.002230 
2482.386192  	-0.002280 
2484.315008  	-0.002202 
2486.243824  	-0.002224 
2488.172640  	-0.002025 
2490.101456  	-0.001733 
2492.030272  	-0.001709 
2493.959088  	-0.001702 
2495.887904  	-0.001641 
2497.816720  	-0.001580 
2499.745536  	-0.001652 
2501.674352  	-0.001452 
2503.603168  	-0.001143 
2505.531984  	-0.001201 
2507.460800  	-0.001624 
2509.389616  	-0.001549 
2511.318432  	-0.001504 
2513.247248  	-0.001369 
2515.176064  	-0.001258 
2517.104880  	-0.001145 
2519.033696  	-0.001275 
2520.962512  	-0.001239 
2522.891328  	-0.001035 
2524.820144  	-0.000967 
2526.748960  	-0.000972 
2528.677776  	-0.000910 
2530.606592  	-0.000910 
2532.535408  	-0.000867 
2534.464224  	-0.000924 
2536.393040  	-0.001003 
2538.321856  	-0.000877 
2540.250672  	-0.000630 
2542.179488  	-0.000580 
2544.108304  	-0.000510 
2546.037120  	-0.000442 
2547.965936  	-0.000578 
2549.894752  	-0.000644 
2551.823568  	-0.000572 
2553.752384  	-0.000358 
2555.681200  	-0.000007 
2557.610016  	0.000070 
2559.538832  	0.000157 
2561.467648  	0.000167 
2563.396464  	0.000227 
2565.325280  	0.000386 
2567.254096  	0.000501 
2569.182912  	0.000582 
2571.111728  	0.000764 
2573.040544  	0.000675 
2574.969360  	0.000725 
2576.898176  	0.000920 
2578.826992  	0.000871 
2580.755808  	0.000906 
2582.684624  	0.001156 
2584.613440  	0.001155 
2586.542256  	0.001127 
2588.471072  	0.001187 
2590.399888  	0.001313 
2592.328704  	0.001445 
2594.257520  	0.001374 
2596.186336  	0.001408 
2598.115152  	0.001605 
2600.043968  	0.001600 
2601.972784  	0.001819 
2603.901600  	0.001948 
2605.830416  	0.002058 
2607.759232  	0.002114 
2609.688048  	0.002127 
2611.616864  	0.002255 
2613.545680  	0.002399 
2615.474496  	0.002535 
2617.403312  	0.002819 
2619.332128  	0.002970 
2621.260944  	0.002914 
2623.189760  	0.002819 
2625.118576  	0.002975 
2627.047392  	0.003060 
2628.976208  	0.003219 
2630.905024  	0.003435 
2632.833840  	0.003525 
2634.762656  	0.003731 
2636.691472  	0.003842 
2638.620288  	0.003835 
2640.549104  	0.003908 
2642.477920  	0.003986 
2644.406736  	0.004196 
2646.335552  	0.004355 
2648.264368  	0.004539 
2650.193184  	0.004638 
2652.122000  	0.004665 
2654.050816  	0.004826 
2655.979632  	0.005060 
2657.908448  	0.005157 
2659.837264  	0.005283 
2661.766080  	0.005467 
2663.694896  	0.005604 
2665.623712  	0.005614 
2667.552528  	0.005766 
2669.481344  	0.006051 
2671.410160  	0.006176 
2673.338976  	0.006221 
2675.267792  	0.006386 
2677.196608  	0.006600 
2679.125424  	0.006802 
2681.054240  	0.006970 
2682.983056  	0.007055 
2684.911872  	0.007070 
2686.840688  	0.007215 
2688.769504  	0.007365 
2690.698320  	0.007434 
2692.627136  	0.007419 
2694.555952  	0.007488 
2696.484768  	0.007616 
2698.413584  	0.007749 
2700.342400  	0.007861 
2702.271216  	0.007982 
2704.200032  	0.008158 
2706.128848  	0.008274 
2708.057664  	0.008390 
2709.986480  	0.008513 
2711.915296  	0.008570 
2713.844112  	0.008691 
2715.772928  	0.008830 
2717.701744  	0.008986 
2719.630560  	0.009240 
2721.559376  	0.009419 
2723.488192  	0.009589 
2725.417008  	0.009773 
2727.345824  	0.009909 
2729.274640  	0.010029 
2731.203456  	0.010201 
2733.132272  	0.010399 
2735.061088  	0.010589 
2736.989904  	0.010739 
2738.918720  	0.010849 
2740.847536  	0.010922 
2742.776352  	0.010904 
2744.705168  	0.011009 
2746.633984  	0.011154 
2748.562800  	0.011200 
2750.491616  	0.011196 
2752.420432  	0.011390 
2754.349248  	0.011435 
2756.278064  	0.011399 
2758.206880  	0.011310 
2760.135696  	0.011279 
2762.064512  	0.011310 
2763.993328  	0.011323 
2765.922144  	0.011294 
2767.850960  	0.011307 
2769.779776  	0.011381 
2771.708592  	0.011450 
2773.637408  	0.011387 
2775.566224  	0.011296 
2777.495040  	0.011158 
2779.423856  	0.011275 
2781.352672  	0.011308 
2783.281488  	0.011246 
2785.210304  	0.011228 
2787.139120  	0.011255 
2789.067936  	0.011376 
2790.996752  	0.011451 
2792.925568  	0.011297 
2794.854384  	0.011211 
2796.783200  	0.011197 
2798.712016  	0.011180 
2800.640832  	0.011124 
2802.569648  	0.011200 
2804.498464  	0.011286 
2806.427280  	0.011181 
2808.356096  	0.011101 
2810.284912  	0.011199 
2812.213728  	0.011242 
2814.142544  	0.011139 
2816.071360  	0.011038 
2818.000176  	0.010903 
2819.928992  	0.010901 
2821.857808  	0.010840 
2823.786624  	0.010660 
2825.715440  	0.010561 
2827.644256  	0.010367 
2829.573072  	0.010225 
2831.501888  	0.009911 
2833.430704  	0.009500 
2835.359520  	0.009147 
2837.288336  	0.008892 
2839.217152  	0.008612 
2841.145968  	0.008292 
2843.074784  	0.007828 
2845.003600  	0.007338 
2846.932416  	0.006986 
2848.861232  	0.006631 
2850.790048  	0.006193 
2852.718864  	0.005721 
2854.647680  	0.005279 
2856.576496  	0.004645 
2858.505312  	0.004030 
2860.434128  	0.003535 
2862.362944  	0.002787 
2864.291760  	0.001989 
2866.220576  	0.001351 
2868.149392  	0.000986 
2870.078208  	0.000817 
2872.007024  	0.000848 
2873.935840  	0.001057 
2875.864656  	0.001142 
2877.793472  	0.001006 
2879.722288  	0.000832 
2881.651104  	0.000468 
2883.579920  	0.000309 
2885.508736  	0.000523 
2887.437552  	0.000883 
2889.366368  	0.000960 
2891.295184  	0.000707 
2893.224000  	0.000550 
2895.152816  	0.000647 
2897.081632  	0.000393 
2899.010448  	-0.001355 
2900.939264  	-0.002998 
2902.868080  	-0.001735 
2904.796896  	-0.000249 
2906.725712  	0.000318 
2908.654528  	0.000989 
2910.583344  	0.001461 
2912.512160  	0.001982 
2914.440976  	0.003104 
2916.369792  	0.004114 
2918.298608  	0.004728 
2920.227424  	0.005244 
2922.156240  	0.006003 
2924.085056  	0.006897 
2926.013872  	0.008037 
2927.942688  	0.009115 
2929.871504  	0.010030 
2931.800320  	0.010977 
2933.729136  	0.011901 
2935.657952  	0.012606 
2937.586768  	0.013303 
2939.515584  	0.013973 
2941.444400  	0.014410 
2943.373216  	0.014626 
2945.302032  	0.014910 
2947.230848  	0.015194 
2949.159664  	0.014929 
2951.088480  	0.014234 
2953.017296  	0.013805 
2954.946112  	0.013268 
2956.874928  	0.012503 
2958.803744  	0.011669 
2960.732560  	0.011045 
2962.661376  	0.010416 
2964.590192  	0.009426 
2966.519008  	0.008185 
2968.447824  	0.007103 
2970.376640  	0.006209 
2972.305456  	0.005666 
2974.234272  	0.005897 
2976.163088  	0.006339 
2978.091904  	0.006352 
2980.020720  	0.006228 
2981.949536  	0.006476 
2983.878352  	0.006297 
2985.807168  	0.005380 
2987.735984  	0.004449 
2989.664800  	0.004809 
2991.593616  	0.007889 
2993.522432  	0.009912 
2995.451248  	0.010486 
2997.380064  	0.011383 
2999.308880  	0.012683 
3001.237696  	0.014119 
3003.166512  	0.015753 
3005.095328  	0.017316 
3007.024144  	0.018740 
3008.952960  	0.020181 
3010.881776  	0.021777 
3012.810592  	0.023223 
3014.739408  	0.024528 
3016.668224  	0.025733 
3018.597040  	0.027116 
3020.525856  	0.028573 
3022.454672  	0.029843 
3024.383488  	0.030986 
3026.312304  	0.031963 
3028.241120  	0.033002 
3030.169936  	0.034078 
3032.098752  	0.034993 
3034.027568  	0.035926 
3035.956384  	0.036792 
3037.885200  	0.037723 
3039.814016  	0.038540 
3041.742832  	0.039338 
3043.671648  	0.040085 
3045.600464  	0.040673 
3047.529280  	0.041209 
3049.458096  	0.041874 
3051.386912  	0.042612 
3053.315728  	0.043357 
3055.244544  	0.044086 
3057.173360  	0.044922 
3059.102176  	0.045664 
3061.030992  	0.046462 
3062.959808  	0.047383 
3064.888624  	0.048083 
3066.817440  	0.048916 
3068.746256  	0.049907 
3070.675072  	0.050737 
3072.603888  	0.051622 
3074.532704  	0.052529 
3076.461520  	0.053408 
3078.390336  	0.054362 
3080.319152  	0.055207 
3082.247968  	0.056178 
3084.176784  	0.057049 
3086.105600  	0.057901 
3088.034416  	0.058787 
3089.963232  	0.059863 
3091.892048  	0.060713 
3093.820864  	0.061352 
3095.749680  	0.062266 
3097.678496  	0.063407 
3099.607312  	0.064369 
3101.536128  	0.065380 
3103.464944  	0.066388 
3105.393760  	0.067134 
3107.322576  	0.067953 
3109.251392  	0.068863 
3111.180208  	0.069667 
3113.109024  	0.070468 
3115.037840  	0.071262 
3116.966656  	0.072005 
3118.895472  	0.072764 
3120.824288  	0.073441 
3122.753104  	0.074144 
3124.681920  	0.074876 
3126.610736  	0.075639 
3128.539552  	0.076555 
3130.468368  	0.077193 
3132.397184  	0.077541 
3134.326000  	0.078353 
3136.254816  	0.079151 
3138.183632  	0.079736 
3140.112448  	0.080470 
3142.041264  	0.081254 
3143.970080  	0.081847 
3145.898896  	0.082405 
3147.827712  	0.082955 
3149.756528  	0.083511 
3151.685344  	0.084216 
3153.614160  	0.085102 
3155.542976  	0.085897 
3157.471792  	0.086658 
3159.400608  	0.087507 
3161.329424  	0.088053 
3163.258240  	0.088424 
3165.187056  	0.088962 
3167.115872  	0.089555 
3169.044688  	0.090004 
3170.973504  	0.090297 
3172.902320  	0.090790 
3174.831136  	0.091436 
3176.759952  	0.091941 
3178.688768  	0.092265 
3180.617584  	0.092678 
3182.546400  	0.093049 
3184.475216  	0.093025 
3186.404032  	0.093002 
3188.332848  	0.093267 
3190.261664  	0.093571 
3192.190480  	0.093580 
3194.119296  	0.093490 
3196.048112  	0.093598 
3197.976928  	0.093546 
3199.905744  	0.093448 
3201.834560  	0.093372 
3203.763376  	0.093373 
3205.692192  	0.093229 
3207.621008  	0.092933 
3209.549824  	0.092813 
3211.478640  	0.092858 
3213.407456  	0.092641 
3215.336272  	0.092379 
3217.265088  	0.092237 
3219.193904  	0.092103 
3221.122720  	0.091951 
3223.051536  	0.091768 
3224.980352  	0.091637 
3226.909168  	0.091387 
3228.837984  	0.091001 
3230.766800  	0.090995 
3232.695616  	0.091111 
3234.624432  	0.091091 
3236.553248  	0.090990 
3238.482064  	0.091067 
3240.410880  	0.090962 
3242.339696  	0.090868 
3244.268512  	0.090822 
3246.197328  	0.090834 
3248.126144  	0.091020 
3250.054960  	0.091283 
3251.983776  	0.091488 
3253.912592  	0.091703 
3255.841408  	0.092132 
3257.770224  	0.092457 
3259.699040  	0.092629 
3261.627856  	0.092897 
3263.556672  	0.093105 
3265.485488  	0.093226 
3267.414304  	0.093389 
3269.343120  	0.093773 
3271.271936  	0.094028 
3273.200752  	0.093951 
3275.129568  	0.094068 
3277.058384  	0.094392 
3278.987200  	0.094793 
3280.916016  	0.095098 
3282.844832  	0.095127 
3284.773648  	0.095264 
3286.702464  	0.095567 
3288.631280  	0.095894 
3290.560096  	0.096103 
3292.488912  	0.096574 
3294.417728  	0.096899 
3296.346544  	0.097084 
3298.275360  	0.097216 
3300.204176  	0.097489 
3302.132992  	0.097938 
3304.061808  	0.098345 
3305.990624  	0.098710 
3307.919440  	0.099022 
3309.848256  	0.099234 
3311.777072  	0.099557 
3313.705888  	0.099816 
3315.634704  	0.100240 
3317.563520  	0.100697 
3319.492336  	0.100881 
3321.421152  	0.100853 
3323.349968  	0.101054 
3325.278784  	0.101379 
3327.207600  	0.101608 
3329.136416  	0.101542 
3331.065232  	0.101521 
3332.994048  	0.101762 
3334.922864  	0.102038 
3336.851680  	0.101837 
3338.780496  	0.101451 
3340.709312  	0.101360 
3342.638128  	0.101130 
3344.566944  	0.100662 
3346.495760  	0.100378 
3348.424576  	0.100034 
3350.353392  	0.099643 
3352.282208  	0.099360 
3354.211024  	0.099168 
3356.139840  	0.098914 
3358.068656  	0.098608 
3359.997472  	0.098240 
3361.926288  	0.097685 
3363.855104  	0.097163 
3365.783920  	0.096595 
3367.712736  	0.096175 
3369.641552  	0.095950 
3371.570368  	0.095440 
3373.499184  	0.094893 
3375.428000  	0.094496 
3377.356816  	0.094109 
3379.285632  	0.093907 
3381.214448  	0.093569 
3383.143264  	0.093092 
3385.072080  	0.092579 
3387.000896  	0.092159 
3388.929712  	0.091857 
3390.858528  	0.091337 
3392.787344  	0.090782 
3394.716160  	0.090363 
3396.644976  	0.089986 
3398.573792  	0.089544 
3400.502608  	0.089095 
3402.431424  	0.088494 
3404.360240  	0.087862 
3406.289056  	0.087192 
3408.217872  	0.086584 
3410.146688  	0.086174 
3412.075504  	0.085807 
3414.004320  	0.085256 
3415.933136  	0.084723 
3417.861952  	0.083908 
3419.790768  	0.083291 
3421.719584  	0.082762 
3423.648400  	0.082214 
3425.577216  	0.081530 
3427.506032  	0.080875 
3429.434848  	0.080289 
3431.363664  	0.079929 
3433.292480  	0.079360 
3435.221296  	0.078576 
3437.150112  	0.077982 
3439.078928  	0.077474 
3441.007744  	0.076689 
3442.936560  	0.076066 
3444.865376  	0.075788 
3446.794192  	0.074919 
3448.723008  	0.073806 
3450.651824  	0.073128 
3452.580640  	0.072540 
3454.509456  	0.072027 
3456.438272  	0.071469 
3458.367088  	0.070847 
3460.295904  	0.070034 
3462.224720  	0.069058 
3464.153536  	0.068201 
3466.082352  	0.067486 
3468.011168  	0.066483 
3469.939984  	0.065539 
3471.868800  	0.064851 
3473.797616  	0.064033 
3475.726432  	0.063205 
3477.655248  	0.062357 
3479.584064  	0.061642 
3481.512880  	0.060795 
3483.441696  	0.059786 
3485.370512  	0.059125 
3487.299328  	0.058143 
3489.228144  	0.057268 
3491.156960  	0.056450 
3493.085776  	0.055587 
3495.014592  	0.054743 
3496.943408  	0.054179 
3498.872224  	0.053605 
3500.801040  	0.053148 
3502.729856  	0.052276 
3504.658672  	0.051074 
3506.587488  	0.050511 
3508.516304  	0.050071 
3510.445120  	0.049126 
3512.373936  	0.048213 
3514.302752  	0.047500 
3516.231568  	0.047048 
3518.160384  	0.046507 
3520.089200  	0.045713 
3522.018016  	0.045356 
3523.946832  	0.045129 
3525.875648  	0.044212 
3527.804464  	0.042813 
3529.733280  	0.041997 
3531.662096  	0.041515 
3533.590912  	0.040948 
3535.519728  	0.040634 
3537.448544  	0.040089 
3539.377360  	0.039059 
3541.306176  	0.038301 
3543.234992  	0.037967 
3545.163808  	0.037978 
3547.092624  	0.037060 
3549.021440  	0.035594 
3550.950256  	0.034888 
3552.879072  	0.034169 
3554.807888  	0.033532 
3556.736704  	0.032978 
3558.665520  	0.032621 
3560.594336  	0.032001 
3562.523152  	0.031096 
3564.451968  	0.030993 
3566.380784  	0.030841 
3568.309600  	0.028957 
3570.238416  	0.027945 
3572.167232  	0.027557 
3574.096048  	0.026661 
3576.024864  	0.025656 
3577.953680  	0.025228 
3579.882496  	0.024657 
3581.811312  	0.023787 
3583.740128  	0.023281 
3585.668944  	0.023322 
3587.597760  	0.021982 
3589.526576  	0.020389 
3591.455392  	0.019806 
3593.384208  	0.019264 
3595.313024  	0.018169 
3597.241840  	0.016887 
3599.170656  	0.015477 
3601.099472  	0.014657 
3603.028288  	0.014593 
3604.957104  	0.014404 
3606.885920  	0.013586 
3608.814736  	0.012122 
3610.743552  	0.011502 
3612.672368  	0.010464 
3614.601184  	0.009193 
3616.530000  	0.008750 
3618.458816  	0.006816 
3620.387632  	0.005070 
3622.316448  	0.005254 
3624.245264  	0.005304 
3626.174080  	0.004952 
3628.102896  	0.002162 
3630.031712  	-0.001085 
3631.960528  	0.000277 
3633.889344  	-0.000201 
3635.818160  	-0.001075 
3637.746976  	-0.001839 
3639.675792  	-0.002256 
3641.604608  	-0.002600 
3643.533424  	-0.003162 
3645.462240  	-0.004078 
3647.391056  	-0.007307 
3649.319872  	-0.011732 
3651.248688  	-0.012671 
3653.177504  	-0.010147 
3655.106320  	-0.010486 
3657.035136  	-0.012762 
3658.963952  	-0.012506 
3660.892768  	-0.012568 
3662.821584  	-0.013019 
3664.750400  	-0.013054 
3666.679216  	-0.013101 
3668.608032  	-0.015291 
3670.536848  	-0.018514 
3672.465664  	-0.016735 
3674.394480  	-0.017735 
3676.323296  	-0.021564 
3678.252112  	-0.018161 
3680.180928  	-0.016326 
3682.109744  	-0.015866 
3684.038560  	-0.015867 
3685.967376  	-0.015783 
3687.896192  	-0.018362 
3689.825008  	-0.021206 
3691.753824  	-0.019728 
3693.682640  	-0.017243 
3695.611456  	-0.016153 
3697.540272  	-0.015343 
3699.469088  	-0.014718 
3701.397904  	-0.015719 
3703.326720  	-0.015503 
3705.255536  	-0.013886 
3707.184352  	-0.013554 
3709.113168  	-0.015038 
3711.041984  	-0.017357 
3712.970800  	-0.016544 
3714.899616  	-0.013673 
3716.828432  	-0.012785 
3718.757248  	-0.013153 
3720.686064  	-0.013723 
3722.614880  	-0.014085 
3724.543696  	-0.013497 
3726.472512  	-0.013680 
3728.401328  	-0.013644 
3730.330144  	-0.014175 
3732.258960  	-0.015799 
3734.187776  	-0.015277 
3736.116592  	-0.015826 
3738.045408  	-0.015403 
3739.974224  	-0.013785 
3741.903040  	-0.012807 
3743.831856  	-0.015213 
3745.760672  	-0.017067 
3747.689488  	-0.015264 
3749.618304  	-0.017658 
3751.547120  	-0.019447 
3753.475936  	-0.017062 
3755.404752  	-0.014584 
3757.333568  	-0.014020 
3759.262384  	-0.014725 
3761.191200  	-0.014546 
3763.120016  	-0.012911 
3765.048832  	-0.013359 
3766.977648  	-0.013515 
3768.906464  	-0.014236 
3770.835280  	-0.014885 
3772.764096  	-0.013459 
3774.692912  	-0.012711 
3776.621728  	-0.012572 
3778.550544  	-0.013806 
3780.479360  	-0.014674 
3782.408176  	-0.013249 
3784.336992  	-0.013438 
3786.265808  	-0.013500 
3788.194624  	-0.013083 
3790.123440  	-0.013010 
3792.052256  	-0.012804 
3793.981072  	-0.012659 
3795.909888  	-0.014081 
3797.838704  	-0.014207 
3799.767520  	-0.014455 
3801.696336  	-0.017948 
3803.625152  	-0.016164 
3805.553968  	-0.014944 
3807.482784  	-0.016137 
3809.411600  	-0.014077 
3811.340416  	-0.012764 
3813.269232  	-0.012585 
3815.198048  	-0.015075 
3817.126864  	-0.016477 
3819.055680  	-0.015171 
3820.984496  	-0.018184 
3822.913312  	-0.016866 
3824.842128  	-0.014064 
3826.770944  	-0.014355 
3828.699760  	-0.013773 
3830.628576  	-0.014049 
3832.557392  	-0.014919 
3834.486208  	-0.014985 
3836.415024  	-0.015988 
3838.343840  	-0.017225 
3840.272656  	-0.016391 
3842.201472  	-0.014999 
3844.130288  	-0.014598 
3846.059104  	-0.013412 
3847.987920  	-0.012589 
3849.916736  	-0.012756 
3851.845552  	-0.015168 
3853.774368  	-0.020246 
3855.703184  	-0.017337 
3857.632000  	-0.014229 
3859.560816  	-0.012977 
3861.489632  	-0.013076 
3863.418448  	-0.013804 
3865.347264  	-0.014156 
3867.276080  	-0.013081 
3869.204896  	-0.014379 
3871.133712  	-0.014840 
3873.062528  	-0.013965 
3874.991344  	-0.014404 
3876.920160  	-0.012703 
3878.848976  	-0.012269 
3880.777792  	-0.013107 
3882.706608  	-0.012425 
3884.635424  	-0.012818 
3886.564240  	-0.014085 
3888.493056  	-0.012916 
3890.421872  	-0.013229 
3892.350688  	-0.014151 
3894.279504  	-0.012939 
3896.208320  	-0.011965 
3898.137136  	-0.012045 
3900.065952  	-0.012515 
3901.994768  	-0.012321 
3903.923584  	-0.013282 
3905.852400  	-0.013686 
3907.781216  	-0.013046 
3909.710032  	-0.012719 
3911.638848  	-0.012607 
3913.567664  	-0.012155 
3915.496480  	-0.011801 
3917.425296  	-0.012249 
3919.354112  	-0.012699 
3921.282928  	-0.012456 
3923.211744  	-0.011880 
3925.140560  	-0.012021 
3927.069376  	-0.012226 
3928.998192  	-0.012140 
3930.927008  	-0.011735 
3932.855824  	-0.011846 
3934.784640  	-0.012284 
3936.713456  	-0.012440 
3938.642272  	-0.012146 
3940.571088  	-0.011619 
3942.499904  	-0.011528 
3944.428720  	-0.011810 
3946.357536  	-0.011647 
3948.286352  	-0.011533 
3950.215168  	-0.012021 
3952.143984  	-0.012535 
3954.072800  	-0.012644 
3956.001616  	-0.012443 
3957.930432  	-0.012397 
3959.859248  	-0.012370 
3961.788064  	-0.012264 
3963.716880  	-0.012470 
3965.645696  	-0.012661 
3967.574512  	-0.012639 
3969.503328  	-0.012406 
3971.432144  	-0.012395 
3973.360960  	-0.012448 
3975.289776  	-0.012437 
3977.218592  	-0.012355 
3979.147408  	-0.012402 
3981.076224  	-0.012508 
3983.005040  	-0.012483 
3984.933856  	-0.012324 
3986.862672  	-0.012318 
3988.791488  	-0.012330 
3990.720304  	-0.012180 
3992.649120  	-0.012181 
3994.577936  	-0.012457 
3996.506752  	-0.012521 
3998.435568  	-0.012562 
4000.364384  	-0.012537 