##TITLE=No Description
##DATA TYPE=INFRARED SPECTRUM
##XUNITS=1/CM
##YUNITS=Abs
399.264912  	0.581324 
401.193728  	0.556682 
403.122544  	0.560736 
405.051360  	0.558995 
406.980176  	0.564726 
408.908992  	0.557475 
410.837808  	0.550935 
412.766624  	0.541032 
414.695440  	0.546787 
416.624256  	0.551941 
418.553072  	0.555952 
420.481888  	0.536389 
422.410704  	0.528031 
424.339520  	0.520473 
426.268336  	0.531242 
428.197152  	0.523986 
430.125968  	0.519800 
432.054784  	0.511216 
433.983600  	0.510441 
435.912416  	0.508022 
437.841232  	0.507504 
439.770048  	0.502234 
441.698864  	0.500817 
443.627680  	0.490255 
445.556496  	0.488883 
447.485312  	0.491931 
449.414128  	0.498394 
451.342944  	0.498128 
453.271760  	0.491539 
455.200576  	0.484331 
457.129392  	0.489189 
459.058208  	0.487284 
460.987024  	0.483132 
462.915840  	0.479143 
464.844656  	0.485382 
466.773472  	0.486035 
468.702288  	0.488100 
470.631104  	0.488841 
472.559920  	0.489238 
474.488736  	0.481186 
476.417552  	0.478857 
478.346368  	0.476575 
480.275184  	0.480348 
482.204000  	0.478799 
484.132816  	0.478916 
486.061632  	0.474651 
487.990448  	0.473908 
489.919264  	0.473238 
491.848080  	0.475623 
493.776896  	0.471933 
495.705712  	0.469096 
497.634528  	0.465665 
499.563344  	0.468944 
501.492160  	0.470749 
503.420976  	0.468400 
505.349792  	0.460813 
507.278608  	0.458554 
509.207424  	0.457742 
511.136240  	0.461136 
513.065056  	0.462118 
514.993872  	0.461487 
516.922688  	0.461638 
518.851504  	0.463911 
520.780320  	0.462452 
522.709136  	0.461257 
524.637952  	0.458020 
526.566768  	0.457240 
528.495584  	0.457268 
530.424400  	0.456007 
532.353216  	0.450353 
534.282032  	0.446334 
536.210848  	0.441360 
538.139664  	0.438152 
540.068480  	0.433286 
541.997296  	0.428622 
543.926112  	0.425191 
545.854928  	0.424060 
547.783744  	0.421613 
549.712560  	0.419495 
551.641376  	0.416633 
553.570192  	0.414534 
555.499008  	0.411612 
557.427824  	0.410419 
559.356640  	0.407055 
561.285456  	0.403836 
563.214272  	0.399856 
565.143088  	0.396757 
567.071904  	0.393221 
569.000720  	0.391043 
570.929536  	0.387784 
572.858352  	0.385237 
574.787168  	0.381467 
576.715984  	0.378958 
578.644800  	0.376958 
580.573616  	0.373967 
582.502432  	0.370250 
584.431248  	0.366495 
586.360064  	0.362199 
588.288880  	0.359501 
590.217696  	0.357119 
592.146512  	0.355707 
594.075328  	0.353943 
596.004144  	0.351698 
597.932960  	0.349501 
599.861776  	0.347982 
601.790592  	0.346554 
603.719408  	0.345152 
605.648224  	0.343409 
607.577040  	0.342215 
609.505856  	0.340262 
611.434672  	0.339650 
613.363488  	0.338065 
615.292304  	0.336927 
617.221120  	0.334370 
619.149936  	0.332397 
621.078752  	0.330626 
623.007568  	0.329527 
624.936384  	0.328393 
626.865200  	0.326792 
628.794016  	0.325325 
630.722832  	0.325173 
632.651648  	0.324505 
634.580464  	0.323445 
636.509280  	0.322700 
638.438096  	0.322155 
640.366912  	0.321598 
642.295728  	0.320262 
644.224544  	0.316919 
646.153360  	0.313811 
648.082176  	0.310382 
650.010992  	0.307927 
651.939808  	0.304367 
653.868624  	0.300942 
655.797440  	0.297367 
657.726256  	0.294523 
659.655072  	0.290820 
661.583888  	0.287771 
663.512704  	0.284504 
665.441520  	0.280873 
667.370336  	0.276245 
669.299152  	0.271998 
671.227968  	0.268749 
673.156784  	0.265618 
675.085600  	0.263307 
677.014416  	0.261496 
678.943232  	0.259297 
680.872048  	0.257766 
682.800864  	0.255447 
684.729680  	0.253532 
686.658496  	0.252155 
688.587312  	0.251355 
690.516128  	0.249019 
692.444944  	0.247419 
694.373760  	0.246673 
696.302576  	0.245295 
698.231392  	0.242792 
700.160208  	0.240520 
702.089024  	0.238279 
704.017840  	0.235861 
705.946656  	0.233456 
707.875472  	0.231349 
709.804288  	0.229438 
711.733104  	0.227751 
713.661920  	0.225791 
715.590736  	0.224610 
717.519552  	0.224423 
719.448368  	0.223838 
721.377184  	0.223506 
723.306000  	0.223828 
725.234816  	0.223558 
727.163632  	0.222366 
729.092448  	0.220306 
731.021264  	0.217828 
732.950080  	0.214845 
734.878896  	0.211947 
736.807712  	0.209109 
738.736528  	0.206892 
740.665344  	0.204866 
742.594160  	0.203266 
744.522976  	0.201901 
746.451792  	0.200907 
748.380608  	0.199579 
750.309424  	0.198288 
752.238240  	0.197243 
754.167056  	0.197001 
756.095872  	0.195986 
758.024688  	0.194441 
759.953504  	0.193790 
761.882320  	0.193678 
763.811136  	0.193613 
765.739952  	0.192229 
767.668768  	0.189855 
769.597584  	0.187706 
771.526400  	0.186658 
773.455216  	0.187344 
775.384032  	0.189459 
777.312848  	0.192855 
779.241664  	0.195404 
781.170480  	0.194811 
783.099296  	0.191084 
785.028112  	0.186431 
786.956928  	0.181673 
788.885744  	0.177850 
790.814560  	0.174508 
792.743376  	0.172132 
794.672192  	0.171164 
796.601008  	0.170249 
798.529824  	0.167664 
800.458640  	0.163660 
802.387456  	0.160176 
804.316272  	0.158356 
806.245088  	0.157224 
808.173904  	0.156442 
810.102720  	0.155849 
812.031536  	0.155574 
813.960352  	0.155443 
815.889168  	0.155478 
817.817984  	0.155518 
819.746800  	0.155276 
821.675616  	0.155179 
823.604432  	0.155343 
825.533248  	0.155258 
827.462064  	0.154855 
829.390880  	0.154281 
831.319696  	0.153762 
833.248512  	0.152112 
835.177328  	0.150151 
837.106144  	0.148021 
839.034960  	0.145733 
840.963776  	0.142857 
842.892592  	0.139760 
844.821408  	0.136747 
846.750224  	0.133862 
848.679040  	0.131479 
850.607856  	0.129747 
852.536672  	0.128275 
854.465488  	0.127151 
856.394304  	0.126439 
858.323120  	0.125191 
860.251936  	0.123559 
862.180752  	0.121991 
864.109568  	0.120316 
866.038384  	0.118288 
867.967200  	0.116372 
869.896016  	0.114767 
871.824832  	0.113532 
873.753648  	0.112437 
875.682464  	0.111943 
877.611280  	0.112606 
879.540096  	0.114240 
881.468912  	0.116533 
883.397728  	0.118773 
885.326544  	0.120729 
887.255360  	0.122284 
889.184176  	0.122787 
891.112992  	0.122183 
893.041808  	0.120929 
894.970624  	0.119078 
896.899440  	0.116341 
898.828256  	0.113079 
900.757072  	0.109672 
902.685888  	0.106441 
904.614704  	0.104494 
906.543520  	0.103793 
908.472336  	0.104402 
910.401152  	0.105994 
912.329968  	0.108004 
914.258784  	0.110352 
916.187600  	0.112623 
918.116416  	0.114397 
920.045232  	0.115679 
921.974048  	0.116490 
923.902864  	0.117069 
925.831680  	0.117342 
927.760496  	0.117643 
929.689312  	0.118126 
931.618128  	0.118813 
933.546944  	0.119289 
935.475760  	0.119498 
937.404576  	0.119394 
939.333392  	0.118936 
941.262208  	0.118654 
943.191024  	0.119179 
945.119840  	0.121154 
947.048656  	0.124841 
948.977472  	0.130199 
950.906288  	0.137001 
952.835104  	0.145352 
954.763920  	0.154812 
956.692736  	0.164414 
958.621552  	0.173432 
960.550368  	0.180453 
962.479184  	0.185293 
964.408000  	0.186663 
966.336816  	0.184387 
968.265632  	0.178504 
970.194448  	0.169877 
972.123264  	0.159039 
974.052080  	0.147206 
975.980896  	0.135566 
977.909712  	0.124501 
979.838528  	0.114373 
981.767344  	0.106190 
983.696160  	0.100397 
985.624976  	0.096733 
987.553792  	0.095464 
989.482608  	0.096502 
991.411424  	0.099747 
993.340240  	0.104970 
995.269056  	0.111070 
997.197872  	0.117333 
999.126688  	0.123479 
1001.055504  	0.129748 
1002.984320  	0.136012 
1004.913136  	0.142297 
1006.841952  	0.148136 
1008.770768  	0.153802 
1010.699584  	0.158658 
1012.628400  	0.162499 
1014.557216  	0.165295 
1016.486032  	0.167577 
1018.414848  	0.169065 
1020.343664  	0.169903 
1022.272480  	0.170465 
1024.201296  	0.170939 
1026.130112  	0.170905 
1028.058928  	0.171177 
1029.987744  	0.172343 
1031.916560  	0.174028 
1033.845376  	0.175740 
1035.774192  	0.177770 
1037.703008  	0.180749 
1039.631824  	0.185844 
1041.560640  	0.193709 
1043.489456  	0.205144 
1045.418272  	0.219600 
1047.347088  	0.236087 
1049.275904  	0.251807 
1051.204720  	0.264596 
1053.133536  	0.272563 
1055.062352  	0.276998 
1056.991168  	0.278455 
1058.919984  	0.279360 
1060.848800  	0.279428 
1062.777616  	0.278969 
1064.706432  	0.277285 
1066.635248  	0.274832 
1068.564064  	0.271166 
1070.492880  	0.265837 
1072.421696  	0.259553 
1074.350512  	0.255029 
1076.279328  	0.253357 
1078.208144  	0.255088 
1080.136960  	0.257917 
1082.065776  	0.260596 
1083.994592  	0.260780 
1085.923408  	0.258053 
1087.852224  	0.251877 
1089.781040  	0.244248 
1091.709856  	0.234288 
1093.638672  	0.223063 
1095.567488  	0.210585 
1097.496304  	0.197953 
1099.425120  	0.184853 
1101.353936  	0.172218 
1103.282752  	0.160566 
1105.211568  	0.149761 
1107.140384  	0.139478 
1109.069200  	0.130000 
1110.998016  	0.121199 
1112.926832  	0.113194 
1114.855648  	0.105792 
1116.784464  	0.098797 
1118.713280  	0.092042 
1120.642096  	0.085749 
1122.570912  	0.079839 
1124.499728  	0.074503 
1126.428544  	0.069902 
1128.357360  	0.065771 
1130.286176  	0.062114 
1132.214992  	0.059243 
1134.143808  	0.056927 
1136.072624  	0.054769 
1138.001440  	0.052887 
1139.930256  	0.051328 
1141.859072  	0.050036 
1143.787888  	0.048657 
1145.716704  	0.047472 
1147.645520  	0.046610 
1149.574336  	0.045857 
1151.503152  	0.045454 
1153.431968  	0.045745 
1155.360784  	0.046056 
1157.289600  	0.046406 
1159.218416  	0.046911 
1161.147232  	0.047796 
1163.076048  	0.048752 
1165.004864  	0.049969 
1166.933680  	0.050939 
1168.862496  	0.052082 
1170.791312  	0.053522 
1172.720128  	0.055082 
1174.648944  	0.057029 
1176.577760  	0.059205 
1178.506576  	0.061586 
1180.435392  	0.063970 
1182.364208  	0.066533 
1184.293024  	0.069451 
1186.221840  	0.072597 
1188.150656  	0.076333 
1190.079472  	0.080694 
1192.008288  	0.085891 
1193.937104  	0.091858 
1195.865920  	0.098578 
1197.794736  	0.105963 
1199.723552  	0.113848 
1201.652368  	0.122129 
1203.581184  	0.130343 
1205.510000  	0.138057 
1207.438816  	0.145271 
1209.367632  	0.151915 
1211.296448  	0.157363 
1213.225264  	0.161785 
1215.154080  	0.164624 
1217.082896  	0.166529 
1219.011712  	0.167371 
1220.940528  	0.167522 
1222.869344  	0.166494 
1224.798160  	0.164929 
1226.726976  	0.162545 
1228.655792  	0.159590 
1230.584608  	0.156017 
1232.513424  	0.152086 
1234.442240  	0.147397 
1236.371056  	0.142217 
1238.299872  	0.136527 
1240.228688  	0.130335 
1242.157504  	0.124144 
1244.086320  	0.118081 
1246.015136  	0.111749 
1247.943952  	0.105401 
1249.872768  	0.099378 
1251.801584  	0.093660 
1253.730400  	0.087748 
1255.659216  	0.082301 
1257.588032  	0.077154 
1259.516848  	0.072077 
1261.445664  	0.067311 
1263.374480  	0.063152 
1265.303296  	0.059641 
1267.232112  	0.056765 
1269.160928  	0.054573 
1271.089744  	0.053148 
1273.018560  	0.052668 
1274.947376  	0.052904 
1276.876192  	0.053463 
1278.805008  	0.053813 
1280.733824  	0.053548 
1282.662640  	0.052353 
1284.591456  	0.050691 
1286.520272  	0.049092 
1288.449088  	0.048166 
1290.377904  	0.048215 
1292.306720  	0.048857 
1294.235536  	0.049343 
1296.164352  	0.049000 
1298.093168  	0.047501 
1300.021984  	0.045234 
1301.950800  	0.042727 
1303.879616  	0.040238 
1305.808432  	0.037531 
1307.737248  	0.034755 
1309.666064  	0.032168 
1311.594880  	0.030153 
1313.523696  	0.028634 
1315.452512  	0.027595 
1317.381328  	0.027042 
1319.310144  	0.027114 
1321.238960  	0.027595 
1323.167776  	0.028400 
1325.096592  	0.028947 
1327.025408  	0.029264 
1328.954224  	0.029153 
1330.883040  	0.028487 
1332.811856  	0.027413 
1334.740672  	0.026350 
1336.669488  	0.025552 
1338.598304  	0.025337 
1340.527120  	0.024958 
1342.455936  	0.024365 
1344.384752  	0.024148 
1346.313568  	0.024456 
1348.242384  	0.025191 
1350.171200  	0.026427 
1352.100016  	0.027944 
1354.028832  	0.029725 
1355.957648  	0.031625 
1357.886464  	0.033303 
1359.815280  	0.035110 
1361.744096  	0.037270 
1363.672912  	0.039514 
1365.601728  	0.041136 
1367.530544  	0.042586 
1369.459360  	0.044022 
1371.388176  	0.044546 
1373.316992  	0.044002 
1375.245808  	0.042630 
1377.174624  	0.040839 
1379.103440  	0.038681 
1381.032256  	0.036382 
1382.961072  	0.034349 
1384.889888  	0.032722 
1386.818704  	0.031377 
1388.747520  	0.029883 
1390.676336  	0.028102 
1392.605152  	0.026008 
1394.533968  	0.024438 
1396.462784  	0.024581 
1398.391600  	0.024550 
1400.320416  	0.024887 
1402.249232  	0.025208 
1404.178048  	0.025809 
1406.106864  	0.026783 
1408.035680  	0.027976 
1409.964496  	0.029414 
1411.893312  	0.031290 
1413.822128  	0.032999 
1415.750944  	0.034692 
1417.679760  	0.035784 
1419.608576  	0.036628 
1421.537392  	0.036821 
1423.466208  	0.036223 
1425.395024  	0.035169 
1427.323840  	0.033469 
1429.252656  	0.031085 
1431.181472  	0.029679 
1433.110288  	0.029242 
1435.039104  	0.028851 
1436.967920  	0.029751 
1438.896736  	0.031186 
1440.825552  	0.031748 
1442.754368  	0.032194 
1444.683184  	0.032169 
1446.612000  	0.031875 
1448.540816  	0.031909 
1450.469632  	0.032164 
1452.398448  	0.032134 
1454.327264  	0.031847 
1456.256080  	0.030718 
1458.184896  	0.031104 
1460.113712  	0.032326 
1462.042528  	0.032472 
1463.971344  	0.031865 
1465.900160  	0.032895 
1467.828976  	0.034273 
1469.757792  	0.035493 
1471.686608  	0.037098 
1473.615424  	0.042657 
1475.544240  	0.047695 
1477.473056  	0.052384 
1479.401872  	0.055271 
1481.330688  	0.058030 
1483.259504  	0.060175 
1485.188320  	0.061227 
1487.117136  	0.061122 
1489.045952  	0.061025 
1490.974768  	0.060037 
1492.903584  	0.058379 
1494.832400  	0.054866 
1496.761216  	0.049690 
1498.690032  	0.044980 
1500.618848  	0.041603 
1502.547664  	0.037867 
1504.476480  	0.033532 
1506.405296  	0.028972 
1508.334112  	0.029346 
1510.262928  	0.028978 
1512.191744  	0.028020 
1514.120560  	0.027341 
1516.049376  	0.026851 
1517.978192  	0.027525 
1519.907008  	0.028302 
1521.835824  	0.031168 
1523.764640  	0.035504 
1525.693456  	0.038774 
1527.622272  	0.041339 
1529.551088  	0.042231 
1531.479904  	0.041305 
1533.408720  	0.038768 
1535.337536  	0.036990 
1537.266352  	0.034214 
1539.195168  	0.028508 
1541.123984  	0.025473 
1543.052800  	0.026992 
1544.981616  	0.027149 
1546.910432  	0.026819 
1548.839248  	0.026126 
1550.768064  	0.025957 
1552.696880  	0.024998 
1554.625696  	0.024560 
1556.554512  	0.023233 
1558.483328  	0.021871 
1560.412144  	0.028565 
1562.340960  	0.031324 
1564.269776  	0.033028 
1566.198592  	0.036282 
1568.127408  	0.037931 
1570.056224  	0.042424 
1571.985040  	0.047071 
1573.913856  	0.048813 
1575.842672  	0.049783 
1577.771488  	0.053234 
1579.700304  	0.053562 
1581.629120  	0.052937 
1583.557936  	0.052202 
1585.486752  	0.052359 
1587.415568  	0.053597 
1589.344384  	0.056524 
1591.273200  	0.060497 
1593.202016  	0.065535 
1595.130832  	0.071154 
1597.059648  	0.077400 
1598.988464  	0.082533 
1600.917280  	0.086989 
1602.846096  	0.090051 
1604.774912  	0.092401 
1606.703728  	0.092608 
1608.632544  	0.092090 
1610.561360  	0.090677 
1612.490176  	0.089251 
1614.418992  	0.086467 
1616.347808  	0.085378 
1618.276624  	0.088126 
1620.205440  	0.090077 
1622.134256  	0.091254 
1624.063072  	0.097078 
1625.991888  	0.101971 
1627.920704  	0.108382 
1629.849520  	0.116425 
1631.778336  	0.122481 
1633.707152  	0.125921 
1635.635968  	0.133617 
1637.564784  	0.144787 
1639.493600  	0.150157 
1641.422416  	0.154092 
1643.351232  	0.156676 
1645.280048  	0.156500 
1647.208864  	0.159741 
1649.137680  	0.162242 
1651.066496  	0.159707 
1652.995312  	0.157179 
1654.924128  	0.161798 
1656.852944  	0.160204 
1658.781760  	0.158228 
1660.710576  	0.155071 
1662.639392  	0.151985 
1664.568208  	0.149506 
1666.497024  	0.145766 
1668.425840  	0.140427 
1670.354656  	0.136242 
1672.283472  	0.133208 
1674.212288  	0.129554 
1676.141104  	0.127253 
1678.069920  	0.125476 
1679.998736  	0.123407 
1681.927552  	0.121049 
1683.856368  	0.118347 
1685.785184  	0.121403 
1687.714000  	0.121634 
1689.642816  	0.121577 
1691.571632  	0.121148 
1693.500448  	0.119574 
1695.429264  	0.116939 
1697.358080  	0.116298 
1699.286896  	0.114063 
1701.215712  	0.114529 
1703.144528  	0.113333 
1705.073344  	0.110337 
1707.002160  	0.107566 
1708.930976  	0.104840 
1710.859792  	0.100221 
1712.788608  	0.094375 
1714.717424  	0.086479 
1716.646240  	0.077189 
1718.575056  	0.067154 
1720.503872  	0.060167 
1722.432688  	0.052901 
1724.361504  	0.044262 
1726.290320  	0.037084 
1728.219136  	0.030665 
1730.147952  	0.024625 
1732.076768  	0.019383 
1734.005584  	0.014574 
1735.934400  	0.011823 
1737.863216  	0.010189 
1739.792032  	0.007452 
1741.720848  	0.006221 
1743.649664  	0.005070 
1745.578480  	0.003842 
1747.507296  	0.002179 
1749.436112  	0.001333 
1751.364928  	0.001062 
1753.293744  	0.000996 
1755.222560  	0.000370 
1757.151376  	0.000089 
1759.080192  	-0.000344 
1761.009008  	-0.000935 
1762.937824  	-0.001303 
1764.866640  	-0.001207 
1766.795456  	-0.001728 
1768.724272  	-0.002060 
1770.653088  	-0.003841 
1772.581904  	-0.004721 
1774.510720  	-0.003457 
1776.439536  	-0.002661 
1778.368352  	-0.002710 
1780.297168  	-0.003041 
1782.225984  	-0.003240 
1784.154800  	-0.003041 
1786.083616  	-0.003156 
1788.012432  	-0.003209 
1789.941248  	-0.003740 
1791.870064  	-0.004490 
1793.798880  	-0.004586 
1795.727696  	-0.003941 
1797.656512  	-0.004439 
1799.585328  	-0.004887 
1801.514144  	-0.004549 
1803.442960  	-0.004445 
1805.371776  	-0.004810 
1807.300592  	-0.004635 
1809.229408  	-0.004959 
1811.158224  	-0.005054 
1813.087040  	-0.005068 
1815.015856  	-0.004938 
1816.944672  	-0.005003 
1818.873488  	-0.004883 
1820.802304  	-0.005074 
1822.731120  	-0.005116 
1824.659936  	-0.005456 
1826.588752  	-0.005384 
1828.517568  	-0.006078 
1830.446384  	-0.006019 
1832.375200  	-0.005319 
1834.304016  	-0.004918 
1836.232832  	-0.005098 
1838.161648  	-0.005235 
1840.090464  	-0.005420 
1842.019280  	-0.005387 
1843.948096  	-0.005804 
1845.876912  	-0.005488 
1847.805728  	-0.005245 
1849.734544  	-0.005265 
1851.663360  	-0.005671 
1853.592176  	-0.005574 
1855.520992  	-0.005695 
1857.449808  	-0.005422 
1859.378624  	-0.005266 
1861.307440  	-0.005242 
1863.236256  	-0.005619 
1865.165072  	-0.005950 
1867.093888  	-0.006689 
1869.022704  	-0.006725 
1870.951520  	-0.006275 
1872.880336  	-0.005909 
1874.809152  	-0.006033 
1876.737968  	-0.005780 
1878.666784  	-0.005790 
1880.595600  	-0.005546 
1882.524416  	-0.005756 
1884.453232  	-0.005870 
1886.382048  	-0.006048 
1888.310864  	-0.005949 
1890.239680  	-0.005811 
1892.168496  	-0.005697 
1894.097312  	-0.006294 
1896.026128  	-0.006081 
1897.954944  	-0.005737 
1899.883760  	-0.005641 
1901.812576  	-0.005967 
1903.741392  	-0.005693 
1905.670208  	-0.005668 
1907.599024  	-0.005577 
1909.527840  	-0.005548 
1911.456656  	-0.005183 
1913.385472  	-0.005294 
1915.314288  	-0.005731 
1917.243104  	-0.006247 
1919.171920  	-0.005914 
1921.100736  	-0.005843 
1923.029552  	-0.005431 
1924.958368  	-0.005972 
1926.887184  	-0.006084 
1928.816000  	-0.005764 
1930.744816  	-0.005551 
1932.673632  	-0.005735 
1934.602448  	-0.005760 
1936.531264  	-0.006220 
1938.460080  	-0.006406 
1940.388896  	-0.006236 
1942.317712  	-0.005635 
1944.246528  	-0.006014 
1946.175344  	-0.006156 
1948.104160  	-0.006138 
1950.032976  	-0.006248 
1951.961792  	-0.006436 
1953.890608  	-0.005511 
1955.819424  	-0.005738 
1957.748240  	-0.006455 
1959.677056  	-0.007321 
1961.605872  	-0.006530 
1963.534688  	-0.006421 
1965.463504  	-0.006121 
1967.392320  	-0.007378 
1969.321136  	-0.007299 
1971.249952  	-0.006710 
1973.178768  	-0.006754 
1975.107584  	-0.007016 
1977.036400  	-0.005272 
1978.965216  	-0.003812 
1980.894032  	-0.004444 
1982.822848  	-0.005432 
1984.751664  	-0.005147 
1986.680480  	-0.005362 
1988.609296  	-0.005058 
1990.538112  	-0.005695 
1992.466928  	-0.005795 
1994.395744  	-0.006513 
1996.324560  	-0.006181 
1998.253376  	-0.005958 
2000.182192  	-0.005690 
2002.111008  	-0.006009 
2004.039824  	-0.005981 
2005.968640  	-0.006343 
2007.897456  	-0.005839 
2009.826272  	-0.005334 
2011.755088  	-0.005812 
2013.683904  	-0.006319 
2015.612720  	-0.005404 
2017.541536  	-0.005018 
2019.470352  	-0.003838 
2021.399168  	-0.004229 
2023.327984  	-0.003191 
2025.256800  	-0.003876 
2027.185616  	-0.004855 
2029.114432  	-0.004731 
2031.043248  	-0.004099 
2032.972064  	-0.003639 
2034.900880  	-0.003055 
2036.829696  	-0.002960 
2038.758512  	-0.002934 
2040.687328  	-0.003997 
2042.616144  	-0.003377 
2044.544960  	-0.003639 
2046.473776  	-0.004192 
2048.402592  	-0.004307 
2050.331408  	-0.004119 
2052.260224  	-0.004975 
2054.189040  	-0.005307 
2056.117856  	-0.005040 
2058.046672  	-0.004522 
2059.975488  	-0.004888 
2061.904304  	-0.004928 
2063.833120  	-0.005302 
2065.761936  	-0.004803 
2067.690752  	-0.004105 
2069.619568  	-0.004069 
2071.548384  	-0.004603 
2073.477200  	-0.004233 
2075.406016  	-0.004187 
2077.334832  	-0.003930 
2079.263648  	-0.003705 
2081.192464  	-0.003742 
2083.121280  	-0.004141 
2085.050096  	-0.004155 
2086.978912  	-0.004264 
2088.907728  	-0.004048 
2090.836544  	-0.004301 
2092.765360  	-0.004443 
2094.694176  	-0.004589 
2096.622992  	-0.004532 
2098.551808  	-0.004088 
2100.480624  	-0.003722 
2102.409440  	-0.003954 
2104.338256  	-0.003776 
2106.267072  	-0.003435 
2108.195888  	-0.003298 
2110.124704  	-0.003773 
2112.053520  	-0.003851 
2113.982336  	-0.003810 
2115.911152  	-0.003521 
2117.839968  	-0.003578 
2119.768784  	-0.004039 
2121.697600  	-0.004842 
2123.626416  	-0.004449 
2125.555232  	-0.004741 
2127.484048  	-0.004957 
2129.412864  	-0.004724 
2131.341680  	-0.004560 
2133.270496  	-0.005193 
2135.199312  	-0.004667 
2137.128128  	-0.004161 
2139.056944  	-0.004064 
2140.985760  	-0.004102 
2142.914576  	-0.003779 
2144.843392  	-0.003582 
2146.772208  	-0.003661 
2148.701024  	-0.003484 
2150.629840  	-0.002556 
2152.558656  	-0.003465 
2154.487472  	-0.003838 
2156.416288  	-0.002917 
2158.345104  	0.000898 
2160.273920  	0.002406 
2162.202736  	0.001111 
2164.131552  	0.000104 
2166.060368  	0.000145 
2167.989184  	-0.000385 
2169.918000  	-0.000254 
2171.846816  	-0.000494 
2173.775632  	-0.001802 
2175.704448  	-0.002798 
2177.633264  	-0.002942 
2179.562080  	-0.003641 
2181.490896  	-0.003456 
2183.419712  	-0.002932 
2185.348528  	-0.002836 
2187.277344  	-0.002324 
2189.206160  	-0.001203 
2191.134976  	-0.001498 
2193.063792  	-0.001307 
2194.992608  	-0.002035 
2196.921424  	-0.002434 
2198.850240  	-0.002226 
2200.779056  	-0.002128 
2202.707872  	-0.002889 
2204.636688  	-0.002780 
2206.565504  	-0.002218 
2208.494320  	-0.001955 
2210.423136  	-0.002458 
2212.351952  	-0.002714 
2214.280768  	-0.002762 
2216.209584  	-0.002482 
2218.138400  	-0.002441 
2220.067216  	-0.002404 
2221.996032  	-0.002878 
2223.924848  	-0.003008 
2225.853664  	-0.003375 
2227.782480  	-0.003522 
2229.711296  	-0.003248 
2231.640112  	-0.003569 
2233.568928  	-0.003887 
2235.497744  	-0.003458 
2237.426560  	-0.003678 
2239.355376  	-0.003774 
2241.284192  	-0.003894 
2243.213008  	-0.003789 
2245.141824  	-0.004116 
2247.070640  	-0.003447 
2248.999456  	-0.003859 
2250.928272  	-0.004194 
2252.857088  	-0.004295 
2254.785904  	-0.003874 
2256.714720  	-0.003598 
2258.643536  	-0.003681 
2260.572352  	-0.003924 
2262.501168  	-0.003846 
2264.429984  	-0.004001 
2266.358800  	-0.004249 
2268.287616  	-0.004190 
2270.216432  	-0.003882 
2272.145248  	-0.003862 
2274.074064  	-0.003750 
2276.002880  	-0.003770 
2277.931696  	-0.003734 
2279.860512  	-0.003437 
2281.789328  	-0.002982 
2283.718144  	-0.002818 
2285.646960  	-0.003018 
2287.575776  	-0.003155 
2289.504592  	-0.002841 
2291.433408  	-0.002840 
2293.362224  	-0.002776 
2295.291040  	-0.002533 
2297.219856  	-0.002475 
2299.148672  	-0.002278 
2301.077488  	-0.001908 
2303.006304  	-0.001884 
2304.935120  	-0.002092 
2306.863936  	-0.002152 
2308.792752  	-0.001899 
2310.721568  	-0.001904 
2312.650384  	-0.002270 
2314.579200  	-0.002808 
2316.508016  	-0.002984 
2318.436832  	-0.003036 
2320.365648  	-0.003229 
2322.294464  	-0.003672 
2324.223280  	-0.004266 
2326.152096  	-0.005762 
2328.080912  	-0.006655 
2330.009728  	-0.006768 
2331.938544  	-0.007201 
2333.867360  	-0.008438 
2335.796176  	-0.009185 
2337.724992  	-0.009182 
2339.653808  	-0.009139 
2341.582624  	-0.009364 
2343.511440  	-0.008657 
2345.440256  	-0.007333 
2347.369072  	-0.005772 
2349.297888  	-0.005268 
2351.226704  	-0.006421 
2353.155520  	-0.008199 
2355.084336  	-0.009326 
2357.013152  	-0.010349 
2358.941968  	-0.010921 
2360.870784  	-0.010707 
2362.799600  	-0.010331 
2364.728416  	-0.009817 
2366.657232  	-0.008761 
2368.586048  	-0.007760 
2370.514864  	-0.006159 
2372.443680  	-0.004775 
2374.372496  	-0.003958 
2376.301312  	-0.003104 
2378.230128  	-0.002303 
2380.158944  	-0.001930 
2382.087760  	-0.002044 
2384.016576  	-0.002503 
2385.945392  	-0.002765 
2387.874208  	-0.002936 
2389.803024  	-0.002923 
2391.731840  	-0.002953 
2393.660656  	-0.003036 
2395.589472  	-0.003338 
2397.518288  	-0.003416 
2399.447104  	-0.003224 
2401.375920  	-0.002858 
2403.304736  	-0.002619 
2405.233552  	-0.002724 
2407.162368  	-0.002677 
2409.091184  	-0.002477 
2411.020000  	-0.002416 
2412.948816  	-0.002445 
2414.877632  	-0.002509 
2416.806448  	-0.002587 
2418.735264  	-0.002606 
2420.664080  	-0.002419 
2422.592896  	-0.002268 
2424.521712  	-0.001898 
2426.450528  	-0.001701 
2428.379344  	-0.001490 
2430.308160  	-0.001378 
2432.236976  	-0.001483 
2434.165792  	-0.001561 
2436.094608  	-0.001515 
2438.023424  	-0.001524 
2439.952240  	-0.001413 
2441.881056  	-0.001197 
2443.809872  	-0.001077 
2445.738688  	-0.001081 
2447.667504  	-0.000865 
2449.596320  	-0.000653 
2451.525136  	-0.000568 
2453.453952  	-0.000462 
2455.382768  	-0.000319 
2457.311584  	-0.000270 
2459.240400  	-0.000513 
2461.169216  	-0.000549 
2463.098032  	-0.000259 
2465.026848  	-0.000261 
2466.955664  	-0.000411 
2468.884480  	-0.000253 
2470.813296  	-0.000020 
2472.742112  	-0.000237 
2474.670928  	-0.000318 
2476.599744  	-0.000054 
2478.528560  	0.000337 
2480.457376  	0.000334 
2482.386192  	0.000251 
2484.315008  	0.000148 
2486.243824  	0.000212 
2488.172640  	0.000620 
2490.101456  	0.000917 
2492.030272  	0.000860 
2493.959088  	0.000656 
2495.887904  	0.000750 
2497.816720  	0.001144 
2499.745536  	0.001281 
2501.674352  	0.001422 
2503.603168  	0.001545 
2505.531984  	0.001552 
2507.460800  	0.001481 
2509.389616  	0.001569 
2511.318432  	0.001471 
2513.247248  	0.001535 
2515.176064  	0.001687 
2517.104880  	0.001911 
2519.033696  	0.002341 
2520.962512  	0.002448 
2522.891328  	0.002323 
2524.820144  	0.002393 
2526.748960  	0.002580 
2528.677776  	0.002578 
2530.606592  	0.002568 
2532.535408  	0.002647 
2534.464224  	0.002541 
2536.393040  	0.002442 
2538.321856  	0.002575 
2540.250672  	0.002749 
2542.179488  	0.002764 
2544.108304  	0.003085 
2546.037120  	0.003397 
2547.965936  	0.003453 
2549.894752  	0.003288 
2551.823568  	0.003259 
2553.752384  	0.003180 
2555.681200  	0.003227 
2557.610016  	0.003464 
2559.538832  	0.003666 
2561.467648  	0.003647 
2563.396464  	0.003689 
2565.325280  	0.003771 
2567.254096  	0.004005 
2569.182912  	0.004165 
2571.111728  	0.004335 
2573.040544  	0.004584 
2574.969360  	0.004792 
2576.898176  	0.004910 
2578.826992  	0.004947 
2580.755808  	0.004763 
2582.684624  	0.004814 
2584.613440  	0.004851 
2586.542256  	0.004948 
2588.471072  	0.005111 
2590.399888  	0.005096 
2592.328704  	0.005136 
2594.257520  	0.005375 
2596.186336  	0.005482 
2598.115152  	0.005471 
2600.043968  	0.005500 
2601.972784  	0.005654 
2603.901600  	0.005733 
2605.830416  	0.005888 
2607.759232  	0.006028 
2609.688048  	0.005991 
2611.616864  	0.005986 
2613.545680  	0.006205 
2615.474496  	0.006333 
2617.403312  	0.006373 
2619.332128  	0.006529 
2621.260944  	0.006697 
2623.189760  	0.006790 
2625.118576  	0.006856 
2627.047392  	0.007081 
2628.976208  	0.007192 
2630.905024  	0.007254 
2632.833840  	0.007476 
2634.762656  	0.007625 
2636.691472  	0.007687 
2638.620288  	0.007885 
2640.549104  	0.008120 
2642.477920  	0.008284 
2644.406736  	0.008347 
2646.335552  	0.008416 
2648.264368  	0.008529 
2650.193184  	0.008607 
2652.122000  	0.008822 
2654.050816  	0.009096 
2655.979632  	0.009227 
2657.908448  	0.009315 
2659.837264  	0.009489 
2661.766080  	0.009705 
2663.694896  	0.009776 
2665.623712  	0.009767 
2667.552528  	0.009956 
2669.481344  	0.010247 
2671.410160  	0.010444 
2673.338976  	0.010445 
2675.267792  	0.010501 
2677.196608  	0.010631 
2679.125424  	0.010812 
2681.054240  	0.010974 
2682.983056  	0.011013 
2684.911872  	0.011147 
2686.840688  	0.011342 
2688.769504  	0.011497 
2690.698320  	0.011572 
2692.627136  	0.011708 
2694.555952  	0.011831 
2696.484768  	0.011900 
2698.413584  	0.012039 
2700.342400  	0.012117 
2702.271216  	0.012293 
2704.200032  	0.012504 
2706.128848  	0.012646 
2708.057664  	0.012823 
2709.986480  	0.012906 
2711.915296  	0.013002 
2713.844112  	0.013189 
2715.772928  	0.013323 
2717.701744  	0.013384 
2719.630560  	0.013498 
2721.559376  	0.013731 
2723.488192  	0.013834 
2725.417008  	0.013990 
2727.345824  	0.014229 
2729.274640  	0.014365 
2731.203456  	0.014499 
2733.132272  	0.014702 
2735.061088  	0.014856 
2736.989904  	0.015004 
2738.918720  	0.015113 
2740.847536  	0.015140 
2742.776352  	0.015260 
2744.705168  	0.015443 
2746.633984  	0.015557 
2748.562800  	0.015664 
2750.491616  	0.015768 
2752.420432  	0.015907 
2754.349248  	0.015936 
2756.278064  	0.015932 
2758.206880  	0.015967 
2760.135696  	0.016021 
2762.064512  	0.016053 
2763.993328  	0.016193 
2765.922144  	0.016266 
2767.850960  	0.016311 
2769.779776  	0.016403 
2771.708592  	0.016465 
2773.637408  	0.016446 
2775.566224  	0.016382 
2777.495040  	0.016448 
2779.423856  	0.016446 
2781.352672  	0.016376 
2783.281488  	0.016467 
2785.210304  	0.016610 
2787.139120  	0.016667 
2789.067936  	0.016710 
2790.996752  	0.016731 
2792.925568  	0.016695 
2794.854384  	0.016658 
2796.783200  	0.016566 
2798.712016  	0.016659 
2800.640832  	0.016869 
2802.569648  	0.016965 
2804.498464  	0.017023 
2806.427280  	0.017011 
2808.356096  	0.017009 
2810.284912  	0.017192 
2812.213728  	0.017132 
2814.142544  	0.017167 
2816.071360  	0.017243 
2818.000176  	0.017269 
2819.928992  	0.017253 
2821.857808  	0.017297 
2823.786624  	0.017372 
2825.715440  	0.017418 
2827.644256  	0.017354 
2829.573072  	0.017278 
2831.501888  	0.017265 
2833.430704  	0.017174 
2835.359520  	0.016978 
2837.288336  	0.017053 
2839.217152  	0.017151 
2841.145968  	0.017060 
2843.074784  	0.016946 
2845.003600  	0.016904 
2846.932416  	0.016962 
2848.861232  	0.017039 
2850.790048  	0.017065 
2852.718864  	0.017128 
2854.647680  	0.017109 
2856.576496  	0.017103 
2858.505312  	0.017279 
2860.434128  	0.017341 
2862.362944  	0.017406 
2864.291760  	0.017430 
2866.220576  	0.017489 
2868.149392  	0.017614 
2870.078208  	0.017664 
2872.007024  	0.017894 
2873.935840  	0.018221 
2875.864656  	0.018536 
2877.793472  	0.018784 
2879.722288  	0.019180 
2881.651104  	0.019531 
2883.579920  	0.019657 
2885.508736  	0.019798 
2887.437552  	0.020046 
2889.366368  	0.020028 
2891.295184  	0.019880 
2893.224000  	0.019775 
2895.152816  	0.019774 
2897.081632  	0.019540 
2899.010448  	0.018998 
2900.939264  	0.018686 
2902.868080  	0.018830 
2904.796896  	0.018969 
2906.725712  	0.019067 
2908.654528  	0.019147 
2910.583344  	0.019345 
2912.512160  	0.019800 
2914.440976  	0.020343 
2916.369792  	0.020809 
2918.298608  	0.021135 
2920.227424  	0.021520 
2922.156240  	0.022057 
2924.085056  	0.022581 
2926.013872  	0.023147 
2927.942688  	0.023731 
2929.871504  	0.024304 
2931.800320  	0.024667 
2933.729136  	0.025250 
2935.657952  	0.025881 
2937.586768  	0.026298 
2939.515584  	0.026668 
2941.444400  	0.026986 
2943.373216  	0.027226 
2945.302032  	0.027267 
2947.230848  	0.027293 
2949.159664  	0.027319 
2951.088480  	0.027104 
2953.017296  	0.026781 
2954.946112  	0.026379 
2956.874928  	0.025969 
2958.803744  	0.025545 
2960.732560  	0.025149 
2962.661376  	0.024611 
2964.590192  	0.024162 
2966.519008  	0.023539 
2968.447824  	0.022690 
2970.376640  	0.021903 
2972.305456  	0.021312 
2974.234272  	0.020803 
2976.163088  	0.020223 
2978.091904  	0.019643 
2980.020720  	0.019332 
2981.949536  	0.019325 
2983.878352  	0.019315 
2985.807168  	0.019190 
2987.735984  	0.019224 
2989.664800  	0.019617 
2991.593616  	0.020439 
2993.522432  	0.021028 
2995.451248  	0.021328 
2997.380064  	0.021794 
2999.308880  	0.022342 
3001.237696  	0.022846 
3003.166512  	0.023205 
3005.095328  	0.023370 
3007.024144  	0.023582 
3008.952960  	0.024052 
3010.881776  	0.024581 
3012.810592  	0.024951 
3014.739408  	0.025235 
3016.668224  	0.025494 
3018.597040  	0.025771 
3020.525856  	0.026200 
3022.454672  	0.026554 
3024.383488  	0.026748 
3026.312304  	0.027003 
3028.241120  	0.027151 
3030.169936  	0.027368 
3032.098752  	0.027712 
3034.027568  	0.028090 
3035.956384  	0.028403 
3037.885200  	0.028620 
3039.814016  	0.028785 
3041.742832  	0.029027 
3043.671648  	0.029523 
3045.600464  	0.030000 
3047.529280  	0.030110 
3049.458096  	0.030284 
3051.386912  	0.030634 
3053.315728  	0.030797 
3055.244544  	0.030967 
3057.173360  	0.031575 
3059.102176  	0.032097 
3061.030992  	0.032437 
3062.959808  	0.032692 
3064.888624  	0.033153 
3066.817440  	0.033777 
3068.746256  	0.034235 
3070.675072  	0.034456 
3072.603888  	0.034883 
3074.532704  	0.035311 
3076.461520  	0.035648 
3078.390336  	0.036044 
3080.319152  	0.036502 
3082.247968  	0.037001 
3084.176784  	0.037357 
3086.105600  	0.037724 
3088.034416  	0.038245 
3089.963232  	0.038841 
3091.892048  	0.039235 
3093.820864  	0.039521 
3095.749680  	0.039906 
3097.678496  	0.040334 
3099.607312  	0.040992 
3101.536128  	0.041536 
3103.464944  	0.041702 
3105.393760  	0.042067 
3107.322576  	0.042553 
3109.251392  	0.042999 
3111.180208  	0.043392 
3113.109024  	0.043556 
3115.037840  	0.043590 
3116.966656  	0.043830 
3118.895472  	0.044240 
3120.824288  	0.044431 
3122.753104  	0.044684 
3124.681920  	0.044990 
3126.610736  	0.045196 
3128.539552  	0.045571 
3130.468368  	0.045729 
3132.397184  	0.045815 
3134.326000  	0.046135 
3136.254816  	0.046382 
3138.183632  	0.046455 
3140.112448  	0.046729 
3142.041264  	0.047063 
3143.970080  	0.047189 
3145.898896  	0.047477 
3147.827712  	0.047869 
3149.756528  	0.048222 
3151.685344  	0.048484 
3153.614160  	0.048748 
3155.542976  	0.049026 
3157.471792  	0.049330 
3159.400608  	0.049536 
3161.329424  	0.049762 
3163.258240  	0.050114 
3165.187056  	0.050487 
3167.115872  	0.050649 
3169.044688  	0.050957 
3170.973504  	0.051313 
3172.902320  	0.051365 
3174.831136  	0.051330 
3176.759952  	0.051332 
3178.688768  	0.051521 
3180.617584  	0.051939 
3182.546400  	0.052018 
3184.475216  	0.051792 
3186.404032  	0.051780 
3188.332848  	0.051738 
3190.261664  	0.051600 
3192.190480  	0.051585 
3194.119296  	0.051436 
3196.048112  	0.051231 
3197.976928  	0.051056 
3199.905744  	0.050973 
3201.834560  	0.050705 
3203.763376  	0.050531 
3205.692192  	0.050222 
3207.621008  	0.049661 
3209.549824  	0.049331 
3211.478640  	0.049318 
3213.407456  	0.049199 
3215.336272  	0.049004 
3217.265088  	0.048515 
3219.193904  	0.048124 
3221.122720  	0.048070 
3223.051536  	0.047966 
3224.980352  	0.047723 
3226.909168  	0.047202 
3228.837984  	0.046787 
3230.766800  	0.046748 
3232.695616  	0.046461 
3234.624432  	0.045944 
3236.553248  	0.045750 
3238.482064  	0.045663 
3240.410880  	0.045891 
3242.339696  	0.045840 
3244.268512  	0.045627 
3246.197328  	0.045804 
3248.126144  	0.045744 
3250.054960  	0.045735 
3251.983776  	0.045759 
3253.912592  	0.045942 
3255.841408  	0.046169 
3257.770224  	0.046501 
3259.699040  	0.046720 
3261.627856  	0.046752 
3263.556672  	0.046692 
3265.485488  	0.046989 
3267.414304  	0.047231 
3269.343120  	0.047366 
3271.271936  	0.047520 
3273.200752  	0.047691 
3275.129568  	0.047947 
3277.058384  	0.048041 
3278.987200  	0.048129 
3280.916016  	0.048191 
3282.844832  	0.048123 
3284.773648  	0.048194 
3286.702464  	0.048340 
3288.631280  	0.048575 
3290.560096  	0.048788 
3292.488912  	0.049132 
3294.417728  	0.049398 
3296.346544  	0.049615 
3298.275360  	0.050077 
3300.204176  	0.050274 
3302.132992  	0.050708 
3304.061808  	0.050940 
3305.990624  	0.050943 
3307.919440  	0.051177 
3309.848256  	0.051692 
3311.777072  	0.052168 
3313.705888  	0.052468 
3315.634704  	0.052520 
3317.563520  	0.052736 
3319.492336  	0.053038 
3321.421152  	0.053193 
3323.349968  	0.053325 
3325.278784  	0.053573 
3327.207600  	0.053953 
3329.136416  	0.054144 
3331.065232  	0.054199 
3332.994048  	0.054337 
3334.922864  	0.054448 
3336.851680  	0.054682 
3338.780496  	0.054594 
3340.709312  	0.054378 
3342.638128  	0.054292 
3344.566944  	0.054147 
3346.495760  	0.053895 
3348.424576  	0.053594 
3350.353392  	0.053470 
3352.282208  	0.053311 
3354.211024  	0.053037 
3356.139840  	0.052743 
3358.068656  	0.052531 
3359.997472  	0.052389 
3361.926288  	0.052168 
3363.855104  	0.051711 
3365.783920  	0.051756 
3367.712736  	0.051446 
3369.641552  	0.050918 
3371.570368  	0.050656 
3373.499184  	0.050331 
3375.428000  	0.050049 
3377.356816  	0.049914 
3379.285632  	0.049865 
3381.214448  	0.049778 
3383.143264  	0.049422 
3385.072080  	0.049189 
3387.000896  	0.049024 
3388.929712  	0.048806 
3390.858528  	0.048216 
3392.787344  	0.047895 
3394.716160  	0.047852 
3396.644976  	0.047745 
3398.573792  	0.047611 
3400.502608  	0.047226 
3402.431424  	0.046982 
3404.360240  	0.046801 
3406.289056  	0.046396 
3408.217872  	0.046099 
3410.146688  	0.045973 
3412.075504  	0.045703 
3414.004320  	0.045416 
3415.933136  	0.045124 
3417.861952  	0.044530 
3419.790768  	0.044103 
3421.719584  	0.044084 
3423.648400  	0.043784 
3425.577216  	0.043360 
3427.506032  	0.043071 
3429.434848  	0.042744 
3431.363664  	0.042494 
3433.292480  	0.042151 
3435.221296  	0.041649 
3437.150112  	0.041302 
3439.078928  	0.041013 
3441.007744  	0.040611 
3442.936560  	0.040325 
3444.865376  	0.039854 
3446.794192  	0.039789 
3448.723008  	0.039994 
3450.651824  	0.039098 
3452.580640  	0.038273 
3454.509456  	0.037840 
3456.438272  	0.037335 
3458.367088  	0.036649 
3460.295904  	0.036228 
3462.224720  	0.036196 
3464.153536  	0.035783 
3466.082352  	0.035027 
3468.011168  	0.034343 
3469.939984  	0.033678 
3471.868800  	0.032908 
3473.797616  	0.032202 
3475.726432  	0.031883 
3477.655248  	0.031361 
3479.584064  	0.030718 
3481.512880  	0.030288 
3483.441696  	0.029942 
3485.370512  	0.029050 
3487.299328  	0.028332 
3489.228144  	0.027948 
3491.156960  	0.027295 
3493.085776  	0.026490 
3495.014592  	0.025765 
3496.943408  	0.025577 
3498.872224  	0.025243 
3500.801040  	0.024323 
3502.729856  	0.023931 
3504.658672  	0.023955 
3506.587488  	0.023246 
3508.516304  	0.022458 
3510.445120  	0.022376 
3512.373936  	0.021844 
3514.302752  	0.021314 
3516.231568  	0.020760 
3518.160384  	0.020178 
3520.089200  	0.019538 
3522.018016  	0.018841 
3523.946832  	0.018809 
3525.875648  	0.018260 
3527.804464  	0.017682 
3529.733280  	0.017756 
3531.662096  	0.017477 
3533.590912  	0.016621 
3535.519728  	0.016310 
3537.448544  	0.016516 
3539.377360  	0.015861 
3541.306176  	0.015080 
3543.234992  	0.014334 
3545.163808  	0.014557 
3547.092624  	0.014914 
3549.021440  	0.014055 
3550.950256  	0.012819 
3552.879072  	0.012818 
3554.807888  	0.012711 
3556.736704  	0.011891 
3558.665520  	0.011332 
3560.594336  	0.010951 
3562.523152  	0.010156 
3564.451968  	0.008680 
3566.380784  	0.008597 
3568.309600  	0.010413 
3570.238416  	0.009669 
3572.167232  	0.008221 
3574.096048  	0.007373 
3576.024864  	0.006735 
3577.953680  	0.006373 
3579.882496  	0.006211 
3581.811312  	0.005860 
3583.740128  	0.004454 
3585.668944  	0.003310 
3587.597760  	0.004494 
3589.526576  	0.004905 
3591.455392  	0.003016 
3593.384208  	0.001952 
3595.313024  	0.001992 
3597.241840  	0.001315 
3599.170656  	-0.000045 
3601.099472  	-0.000097 
3603.028288  	-0.000223 
3604.957104  	-0.001454 
3606.885920  	-0.002405 
3608.814736  	-0.002321 
3610.743552  	-0.003284 
3612.672368  	-0.004272 
3614.601184  	-0.004455 
3616.530000  	-0.006165 
3618.458816  	-0.007012 
3620.387632  	-0.005760 
3622.316448  	-0.005813 
3624.245264  	-0.007139 
3626.174080  	-0.009710 
3628.102896  	-0.011202 
3630.031712  	-0.008514 
3631.960528  	-0.009252 
3633.889344  	-0.009997 
3635.818160  	-0.010146 
3637.746976  	-0.010988 
3639.675792  	-0.011498 
3641.604608  	-0.012015 
3643.533424  	-0.012629 
3645.462240  	-0.014723 
3647.391056  	-0.016868 
3649.319872  	-0.016555 
3651.248688  	-0.014200 
3653.177504  	-0.014585 
3655.106320  	-0.015878 
3657.035136  	-0.015419 
3658.963952  	-0.015299 
3660.892768  	-0.015554 
3662.821584  	-0.015951 
3664.750400  	-0.016338 
3666.679216  	-0.017518 
3668.608032  	-0.019291 
3670.536848  	-0.018155 
3672.465664  	-0.018280 
3674.394480  	-0.020334 
3676.323296  	-0.017851 
3678.252112  	-0.017198 
3680.180928  	-0.017229 
3682.109744  	-0.017049 
3684.038560  	-0.017387 
3685.967376  	-0.018596 
3687.896192  	-0.020045 
3689.825008  	-0.019734 
3691.753824  	-0.018159 
3693.682640  	-0.017240 
3695.611456  	-0.017080 
3697.540272  	-0.016982 
3699.469088  	-0.017554 
3701.397904  	-0.017628 
3703.326720  	-0.017020 
3705.255536  	-0.017179 
3707.184352  	-0.018140 
3709.113168  	-0.019512 
3711.041984  	-0.019372 
3712.970800  	-0.016910 
3714.899616  	-0.016251 
3716.828432  	-0.016944 
3718.757248  	-0.017252 
3720.686064  	-0.017821 
3722.614880  	-0.018117 
3724.543696  	-0.017651 
3726.472512  	-0.017126 
3728.401328  	-0.017140 
3730.330144  	-0.018792 
3732.258960  	-0.019835 
3734.187776  	-0.019389 
3736.116592  	-0.017805 
3738.045408  	-0.017113 
3739.974224  	-0.017433 
3741.903040  	-0.018562 
3743.831856  	-0.019066 
3745.760672  	-0.017741 
3747.689488  	-0.019610 
3749.618304  	-0.020983 
3751.547120  	-0.018963 
3753.475936  	-0.016795 
3755.404752  	-0.017212 
3757.333568  	-0.017592 
3759.262384  	-0.017450 
3761.191200  	-0.016631 
3763.120016  	-0.016739 
3765.048832  	-0.016749 
3766.977648  	-0.016625 
3768.906464  	-0.017205 
3770.835280  	-0.016456 
3772.764096  	-0.015962 
3774.692912  	-0.016082 
3776.621728  	-0.016692 
3778.550544  	-0.017315 
3780.479360  	-0.016635 
3782.408176  	-0.016595 
3784.336992  	-0.016621 
3786.265808  	-0.016105 
3788.194624  	-0.015935 
3790.123440  	-0.016146 
3792.052256  	-0.016366 
3793.981072  	-0.016999 
3795.909888  	-0.017774 
3797.838704  	-0.017748 
3799.767520  	-0.018772 
3801.696336  	-0.018762 
3803.625152  	-0.017612 
3805.553968  	-0.018317 
3807.482784  	-0.017429 
3809.411600  	-0.016460 
3811.340416  	-0.016459 
3813.269232  	-0.017430 
3815.198048  	-0.018511 
3817.126864  	-0.017729 
3819.055680  	-0.018746 
3820.984496  	-0.018795 
3822.913312  	-0.016780 
3824.842128  	-0.017219 
3826.770944  	-0.017437 
3828.699760  	-0.017265 
3830.628576  	-0.017585 
3832.557392  	-0.017683 
3834.486208  	-0.018238 
3836.415024  	-0.018987 
3838.343840  	-0.018999 
3840.272656  	-0.018007 
3842.201472  	-0.017213 
3844.130288  	-0.016674 
3846.059104  	-0.016467 
3847.987920  	-0.017274 
3849.916736  	-0.018861 
3851.845552  	-0.020731 
3853.774368  	-0.018887 
3855.703184  	-0.016740 
3857.632000  	-0.016738 
3859.560816  	-0.017077 
3861.489632  	-0.017773 
3863.418448  	-0.018130 
3865.347264  	-0.017149 
3867.276080  	-0.017353 
3869.204896  	-0.018228 
3871.133712  	-0.017134 
3873.062528  	-0.017505 
3874.991344  	-0.016698 
3876.920160  	-0.016611 
3878.848976  	-0.017280 
3880.777792  	-0.016743 
3882.706608  	-0.016565 
3884.635424  	-0.017013 
3886.564240  	-0.016017 
3888.493056  	-0.016851 
3890.421872  	-0.017623 
3892.350688  	-0.016692 
3894.279504  	-0.016105 
3896.208320  	-0.016652 
3898.137136  	-0.017371 
3900.065952  	-0.017122 
3901.994768  	-0.016891 
3903.923584  	-0.016504 
3905.852400  	-0.015969 
3907.781216  	-0.016193 
3909.710032  	-0.016410 
3911.638848  	-0.016273 
3913.567664  	-0.016244 
3915.496480  	-0.016438 
3917.425296  	-0.016113 
3919.354112  	-0.016169 
3921.282928  	-0.016395 
3923.211744  	-0.016682 
3925.140560  	-0.016247 
3927.069376  	-0.016142 
3928.998192  	-0.016575 
3930.927008  	-0.016353 
3932.855824  	-0.015753 
3934.784640  	-0.015991 
3936.713456  	-0.016291 
3938.642272  	-0.016177 
3940.571088  	-0.016400 
3942.499904  	-0.016025 
3944.428720  	-0.015871 
3946.357536  	-0.016242 
3948.286352  	-0.016284 
3950.215168  	-0.016185 
3952.143984  	-0.016350 
3954.072800  	-0.016466 
3956.001616  	-0.016507 
3957.930432  	-0.016510 
3959.859248  	-0.016482 
3961.788064  	-0.016252 
3963.716880  	-0.016004 
3965.645696  	-0.016188 
3967.574512  	-0.016521 
3969.503328  	-0.016493 
3971.432144  	-0.016488 
3973.360960  	-0.016453 
3975.289776  	-0.016238 
3977.218592  	-0.016095 
3979.147408  	-0.016198 
3981.076224  	-0.016335 
3983.005040  	-0.016274 
3984.933856  	-0.016246 
3986.862672  	-0.016404 
3988.791488  	-0.016467 
3990.720304  	-0.016473 
3992.649120  	-0.016401 
3994.577936  	-0.016273 
3996.506752  	-0.016473 
3998.435568  	-0.016551 
4000.364384  	-0.016437 