##TITLE=No Description
##DATA TYPE=INFRARED SPECTRUM
##XUNITS=1/CM
##YUNITS=Abs
399.264912  	0.588550 
401.193728  	0.559675 
403.122544  	0.554872 
405.051360  	0.530789 
406.980176  	0.519404 
408.908992  	0.506173 
410.837808  	0.517692 
412.766624  	0.517093 
414.695440  	0.507758 
416.624256  	0.506613 
418.553072  	0.508569 
420.481888  	0.496737 
422.410704  	0.501930 
424.339520  	0.493242 
426.268336  	0.489949 
428.197152  	0.489253 
430.125968  	0.487585 
432.054784  	0.480661 
433.983600  	0.482027 
435.912416  	0.479621 
437.841232  	0.475524 
439.770048  	0.472134 
441.698864  	0.472960 
443.627680  	0.465017 
445.556496  	0.464374 
447.485312  	0.467305 
449.414128  	0.473196 
451.342944  	0.472685 
453.271760  	0.467835 
455.200576  	0.458824 
457.129392  	0.465028 
459.058208  	0.458193 
460.987024  	0.453604 
462.915840  	0.451864 
464.844656  	0.451428 
466.773472  	0.446110 
468.702288  	0.450797 
470.631104  	0.452603 
472.559920  	0.456393 
474.488736  	0.454694 
476.417552  	0.451027 
478.346368  	0.442369 
480.275184  	0.445531 
482.204000  	0.444415 
484.132816  	0.440858 
486.061632  	0.441801 
487.990448  	0.444530 
489.919264  	0.438252 
491.848080  	0.438263 
493.776896  	0.436324 
495.705712  	0.435288 
497.634528  	0.433222 
499.563344  	0.434593 
501.492160  	0.432349 
503.420976  	0.430656 
505.349792  	0.425714 
507.278608  	0.424929 
509.207424  	0.425814 
511.136240  	0.428362 
513.065056  	0.426328 
514.993872  	0.427259 
516.922688  	0.426464 
518.851504  	0.428173 
520.780320  	0.426416 
522.709136  	0.425355 
524.637952  	0.421734 
526.566768  	0.421038 
528.495584  	0.417906 
530.424400  	0.415937 
532.353216  	0.414547 
534.282032  	0.412606 
536.210848  	0.407024 
538.139664  	0.403129 
540.068480  	0.400226 
541.997296  	0.397300 
543.926112  	0.393824 
545.854928  	0.393356 
547.783744  	0.389785 
549.712560  	0.387761 
551.641376  	0.384354 
553.570192  	0.381981 
555.499008  	0.379484 
557.427824  	0.378225 
559.356640  	0.376183 
561.285456  	0.373513 
563.214272  	0.368754 
565.143088  	0.366504 
567.071904  	0.364719 
569.000720  	0.362794 
570.929536  	0.359672 
572.858352  	0.357336 
574.787168  	0.354928 
576.715984  	0.353429 
578.644800  	0.350711 
580.573616  	0.347945 
582.502432  	0.344184 
584.431248  	0.340224 
586.360064  	0.335924 
588.288880  	0.332955 
590.217696  	0.330502 
592.146512  	0.329433 
594.075328  	0.327954 
596.004144  	0.326470 
597.932960  	0.324739 
599.861776  	0.323533 
601.790592  	0.320970 
603.719408  	0.319327 
605.648224  	0.318130 
607.577040  	0.316823 
609.505856  	0.314515 
611.434672  	0.313076 
613.363488  	0.311707 
615.292304  	0.310652 
617.221120  	0.308231 
619.149936  	0.306428 
621.078752  	0.304706 
623.007568  	0.304185 
624.936384  	0.303332 
626.865200  	0.301880 
628.794016  	0.300499 
630.722832  	0.299898 
632.651648  	0.298726 
634.580464  	0.298168 
636.509280  	0.297879 
638.438096  	0.296992 
640.366912  	0.295729 
642.295728  	0.294074 
644.224544  	0.291372 
646.153360  	0.289306 
648.082176  	0.285759 
650.010992  	0.282672 
651.939808  	0.279495 
653.868624  	0.276664 
655.797440  	0.273024 
657.726256  	0.270721 
659.655072  	0.267927 
661.583888  	0.264902 
663.512704  	0.261389 
665.441520  	0.257549 
667.370336  	0.252635 
669.299152  	0.249346 
671.227968  	0.247113 
673.156784  	0.244722 
675.085600  	0.242813 
677.014416  	0.240673 
678.943232  	0.238286 
680.872048  	0.236645 
682.800864  	0.234369 
684.729680  	0.232799 
686.658496  	0.231564 
688.587312  	0.230413 
690.516128  	0.228602 
692.444944  	0.227450 
694.373760  	0.226280 
696.302576  	0.224973 
698.231392  	0.222469 
700.160208  	0.220723 
702.089024  	0.218946 
704.017840  	0.217081 
705.946656  	0.214744 
707.875472  	0.212521 
709.804288  	0.210412 
711.733104  	0.208786 
713.661920  	0.207092 
715.590736  	0.205436 
717.519552  	0.204402 
719.448368  	0.203914 
721.377184  	0.203943 
723.306000  	0.204137 
725.234816  	0.203520 
727.163632  	0.202234 
729.092448  	0.199934 
731.021264  	0.197858 
732.950080  	0.195688 
734.878896  	0.193272 
736.807712  	0.190403 
738.736528  	0.188372 
740.665344  	0.186599 
742.594160  	0.185437 
744.522976  	0.183933 
746.451792  	0.182950 
748.380608  	0.181721 
750.309424  	0.180407 
752.238240  	0.178877 
754.167056  	0.178175 
756.095872  	0.177473 
758.024688  	0.176247 
759.953504  	0.175426 
761.882320  	0.174860 
763.811136  	0.174476 
765.739952  	0.173105 
767.668768  	0.170851 
769.597584  	0.168861 
771.526400  	0.167395 
773.455216  	0.167281 
775.384032  	0.169011 
777.312848  	0.172160 
779.241664  	0.173890 
781.170480  	0.173033 
783.099296  	0.169412 
785.028112  	0.165473 
786.956928  	0.161420 
788.885744  	0.157593 
790.814560  	0.154561 
792.743376  	0.152831 
794.672192  	0.151913 
796.601008  	0.150853 
798.529824  	0.148298 
800.458640  	0.144867 
802.387456  	0.141976 
804.316272  	0.140281 
806.245088  	0.138885 
808.173904  	0.137784 
810.102720  	0.137105 
812.031536  	0.136460 
813.960352  	0.135901 
815.889168  	0.135559 
817.817984  	0.135748 
819.746800  	0.135703 
821.675616  	0.135419 
823.604432  	0.135346 
825.533248  	0.135304 
827.462064  	0.135113 
829.390880  	0.134409 
831.319696  	0.133757 
833.248512  	0.132634 
835.177328  	0.130962 
837.106144  	0.128669 
839.034960  	0.126448 
840.963776  	0.124131 
842.892592  	0.121773 
844.821408  	0.119015 
846.750224  	0.116439 
848.679040  	0.114145 
850.607856  	0.112325 
852.536672  	0.110991 
854.465488  	0.109670 
856.394304  	0.108756 
858.323120  	0.107942 
860.251936  	0.106733 
862.180752  	0.105241 
864.109568  	0.103283 
866.038384  	0.101446 
867.967200  	0.099968 
869.896016  	0.098557 
871.824832  	0.096944 
873.753648  	0.095952 
875.682464  	0.095534 
877.611280  	0.096019 
879.540096  	0.097294 
881.468912  	0.099492 
883.397728  	0.101866 
885.326544  	0.103772 
887.255360  	0.105228 
889.184176  	0.105734 
891.112992  	0.105460 
893.041808  	0.104608 
894.970624  	0.102981 
896.899440  	0.100536 
898.828256  	0.097565 
900.757072  	0.094590 
902.685888  	0.091649 
904.614704  	0.089750 
906.543520  	0.089141 
908.472336  	0.089630 
910.401152  	0.090750 
912.329968  	0.092283 
914.258784  	0.093972 
916.187600  	0.095445 
918.116416  	0.096633 
920.045232  	0.097665 
921.974048  	0.098276 
923.902864  	0.098616 
925.831680  	0.098949 
927.760496  	0.099296 
929.689312  	0.099580 
931.618128  	0.100040 
933.546944  	0.100577 
935.475760  	0.100712 
937.404576  	0.100259 
939.333392  	0.099626 
941.262208  	0.099195 
943.191024  	0.099378 
945.119840  	0.100710 
947.048656  	0.103579 
948.977472  	0.107747 
950.906288  	0.113117 
952.835104  	0.119935 
954.763920  	0.127997 
956.692736  	0.136310 
958.621552  	0.144173 
960.550368  	0.150375 
962.479184  	0.154822 
964.408000  	0.156242 
966.336816  	0.154510 
968.265632  	0.149590 
970.194448  	0.142352 
972.123264  	0.133255 
974.052080  	0.123183 
975.980896  	0.113054 
977.909712  	0.103337 
979.838528  	0.094621 
981.767344  	0.087353 
983.696160  	0.081806 
985.624976  	0.078146 
987.553792  	0.076843 
989.482608  	0.077516 
991.411424  	0.079792 
993.340240  	0.083553 
995.269056  	0.088071 
997.197872  	0.092738 
999.126688  	0.097412 
1001.055504  	0.102602 
1002.984320  	0.107401 
1004.913136  	0.112106 
1006.841952  	0.116783 
1008.770768  	0.121277 
1010.699584  	0.125151 
1012.628400  	0.128476 
1014.557216  	0.131099 
1016.486032  	0.132894 
1018.414848  	0.134059 
1020.343664  	0.134786 
1022.272480  	0.135392 
1024.201296  	0.135729 
1026.130112  	0.135224 
1028.058928  	0.135388 
1029.987744  	0.136625 
1031.916560  	0.137993 
1033.845376  	0.138961 
1035.774192  	0.140313 
1037.703008  	0.142432 
1039.631824  	0.146360 
1041.560640  	0.152397 
1043.489456  	0.161836 
1045.418272  	0.174168 
1047.347088  	0.188100 
1049.275904  	0.201146 
1051.204720  	0.211365 
1053.133536  	0.217529 
1055.062352  	0.220582 
1056.991168  	0.221672 
1058.919984  	0.222381 
1060.848800  	0.222595 
1062.777616  	0.222845 
1064.706432  	0.222270 
1066.635248  	0.221340 
1068.564064  	0.219214 
1070.492880  	0.215423 
1072.421696  	0.210585 
1074.350512  	0.207234 
1076.279328  	0.206273 
1078.208144  	0.208223 
1080.136960  	0.212004 
1082.065776  	0.215942 
1083.994592  	0.217040 
1085.923408  	0.215422 
1087.852224  	0.210559 
1089.781040  	0.203994 
1091.709856  	0.195880 
1093.638672  	0.186730 
1095.567488  	0.176039 
1097.496304  	0.165174 
1099.425120  	0.154284 
1101.353936  	0.143362 
1103.282752  	0.132906 
1105.211568  	0.123414 
1107.140384  	0.114419 
1109.069200  	0.106576 
1110.998016  	0.099586 
1112.926832  	0.092880 
1114.855648  	0.086583 
1116.784464  	0.080680 
1118.713280  	0.074953 
1120.642096  	0.069429 
1122.570912  	0.064206 
1124.499728  	0.059520 
1126.428544  	0.055451 
1128.357360  	0.052139 
1130.286176  	0.049024 
1132.214992  	0.046579 
1134.143808  	0.044711 
1136.072624  	0.043098 
1138.001440  	0.041782 
1139.930256  	0.040744 
1141.859072  	0.039486 
1143.787888  	0.038263 
1145.716704  	0.037381 
1147.645520  	0.036646 
1149.574336  	0.036102 
1151.503152  	0.035875 
1153.431968  	0.036047 
1155.360784  	0.036158 
1157.289600  	0.036389 
1159.218416  	0.036717 
1161.147232  	0.037342 
1163.076048  	0.038024 
1165.004864  	0.038770 
1166.933680  	0.039517 
1168.862496  	0.040357 
1170.791312  	0.041419 
1172.720128  	0.042862 
1174.648944  	0.044570 
1176.577760  	0.046195 
1178.506576  	0.047876 
1180.435392  	0.049664 
1182.364208  	0.051662 
1184.293024  	0.054117 
1186.221840  	0.056784 
1188.150656  	0.059853 
1190.079472  	0.063402 
1192.008288  	0.067659 
1193.937104  	0.072504 
1195.865920  	0.077861 
1197.794736  	0.084004 
1199.723552  	0.090471 
1201.652368  	0.097133 
1203.581184  	0.103607 
1205.510000  	0.109884 
1207.438816  	0.115875 
1209.367632  	0.121315 
1211.296448  	0.125650 
1213.225264  	0.129429 
1215.154080  	0.131796 
1217.082896  	0.133400 
1219.011712  	0.134036 
1220.940528  	0.134124 
1222.869344  	0.133432 
1224.798160  	0.132216 
1226.726976  	0.130108 
1228.655792  	0.127693 
1230.584608  	0.124929 
1232.513424  	0.121700 
1234.442240  	0.117772 
1236.371056  	0.113611 
1238.299872  	0.109139 
1240.228688  	0.104011 
1242.157504  	0.098887 
1244.086320  	0.093961 
1246.015136  	0.088685 
1247.943952  	0.083448 
1249.872768  	0.078490 
1251.801584  	0.073889 
1253.730400  	0.069076 
1255.659216  	0.064496 
1257.588032  	0.060151 
1259.516848  	0.056042 
1261.445664  	0.052208 
1263.374480  	0.048812 
1265.303296  	0.045844 
1267.232112  	0.043312 
1269.160928  	0.041531 
1271.089744  	0.040354 
1273.018560  	0.039690 
1274.947376  	0.039748 
1276.876192  	0.040264 
1278.805008  	0.040728 
1280.733824  	0.040628 
1282.662640  	0.039676 
1284.591456  	0.038302 
1286.520272  	0.037029 
1288.449088  	0.036309 
1290.377904  	0.036408 
1292.306720  	0.037071 
1294.235536  	0.037605 
1296.164352  	0.037490 
1298.093168  	0.036378 
1300.021984  	0.034586 
1301.950800  	0.032555 
1303.879616  	0.030463 
1305.808432  	0.028156 
1307.737248  	0.025665 
1309.666064  	0.023350 
1311.594880  	0.021592 
1313.523696  	0.020329 
1315.452512  	0.019357 
1317.381328  	0.018799 
1319.310144  	0.018814 
1321.238960  	0.019091 
1323.167776  	0.019593 
1325.096592  	0.020111 
1327.025408  	0.020441 
1328.954224  	0.020343 
1330.883040  	0.019767 
1332.811856  	0.018756 
1334.740672  	0.017732 
1336.669488  	0.017142 
1338.598304  	0.017055 
1340.527120  	0.016897 
1342.455936  	0.016314 
1344.384752  	0.016156 
1346.313568  	0.016422 
1348.242384  	0.016955 
1350.171200  	0.017893 
1352.100016  	0.019028 
1354.028832  	0.020366 
1355.957648  	0.021926 
1357.886464  	0.023204 
1359.815280  	0.024421 
1361.744096  	0.026061 
1363.672912  	0.028265 
1365.601728  	0.029526 
1367.530544  	0.030688 
1369.459360  	0.032032 
1371.388176  	0.032425 
1373.316992  	0.032040 
1375.245808  	0.031202 
1377.174624  	0.029667 
1379.103440  	0.027978 
1381.032256  	0.026114 
1382.961072  	0.024443 
1384.889888  	0.022813 
1386.818704  	0.021877 
1388.747520  	0.021051 
1390.676336  	0.019343 
1392.605152  	0.017154 
1394.533968  	0.015864 
1396.462784  	0.016276 
1398.391600  	0.016154 
1400.320416  	0.016462 
1402.249232  	0.016404 
1404.178048  	0.016685 
1406.106864  	0.017545 
1408.035680  	0.018347 
1409.964496  	0.019436 
1411.893312  	0.021064 
1413.822128  	0.022379 
1415.750944  	0.023534 
1417.679760  	0.024267 
1419.608576  	0.025800 
1421.537392  	0.026096 
1423.466208  	0.025434 
1425.395024  	0.024849 
1427.323840  	0.023205 
1429.252656  	0.021286 
1431.181472  	0.020348 
1433.110288  	0.019898 
1435.039104  	0.019217 
1436.967920  	0.020592 
1438.896736  	0.022123 
1440.825552  	0.022505 
1442.754368  	0.022873 
1444.683184  	0.022711 
1446.612000  	0.022306 
1448.540816  	0.022675 
1450.469632  	0.022847 
1452.398448  	0.022614 
1454.327264  	0.021709 
1456.256080  	0.020222 
1458.184896  	0.021818 
1460.113712  	0.023001 
1462.042528  	0.022446 
1463.971344  	0.021532 
1465.900160  	0.022879 
1467.828976  	0.023796 
1469.757792  	0.023867 
1471.686608  	0.024437 
1473.615424  	0.029235 
1475.544240  	0.033378 
1477.473056  	0.037464 
1479.401872  	0.039564 
1481.330688  	0.041929 
1483.259504  	0.043889 
1485.188320  	0.044579 
1487.117136  	0.044511 
1489.045952  	0.044971 
1490.974768  	0.045440 
1492.903584  	0.043869 
1494.832400  	0.040234 
1496.761216  	0.036243 
1498.690032  	0.032872 
1500.618848  	0.030232 
1502.547664  	0.026724 
1504.476480  	0.021930 
1506.405296  	0.017898 
1508.334112  	0.020783 
1510.262928  	0.020297 
1512.191744  	0.019266 
1514.120560  	0.018304 
1516.049376  	0.017524 
1517.978192  	0.018343 
1519.907008  	0.018430 
1521.835824  	0.021374 
1523.764640  	0.025139 
1525.693456  	0.027604 
1527.622272  	0.030083 
1529.551088  	0.030786 
1531.479904  	0.029266 
1533.408720  	0.027166 
1535.337536  	0.025984 
1537.266352  	0.022472 
1539.195168  	0.017035 
1541.123984  	0.015866 
1543.052800  	0.017813 
1544.981616  	0.018697 
1546.910432  	0.018282 
1548.839248  	0.017223 
1550.768064  	0.017243 
1552.696880  	0.016033 
1554.625696  	0.015357 
1556.554512  	0.012964 
1558.483328  	0.010807 
1560.412144  	0.019433 
1562.340960  	0.020921 
1564.269776  	0.021736 
1566.198592  	0.024085 
1568.127408  	0.024567 
1570.056224  	0.028599 
1571.985040  	0.032362 
1573.913856  	0.032623 
1575.842672  	0.033454 
1577.771488  	0.037497 
1579.700304  	0.037555 
1581.629120  	0.036948 
1583.557936  	0.036195 
1585.486752  	0.036288 
1587.415568  	0.037154 
1589.344384  	0.039281 
1591.273200  	0.042222 
1593.202016  	0.045938 
1595.130832  	0.050203 
1597.059648  	0.055207 
1598.988464  	0.059106 
1600.917280  	0.062618 
1602.846096  	0.065313 
1604.774912  	0.067359 
1606.703728  	0.067572 
1608.632544  	0.067498 
1610.561360  	0.066533 
1612.490176  	0.065066 
1614.418992  	0.061656 
1616.347808  	0.060694 
1618.276624  	0.063925 
1620.205440  	0.064342 
1622.134256  	0.064308 
1624.063072  	0.069496 
1625.991888  	0.072883 
1627.920704  	0.077639 
1629.849520  	0.084140 
1631.778336  	0.087968 
1633.707152  	0.089209 
1635.635968  	0.096273 
1637.564784  	0.107071 
1639.493600  	0.110688 
1641.422416  	0.113778 
1643.351232  	0.114887 
1645.280048  	0.113705 
1647.208864  	0.118927 
1649.137680  	0.121795 
1651.066496  	0.116706 
1652.995312  	0.115976 
1654.924128  	0.125457 
1656.852944  	0.123187 
1658.781760  	0.121115 
1660.710576  	0.118176 
1662.639392  	0.116719 
1664.568208  	0.116038 
1666.497024  	0.111958 
1668.425840  	0.107194 
1670.354656  	0.105429 
1672.283472  	0.103137 
1674.212288  	0.099243 
1676.141104  	0.098642 
1678.069920  	0.096550 
1679.998736  	0.094228 
1681.927552  	0.091032 
1683.856368  	0.089353 
1685.785184  	0.094803 
1687.714000  	0.094016 
1689.642816  	0.094352 
1691.571632  	0.094168 
1693.500448  	0.091829 
1695.429264  	0.089969 
1697.358080  	0.090870 
1699.286896  	0.088702 
1701.215712  	0.092808 
1703.144528  	0.091425 
1705.073344  	0.089195 
1707.002160  	0.088431 
1708.930976  	0.086501 
1710.859792  	0.082983 
1712.788608  	0.078165 
1714.717424  	0.071425 
1716.646240  	0.063819 
1718.575056  	0.056564 
1720.503872  	0.050385 
1722.432688  	0.043442 
1724.361504  	0.036072 
1726.290320  	0.029549 
1728.219136  	0.023678 
1730.147952  	0.018320 
1732.076768  	0.013257 
1734.005584  	0.009617 
1735.934400  	0.008028 
1737.863216  	0.005691 
1739.792032  	0.003377 
1741.720848  	0.002574 
1743.649664  	0.001690 
1745.578480  	0.000449 
1747.507296  	-0.001137 
1749.436112  	-0.001624 
1751.364928  	-0.001287 
1753.293744  	-0.001505 
1755.222560  	-0.002478 
1757.151376  	-0.002443 
1759.080192  	-0.002946 
1761.009008  	-0.003645 
1762.937824  	-0.003554 
1764.866640  	-0.003587 
1766.795456  	-0.004128 
1768.724272  	-0.004418 
1770.653088  	-0.006484 
1772.581904  	-0.006867 
1774.510720  	-0.005327 
1776.439536  	-0.004630 
1778.368352  	-0.004851 
1780.297168  	-0.005289 
1782.225984  	-0.005331 
1784.154800  	-0.005112 
1786.083616  	-0.005120 
1788.012432  	-0.005443 
1789.941248  	-0.006188 
1791.870064  	-0.006779 
1793.798880  	-0.006307 
1795.727696  	-0.005799 
1797.656512  	-0.006322 
1799.585328  	-0.006829 
1801.514144  	-0.006226 
1803.442960  	-0.006074 
1805.371776  	-0.006482 
1807.300592  	-0.006435 
1809.229408  	-0.006826 
1811.158224  	-0.006881 
1813.087040  	-0.006625 
1815.015856  	-0.006682 
1816.944672  	-0.006714 
1818.873488  	-0.006465 
1820.802304  	-0.006514 
1822.731120  	-0.006750 
1824.659936  	-0.007002 
1826.588752  	-0.007010 
1828.517568  	-0.008047 
1830.446384  	-0.007505 
1832.375200  	-0.006802 
1834.304016  	-0.006816 
1836.232832  	-0.007001 
1838.161648  	-0.007027 
1840.090464  	-0.007094 
1842.019280  	-0.007354 
1843.948096  	-0.007682 
1845.876912  	-0.007141 
1847.805728  	-0.006758 
1849.734544  	-0.006583 
1851.663360  	-0.006917 
1853.592176  	-0.007010 
1855.520992  	-0.007367 
1857.449808  	-0.007256 
1859.378624  	-0.007110 
1861.307440  	-0.007053 
1863.236256  	-0.007273 
1865.165072  	-0.007624 
1867.093888  	-0.008514 
1869.022704  	-0.008135 
1870.951520  	-0.007312 
1872.880336  	-0.007164 
1874.809152  	-0.007340 
1876.737968  	-0.007301 
1878.666784  	-0.007231 
1880.595600  	-0.007117 
1882.524416  	-0.007306 
1884.453232  	-0.007434 
1886.382048  	-0.007703 
1888.310864  	-0.007650 
1890.239680  	-0.007398 
1892.168496  	-0.007357 
1894.097312  	-0.007807 
1896.026128  	-0.007753 
1897.954944  	-0.007359 
1899.883760  	-0.007136 
1901.812576  	-0.007348 
1903.741392  	-0.007448 
1905.670208  	-0.007360 
1907.599024  	-0.007043 
1909.527840  	-0.007077 
1911.456656  	-0.006949 
1913.385472  	-0.006908 
1915.314288  	-0.007253 
1917.243104  	-0.007989 
1919.171920  	-0.007481 
1921.100736  	-0.007311 
1923.029552  	-0.007300 
1924.958368  	-0.008106 
1926.887184  	-0.008077 
1928.816000  	-0.007331 
1930.744816  	-0.007133 
1932.673632  	-0.007712 
1934.602448  	-0.007610 
1936.531264  	-0.007692 
1938.460080  	-0.008084 
1940.388896  	-0.008378 
1942.317712  	-0.008239 
1944.246528  	-0.008203 
1946.175344  	-0.007834 
1948.104160  	-0.007350 
1950.032976  	-0.007529 
1951.961792  	-0.007923 
1953.890608  	-0.007350 
1955.819424  	-0.007225 
1957.748240  	-0.007686 
1959.677056  	-0.008662 
1961.605872  	-0.008950 
1963.534688  	-0.009397 
1965.463504  	-0.008864 
1967.392320  	-0.009747 
1969.321136  	-0.009702 
1971.249952  	-0.009176 
1973.178768  	-0.008630 
1975.107584  	-0.008451 
1977.036400  	-0.008048 
1978.965216  	-0.007370 
1980.894032  	-0.006831 
1982.822848  	-0.007418 
1984.751664  	-0.007478 
1986.680480  	-0.007673 
1988.609296  	-0.007222 
1990.538112  	-0.007467 
1992.466928  	-0.007534 
1994.395744  	-0.007812 
1996.324560  	-0.007674 
1998.253376  	-0.007478 
2000.182192  	-0.007488 
2002.111008  	-0.007937 
2004.039824  	-0.008120 
2005.968640  	-0.008986 
2007.897456  	-0.008502 
2009.826272  	-0.007701 
2011.755088  	-0.007418 
2013.683904  	-0.007810 
2015.612720  	-0.007715 
2017.541536  	-0.006672 
2019.470352  	-0.005517 
2021.399168  	-0.006533 
2023.327984  	-0.006686 
2025.256800  	-0.006618 
2027.185616  	-0.006438 
2029.114432  	-0.006353 
2031.043248  	-0.006880 
2032.972064  	-0.006329 
2034.900880  	-0.005135 
2036.829696  	-0.005199 
2038.758512  	-0.005696 
2040.687328  	-0.006138 
2042.616144  	-0.005663 
2044.544960  	-0.006148 
2046.473776  	-0.006856 
2048.402592  	-0.006410 
2050.331408  	-0.006315 
2052.260224  	-0.007625 
2054.189040  	-0.007540 
2056.117856  	-0.006729 
2058.046672  	-0.006292 
2059.975488  	-0.006606 
2061.904304  	-0.006671 
2063.833120  	-0.007018 
2065.761936  	-0.006758 
2067.690752  	-0.006586 
2069.619568  	-0.006416 
2071.548384  	-0.006462 
2073.477200  	-0.006195 
2075.406016  	-0.006144 
2077.334832  	-0.005983 
2079.263648  	-0.006166 
2081.192464  	-0.005884 
2083.121280  	-0.006129 
2085.050096  	-0.006269 
2086.978912  	-0.006418 
2088.907728  	-0.006262 
2090.836544  	-0.006710 
2092.765360  	-0.006897 
2094.694176  	-0.006933 
2096.622992  	-0.006645 
2098.551808  	-0.006058 
2100.480624  	-0.006316 
2102.409440  	-0.006348 
2104.338256  	-0.006109 
2106.267072  	-0.005859 
2108.195888  	-0.005393 
2110.124704  	-0.005584 
2112.053520  	-0.005708 
2113.982336  	-0.005793 
2115.911152  	-0.006265 
2117.839968  	-0.006413 
2119.768784  	-0.006513 
2121.697600  	-0.007094 
2123.626416  	-0.006954 
2125.555232  	-0.007005 
2127.484048  	-0.007196 
2129.412864  	-0.007487 
2131.341680  	-0.007654 
2133.270496  	-0.007548 
2135.199312  	-0.006915 
2137.128128  	-0.006645 
2139.056944  	-0.006325 
2140.985760  	-0.006650 
2142.914576  	-0.006947 
2144.843392  	-0.007205 
2146.772208  	-0.007162 
2148.701024  	-0.006605 
2150.629840  	-0.006092 
2152.558656  	-0.006880 
2154.487472  	-0.007259 
2156.416288  	-0.006635 
2158.345104  	-0.003719 
2160.273920  	-0.002770 
2162.202736  	-0.003081 
2164.131552  	-0.003050 
2166.060368  	-0.002828 
2167.989184  	-0.002954 
2169.918000  	-0.003588 
2171.846816  	-0.004049 
2173.775632  	-0.004818 
2175.704448  	-0.005327 
2177.633264  	-0.005404 
2179.562080  	-0.005470 
2181.490896  	-0.005397 
2183.419712  	-0.005941 
2185.348528  	-0.005912 
2187.277344  	-0.005307 
2189.206160  	-0.004747 
2191.134976  	-0.004272 
2193.063792  	-0.003932 
2194.992608  	-0.004606 
2196.921424  	-0.004870 
2198.850240  	-0.004830 
2200.779056  	-0.004854 
2202.707872  	-0.005351 
2204.636688  	-0.005836 
2206.565504  	-0.005373 
2208.494320  	-0.004688 
2210.423136  	-0.005303 
2212.351952  	-0.006201 
2214.280768  	-0.005889 
2216.209584  	-0.005182 
2218.138400  	-0.005753 
2220.067216  	-0.006125 
2221.996032  	-0.005862 
2223.924848  	-0.005281 
2225.853664  	-0.005347 
2227.782480  	-0.005384 
2229.711296  	-0.005380 
2231.640112  	-0.006134 
2233.568928  	-0.006418 
2235.497744  	-0.005562 
2237.426560  	-0.005549 
2239.355376  	-0.006037 
2241.284192  	-0.006596 
2243.213008  	-0.006861 
2245.141824  	-0.006670 
2247.070640  	-0.005632 
2248.999456  	-0.006088 
2250.928272  	-0.006838 
2252.857088  	-0.007324 
2254.785904  	-0.007066 
2256.714720  	-0.006490 
2258.643536  	-0.006753 
2260.572352  	-0.007033 
2262.501168  	-0.006714 
2264.429984  	-0.006575 
2266.358800  	-0.006697 
2268.287616  	-0.006625 
2270.216432  	-0.006306 
2272.145248  	-0.006324 
2274.074064  	-0.006317 
2276.002880  	-0.006270 
2277.931696  	-0.006021 
2279.860512  	-0.005737 
2281.789328  	-0.005371 
2283.718144  	-0.005153 
2285.646960  	-0.005010 
2287.575776  	-0.005117 
2289.504592  	-0.005083 
2291.433408  	-0.005080 
2293.362224  	-0.004913 
2295.291040  	-0.004655 
2297.219856  	-0.004698 
2299.148672  	-0.004787 
2301.077488  	-0.004526 
2303.006304  	-0.004424 
2304.935120  	-0.004440 
2306.863936  	-0.004365 
2308.792752  	-0.004389 
2310.721568  	-0.004625 
2312.650384  	-0.004865 
2314.579200  	-0.005422 
2316.508016  	-0.005863 
2318.436832  	-0.005951 
2320.365648  	-0.005947 
2322.294464  	-0.006261 
2324.223280  	-0.007050 
2326.152096  	-0.008821 
2328.080912  	-0.009798 
2330.009728  	-0.010285 
2331.938544  	-0.010823 
2333.867360  	-0.011893 
2335.796176  	-0.012996 
2337.724992  	-0.013545 
2339.653808  	-0.013611 
2341.582624  	-0.013136 
2343.511440  	-0.012036 
2345.440256  	-0.010321 
2347.369072  	-0.008288 
2349.297888  	-0.008219 
2351.226704  	-0.010033 
2353.155520  	-0.012202 
2355.084336  	-0.014084 
2357.013152  	-0.015458 
2358.941968  	-0.015873 
2360.870784  	-0.015799 
2362.799600  	-0.015194 
2364.728416  	-0.014210 
2366.657232  	-0.012971 
2368.586048  	-0.011496 
2370.514864  	-0.009328 
2372.443680  	-0.007711 
2374.372496  	-0.006652 
2376.301312  	-0.005469 
2378.230128  	-0.004481 
2380.158944  	-0.004099 
2382.087760  	-0.004188 
2384.016576  	-0.004595 
2385.945392  	-0.004874 
2387.874208  	-0.005003 
2389.803024  	-0.005036 
2391.731840  	-0.005100 
2393.660656  	-0.005172 
2395.589472  	-0.005434 
2397.518288  	-0.005510 
2399.447104  	-0.005390 
2401.375920  	-0.005172 
2403.304736  	-0.004916 
2405.233552  	-0.004940 
2407.162368  	-0.004986 
2409.091184  	-0.004827 
2411.020000  	-0.004700 
2412.948816  	-0.004756 
2414.877632  	-0.004799 
2416.806448  	-0.004643 
2418.735264  	-0.004715 
2420.664080  	-0.004704 
2422.592896  	-0.004817 
2424.521712  	-0.004789 
2426.450528  	-0.004385 
2428.379344  	-0.004018 
2430.308160  	-0.003924 
2432.236976  	-0.004021 
2434.165792  	-0.004005 
2436.094608  	-0.003771 
2438.023424  	-0.003616 
2439.952240  	-0.003651 
2441.881056  	-0.003636 
2443.809872  	-0.003441 
2445.738688  	-0.003477 
2447.667504  	-0.003484 
2449.596320  	-0.003360 
2451.525136  	-0.003254 
2453.453952  	-0.003181 
2455.382768  	-0.003061 
2457.311584  	-0.003016 
2459.240400  	-0.003101 
2461.169216  	-0.003253 
2463.098032  	-0.003186 
2465.026848  	-0.002945 
2466.955664  	-0.002913 
2468.884480  	-0.002815 
2470.813296  	-0.002674 
2472.742112  	-0.002670 
2474.670928  	-0.002653 
2476.599744  	-0.002735 
2478.528560  	-0.002590 
2480.457376  	-0.002535 
2482.386192  	-0.002581 
2484.315008  	-0.002537 
2486.243824  	-0.002319 
2488.172640  	-0.002045 
2490.101456  	-0.001830 
2492.030272  	-0.001911 
2493.959088  	-0.001972 
2495.887904  	-0.001782 
2497.816720  	-0.001495 
2499.745536  	-0.001492 
2501.674352  	-0.001319 
2503.603168  	-0.001177 
2505.531984  	-0.001106 
2507.460800  	-0.001141 
2509.389616  	-0.001101 
2511.318432  	-0.001158 
2513.247248  	-0.001301 
2515.176064  	-0.001206 
2517.104880  	-0.001001 
2519.033696  	-0.000527 
2520.962512  	-0.000398 
2522.891328  	-0.000523 
2524.820144  	-0.000449 
2526.748960  	-0.000480 
2528.677776  	-0.000545 
2530.606592  	-0.000397 
2532.535408  	-0.000288 
2534.464224  	-0.000254 
2536.393040  	-0.000320 
2538.321856  	-0.000201 
2540.250672  	-0.000294 
2542.179488  	-0.000222 
2544.108304  	-0.000060 
2546.037120  	-0.000093 
2547.965936  	0.000052 
2549.894752  	-0.000002 
2551.823568  	-0.000041 
2553.752384  	0.000053 
2555.681200  	0.000201 
2557.610016  	0.000478 
2559.538832  	0.000676 
2561.467648  	0.000779 
2563.396464  	0.000735 
2565.325280  	0.000829 
2567.254096  	0.001061 
2569.182912  	0.001113 
2571.111728  	0.001297 
2573.040544  	0.001268 
2574.969360  	0.001315 
2576.898176  	0.001602 
2578.826992  	0.001807 
2580.755808  	0.001794 
2582.684624  	0.001826 
2584.613440  	0.001908 
2586.542256  	0.001962 
2588.471072  	0.001906 
2590.399888  	0.001872 
2592.328704  	0.001974 
2594.257520  	0.002236 
2596.186336  	0.002232 
2598.115152  	0.002164 
2600.043968  	0.002246 
2601.972784  	0.002263 
2603.901600  	0.002324 
2605.830416  	0.002558 
2607.759232  	0.002650 
2609.688048  	0.002586 
2611.616864  	0.002614 
2613.545680  	0.002777 
2615.474496  	0.002877 
2617.403312  	0.003002 
2619.332128  	0.003078 
2621.260944  	0.003212 
2623.189760  	0.003351 
2625.118576  	0.003423 
2627.047392  	0.003640 
2628.976208  	0.003813 
2630.905024  	0.003865 
2632.833840  	0.003985 
2634.762656  	0.004041 
2636.691472  	0.004107 
2638.620288  	0.004314 
2640.549104  	0.004382 
2642.477920  	0.004454 
2644.406736  	0.004554 
2646.335552  	0.004701 
2648.264368  	0.004886 
2650.193184  	0.004990 
2652.122000  	0.005122 
2654.050816  	0.005235 
2655.979632  	0.005323 
2657.908448  	0.005430 
2659.837264  	0.005545 
2661.766080  	0.005641 
2663.694896  	0.005666 
2665.623712  	0.005680 
2667.552528  	0.005881 
2669.481344  	0.006088 
2671.410160  	0.006237 
2673.338976  	0.006383 
2675.267792  	0.006466 
2677.196608  	0.006497 
2679.125424  	0.006595 
2681.054240  	0.006690 
2682.983056  	0.006741 
2684.911872  	0.006857 
2686.840688  	0.006971 
2688.769504  	0.007120 
2690.698320  	0.007189 
2692.627136  	0.007272 
2694.555952  	0.007443 
2696.484768  	0.007570 
2698.413584  	0.007659 
2700.342400  	0.007687 
2702.271216  	0.007805 
2704.200032  	0.007882 
2706.128848  	0.008007 
2708.057664  	0.008154 
2709.986480  	0.008215 
2711.915296  	0.008253 
2713.844112  	0.008357 
2715.772928  	0.008514 
2717.701744  	0.008565 
2719.630560  	0.008599 
2721.559376  	0.008815 
2723.488192  	0.008978 
2725.417008  	0.009111 
2727.345824  	0.009172 
2729.274640  	0.009218 
2731.203456  	0.009360 
2733.132272  	0.009593 
2735.061088  	0.009810 
2736.989904  	0.009924 
2738.918720  	0.010022 
2740.847536  	0.010109 
2742.776352  	0.010159 
2744.705168  	0.010266 
2746.633984  	0.010313 
2748.562800  	0.010378 
2750.491616  	0.010604 
2752.420432  	0.010827 
2754.349248  	0.010777 
2756.278064  	0.010667 
2758.206880  	0.010673 
2760.135696  	0.010757 
2762.064512  	0.010788 
2763.993328  	0.010752 
2765.922144  	0.010741 
2767.850960  	0.010829 
2769.779776  	0.010909 
2771.708592  	0.010931 
2773.637408  	0.010941 
2775.566224  	0.010816 
2777.495040  	0.010758 
2779.423856  	0.010795 
2781.352672  	0.010851 
2783.281488  	0.010864 
2785.210304  	0.010921 
2787.139120  	0.011057 
2789.067936  	0.011077 
2790.996752  	0.011001 
2792.925568  	0.010922 
2794.854384  	0.010865 
2796.783200  	0.010809 
2798.712016  	0.010929 
2800.640832  	0.011105 
2802.569648  	0.011104 
2804.498464  	0.011097 
2806.427280  	0.011041 
2808.356096  	0.011048 
2810.284912  	0.011112 
2812.213728  	0.011004 
2814.142544  	0.011017 
2816.071360  	0.011008 
2818.000176  	0.011013 
2819.928992  	0.011105 
2821.857808  	0.011108 
2823.786624  	0.011050 
2825.715440  	0.011051 
2827.644256  	0.011004 
2829.573072  	0.011035 
2831.501888  	0.011088 
2833.430704  	0.010969 
2835.359520  	0.010801 
2837.288336  	0.010753 
2839.217152  	0.010757 
2841.145968  	0.010579 
2843.074784  	0.010482 
2845.003600  	0.010521 
2846.932416  	0.010600 
2848.861232  	0.010685 
2850.790048  	0.010690 
2852.718864  	0.010609 
2854.647680  	0.010635 
2856.576496  	0.010623 
2858.505312  	0.010612 
2860.434128  	0.010659 
2862.362944  	0.010736 
2864.291760  	0.010674 
2866.220576  	0.010673 
2868.149392  	0.010721 
2870.078208  	0.010729 
2872.007024  	0.010796 
2873.935840  	0.011062 
2875.864656  	0.011258 
2877.793472  	0.011420 
2879.722288  	0.011632 
2881.651104  	0.011880 
2883.579920  	0.012040 
2885.508736  	0.012068 
2887.437552  	0.012123 
2889.366368  	0.012137 
2891.295184  	0.012058 
2893.224000  	0.012020 
2895.152816  	0.011935 
2897.081632  	0.011541 
2899.010448  	0.010980 
2900.939264  	0.010635 
2902.868080  	0.010736 
2904.796896  	0.010933 
2906.725712  	0.011060 
2908.654528  	0.011073 
2910.583344  	0.011188 
2912.512160  	0.011627 
2914.440976  	0.012110 
2916.369792  	0.012500 
2918.298608  	0.012707 
2920.227424  	0.012915 
2922.156240  	0.013288 
2924.085056  	0.013707 
2926.013872  	0.014150 
2927.942688  	0.014701 
2929.871504  	0.015217 
2931.800320  	0.015418 
2933.729136  	0.015825 
2935.657952  	0.016390 
2937.586768  	0.016661 
2939.515584  	0.016908 
2941.444400  	0.017271 
2943.373216  	0.017474 
2945.302032  	0.017428 
2947.230848  	0.017463 
2949.159664  	0.017542 
2951.088480  	0.017330 
2953.017296  	0.017036 
2954.946112  	0.016677 
2956.874928  	0.016393 
2958.803744  	0.015967 
2960.732560  	0.015421 
2962.661376  	0.014939 
2964.590192  	0.014520 
2966.519008  	0.013933 
2968.447824  	0.013193 
2970.376640  	0.012475 
2972.305456  	0.011905 
2974.234272  	0.011409 
2976.163088  	0.010839 
2978.091904  	0.010304 
2980.020720  	0.010005 
2981.949536  	0.009977 
2983.878352  	0.009974 
2985.807168  	0.009963 
2987.735984  	0.010069 
2989.664800  	0.010251 
2991.593616  	0.010902 
2993.522432  	0.011520 
2995.451248  	0.011857 
2997.380064  	0.012258 
2999.308880  	0.012670 
3001.237696  	0.013090 
3003.166512  	0.013394 
3005.095328  	0.013707 
3007.024144  	0.013932 
3008.952960  	0.014283 
3010.881776  	0.014587 
3012.810592  	0.014796 
3014.739408  	0.015115 
3016.668224  	0.015399 
3018.597040  	0.015602 
3020.525856  	0.015718 
3022.454672  	0.016027 
3024.383488  	0.016308 
3026.312304  	0.016552 
3028.241120  	0.016791 
3030.169936  	0.017001 
3032.098752  	0.017334 
3034.027568  	0.017475 
3035.956384  	0.017638 
3037.885200  	0.017788 
3039.814016  	0.018020 
3041.742832  	0.018203 
3043.671648  	0.018282 
3045.600464  	0.018586 
3047.529280  	0.018752 
3049.458096  	0.018937 
3051.386912  	0.019257 
3053.315728  	0.019351 
3055.244544  	0.019285 
3057.173360  	0.019717 
3059.102176  	0.020155 
3061.030992  	0.020340 
3062.959808  	0.020452 
3064.888624  	0.020784 
3066.817440  	0.021175 
3068.746256  	0.021550 
3070.675072  	0.021862 
3072.603888  	0.022076 
3074.532704  	0.022296 
3076.461520  	0.022413 
3078.390336  	0.022581 
3080.319152  	0.023018 
3082.247968  	0.023530 
3084.176784  	0.023740 
3086.105600  	0.023866 
3088.034416  	0.024222 
3089.963232  	0.024638 
3091.892048  	0.025009 
3093.820864  	0.025153 
3095.749680  	0.025417 
3097.678496  	0.025776 
3099.607312  	0.026066 
3101.536128  	0.026413 
3103.464944  	0.026710 
3105.393760  	0.026920 
3107.322576  	0.027121 
3109.251392  	0.027440 
3111.180208  	0.027800 
3113.109024  	0.027847 
3115.037840  	0.027770 
3116.966656  	0.027868 
3118.895472  	0.028186 
3120.824288  	0.028408 
3122.753104  	0.028545 
3124.681920  	0.028652 
3126.610736  	0.028710 
3128.539552  	0.028838 
3130.468368  	0.028861 
3132.397184  	0.028863 
3134.326000  	0.028911 
3136.254816  	0.029133 
3138.183632  	0.029367 
3140.112448  	0.029615 
3142.041264  	0.029857 
3143.970080  	0.029955 
3145.898896  	0.029964 
3147.827712  	0.030164 
3149.756528  	0.030378 
3151.685344  	0.030578 
3153.614160  	0.030689 
3155.542976  	0.030733 
3157.471792  	0.030917 
3159.400608  	0.031215 
3161.329424  	0.031355 
3163.258240  	0.031513 
3165.187056  	0.031649 
3167.115872  	0.031835 
3169.044688  	0.032112 
3170.973504  	0.032240 
3172.902320  	0.032186 
3174.831136  	0.032188 
3176.759952  	0.032242 
3178.688768  	0.032493 
3180.617584  	0.032734 
3182.546400  	0.032473 
3184.475216  	0.032204 
3186.404032  	0.032291 
3188.332848  	0.032242 
3190.261664  	0.032148 
3192.190480  	0.031931 
3194.119296  	0.031642 
3196.048112  	0.031516 
3197.976928  	0.031418 
3199.905744  	0.031318 
3201.834560  	0.030986 
3203.763376  	0.030834 
3205.692192  	0.030616 
3207.621008  	0.030002 
3209.549824  	0.029623 
3211.478640  	0.029447 
3213.407456  	0.029336 
3215.336272  	0.029391 
3217.265088  	0.028870 
3219.193904  	0.028597 
3221.122720  	0.028706 
3223.051536  	0.028581 
3224.980352  	0.028099 
3226.909168  	0.027742 
3228.837984  	0.027585 
3230.766800  	0.027456 
3232.695616  	0.027135 
3234.624432  	0.026784 
3236.553248  	0.026659 
3238.482064  	0.026726 
3240.410880  	0.026940 
3242.339696  	0.026783 
3244.268512  	0.026596 
3246.197328  	0.026919 
3248.126144  	0.026899 
3250.054960  	0.026915 
3251.983776  	0.026786 
3253.912592  	0.026990 
3255.841408  	0.027214 
3257.770224  	0.027270 
3259.699040  	0.027437 
3261.627856  	0.027536 
3263.556672  	0.027493 
3265.485488  	0.027782 
3267.414304  	0.027936 
3269.343120  	0.028040 
3271.271936  	0.028125 
3273.200752  	0.028237 
3275.129568  	0.028568 
3277.058384  	0.028738 
3278.987200  	0.028747 
3280.916016  	0.028867 
3282.844832  	0.028877 
3284.773648  	0.028874 
3286.702464  	0.028905 
3288.631280  	0.028999 
3290.560096  	0.029098 
3292.488912  	0.029516 
3294.417728  	0.029821 
3296.346544  	0.030043 
3298.275360  	0.030459 
3300.204176  	0.030522 
3302.132992  	0.030867 
3304.061808  	0.031271 
3305.990624  	0.031350 
3307.919440  	0.031337 
3309.848256  	0.031635 
3311.777072  	0.031939 
3313.705888  	0.032111 
3315.634704  	0.032355 
3317.563520  	0.032563 
3319.492336  	0.032772 
3321.421152  	0.032927 
3323.349968  	0.033048 
3325.278784  	0.033302 
3327.207600  	0.033597 
3329.136416  	0.033687 
3331.065232  	0.033788 
3332.994048  	0.033946 
3334.922864  	0.034171 
3336.851680  	0.034611 
3338.780496  	0.034544 
3340.709312  	0.034267 
3342.638128  	0.034263 
3344.566944  	0.034057 
3346.495760  	0.033857 
3348.424576  	0.033690 
3350.353392  	0.033617 
3352.282208  	0.033480 
3354.211024  	0.033057 
3356.139840  	0.032847 
3358.068656  	0.032909 
3359.997472  	0.032766 
3361.926288  	0.032531 
3363.855104  	0.032272 
3365.783920  	0.032198 
3367.712736  	0.031981 
3369.641552  	0.031897 
3371.570368  	0.031808 
3373.499184  	0.031422 
3375.428000  	0.030979 
3377.356816  	0.031009 
3379.285632  	0.031273 
3381.214448  	0.031147 
3383.143264  	0.030698 
3385.072080  	0.030796 
3387.000896  	0.030849 
3388.929712  	0.030520 
3390.858528  	0.030059 
3392.787344  	0.030212 
3394.716160  	0.030157 
3396.644976  	0.029899 
3398.573792  	0.029933 
3400.502608  	0.029709 
3402.431424  	0.029528 
3404.360240  	0.029342 
3406.289056  	0.029069 
3408.217872  	0.028959 
3410.146688  	0.028690 
3412.075504  	0.028468 
3414.004320  	0.028437 
3415.933136  	0.028147 
3417.861952  	0.027574 
3419.790768  	0.027357 
3421.719584  	0.027442 
3423.648400  	0.027257 
3425.577216  	0.027032 
3427.506032  	0.026864 
3429.434848  	0.026435 
3431.363664  	0.026243 
3433.292480  	0.026228 
3435.221296  	0.025991 
3437.150112  	0.025594 
3439.078928  	0.025088 
3441.007744  	0.024820 
3442.936560  	0.024788 
3444.865376  	0.024321 
3446.794192  	0.024468 
3448.723008  	0.024895 
3450.651824  	0.023947 
3452.580640  	0.023313 
3454.509456  	0.023129 
3456.438272  	0.022763 
3458.367088  	0.022217 
3460.295904  	0.021931 
3462.224720  	0.021990 
3464.153536  	0.021774 
3466.082352  	0.021272 
3468.011168  	0.020771 
3469.939984  	0.020053 
3471.868800  	0.019582 
3473.797616  	0.019142 
3475.726432  	0.018953 
3477.655248  	0.018367 
3479.584064  	0.017756 
3481.512880  	0.017672 
3483.441696  	0.017570 
3485.370512  	0.016728 
3487.299328  	0.016326 
3489.228144  	0.016108 
3491.156960  	0.015298 
3493.085776  	0.014596 
3495.014592  	0.014233 
3496.943408  	0.014169 
3498.872224  	0.013748 
3500.801040  	0.012814 
3502.729856  	0.012996 
3504.658672  	0.013484 
3506.587488  	0.012389 
3508.516304  	0.011600 
3510.445120  	0.012059 
3512.373936  	0.011794 
3514.302752  	0.011177 
3516.231568  	0.010456 
3518.160384  	0.009937 
3520.089200  	0.009267 
3522.018016  	0.008794 
3523.946832  	0.009219 
3525.875648  	0.008528 
3527.804464  	0.008116 
3529.733280  	0.008508 
3531.662096  	0.008311 
3533.590912  	0.007374 
3535.519728  	0.007072 
3537.448544  	0.007282 
3539.377360  	0.006466 
3541.306176  	0.005875 
3543.234992  	0.005410 
3545.163808  	0.005984 
3547.092624  	0.006718 
3549.021440  	0.005693 
3550.950256  	0.004280 
3552.879072  	0.004888 
3554.807888  	0.004791 
3556.736704  	0.003937 
3558.665520  	0.003551 
3560.594336  	0.003211 
3562.523152  	0.002105 
3564.451968  	0.000508 
3566.380784  	0.001563 
3568.309600  	0.004623 
3570.238416  	0.003416 
3572.167232  	0.001481 
3574.096048  	0.000582 
3576.024864  	0.000162 
3577.953680  	-0.000286 
3579.882496  	-0.000467 
3581.811312  	-0.000798 
3583.740128  	-0.002221 
3585.668944  	-0.003563 
3587.597760  	-0.001549 
3589.526576  	-0.000548 
3591.455392  	-0.003233 
3593.384208  	-0.004358 
3595.313024  	-0.003896 
3597.241840  	-0.004265 
3599.170656  	-0.005289 
3601.099472  	-0.004936 
3603.028288  	-0.004986 
3604.957104  	-0.006906 
3606.885920  	-0.008136 
3608.814736  	-0.006947 
3610.743552  	-0.007559 
3612.672368  	-0.008806 
3614.601184  	-0.008900 
3616.530000  	-0.010763 
3618.458816  	-0.011172 
3620.387632  	-0.009158 
3622.316448  	-0.009463 
3624.245264  	-0.011353 
3626.174080  	-0.014310 
3628.102896  	-0.015375 
3630.031712  	-0.010509 
3631.960528  	-0.011547 
3633.889344  	-0.012274 
3635.818160  	-0.012513 
3637.746976  	-0.013549 
3639.675792  	-0.013974 
3641.604608  	-0.014479 
3643.533424  	-0.015468 
3645.462240  	-0.018440 
3647.391056  	-0.020512 
3649.319872  	-0.018498 
3651.248688  	-0.014841 
3653.177504  	-0.016286 
3655.106320  	-0.018012 
3657.035136  	-0.016708 
3658.963952  	-0.016461 
3660.892768  	-0.016668 
3662.821584  	-0.017310 
3664.750400  	-0.018104 
3666.679216  	-0.019790 
3668.608032  	-0.021853 
3670.536848  	-0.019810 
3672.465664  	-0.020268 
3674.394480  	-0.022850 
3676.323296  	-0.018707 
3678.252112  	-0.018196 
3680.180928  	-0.018092 
3682.109744  	-0.017818 
3684.038560  	-0.018369 
3685.967376  	-0.020156 
3687.896192  	-0.021716 
3689.825008  	-0.020524 
3691.753824  	-0.018300 
3693.682640  	-0.017688 
3695.611456  	-0.017742 
3697.540272  	-0.017572 
3699.469088  	-0.018608 
3701.397904  	-0.018680 
3703.326720  	-0.017574 
3705.255536  	-0.018020 
3707.184352  	-0.019284 
3709.113168  	-0.020673 
3711.041984  	-0.020231 
3712.970800  	-0.017050 
3714.899616  	-0.016481 
3716.828432  	-0.017605 
3718.757248  	-0.017771 
3720.686064  	-0.018483 
3722.614880  	-0.018725 
3724.543696  	-0.018303 
3726.472512  	-0.017584 
3728.401328  	-0.017810 
3730.330144  	-0.020175 
3732.258960  	-0.021452 
3734.187776  	-0.020798 
3736.116592  	-0.018017 
3738.045408  	-0.017314 
3739.974224  	-0.018476 
3741.903040  	-0.020604 
3743.831856  	-0.020976 
3745.760672  	-0.018215 
3747.689488  	-0.020880 
3749.618304  	-0.021981 
3751.547120  	-0.019154 
3753.475936  	-0.016847 
3755.404752  	-0.017872 
3757.333568  	-0.018532 
3759.262384  	-0.017855 
3761.191200  	-0.016556 
3763.120016  	-0.017203 
3765.048832  	-0.017259 
3766.977648  	-0.017184 
3768.906464  	-0.017906 
3770.835280  	-0.016470 
3772.764096  	-0.016186 
3774.692912  	-0.016762 
3776.621728  	-0.017616 
3778.550544  	-0.018040 
3780.479360  	-0.016522 
3782.408176  	-0.016862 
3784.336992  	-0.017163 
3786.265808  	-0.016294 
3788.194624  	-0.016254 
3790.123440  	-0.016566 
3792.052256  	-0.016624 
3793.981072  	-0.017517 
3795.909888  	-0.018347 
3797.838704  	-0.018476 
3799.767520  	-0.020235 
3801.696336  	-0.018965 
3803.625152  	-0.017589 
3805.553968  	-0.019193 
3807.482784  	-0.017477 
3809.411600  	-0.016509 
3811.340416  	-0.016964 
3813.269232  	-0.018506 
3815.198048  	-0.019533 
3817.126864  	-0.017993 
3819.055680  	-0.020085 
3820.984496  	-0.019323 
3822.913312  	-0.016486 
3824.842128  	-0.017778 
3826.770944  	-0.017599 
3828.699760  	-0.017454 
3830.628576  	-0.018453 
3832.557392  	-0.018573 
3834.486208  	-0.019336 
3836.415024  	-0.020300 
3838.343840  	-0.019500 
3840.272656  	-0.018114 
3842.201472  	-0.017644 
3844.130288  	-0.016941 
3846.059104  	-0.016816 
3847.987920  	-0.018035 
3849.916736  	-0.020162 
3851.845552  	-0.022285 
3853.774368  	-0.018312 
3855.703184  	-0.016037 
3857.632000  	-0.016643 
3859.560816  	-0.017555 
3861.489632  	-0.018432 
3863.418448  	-0.018500 
3865.347264  	-0.017044 
3867.276080  	-0.018240 
3869.204896  	-0.019181 
3871.133712  	-0.016969 
3873.062528  	-0.017798 
3874.991344  	-0.016540 
3876.920160  	-0.017213 
3878.848976  	-0.018342 
3880.777792  	-0.016865 
3882.706608  	-0.016952 
3884.635424  	-0.017809 
3886.564240  	-0.015757 
3888.493056  	-0.017111 
3890.421872  	-0.018197 
3892.350688  	-0.016717 
3894.279504  	-0.016403 
3896.208320  	-0.017488 
3898.137136  	-0.018213 
3900.065952  	-0.017678 
3901.994768  	-0.017424 
3903.923584  	-0.016401 
3905.852400  	-0.015477 
3907.781216  	-0.016230 
3909.710032  	-0.016805 
3911.638848  	-0.016609 
3913.567664  	-0.016844 
3915.496480  	-0.017122 
3917.425296  	-0.016267 
3919.354112  	-0.016234 
3921.282928  	-0.016639 
3923.211744  	-0.016947 
3925.140560  	-0.016241 
3927.069376  	-0.016576 
3928.998192  	-0.017320 
3930.927008  	-0.016903 
3932.855824  	-0.015908 
3934.784640  	-0.016063 
3936.713456  	-0.016562 
3938.642272  	-0.016529 
3940.571088  	-0.017016 
3942.499904  	-0.016591 
3944.428720  	-0.016322 
3946.357536  	-0.016953 
3948.286352  	-0.016710 
3950.215168  	-0.016249 
3952.143984  	-0.016523 
3954.072800  	-0.016877 
3956.001616  	-0.016846 
3957.930432  	-0.016726 
3959.859248  	-0.016803 
3961.788064  	-0.016533 
3963.716880  	-0.016276 
3965.645696  	-0.016579 
3967.574512  	-0.016860 
3969.503328  	-0.016712 
3971.432144  	-0.016634 
3973.360960  	-0.016586 
3975.289776  	-0.016405 
3977.218592  	-0.016396 
3979.147408  	-0.016424 
3981.076224  	-0.016594 
3983.005040  	-0.016511 
3984.933856  	-0.016403 
3986.862672  	-0.016712 
3988.791488  	-0.016899 
3990.720304  	-0.016749 
3992.649120  	-0.016668 
3994.577936  	-0.016692 
3996.506752  	-0.016741 
3998.435568  	-0.016641 
4000.364384  	-0.016605 