##TITLE=No Description
##DATA TYPE=INFRARED SPECTRUM
##XUNITS=1/CM
##YUNITS=Abs
399.264912  	0.555370 
401.193728  	0.562719 
403.122544  	0.557515 
405.051360  	0.540554 
406.980176  	0.553478 
408.908992  	0.552035 
410.837808  	0.549880 
412.766624  	0.547805 
414.695440  	0.537153 
416.624256  	0.522562 
418.553072  	0.511004 
420.481888  	0.509878 
422.410704  	0.512227 
424.339520  	0.500778 
426.268336  	0.510780 
428.197152  	0.509554 
430.125968  	0.508006 
432.054784  	0.509780 
433.983600  	0.512264 
435.912416  	0.495735 
437.841232  	0.490637 
439.770048  	0.489463 
441.698864  	0.492462 
443.627680  	0.487860 
445.556496  	0.487152 
447.485312  	0.490592 
449.414128  	0.493024 
451.342944  	0.492246 
453.271760  	0.494377 
455.200576  	0.488224 
457.129392  	0.480344 
459.058208  	0.474061 
460.987024  	0.479711 
462.915840  	0.478241 
464.844656  	0.475080 
466.773472  	0.472519 
468.702288  	0.480946 
470.631104  	0.485192 
472.559920  	0.489443 
474.488736  	0.485456 
476.417552  	0.481123 
478.346368  	0.476604 
480.275184  	0.478122 
482.204000  	0.474977 
484.132816  	0.473074 
486.061632  	0.470321 
487.990448  	0.469858 
489.919264  	0.467473 
491.848080  	0.468997 
493.776896  	0.465619 
495.705712  	0.462901 
497.634528  	0.459620 
499.563344  	0.460817 
501.492160  	0.458923 
503.420976  	0.455320 
505.349792  	0.452750 
507.278608  	0.454342 
509.207424  	0.456164 
511.136240  	0.459710 
513.065056  	0.457651 
514.993872  	0.458080 
516.922688  	0.457578 
518.851504  	0.457264 
520.780320  	0.456193 
522.709136  	0.457230 
524.637952  	0.455362 
526.566768  	0.455050 
528.495584  	0.450424 
530.424400  	0.448379 
532.353216  	0.446331 
534.282032  	0.442788 
536.210848  	0.437661 
538.139664  	0.434861 
540.068480  	0.430052 
541.997296  	0.425221 
543.926112  	0.420112 
545.854928  	0.418672 
547.783744  	0.417565 
549.712560  	0.416749 
551.641376  	0.413119 
553.570192  	0.410096 
555.499008  	0.408267 
557.427824  	0.407016 
559.356640  	0.403415 
561.285456  	0.400456 
563.214272  	0.396828 
565.143088  	0.393116 
567.071904  	0.388580 
569.000720  	0.386775 
570.929536  	0.383751 
572.858352  	0.382276 
574.787168  	0.379743 
576.715984  	0.377335 
578.644800  	0.374012 
580.573616  	0.370015 
582.502432  	0.365484 
584.431248  	0.362052 
586.360064  	0.358459 
588.288880  	0.355781 
590.217696  	0.353033 
592.146512  	0.350970 
594.075328  	0.348794 
596.004144  	0.347239 
597.932960  	0.345893 
599.861776  	0.345161 
601.790592  	0.343363 
603.719408  	0.341750 
605.648224  	0.339358 
607.577040  	0.337798 
609.505856  	0.336471 
611.434672  	0.335533 
613.363488  	0.334281 
615.292304  	0.332555 
617.221120  	0.329747 
619.149936  	0.328313 
621.078752  	0.326161 
623.007568  	0.325526 
624.936384  	0.325422 
626.865200  	0.324019 
628.794016  	0.322321 
630.722832  	0.321270 
632.651648  	0.320136 
634.580464  	0.319843 
636.509280  	0.319660 
638.438096  	0.318865 
640.366912  	0.317893 
642.295728  	0.316632 
644.224544  	0.314321 
646.153360  	0.312292 
648.082176  	0.309031 
650.010992  	0.306190 
651.939808  	0.301916 
653.868624  	0.298166 
655.797440  	0.294127 
657.726256  	0.291175 
659.655072  	0.287997 
661.583888  	0.285162 
663.512704  	0.281737 
665.441520  	0.277627 
667.370336  	0.272980 
669.299152  	0.270406 
671.227968  	0.266431 
673.156784  	0.263023 
675.085600  	0.260697 
677.014416  	0.258462 
678.943232  	0.255419 
680.872048  	0.253642 
682.800864  	0.251983 
684.729680  	0.250459 
686.658496  	0.248829 
688.587312  	0.247750 
690.516128  	0.245715 
692.444944  	0.244363 
694.373760  	0.243753 
696.302576  	0.242745 
698.231392  	0.240027 
700.160208  	0.238076 
702.089024  	0.236223 
704.017840  	0.233898 
705.946656  	0.231246 
707.875472  	0.229182 
709.804288  	0.227062 
711.733104  	0.225317 
713.661920  	0.223968 
715.590736  	0.222921 
717.519552  	0.221870 
719.448368  	0.221348 
721.377184  	0.221244 
723.306000  	0.221314 
725.234816  	0.220939 
727.163632  	0.219880 
729.092448  	0.217840 
731.021264  	0.214953 
732.950080  	0.212056 
734.878896  	0.209377 
736.807712  	0.206671 
738.736528  	0.204401 
740.665344  	0.202009 
742.594160  	0.200937 
744.522976  	0.199607 
746.451792  	0.198754 
748.380608  	0.197440 
750.309424  	0.196441 
752.238240  	0.195112 
754.167056  	0.194202 
756.095872  	0.193277 
758.024688  	0.192068 
759.953504  	0.191373 
761.882320  	0.191419 
763.811136  	0.191383 
765.739952  	0.189763 
767.668768  	0.187067 
769.597584  	0.184434 
771.526400  	0.183479 
773.455216  	0.184291 
775.384032  	0.186584 
777.312848  	0.190371 
779.241664  	0.192768 
781.170480  	0.192003 
783.099296  	0.187805 
785.028112  	0.183144 
786.956928  	0.178019 
788.885744  	0.173640 
790.814560  	0.170366 
792.743376  	0.168639 
794.672192  	0.167731 
796.601008  	0.166283 
798.529824  	0.163350 
800.458640  	0.159882 
802.387456  	0.156963 
804.316272  	0.155185 
806.245088  	0.154104 
808.173904  	0.153140 
810.102720  	0.152123 
812.031536  	0.151352 
813.960352  	0.151427 
815.889168  	0.151691 
817.817984  	0.151785 
819.746800  	0.152088 
821.675616  	0.152438 
823.604432  	0.153007 
825.533248  	0.153472 
827.462064  	0.153696 
829.390880  	0.152865 
831.319696  	0.151974 
833.248512  	0.150688 
835.177328  	0.149085 
837.106144  	0.146782 
839.034960  	0.144422 
840.963776  	0.141413 
842.892592  	0.138283 
844.821408  	0.134880 
846.750224  	0.131826 
848.679040  	0.129786 
850.607856  	0.127943 
852.536672  	0.126432 
854.465488  	0.125001 
856.394304  	0.124130 
858.323120  	0.123191 
860.251936  	0.122164 
862.180752  	0.120956 
864.109568  	0.119217 
866.038384  	0.117331 
867.967200  	0.115564 
869.896016  	0.114010 
871.824832  	0.112474 
873.753648  	0.111684 
875.682464  	0.111327 
877.611280  	0.112209 
879.540096  	0.114162 
881.468912  	0.116830 
883.397728  	0.119556 
885.326544  	0.121965 
887.255360  	0.123753 
889.184176  	0.124336 
891.112992  	0.124131 
893.041808  	0.123288 
894.970624  	0.121305 
896.899440  	0.118316 
898.828256  	0.114695 
900.757072  	0.110807 
902.685888  	0.107331 
904.614704  	0.105235 
906.543520  	0.104447 
908.472336  	0.105133 
910.401152  	0.106581 
912.329968  	0.108653 
914.258784  	0.110856 
916.187600  	0.112694 
918.116416  	0.114211 
920.045232  	0.115518 
921.974048  	0.116389 
923.902864  	0.116952 
925.831680  	0.117204 
927.760496  	0.117647 
929.689312  	0.118312 
931.618128  	0.119143 
933.546944  	0.119637 
935.475760  	0.119763 
937.404576  	0.119417 
939.333392  	0.118633 
941.262208  	0.118033 
943.191024  	0.118151 
945.119840  	0.119824 
947.048656  	0.123325 
948.977472  	0.128638 
950.906288  	0.135595 
952.835104  	0.144205 
954.763920  	0.154469 
956.692736  	0.165180 
958.621552  	0.175364 
960.550368  	0.183215 
962.479184  	0.188655 
964.408000  	0.190370 
966.336816  	0.188299 
968.265632  	0.182124 
970.194448  	0.173016 
972.123264  	0.161625 
974.052080  	0.149338 
975.980896  	0.137071 
977.909712  	0.125312 
979.838528  	0.114759 
981.767344  	0.105979 
983.696160  	0.099591 
985.624976  	0.095413 
987.553792  	0.093880 
989.482608  	0.094824 
991.411424  	0.097917 
993.340240  	0.102770 
995.269056  	0.108317 
997.197872  	0.114267 
999.126688  	0.120196 
1001.055504  	0.126348 
1002.984320  	0.132348 
1004.913136  	0.138515 
1006.841952  	0.144259 
1008.770768  	0.150127 
1010.699584  	0.155244 
1012.628400  	0.159410 
1014.557216  	0.162710 
1016.486032  	0.164921 
1018.414848  	0.166175 
1020.343664  	0.166924 
1022.272480  	0.167435 
1024.201296  	0.167898 
1026.130112  	0.167927 
1028.058928  	0.168350 
1029.987744  	0.169715 
1031.916560  	0.171670 
1033.845376  	0.173592 
1035.774192  	0.176113 
1037.703008  	0.179533 
1039.631824  	0.185249 
1041.560640  	0.193888 
1043.489456  	0.206432 
1045.418272  	0.221977 
1047.347088  	0.239139 
1049.275904  	0.254610 
1051.204720  	0.265978 
1053.133536  	0.272112 
1055.062352  	0.274546 
1056.991168  	0.274577 
1058.919984  	0.274446 
1060.848800  	0.274040 
1062.777616  	0.273835 
1064.706432  	0.273071 
1066.635248  	0.271987 
1068.564064  	0.269164 
1070.492880  	0.264150 
1072.421696  	0.258113 
1074.350512  	0.254131 
1076.279328  	0.253104 
1078.208144  	0.256001 
1080.136960  	0.260845 
1082.065776  	0.265319 
1083.994592  	0.266186 
1085.923408  	0.263241 
1087.852224  	0.256484 
1089.781040  	0.247809 
1091.709856  	0.236681 
1093.638672  	0.224434 
1095.567488  	0.210963 
1097.496304  	0.197614 
1099.425120  	0.184148 
1101.353936  	0.171365 
1103.282752  	0.159336 
1105.211568  	0.148228 
1107.140384  	0.137912 
1109.069200  	0.128627 
1110.998016  	0.120102 
1112.926832  	0.112259 
1114.855648  	0.105013 
1116.784464  	0.098237 
1118.713280  	0.091492 
1120.642096  	0.084967 
1122.570912  	0.079004 
1124.499728  	0.073749 
1126.428544  	0.068934 
1128.357360  	0.065043 
1130.286176  	0.061676 
1132.214992  	0.058918 
1134.143808  	0.056740 
1136.072624  	0.054789 
1138.001440  	0.053083 
1139.930256  	0.051767 
1141.859072  	0.050422 
1143.787888  	0.049300 
1145.716704  	0.048281 
1147.645520  	0.047390 
1149.574336  	0.046821 
1151.503152  	0.046649 
1153.431968  	0.046746 
1155.360784  	0.046937 
1157.289600  	0.047360 
1159.218416  	0.047875 
1161.147232  	0.048708 
1163.076048  	0.049861 
1165.004864  	0.050919 
1166.933680  	0.051809 
1168.862496  	0.052845 
1170.791312  	0.054217 
1172.720128  	0.055802 
1174.648944  	0.057979 
1176.577760  	0.060152 
1178.506576  	0.062359 
1180.435392  	0.064677 
1182.364208  	0.067352 
1184.293024  	0.070437 
1186.221840  	0.073646 
1188.150656  	0.077434 
1190.079472  	0.081751 
1192.008288  	0.086882 
1193.937104  	0.092875 
1195.865920  	0.099539 
1197.794736  	0.107090 
1199.723552  	0.115150 
1201.652368  	0.123579 
1203.581184  	0.131699 
1205.510000  	0.139492 
1207.438816  	0.146548 
1209.367632  	0.153044 
1211.296448  	0.158350 
1213.225264  	0.162770 
1215.154080  	0.165592 
1217.082896  	0.167441 
1219.011712  	0.167863 
1220.940528  	0.167729 
1222.869344  	0.166702 
1224.798160  	0.165121 
1226.726976  	0.162569 
1228.655792  	0.159583 
1230.584608  	0.155852 
1232.513424  	0.151692 
1234.442240  	0.146811 
1236.371056  	0.141559 
1238.299872  	0.135996 
1240.228688  	0.129640 
1242.157504  	0.123158 
1244.086320  	0.116994 
1246.015136  	0.110737 
1247.943952  	0.104619 
1249.872768  	0.098773 
1251.801584  	0.093261 
1253.730400  	0.087545 
1255.659216  	0.082201 
1257.588032  	0.077064 
1259.516848  	0.072167 
1261.445664  	0.067579 
1263.374480  	0.063603 
1265.303296  	0.060176 
1267.232112  	0.057305 
1269.160928  	0.055166 
1271.089744  	0.053795 
1273.018560  	0.053152 
1274.947376  	0.053246 
1276.876192  	0.053937 
1278.805008  	0.054502 
1280.733824  	0.054384 
1282.662640  	0.053260 
1284.591456  	0.051762 
1286.520272  	0.050279 
1288.449088  	0.049442 
1290.377904  	0.049614 
1292.306720  	0.050445 
1294.235536  	0.051192 
1296.164352  	0.051180 
1298.093168  	0.049907 
1300.021984  	0.047672 
1301.950800  	0.045237 
1303.879616  	0.042638 
1305.808432  	0.039789 
1307.737248  	0.036795 
1309.666064  	0.033930 
1311.594880  	0.031685 
1313.523696  	0.030208 
1315.452512  	0.029083 
1317.381328  	0.028406 
1319.310144  	0.028469 
1321.238960  	0.028854 
1323.167776  	0.029502 
1325.096592  	0.030114 
1327.025408  	0.030466 
1328.954224  	0.030305 
1330.883040  	0.029592 
1332.811856  	0.028521 
1334.740672  	0.027342 
1336.669488  	0.026514 
1338.598304  	0.026384 
1340.527120  	0.026428 
1342.455936  	0.025758 
1344.384752  	0.025435 
1346.313568  	0.025753 
1348.242384  	0.026485 
1350.171200  	0.027545 
1352.100016  	0.028859 
1354.028832  	0.030378 
1355.957648  	0.032158 
1357.886464  	0.033629 
1359.815280  	0.035098 
1361.744096  	0.037269 
1363.672912  	0.040207 
1365.601728  	0.041676 
1367.530544  	0.043018 
1369.459360  	0.044772 
1371.388176  	0.045252 
1373.316992  	0.044953 
1375.245808  	0.044368 
1377.174624  	0.042450 
1379.103440  	0.040399 
1381.032256  	0.038096 
1382.961072  	0.036041 
1384.889888  	0.034175 
1386.818704  	0.033259 
1388.747520  	0.032264 
1390.676336  	0.030066 
1392.605152  	0.027459 
1394.533968  	0.026322 
1396.462784  	0.026770 
1398.391600  	0.026540 
1400.320416  	0.026978 
1402.249232  	0.026568 
1404.178048  	0.027017 
1406.106864  	0.028234 
1408.035680  	0.028984 
1409.964496  	0.030095 
1411.893312  	0.032070 
1413.822128  	0.033636 
1415.750944  	0.034849 
1417.679760  	0.035882 
1419.608576  	0.038323 
1421.537392  	0.038290 
1423.466208  	0.037357 
1425.395024  	0.036751 
1427.323840  	0.034486 
1429.252656  	0.032363 
1431.181472  	0.031345 
1433.110288  	0.030514 
1435.039104  	0.029577 
1436.967920  	0.031978 
1438.896736  	0.033671 
1440.825552  	0.033834 
1442.754368  	0.034359 
1444.683184  	0.034202 
1446.612000  	0.033860 
1448.540816  	0.034542 
1450.469632  	0.034709 
1452.398448  	0.034382 
1454.327264  	0.033153 
1456.256080  	0.032087 
1458.184896  	0.035145 
1460.113712  	0.035409 
1462.042528  	0.034001 
1463.971344  	0.033046 
1465.900160  	0.034751 
1467.828976  	0.035148 
1469.757792  	0.034760 
1471.686608  	0.035969 
1473.615424  	0.042695 
1475.544240  	0.047152 
1477.473056  	0.051763 
1479.401872  	0.054233 
1481.330688  	0.057179 
1483.259504  	0.059592 
1485.188320  	0.060443 
1487.117136  	0.060658 
1489.045952  	0.061713 
1490.974768  	0.062705 
1492.903584  	0.060488 
1494.832400  	0.056022 
1496.761216  	0.051636 
1498.690032  	0.047355 
1500.618848  	0.043487 
1502.547664  	0.038737 
1504.476480  	0.033198 
1506.405296  	0.030323 
1508.334112  	0.033403 
1510.262928  	0.031497 
1512.191744  	0.030012 
1514.120560  	0.028756 
1516.049376  	0.028192 
1517.978192  	0.029564 
1519.907008  	0.029354 
1521.835824  	0.034195 
1523.764640  	0.038324 
1525.693456  	0.040947 
1527.622272  	0.043731 
1529.551088  	0.043891 
1531.479904  	0.041782 
1533.408720  	0.040109 
1535.337536  	0.038399 
1537.266352  	0.033643 
1539.195168  	0.028785 
1541.123984  	0.029200 
1543.052800  	0.029855 
1544.981616  	0.029915 
1546.910432  	0.028853 
1548.839248  	0.027405 
1550.768064  	0.027754 
1552.696880  	0.026304 
1554.625696  	0.025858 
1556.554512  	0.023258 
1558.483328  	0.022708 
1560.412144  	0.032834 
1562.340960  	0.032923 
1564.269776  	0.033608 
1566.198592  	0.036388 
1568.127408  	0.037150 
1570.056224  	0.042849 
1571.985040  	0.046875 
1573.913856  	0.047046 
1575.842672  	0.048916 
1577.771488  	0.053853 
1579.700304  	0.053202 
1581.629120  	0.052334 
1583.557936  	0.051518 
1585.486752  	0.051675 
1587.415568  	0.052672 
1589.344384  	0.055481 
1591.273200  	0.059252 
1593.202016  	0.063990 
1595.130832  	0.069338 
1597.059648  	0.075418 
1598.988464  	0.080328 
1600.917280  	0.085012 
1602.846096  	0.088577 
1604.774912  	0.091232 
1606.703728  	0.091604 
1608.632544  	0.091671 
1610.561360  	0.090633 
1612.490176  	0.088840 
1614.418992  	0.084970 
1616.347808  	0.084664 
1618.276624  	0.088432 
1620.205440  	0.088410 
1622.134256  	0.088646 
1624.063072  	0.095312 
1625.991888  	0.099295 
1627.920704  	0.105235 
1629.849520  	0.112906 
1631.778336  	0.117501 
1633.707152  	0.119532 
1635.635968  	0.128812 
1637.564784  	0.141240 
1639.493600  	0.144927 
1641.422416  	0.148249 
1643.351232  	0.149723 
1645.280048  	0.148790 
1647.208864  	0.154733 
1649.137680  	0.157551 
1651.066496  	0.152223 
1652.995312  	0.152119 
1654.924128  	0.161171 
1656.852944  	0.157681 
1658.781760  	0.154902 
1660.710576  	0.151526 
1662.639392  	0.149648 
1664.568208  	0.148003 
1666.497024  	0.142858 
1668.425840  	0.137382 
1670.354656  	0.134950 
1672.283472  	0.131465 
1674.212288  	0.126679 
1676.141104  	0.125380 
1678.069920  	0.122343 
1679.998736  	0.119408 
1681.927552  	0.115798 
1683.856368  	0.114535 
1685.785184  	0.120353 
1687.714000  	0.118660 
1689.642816  	0.118590 
1691.571632  	0.118177 
1693.500448  	0.115591 
1695.429264  	0.114103 
1697.358080  	0.115451 
1699.286896  	0.112946 
1701.215712  	0.117592 
1703.144528  	0.115373 
1705.073344  	0.112837 
1707.002160  	0.111711 
1708.930976  	0.109052 
1710.859792  	0.104512 
1712.788608  	0.098470 
1714.717424  	0.090638 
1716.646240  	0.082030 
1718.575056  	0.073591 
1720.503872  	0.065325 
1722.432688  	0.056738 
1724.361504  	0.047989 
1726.290320  	0.040113 
1728.219136  	0.032956 
1730.147952  	0.026875 
1732.076768  	0.020987 
1734.005584  	0.017561 
1735.934400  	0.015637 
1737.863216  	0.012158 
1739.792032  	0.009861 
1741.720848  	0.008785 
1743.649664  	0.007508 
1745.578480  	0.005801 
1747.507296  	0.003914 
1749.436112  	0.003546 
1751.364928  	0.004168 
1753.293744  	0.003879 
1755.222560  	0.002252 
1757.151376  	0.002387 
1759.080192  	0.001574 
1761.009008  	0.000890 
1762.937824  	0.001382 
1764.866640  	0.000950 
1766.795456  	0.000008 
1768.724272  	-0.000163 
1770.653088  	-0.002257 
1772.581904  	-0.001657 
1774.510720  	-0.000460 
1776.439536  	-0.000354 
1778.368352  	-0.000994 
1780.297168  	-0.001231 
1782.225984  	-0.001072 
1784.154800  	-0.000983 
1786.083616  	-0.000855 
1788.012432  	-0.001491 
1789.941248  	-0.002475 
1791.870064  	-0.002427 
1793.798880  	-0.001644 
1795.727696  	-0.001670 
1797.656512  	-0.002539 
1799.585328  	-0.003019 
1801.514144  	-0.002073 
1803.442960  	-0.001953 
1805.371776  	-0.002625 
1807.300592  	-0.002811 
1809.229408  	-0.003181 
1811.158224  	-0.003043 
1813.087040  	-0.002873 
1815.015856  	-0.003052 
1816.944672  	-0.003005 
1818.873488  	-0.002810 
1820.802304  	-0.003130 
1822.731120  	-0.003523 
1824.659936  	-0.003420 
1826.588752  	-0.003203 
1828.517568  	-0.004346 
1830.446384  	-0.003186 
1832.375200  	-0.002710 
1834.304016  	-0.002946 
1836.232832  	-0.003001 
1838.161648  	-0.003233 
1840.090464  	-0.003684 
1842.019280  	-0.004323 
1843.948096  	-0.004314 
1845.876912  	-0.003276 
1847.805728  	-0.003123 
1849.734544  	-0.002952 
1851.663360  	-0.003319 
1853.592176  	-0.003363 
1855.520992  	-0.003750 
1857.449808  	-0.003667 
1859.378624  	-0.003646 
1861.307440  	-0.003346 
1863.236256  	-0.003587 
1865.165072  	-0.004169 
1867.093888  	-0.004803 
1869.022704  	-0.003965 
1870.951520  	-0.003556 
1872.880336  	-0.003857 
1874.809152  	-0.003896 
1876.737968  	-0.003673 
1878.666784  	-0.003651 
1880.595600  	-0.003675 
1882.524416  	-0.003818 
1884.453232  	-0.003729 
1886.382048  	-0.004145 
1888.310864  	-0.004191 
1890.239680  	-0.003385 
1892.168496  	-0.003467 
1894.097312  	-0.004270 
1896.026128  	-0.003960 
1897.954944  	-0.003990 
1899.883760  	-0.004204 
1901.812576  	-0.004095 
1903.741392  	-0.003907 
1905.670208  	-0.004252 
1907.599024  	-0.003960 
1909.527840  	-0.003515 
1911.456656  	-0.003325 
1913.385472  	-0.003487 
1915.314288  	-0.003833 
1917.243104  	-0.004320 
1919.171920  	-0.003782 
1921.100736  	-0.004163 
1923.029552  	-0.003849 
1924.958368  	-0.004477 
1926.887184  	-0.004863 
1928.816000  	-0.003969 
1930.744816  	-0.003481 
1932.673632  	-0.003906 
1934.602448  	-0.004286 
1936.531264  	-0.004476 
1938.460080  	-0.004549 
1940.388896  	-0.005481 
1942.317712  	-0.005222 
1944.246528  	-0.004656 
1946.175344  	-0.004307 
1948.104160  	-0.004625 
1950.032976  	-0.004983 
1951.961792  	-0.004733 
1953.890608  	-0.004254 
1955.819424  	-0.004892 
1957.748240  	-0.005615 
1959.677056  	-0.006459 
1961.605872  	-0.006056 
1963.534688  	-0.006174 
1965.463504  	-0.005789 
1967.392320  	-0.006373 
1969.321136  	-0.006211 
1971.249952  	-0.006388 
1973.178768  	-0.006990 
1975.107584  	-0.006725 
1977.036400  	-0.005509 
1978.965216  	-0.003816 
1980.894032  	-0.002996 
1982.822848  	-0.003651 
1984.751664  	-0.002978 
1986.680480  	-0.003077 
1988.609296  	-0.003807 
1990.538112  	-0.004904 
1992.466928  	-0.004653 
1994.395744  	-0.004913 
1996.324560  	-0.004445 
1998.253376  	-0.004415 
2000.182192  	-0.004332 
2002.111008  	-0.004558 
2004.039824  	-0.004774 
2005.968640  	-0.004897 
2007.897456  	-0.004349 
2009.826272  	-0.003484 
2011.755088  	-0.003471 
2013.683904  	-0.004072 
2015.612720  	-0.003463 
2017.541536  	-0.003929 
2019.470352  	-0.003070 
2021.399168  	-0.002532 
2023.327984  	-0.001872 
2025.256800  	-0.002879 
2027.185616  	-0.003746 
2029.114432  	-0.003742 
2031.043248  	-0.003145 
2032.972064  	-0.001966 
2034.900880  	-0.001281 
2036.829696  	-0.002029 
2038.758512  	-0.001470 
2040.687328  	-0.001226 
2042.616144  	-0.001074 
2044.544960  	-0.001657 
2046.473776  	-0.002145 
2048.402592  	-0.002114 
2050.331408  	-0.001700 
2052.260224  	-0.002657 
2054.189040  	-0.003584 
2056.117856  	-0.003367 
2058.046672  	-0.002370 
2059.975488  	-0.002381 
2061.904304  	-0.002624 
2063.833120  	-0.002919 
2065.761936  	-0.002533 
2067.690752  	-0.002232 
2069.619568  	-0.002160 
2071.548384  	-0.002677 
2073.477200  	-0.002437 
2075.406016  	-0.002373 
2077.334832  	-0.002460 
2079.263648  	-0.002449 
2081.192464  	-0.001754 
2083.121280  	-0.001743 
2085.050096  	-0.001927 
2086.978912  	-0.002224 
2088.907728  	-0.001693 
2090.836544  	-0.001867 
2092.765360  	-0.002160 
2094.694176  	-0.002331 
2096.622992  	-0.001951 
2098.551808  	-0.001422 
2100.480624  	-0.001427 
2102.409440  	-0.001855 
2104.338256  	-0.001990 
2106.267072  	-0.001669 
2108.195888  	-0.001359 
2110.124704  	-0.001638 
2112.053520  	-0.001796 
2113.982336  	-0.001537 
2115.911152  	-0.001272 
2117.839968  	-0.001394 
2119.768784  	-0.001703 
2121.697600  	-0.002461 
2123.626416  	-0.002406 
2125.555232  	-0.002554 
2127.484048  	-0.002767 
2129.412864  	-0.002769 
2131.341680  	-0.003268 
2133.270496  	-0.003712 
2135.199312  	-0.002450 
2137.128128  	-0.001927 
2139.056944  	-0.002142 
2140.985760  	-0.002173 
2142.914576  	-0.001492 
2144.843392  	-0.001379 
2146.772208  	-0.001612 
2148.701024  	-0.001768 
2150.629840  	-0.000934 
2152.558656  	-0.002269 
2154.487472  	-0.002432 
2156.416288  	-0.001097 
2158.345104  	0.001227 
2160.273920  	0.002861 
2162.202736  	0.003266 
2164.131552  	0.002277 
2166.060368  	0.001613 
2167.989184  	0.001703 
2169.918000  	0.001695 
2171.846816  	0.001674 
2173.775632  	0.000735 
2175.704448  	0.000402 
2177.633264  	0.000848 
2179.562080  	-0.000224 
2181.490896  	-0.000526 
2183.419712  	0.000140 
2185.348528  	0.000337 
2187.277344  	0.000300 
2189.206160  	0.000832 
2191.134976  	0.001002 
2193.063792  	0.001009 
2194.992608  	0.000300 
2196.921424  	-0.000094 
2198.850240  	0.000152 
2200.779056  	0.000711 
2202.707872  	-0.000082 
2204.636688  	-0.000882 
2206.565504  	-0.000240 
2208.494320  	0.000559 
2210.423136  	-0.000085 
2212.351952  	-0.000344 
2214.280768  	-0.000423 
2216.209584  	-0.000047 
2218.138400  	0.000442 
2220.067216  	0.000186 
2221.996032  	-0.000178 
2223.924848  	-0.000345 
2225.853664  	-0.001063 
2227.782480  	-0.001096 
2229.711296  	-0.000456 
2231.640112  	-0.000553 
2233.568928  	-0.001006 
2235.497744  	-0.000902 
2237.426560  	-0.000737 
2239.355376  	-0.000815 
2241.284192  	-0.001331 
2243.213008  	-0.001348 
2245.141824  	-0.001450 
2247.070640  	-0.000799 
2248.999456  	-0.001148 
2250.928272  	-0.001655 
2252.857088  	-0.001249 
2254.785904  	-0.000863 
2256.714720  	-0.000649 
2258.643536  	-0.001045 
2260.572352  	-0.001414 
2262.501168  	-0.001385 
2264.429984  	-0.001407 
2266.358800  	-0.001132 
2268.287616  	-0.000859 
2270.216432  	-0.000914 
2272.145248  	-0.001215 
2274.074064  	-0.000852 
2276.002880  	-0.000816 
2277.931696  	-0.000665 
2279.860512  	-0.000300 
2281.789328  	0.000038 
2283.718144  	-0.000132 
2285.646960  	0.000072 
2287.575776  	0.000198 
2289.504592  	0.000067 
2291.433408  	-0.000014 
2293.362224  	0.000217 
2295.291040  	0.000369 
2297.219856  	0.000527 
2299.148672  	0.000770 
2301.077488  	0.001033 
2303.006304  	0.000809 
2304.935120  	0.000714 
2306.863936  	0.001238 
2308.792752  	0.001560 
2310.721568  	0.001671 
2312.650384  	0.001767 
2314.579200  	0.001490 
2316.508016  	0.001188 
2318.436832  	0.000776 
2320.365648  	0.000703 
2322.294464  	0.000977 
2324.223280  	0.000631 
2326.152096  	-0.001272 
2328.080912  	-0.002115 
2330.009728  	-0.001978 
2331.938544  	-0.002360 
2333.867360  	-0.003377 
2335.796176  	-0.004159 
2337.724992  	-0.004329 
2339.653808  	-0.004086 
2341.582624  	-0.003726 
2343.511440  	-0.002712 
2345.440256  	-0.001083 
2347.369072  	-0.000219 
2349.297888  	-0.001210 
2351.226704  	-0.002713 
2353.155520  	-0.003552 
2355.084336  	-0.004135 
2357.013152  	-0.004887 
2358.941968  	-0.004914 
2360.870784  	-0.004215 
2362.799600  	-0.003797 
2364.728416  	-0.003399 
2366.657232  	-0.002506 
2368.586048  	-0.001239 
2370.514864  	-0.000060 
2372.443680  	0.000674 
2374.372496  	0.001084 
2376.301312  	0.001563 
2378.230128  	0.002070 
2380.158944  	0.002043 
2382.087760  	0.001538 
2384.016576  	0.000971 
2385.945392  	0.000500 
2387.874208  	0.000071 
2389.803024  	-0.000070 
2391.731840  	-0.000019 
2393.660656  	-0.000038 
2395.589472  	-0.000181 
2397.518288  	-0.000057 
2399.447104  	0.000004 
2401.375920  	-0.000010 
2403.304736  	0.000259 
2405.233552  	0.000437 
2407.162368  	0.000328 
2409.091184  	0.000360 
2411.020000  	0.000523 
2412.948816  	0.000513 
2414.877632  	0.000539 
2416.806448  	0.000766 
2418.735264  	0.000907 
2420.664080  	0.001024 
2422.592896  	0.000934 
2424.521712  	0.000894 
2426.450528  	0.001119 
2428.379344  	0.001247 
2430.308160  	0.001392 
2432.236976  	0.001627 
2434.165792  	0.001557 
2436.094608  	0.001473 
2438.023424  	0.001540 
2439.952240  	0.001705 
2441.881056  	0.001999 
2443.809872  	0.002162 
2445.738688  	0.002155 
2447.667504  	0.002244 
2449.596320  	0.002420 
2451.525136  	0.002636 
2453.453952  	0.002606 
2455.382768  	0.002618 
2457.311584  	0.002754 
2459.240400  	0.002718 
2461.169216  	0.002639 
2463.098032  	0.002790 
2465.026848  	0.002913 
2466.955664  	0.002812 
2468.884480  	0.002875 
2470.813296  	0.003050 
2472.742112  	0.003281 
2474.670928  	0.003323 
2476.599744  	0.003331 
2478.528560  	0.003580 
2480.457376  	0.003494 
2482.386192  	0.003354 
2484.315008  	0.003454 
2486.243824  	0.003648 
2488.172640  	0.003806 
2490.101456  	0.004024 
2492.030272  	0.004121 
2493.959088  	0.003772 
2495.887904  	0.003905 
2497.816720  	0.004457 
2499.745536  	0.004657 
2501.674352  	0.004810 
2503.603168  	0.004875 
2505.531984  	0.004880 
2507.460800  	0.004749 
2509.389616  	0.004796 
2511.318432  	0.004947 
2513.247248  	0.004883 
2515.176064  	0.004850 
2517.104880  	0.005036 
2519.033696  	0.005522 
2520.962512  	0.005663 
2522.891328  	0.005574 
2524.820144  	0.005671 
2526.748960  	0.005680 
2528.677776  	0.005825 
2530.606592  	0.005905 
2532.535408  	0.005875 
2534.464224  	0.005877 
2536.393040  	0.005918 
2538.321856  	0.005951 
2540.250672  	0.005905 
2542.179488  	0.005873 
2544.108304  	0.006202 
2546.037120  	0.006355 
2547.965936  	0.006345 
2549.894752  	0.006417 
2551.823568  	0.006566 
2553.752384  	0.006650 
2555.681200  	0.006699 
2557.610016  	0.006831 
2559.538832  	0.006841 
2561.467648  	0.007092 
2563.396464  	0.007243 
2565.325280  	0.007167 
2567.254096  	0.007291 
2569.182912  	0.007469 
2571.111728  	0.007669 
2573.040544  	0.007937 
2574.969360  	0.008126 
2576.898176  	0.008221 
2578.826992  	0.008269 
2580.755808  	0.008328 
2582.684624  	0.008438 
2584.613440  	0.008443 
2586.542256  	0.008540 
2588.471072  	0.008565 
2590.399888  	0.008468 
2592.328704  	0.008657 
2594.257520  	0.008881 
2596.186336  	0.008973 
2598.115152  	0.009020 
2600.043968  	0.009093 
2601.972784  	0.009117 
2603.901600  	0.009121 
2605.830416  	0.009203 
2607.759232  	0.009342 
2609.688048  	0.009361 
2611.616864  	0.009482 
2613.545680  	0.009746 
2615.474496  	0.009873 
2617.403312  	0.009862 
2619.332128  	0.009846 
2621.260944  	0.009954 
2623.189760  	0.010066 
2625.118576  	0.010278 
2627.047392  	0.010491 
2628.976208  	0.010663 
2630.905024  	0.010701 
2632.833840  	0.010834 
2634.762656  	0.011044 
2636.691472  	0.011155 
2638.620288  	0.011326 
2640.549104  	0.011567 
2642.477920  	0.011738 
2644.406736  	0.011750 
2646.335552  	0.011881 
2648.264368  	0.012120 
2650.193184  	0.012209 
2652.122000  	0.012300 
2654.050816  	0.012405 
2655.979632  	0.012517 
2657.908448  	0.012676 
2659.837264  	0.012854 
2661.766080  	0.013058 
2663.694896  	0.013119 
2665.623712  	0.013030 
2667.552528  	0.013184 
2669.481344  	0.013424 
2671.410160  	0.013704 
2673.338976  	0.013787 
2675.267792  	0.013724 
2677.196608  	0.013910 
2679.125424  	0.014133 
2681.054240  	0.014216 
2682.983056  	0.014269 
2684.911872  	0.014456 
2686.840688  	0.014662 
2688.769504  	0.014831 
2690.698320  	0.014973 
2692.627136  	0.015011 
2694.555952  	0.015004 
2696.484768  	0.015116 
2698.413584  	0.015377 
2700.342400  	0.015489 
2702.271216  	0.015632 
2704.200032  	0.015769 
2706.128848  	0.015903 
2708.057664  	0.016052 
2709.986480  	0.016146 
2711.915296  	0.016355 
2713.844112  	0.016482 
2715.772928  	0.016513 
2717.701744  	0.016561 
2719.630560  	0.016715 
2721.559376  	0.016942 
2723.488192  	0.017079 
2725.417008  	0.017264 
2727.345824  	0.017482 
2729.274640  	0.017570 
2731.203456  	0.017623 
2733.132272  	0.017863 
2735.061088  	0.018153 
2736.989904  	0.018299 
2738.918720  	0.018441 
2740.847536  	0.018513 
2742.776352  	0.018609 
2744.705168  	0.018728 
2746.633984  	0.018745 
2748.562800  	0.018881 
2750.491616  	0.019076 
2752.420432  	0.019257 
2754.349248  	0.019286 
2756.278064  	0.019247 
2758.206880  	0.019197 
2760.135696  	0.019242 
2762.064512  	0.019394 
2763.993328  	0.019503 
2765.922144  	0.019415 
2767.850960  	0.019389 
2769.779776  	0.019575 
2771.708592  	0.019574 
2773.637408  	0.019449 
2775.566224  	0.019413 
2777.495040  	0.019412 
2779.423856  	0.019417 
2781.352672  	0.019445 
2783.281488  	0.019457 
2785.210304  	0.019504 
2787.139120  	0.019578 
2789.067936  	0.019578 
2790.996752  	0.019547 
2792.925568  	0.019546 
2794.854384  	0.019505 
2796.783200  	0.019436 
2798.712016  	0.019550 
2800.640832  	0.019667 
2802.569648  	0.019644 
2804.498464  	0.019590 
2806.427280  	0.019523 
2808.356096  	0.019494 
2810.284912  	0.019610 
2812.213728  	0.019606 
2814.142544  	0.019711 
2816.071360  	0.019744 
2818.000176  	0.019807 
2819.928992  	0.019822 
2821.857808  	0.019863 
2823.786624  	0.019822 
2825.715440  	0.019814 
2827.644256  	0.019777 
2829.573072  	0.019659 
2831.501888  	0.019628 
2833.430704  	0.019573 
2835.359520  	0.019477 
2837.288336  	0.019486 
2839.217152  	0.019509 
2841.145968  	0.019413 
2843.074784  	0.019310 
2845.003600  	0.019248 
2846.932416  	0.019380 
2848.861232  	0.019590 
2850.790048  	0.019555 
2852.718864  	0.019548 
2854.647680  	0.019657 
2856.576496  	0.019654 
2858.505312  	0.019781 
2860.434128  	0.019826 
2862.362944  	0.019743 
2864.291760  	0.019808 
2866.220576  	0.019962 
2868.149392  	0.019977 
2870.078208  	0.019969 
2872.007024  	0.020169 
2873.935840  	0.020617 
2875.864656  	0.020902 
2877.793472  	0.021153 
2879.722288  	0.021488 
2881.651104  	0.021783 
2883.579920  	0.021943 
2885.508736  	0.022125 
2887.437552  	0.022341 
2889.366368  	0.022243 
2891.295184  	0.022103 
2893.224000  	0.022040 
2895.152816  	0.022070 
2897.081632  	0.021871 
2899.010448  	0.021252 
2900.939264  	0.020796 
2902.868080  	0.021004 
2904.796896  	0.021178 
2906.725712  	0.021171 
2908.654528  	0.021281 
2910.583344  	0.021638 
2912.512160  	0.022136 
2914.440976  	0.022713 
2916.369792  	0.023167 
2918.298608  	0.023558 
2920.227424  	0.023871 
2922.156240  	0.024239 
2924.085056  	0.024637 
2926.013872  	0.025136 
2927.942688  	0.025751 
2929.871504  	0.026366 
2931.800320  	0.026840 
2933.729136  	0.027391 
2935.657952  	0.027957 
2937.586768  	0.028421 
2939.515584  	0.028782 
2941.444400  	0.029168 
2943.373216  	0.029446 
2945.302032  	0.029555 
2947.230848  	0.029613 
2949.159664  	0.029675 
2951.088480  	0.029475 
2953.017296  	0.029155 
2954.946112  	0.028751 
2956.874928  	0.028382 
2958.803744  	0.028033 
2960.732560  	0.027575 
2962.661376  	0.027054 
2964.590192  	0.026558 
2966.519008  	0.025999 
2968.447824  	0.025377 
2970.376640  	0.024697 
2972.305456  	0.023974 
2974.234272  	0.023322 
2976.163088  	0.022752 
2978.091904  	0.022400 
2980.020720  	0.022094 
2981.949536  	0.021868 
2983.878352  	0.021822 
2985.807168  	0.021808 
2987.735984  	0.021898 
2989.664800  	0.022254 
2991.593616  	0.022993 
2993.522432  	0.023538 
2995.451248  	0.023960 
2997.380064  	0.024454 
2999.308880  	0.024946 
3001.237696  	0.025239 
3003.166512  	0.025427 
3005.095328  	0.025701 
3007.024144  	0.025985 
3008.952960  	0.026478 
3010.881776  	0.026885 
3012.810592  	0.027251 
3014.739408  	0.027684 
3016.668224  	0.028121 
3018.597040  	0.028412 
3020.525856  	0.028485 
3022.454672  	0.028749 
3024.383488  	0.029217 
3026.312304  	0.029566 
3028.241120  	0.029737 
3030.169936  	0.029966 
3032.098752  	0.030414 
3034.027568  	0.030801 
3035.956384  	0.031028 
3037.885200  	0.031212 
3039.814016  	0.031531 
3041.742832  	0.031821 
3043.671648  	0.032174 
3045.600464  	0.032704 
3047.529280  	0.032966 
3049.458096  	0.033289 
3051.386912  	0.033532 
3053.315728  	0.033646 
3055.244544  	0.033907 
3057.173360  	0.034667 
3059.102176  	0.035223 
3061.030992  	0.035445 
3062.959808  	0.035550 
3064.888624  	0.035938 
3066.817440  	0.036562 
3068.746256  	0.037181 
3070.675072  	0.037478 
3072.603888  	0.037809 
3074.532704  	0.038272 
3076.461520  	0.038610 
3078.390336  	0.039084 
3080.319152  	0.039719 
3082.247968  	0.040295 
3084.176784  	0.040768 
3086.105600  	0.041064 
3088.034416  	0.041506 
3089.963232  	0.042071 
3091.892048  	0.042557 
3093.820864  	0.042956 
3095.749680  	0.043518 
3097.678496  	0.044033 
3099.607312  	0.044478 
3101.536128  	0.045119 
3103.464944  	0.045606 
3105.393760  	0.045926 
3107.322576  	0.046275 
3109.251392  	0.046764 
3111.180208  	0.047118 
3113.109024  	0.047213 
3115.037840  	0.047461 
3116.966656  	0.048000 
3118.895472  	0.048536 
3120.824288  	0.048709 
3122.753104  	0.049019 
3124.681920  	0.049197 
3126.610736  	0.049482 
3128.539552  	0.049935 
3130.468368  	0.049952 
3132.397184  	0.050096 
3134.326000  	0.050433 
3136.254816  	0.050680 
3138.183632  	0.050761 
3140.112448  	0.051237 
3142.041264  	0.051683 
3143.970080  	0.051897 
3145.898896  	0.052229 
3147.827712  	0.052542 
3149.756528  	0.052763 
3151.685344  	0.053107 
3153.614160  	0.053460 
3155.542976  	0.053724 
3157.471792  	0.053960 
3159.400608  	0.054238 
3161.329424  	0.054517 
3163.258240  	0.054884 
3165.187056  	0.055305 
3167.115872  	0.055496 
3169.044688  	0.055779 
3170.973504  	0.056163 
3172.902320  	0.056286 
3174.831136  	0.056243 
3176.759952  	0.056370 
3178.688768  	0.056797 
3180.617584  	0.057145 
3182.546400  	0.056992 
3184.475216  	0.056695 
3186.404032  	0.056601 
3188.332848  	0.056594 
3190.261664  	0.056477 
3192.190480  	0.056265 
3194.119296  	0.056016 
3196.048112  	0.055797 
3197.976928  	0.055807 
3199.905744  	0.055743 
3201.834560  	0.055427 
3203.763376  	0.055240 
3205.692192  	0.054919 
3207.621008  	0.054288 
3209.549824  	0.054089 
3211.478640  	0.053973 
3213.407456  	0.053452 
3215.336272  	0.053530 
3217.265088  	0.053194 
3219.193904  	0.052743 
3221.122720  	0.052680 
3223.051536  	0.052568 
3224.980352  	0.052126 
3226.909168  	0.051823 
3228.837984  	0.051581 
3230.766800  	0.051456 
3232.695616  	0.051172 
3234.624432  	0.050725 
3236.553248  	0.050597 
3238.482064  	0.050564 
3240.410880  	0.050746 
3242.339696  	0.050664 
3244.268512  	0.050499 
3246.197328  	0.050850 
3248.126144  	0.050845 
3250.054960  	0.050942 
3251.983776  	0.050797 
3253.912592  	0.050898 
3255.841408  	0.051282 
3257.770224  	0.051683 
3259.699040  	0.051861 
3261.627856  	0.051731 
3263.556672  	0.051791 
3265.485488  	0.052179 
3267.414304  	0.052411 
3269.343120  	0.052468 
3271.271936  	0.052454 
3273.200752  	0.052716 
3275.129568  	0.053159 
3277.058384  	0.053263 
3278.987200  	0.053242 
3280.916016  	0.053367 
3282.844832  	0.053548 
3284.773648  	0.053537 
3286.702464  	0.053541 
3288.631280  	0.053731 
3290.560096  	0.053979 
3292.488912  	0.054437 
3294.417728  	0.054701 
3296.346544  	0.054728 
3298.275360  	0.055129 
3300.204176  	0.055350 
3302.132992  	0.055585 
3304.061808  	0.055819 
3305.990624  	0.056012 
3307.919440  	0.056274 
3309.848256  	0.056684 
3311.777072  	0.057052 
3313.705888  	0.057429 
3315.634704  	0.057595 
3317.563520  	0.057900 
3319.492336  	0.058225 
3321.421152  	0.058345 
3323.349968  	0.058454 
3325.278784  	0.058594 
3327.207600  	0.058931 
3329.136416  	0.059056 
3331.065232  	0.059071 
3332.994048  	0.059064 
3334.922864  	0.059203 
3336.851680  	0.059623 
3338.780496  	0.059736 
3340.709312  	0.059284 
3342.638128  	0.059050 
3344.566944  	0.058960 
3346.495760  	0.058804 
3348.424576  	0.058515 
3350.353392  	0.058413 
3352.282208  	0.058407 
3354.211024  	0.058194 
3356.139840  	0.057808 
3358.068656  	0.057471 
3359.997472  	0.057141 
3361.926288  	0.056858 
3363.855104  	0.056608 
3365.783920  	0.056589 
3367.712736  	0.056300 
3369.641552  	0.056097 
3371.570368  	0.055978 
3373.499184  	0.055584 
3375.428000  	0.055114 
3377.356816  	0.055007 
3379.285632  	0.055059 
3381.214448  	0.054911 
3383.143264  	0.054575 
3385.072080  	0.054519 
3387.000896  	0.054433 
3388.929712  	0.053918 
3390.858528  	0.053205 
3392.787344  	0.053254 
3394.716160  	0.053190 
3396.644976  	0.052853 
3398.573792  	0.052785 
3400.502608  	0.052574 
3402.431424  	0.052408 
3404.360240  	0.052056 
3406.289056  	0.051677 
3408.217872  	0.051324 
3410.146688  	0.050899 
3412.075504  	0.050679 
3414.004320  	0.050542 
3415.933136  	0.050136 
3417.861952  	0.049342 
3419.790768  	0.049127 
3421.719584  	0.049522 
3423.648400  	0.049207 
3425.577216  	0.048464 
3427.506032  	0.048241 
3429.434848  	0.047973 
3431.363664  	0.047414 
3433.292480  	0.046965 
3435.221296  	0.046603 
3437.150112  	0.046268 
3439.078928  	0.045849 
3441.007744  	0.045377 
3442.936560  	0.045306 
3444.865376  	0.044696 
3446.794192  	0.044745 
3448.723008  	0.045212 
3450.651824  	0.043965 
3452.580640  	0.043077 
3454.509456  	0.042765 
3456.438272  	0.042336 
3458.367088  	0.041618 
3460.295904  	0.041103 
3462.224720  	0.040839 
3464.153536  	0.040548 
3466.082352  	0.039832 
3468.011168  	0.039407 
3469.939984  	0.038740 
3471.868800  	0.037776 
3473.797616  	0.037066 
3475.726432  	0.036844 
3477.655248  	0.036089 
3479.584064  	0.035044 
3481.512880  	0.035026 
3483.441696  	0.034898 
3485.370512  	0.033844 
3487.299328  	0.033220 
3489.228144  	0.032983 
3491.156960  	0.032254 
3493.085776  	0.031224 
3495.014592  	0.030642 
3496.943408  	0.030433 
3498.872224  	0.029682 
3500.801040  	0.028333 
3502.729856  	0.028565 
3504.658672  	0.029166 
3506.587488  	0.027860 
3508.516304  	0.026917 
3510.445120  	0.027280 
3512.373936  	0.026746 
3514.302752  	0.025928 
3516.231568  	0.025245 
3518.160384  	0.024694 
3520.089200  	0.023695 
3522.018016  	0.022936 
3523.946832  	0.023550 
3525.875648  	0.023042 
3527.804464  	0.022474 
3529.733280  	0.022456 
3531.662096  	0.022130 
3533.590912  	0.020929 
3535.519728  	0.020340 
3537.448544  	0.020747 
3539.377360  	0.019757 
3541.306176  	0.018634 
3543.234992  	0.017789 
3545.163808  	0.018629 
3547.092624  	0.019838 
3549.021440  	0.018518 
3550.950256  	0.016540 
3552.879072  	0.017089 
3554.807888  	0.016942 
3556.736704  	0.015858 
3558.665520  	0.015149 
3560.594336  	0.014689 
3562.523152  	0.013305 
3564.451968  	0.011301 
3566.380784  	0.012844 
3568.309600  	0.016847 
3570.238416  	0.014846 
3572.167232  	0.012133 
3574.096048  	0.011064 
3576.024864  	0.010761 
3577.953680  	0.010512 
3579.882496  	0.010160 
3581.811312  	0.009340 
3583.740128  	0.007435 
3585.668944  	0.005860 
3587.597760  	0.008813 
3589.526576  	0.009997 
3591.455392  	0.006468 
3593.384208  	0.005038 
3595.313024  	0.005942 
3597.241840  	0.005458 
3599.170656  	0.003927 
3601.099472  	0.004043 
3603.028288  	0.003643 
3604.957104  	0.001311 
3606.885920  	0.000365 
3608.814736  	0.001954 
3610.743552  	0.000491 
3612.672368  	-0.000522 
3614.601184  	-0.000071 
3616.530000  	-0.002811 
3618.458816  	-0.003021 
3620.387632  	-0.000414 
3622.316448  	-0.001619 
3624.245264  	-0.004518 
3626.174080  	-0.007988 
3628.102896  	-0.007900 
3630.031712  	-0.001382 
3631.960528  	-0.004244 
3633.889344  	-0.005810 
3635.818160  	-0.006122 
3637.746976  	-0.007367 
3639.675792  	-0.008150 
3641.604608  	-0.008848 
3643.533424  	-0.009947 
3645.462240  	-0.013458 
3647.391056  	-0.014813 
3649.319872  	-0.010898 
3651.248688  	-0.006610 
3653.177504  	-0.010226 
3655.106320  	-0.012972 
3657.035136  	-0.010442 
3658.963952  	-0.010963 
3660.892768  	-0.011926 
3662.821584  	-0.012683 
3664.750400  	-0.013690 
3666.679216  	-0.015915 
3668.608032  	-0.017637 
3670.536848  	-0.013544 
3672.465664  	-0.015457 
3674.394480  	-0.018508 
3676.323296  	-0.011181 
3678.252112  	-0.012181 
3680.180928  	-0.012887 
3682.109744  	-0.013387 
3684.038560  	-0.014651 
3685.967376  	-0.017053 
3687.896192  	-0.017913 
3689.825008  	-0.014863 
3691.753824  	-0.012617 
3693.682640  	-0.012789 
3695.611456  	-0.013387 
3697.540272  	-0.013465 
3699.469088  	-0.014857 
3701.397904  	-0.014302 
3703.326720  	-0.012773 
3705.255536  	-0.013877 
3707.184352  	-0.015752 
3709.113168  	-0.017157 
3711.041984  	-0.015112 
3712.970800  	-0.011102 
3714.899616  	-0.011925 
3716.828432  	-0.014061 
3718.757248  	-0.014365 
3720.686064  	-0.014693 
3722.614880  	-0.014256 
3724.543696  	-0.014090 
3726.472512  	-0.013234 
3728.401328  	-0.013746 
3730.330144  	-0.017026 
3732.258960  	-0.017707 
3734.187776  	-0.016290 
3736.116592  	-0.012115 
3738.045408  	-0.012047 
3739.974224  	-0.014475 
3741.903040  	-0.017511 
3743.831856  	-0.016875 
3745.760672  	-0.011880 
3747.689488  	-0.016420 
3749.618304  	-0.017351 
3751.547120  	-0.013097 
3753.475936  	-0.011144 
3755.404752  	-0.013753 
3757.333568  	-0.014671 
3759.262384  	-0.013389 
3761.191200  	-0.011872 
3763.120016  	-0.013816 
3765.048832  	-0.013712 
3766.977648  	-0.013276 
3768.906464  	-0.013973 
3770.835280  	-0.011659 
3772.764096  	-0.011933 
3774.692912  	-0.013117 
3776.621728  	-0.014394 
3778.550544  	-0.014388 
3780.479360  	-0.011991 
3782.408176  	-0.013128 
3784.336992  	-0.013519 
3786.265808  	-0.012482 
3788.194624  	-0.012720 
3790.123440  	-0.013130 
3792.052256  	-0.013379 
3793.981072  	-0.014609 
3795.909888  	-0.014795 
3797.838704  	-0.014593 
3799.767520  	-0.017157 
3801.696336  	-0.013862 
3803.625152  	-0.012556 
3805.553968  	-0.015519 
3807.482784  	-0.012663 
3809.411600  	-0.012294 
3811.340416  	-0.013828 
3813.269232  	-0.016114 
3815.198048  	-0.016401 
3817.126864  	-0.013337 
3819.055680  	-0.016582 
3820.984496  	-0.014301 
3822.913312  	-0.010779 
3824.842128  	-0.013702 
3826.770944  	-0.013531 
3828.699760  	-0.013741 
3830.628576  	-0.015104 
3832.557392  	-0.014945 
3834.486208  	-0.015934 
3836.415024  	-0.016590 
3838.343840  	-0.014843 
3840.272656  	-0.012876 
3842.201472  	-0.012808 
3844.130288  	-0.012208 
3846.059104  	-0.012705 
3847.987920  	-0.014930 
3849.916736  	-0.017723 
3851.845552  	-0.019753 
3853.774368  	-0.011613 
3855.703184  	-0.009312 
3857.632000  	-0.011859 
3859.560816  	-0.014164 
3861.489632  	-0.015377 
3863.418448  	-0.014734 
3865.347264  	-0.012243 
3867.276080  	-0.014466 
3869.204896  	-0.015378 
3871.133712  	-0.011829 
3873.062528  	-0.013527 
3874.991344  	-0.011939 
3876.920160  	-0.013596 
3878.848976  	-0.015465 
3880.777792  	-0.012906 
3882.706608  	-0.013288 
3884.635424  	-0.014448 
3886.564240  	-0.011083 
3888.493056  	-0.013528 
3890.421872  	-0.014885 
3892.350688  	-0.012235 
3894.279504  	-0.012333 
3896.208320  	-0.014540 
3898.137136  	-0.015426 
3900.065952  	-0.014050 
3901.994768  	-0.013509 
3903.923584  	-0.012052 
3905.852400  	-0.010738 
3907.781216  	-0.012022 
3909.710032  	-0.013034 
3911.638848  	-0.013091 
3913.567664  	-0.013582 
3915.496480  	-0.013975 
3917.425296  	-0.012609 
3919.354112  	-0.012433 
3921.282928  	-0.012945 
3923.211744  	-0.013473 
3925.140560  	-0.012309 
3927.069376  	-0.012763 
3928.998192  	-0.013894 
3930.927008  	-0.013131 
3932.855824  	-0.011647 
3934.784640  	-0.012045 
3936.713456  	-0.012905 
3938.642272  	-0.013025 
3940.571088  	-0.013754 
3942.499904  	-0.012849 
3944.428720  	-0.012209 
3946.357536  	-0.013296 
3948.286352  	-0.013047 
3950.215168  	-0.012635 
3952.143984  	-0.012945 
3954.072800  	-0.013152 
3956.001616  	-0.013203 
3957.930432  	-0.013212 
3959.859248  	-0.013308 
3961.788064  	-0.013015 
3963.716880  	-0.012611 
3965.645696  	-0.012855 
3967.574512  	-0.013149 
3969.503328  	-0.013040 
3971.432144  	-0.013000 
3973.360960  	-0.013055 
3975.289776  	-0.012873 
3977.218592  	-0.012881 
3979.147408  	-0.012941 
3981.076224  	-0.013047 
3983.005040  	-0.012934 
3984.933856  	-0.012873 
3986.862672  	-0.013036 
3988.791488  	-0.013275 
3990.720304  	-0.013152 
3992.649120  	-0.013057 
3994.577936  	-0.012986 
3996.506752  	-0.013029 
3998.435568  	-0.013176 
4000.364384  	-0.013166 