##TITLE=No Description
##DATA TYPE=INFRARED SPECTRUM
##XUNITS=1/CM
##YUNITS=Abs
399.264912  	0.570452 
401.193728  	0.547994 
403.122544  	0.552725 
405.051360  	0.545103 
406.980176  	0.552903 
408.908992  	0.545880 
410.837808  	0.540353 
412.766624  	0.537557 
414.695440  	0.546193 
416.624256  	0.540142 
418.553072  	0.554558 
420.481888  	0.538093 
422.410704  	0.521239 
424.339520  	0.510974 
426.268336  	0.520048 
428.197152  	0.516778 
430.125968  	0.511704 
432.054784  	0.505008 
433.983600  	0.508934 
435.912416  	0.506790 
437.841232  	0.506530 
439.770048  	0.494172 
441.698864  	0.495684 
443.627680  	0.491670 
445.556496  	0.487328 
447.485312  	0.486113 
449.414128  	0.493417 
451.342944  	0.494340 
453.271760  	0.489217 
455.200576  	0.482706 
457.129392  	0.485892 
459.058208  	0.481697 
460.987024  	0.480571 
462.915840  	0.477951 
464.844656  	0.480929 
466.773472  	0.477668 
468.702288  	0.482172 
470.631104  	0.484161 
472.559920  	0.480183 
474.488736  	0.472081 
476.417552  	0.474547 
478.346368  	0.466922 
480.275184  	0.465248 
482.204000  	0.464451 
484.132816  	0.464953 
486.061632  	0.466319 
487.990448  	0.469427 
489.919264  	0.464896 
491.848080  	0.462176 
493.776896  	0.460610 
495.705712  	0.459469 
497.634528  	0.458039 
499.563344  	0.457199 
501.492160  	0.453925 
503.420976  	0.455256 
505.349792  	0.454324 
507.278608  	0.453648 
509.207424  	0.452485 
511.136240  	0.454655 
513.065056  	0.453466 
514.993872  	0.455055 
516.922688  	0.454257 
518.851504  	0.455330 
520.780320  	0.452949 
522.709136  	0.453860 
524.637952  	0.452949 
526.566768  	0.452798 
528.495584  	0.448223 
530.424400  	0.445292 
532.353216  	0.443762 
534.282032  	0.440537 
536.210848  	0.435468 
538.139664  	0.433536 
540.068480  	0.429977 
541.997296  	0.425332 
543.926112  	0.419451 
545.854928  	0.417245 
547.783744  	0.414817 
549.712560  	0.414663 
551.641376  	0.411258 
553.570192  	0.407621 
555.499008  	0.404915 
557.427824  	0.402821 
559.356640  	0.399359 
561.285456  	0.397553 
563.214272  	0.395246 
565.143088  	0.393692 
567.071904  	0.388499 
569.000720  	0.384474 
570.929536  	0.382167 
572.858352  	0.381271 
574.787168  	0.378435 
576.715984  	0.376276 
578.644800  	0.372589 
580.573616  	0.369670 
582.502432  	0.365798 
584.431248  	0.361434 
586.360064  	0.357306 
588.288880  	0.354484 
590.217696  	0.352292 
592.146512  	0.350736 
594.075328  	0.349173 
596.004144  	0.347066 
597.932960  	0.345052 
599.861776  	0.344494 
601.790592  	0.342103 
603.719408  	0.340000 
605.648224  	0.338464 
607.577040  	0.337634 
609.505856  	0.336021 
611.434672  	0.334013 
613.363488  	0.331553 
615.292304  	0.329896 
617.221120  	0.327688 
619.149936  	0.327059 
621.078752  	0.325521 
623.007568  	0.324618 
624.936384  	0.323685 
626.865200  	0.322469 
628.794016  	0.321151 
630.722832  	0.320297 
632.651648  	0.319518 
634.580464  	0.319181 
636.509280  	0.318359 
638.438096  	0.317133 
640.366912  	0.316054 
642.295728  	0.314939 
644.224544  	0.312568 
646.153360  	0.310547 
648.082176  	0.307258 
650.010992  	0.304435 
651.939808  	0.300144 
653.868624  	0.297023 
655.797440  	0.293509 
657.726256  	0.290454 
659.655072  	0.287511 
661.583888  	0.284429 
663.512704  	0.280996 
665.441520  	0.276451 
667.370336  	0.271687 
669.299152  	0.269236 
671.227968  	0.265866 
673.156784  	0.262681 
675.085600  	0.259736 
677.014416  	0.257681 
678.943232  	0.255467 
680.872048  	0.253814 
682.800864  	0.251676 
684.729680  	0.250368 
686.658496  	0.249079 
688.587312  	0.247645 
690.516128  	0.245576 
692.444944  	0.244512 
694.373760  	0.243202 
696.302576  	0.241560 
698.231392  	0.239303 
700.160208  	0.237164 
702.089024  	0.235119 
704.017840  	0.233222 
705.946656  	0.230404 
707.875472  	0.227969 
709.804288  	0.225921 
711.733104  	0.224438 
713.661920  	0.222548 
715.590736  	0.221431 
717.519552  	0.220723 
719.448368  	0.220161 
721.377184  	0.220038 
723.306000  	0.219696 
725.234816  	0.219043 
727.163632  	0.218377 
729.092448  	0.216694 
731.021264  	0.214024 
732.950080  	0.210979 
734.878896  	0.208611 
736.807712  	0.206124 
738.736528  	0.203861 
740.665344  	0.201632 
742.594160  	0.200256 
744.522976  	0.198705 
746.451792  	0.197953 
748.380608  	0.196698 
750.309424  	0.195178 
752.238240  	0.193867 
754.167056  	0.193319 
756.095872  	0.192209 
758.024688  	0.190714 
759.953504  	0.189796 
761.882320  	0.190055 
763.811136  	0.190450 
765.739952  	0.188949 
767.668768  	0.186071 
769.597584  	0.183533 
771.526400  	0.182480 
773.455216  	0.182811 
775.384032  	0.184600 
777.312848  	0.188117 
779.241664  	0.190346 
781.170480  	0.189603 
783.099296  	0.185536 
785.028112  	0.180948 
786.956928  	0.176632 
788.885744  	0.172699 
790.814560  	0.169293 
792.743376  	0.167433 
794.672192  	0.166659 
796.601008  	0.165578 
798.529824  	0.162619 
800.458640  	0.158904 
802.387456  	0.155737 
804.316272  	0.153979 
806.245088  	0.152766 
808.173904  	0.151654 
810.102720  	0.151072 
812.031536  	0.150679 
813.960352  	0.150235 
815.889168  	0.150384 
817.817984  	0.150495 
819.746800  	0.150225 
821.675616  	0.150221 
823.604432  	0.150593 
825.533248  	0.150908 
827.462064  	0.150926 
829.390880  	0.149898 
831.319696  	0.149148 
833.248512  	0.148066 
835.177328  	0.146502 
837.106144  	0.144005 
839.034960  	0.141671 
840.963776  	0.138958 
842.892592  	0.136053 
844.821408  	0.132882 
846.750224  	0.129959 
848.679040  	0.127703 
850.607856  	0.125839 
852.536672  	0.124681 
854.465488  	0.123517 
856.394304  	0.122616 
858.323120  	0.121719 
860.251936  	0.120594 
862.180752  	0.119210 
864.109568  	0.117470 
866.038384  	0.115622 
867.967200  	0.113719 
869.896016  	0.112275 
871.824832  	0.110751 
873.753648  	0.109876 
875.682464  	0.109661 
877.611280  	0.110380 
879.540096  	0.112119 
881.468912  	0.114821 
883.397728  	0.117402 
885.326544  	0.119280 
887.255360  	0.120783 
889.184176  	0.121420 
891.112992  	0.121149 
893.041808  	0.120127 
894.970624  	0.118177 
896.899440  	0.115463 
898.828256  	0.112256 
900.757072  	0.108820 
902.685888  	0.105428 
904.614704  	0.103307 
906.543520  	0.102668 
908.472336  	0.103397 
910.401152  	0.104777 
912.329968  	0.106436 
914.258784  	0.108331 
916.187600  	0.110057 
918.116416  	0.111440 
920.045232  	0.112577 
921.974048  	0.113368 
923.902864  	0.113796 
925.831680  	0.113988 
927.760496  	0.114624 
929.689312  	0.115164 
931.618128  	0.115751 
933.546944  	0.116196 
935.475760  	0.116339 
937.404576  	0.115827 
939.333392  	0.115027 
941.262208  	0.114318 
943.191024  	0.114521 
945.119840  	0.116258 
947.048656  	0.119384 
948.977472  	0.124130 
950.906288  	0.130473 
952.835104  	0.138534 
954.763920  	0.147883 
956.692736  	0.157377 
958.621552  	0.166556 
960.550368  	0.173740 
962.479184  	0.178774 
964.408000  	0.180524 
966.336816  	0.178616 
968.265632  	0.172923 
970.194448  	0.164537 
972.123264  	0.153901 
974.052080  	0.142322 
975.980896  	0.130934 
977.909712  	0.120124 
979.838528  	0.110173 
981.767344  	0.101932 
983.696160  	0.095891 
985.624976  	0.091998 
987.553792  	0.090591 
989.482608  	0.091508 
991.411424  	0.094457 
993.340240  	0.098957 
995.269056  	0.104096 
997.197872  	0.109659 
999.126688  	0.115216 
1001.055504  	0.121094 
1002.984320  	0.126728 
1004.913136  	0.132541 
1006.841952  	0.138123 
1008.770768  	0.143491 
1010.699584  	0.148210 
1012.628400  	0.152047 
1014.557216  	0.154995 
1016.486032  	0.157129 
1018.414848  	0.158396 
1020.343664  	0.159185 
1022.272480  	0.159764 
1024.201296  	0.160331 
1026.130112  	0.160267 
1028.058928  	0.160534 
1029.987744  	0.161899 
1031.916560  	0.163520 
1033.845376  	0.165057 
1035.774192  	0.167178 
1037.703008  	0.170268 
1039.631824  	0.175225 
1041.560640  	0.182917 
1043.489456  	0.194373 
1045.418272  	0.208808 
1047.347088  	0.225105 
1049.275904  	0.239853 
1051.204720  	0.251139 
1053.133536  	0.257490 
1055.062352  	0.260528 
1056.991168  	0.261257 
1058.919984  	0.261616 
1060.848800  	0.261572 
1062.777616  	0.261625 
1064.706432  	0.260735 
1066.635248  	0.259367 
1068.564064  	0.256532 
1070.492880  	0.252020 
1072.421696  	0.246537 
1074.350512  	0.242847 
1076.279328  	0.241666 
1078.208144  	0.244102 
1080.136960  	0.248260 
1082.065776  	0.251873 
1083.994592  	0.252742 
1085.923408  	0.250845 
1087.852224  	0.244961 
1089.781040  	0.236768 
1091.709856  	0.226614 
1093.638672  	0.215643 
1095.567488  	0.203145 
1097.496304  	0.190594 
1099.425120  	0.177884 
1101.353936  	0.165592 
1103.282752  	0.153945 
1105.211568  	0.143448 
1107.140384  	0.133686 
1109.069200  	0.124641 
1110.998016  	0.116404 
1112.926832  	0.108800 
1114.855648  	0.101695 
1116.784464  	0.095304 
1118.713280  	0.088888 
1120.642096  	0.082470 
1122.570912  	0.076681 
1124.499728  	0.071532 
1126.428544  	0.067067 
1128.357360  	0.063317 
1130.286176  	0.060102 
1132.214992  	0.057458 
1134.143808  	0.055294 
1136.072624  	0.053465 
1138.001440  	0.051943 
1139.930256  	0.050682 
1141.859072  	0.049241 
1143.787888  	0.047931 
1145.716704  	0.046708 
1147.645520  	0.045851 
1149.574336  	0.045418 
1151.503152  	0.045242 
1153.431968  	0.045400 
1155.360784  	0.045550 
1157.289600  	0.045908 
1159.218416  	0.046441 
1161.147232  	0.047084 
1163.076048  	0.047959 
1165.004864  	0.049026 
1166.933680  	0.049958 
1168.862496  	0.050991 
1170.791312  	0.052162 
1172.720128  	0.053450 
1174.648944  	0.055354 
1176.577760  	0.057394 
1178.506576  	0.059622 
1180.435392  	0.061880 
1182.364208  	0.064137 
1184.293024  	0.066857 
1186.221840  	0.070037 
1188.150656  	0.073595 
1190.079472  	0.077700 
1192.008288  	0.082790 
1193.937104  	0.088580 
1195.865920  	0.094781 
1197.794736  	0.101781 
1199.723552  	0.109144 
1201.652368  	0.116963 
1203.581184  	0.124721 
1205.510000  	0.132173 
1207.438816  	0.138994 
1209.367632  	0.145135 
1211.296448  	0.150109 
1213.225264  	0.154410 
1215.154080  	0.157254 
1217.082896  	0.158902 
1219.011712  	0.159382 
1220.940528  	0.159477 
1222.869344  	0.158610 
1224.798160  	0.157177 
1226.726976  	0.154804 
1228.655792  	0.151961 
1230.584608  	0.148377 
1232.513424  	0.144363 
1234.442240  	0.139951 
1236.371056  	0.135151 
1238.299872  	0.129743 
1240.228688  	0.123793 
1242.157504  	0.117782 
1244.086320  	0.111974 
1246.015136  	0.106076 
1247.943952  	0.100306 
1249.872768  	0.094580 
1251.801584  	0.089237 
1253.730400  	0.083852 
1255.659216  	0.078686 
1257.588032  	0.073689 
1259.516848  	0.069116 
1261.445664  	0.064799 
1263.374480  	0.060911 
1265.303296  	0.057564 
1267.232112  	0.054875 
1269.160928  	0.052839 
1271.089744  	0.051442 
1273.018560  	0.050779 
1274.947376  	0.050870 
1276.876192  	0.051413 
1278.805008  	0.051955 
1280.733824  	0.051863 
1282.662640  	0.050683 
1284.591456  	0.049217 
1286.520272  	0.047828 
1288.449088  	0.046965 
1290.377904  	0.047060 
1292.306720  	0.047807 
1294.235536  	0.048409 
1296.164352  	0.048389 
1298.093168  	0.047237 
1300.021984  	0.045083 
1301.950800  	0.042687 
1303.879616  	0.040283 
1305.808432  	0.037548 
1307.737248  	0.034681 
1309.666064  	0.032034 
1311.594880  	0.029943 
1313.523696  	0.028539 
1315.452512  	0.027484 
1317.381328  	0.026862 
1319.310144  	0.026930 
1321.238960  	0.027289 
1323.167776  	0.027878 
1325.096592  	0.028448 
1327.025408  	0.028869 
1328.954224  	0.028856 
1330.883040  	0.028160 
1332.811856  	0.027056 
1334.740672  	0.025894 
1336.669488  	0.025126 
1338.598304  	0.025062 
1340.527120  	0.025053 
1342.455936  	0.024389 
1344.384752  	0.024056 
1346.313568  	0.024312 
1348.242384  	0.024967 
1350.171200  	0.026060 
1352.100016  	0.027453 
1354.028832  	0.028925 
1355.957648  	0.030632 
1357.886464  	0.032049 
1359.815280  	0.033426 
1361.744096  	0.035562 
1363.672912  	0.038444 
1365.601728  	0.039748 
1367.530544  	0.040965 
1369.459360  	0.042696 
1371.388176  	0.043121 
1373.316992  	0.042731 
1375.245808  	0.042114 
1377.174624  	0.040342 
1379.103440  	0.038321 
1381.032256  	0.036119 
1382.961072  	0.034178 
1384.889888  	0.032363 
1386.818704  	0.031590 
1388.747520  	0.030626 
1390.676336  	0.028387 
1392.605152  	0.025939 
1394.533968  	0.024938 
1396.462784  	0.025194 
1398.391600  	0.025003 
1400.320416  	0.025569 
1402.249232  	0.025207 
1404.178048  	0.025635 
1406.106864  	0.026789 
1408.035680  	0.027472 
1409.964496  	0.028571 
1411.893312  	0.030458 
1413.822128  	0.031977 
1415.750944  	0.033140 
1417.679760  	0.034098 
1419.608576  	0.036410 
1421.537392  	0.036352 
1423.466208  	0.035501 
1425.395024  	0.034835 
1427.323840  	0.032706 
1429.252656  	0.030713 
1431.181472  	0.029603 
1433.110288  	0.028804 
1435.039104  	0.028041 
1436.967920  	0.030337 
1438.896736  	0.031786 
1440.825552  	0.031932 
1442.754368  	0.032413 
1444.683184  	0.032234 
1446.612000  	0.031888 
1448.540816  	0.032610 
1450.469632  	0.032588 
1452.398448  	0.032166 
1454.327264  	0.031210 
1456.256080  	0.030432 
1458.184896  	0.033011 
1460.113712  	0.033254 
1462.042528  	0.031973 
1463.971344  	0.031191 
1465.900160  	0.032874 
1467.828976  	0.033363 
1469.757792  	0.033203 
1471.686608  	0.034481 
1473.615424  	0.040695 
1475.544240  	0.044920 
1477.473056  	0.049258 
1479.401872  	0.051643 
1481.330688  	0.054484 
1483.259504  	0.056645 
1485.188320  	0.057398 
1487.117136  	0.057522 
1489.045952  	0.058483 
1490.974768  	0.059308 
1492.903584  	0.057041 
1494.832400  	0.052817 
1496.761216  	0.048910 
1498.690032  	0.045025 
1500.618848  	0.041304 
1502.547664  	0.036765 
1504.476480  	0.031534 
1506.405296  	0.028719 
1508.334112  	0.031575 
1510.262928  	0.029912 
1512.191744  	0.028520 
1514.120560  	0.027264 
1516.049376  	0.026903 
1517.978192  	0.028218 
1519.907008  	0.027995 
1521.835824  	0.032426 
1523.764640  	0.036127 
1525.693456  	0.038628 
1527.622272  	0.041412 
1529.551088  	0.041858 
1531.479904  	0.040040 
1533.408720  	0.038381 
1535.337536  	0.036520 
1537.266352  	0.032162 
1539.195168  	0.027735 
1541.123984  	0.027876 
1543.052800  	0.028551 
1544.981616  	0.028643 
1546.910432  	0.027527 
1548.839248  	0.026189 
1550.768064  	0.026516 
1552.696880  	0.025077 
1554.625696  	0.024751 
1556.554512  	0.022309 
1558.483328  	0.022107 
1560.412144  	0.031557 
1562.340960  	0.031353 
1564.269776  	0.031990 
1566.198592  	0.034729 
1568.127408  	0.035634 
1570.056224  	0.041079 
1571.985040  	0.044629 
1573.913856  	0.044714 
1575.842672  	0.046571 
1577.771488  	0.051142 
1579.700304  	0.050477 
1581.629120  	0.049673 
1583.557936  	0.048918 
1585.486752  	0.049129 
1587.415568  	0.050066 
1589.344384  	0.052640 
1591.273200  	0.056157 
1593.202016  	0.060626 
1595.130832  	0.065721 
1597.059648  	0.071513 
1598.988464  	0.076078 
1600.917280  	0.080292 
1602.846096  	0.083585 
1604.774912  	0.086117 
1606.703728  	0.086601 
1608.632544  	0.086601 
1610.561360  	0.085496 
1612.490176  	0.083887 
1614.418992  	0.080335 
1616.347808  	0.079938 
1618.276624  	0.083195 
1620.205440  	0.083386 
1622.134256  	0.083810 
1624.063072  	0.090026 
1625.991888  	0.093815 
1627.920704  	0.099672 
1629.849520  	0.107008 
1631.778336  	0.111571 
1633.707152  	0.113724 
1635.635968  	0.122529 
1637.564784  	0.133998 
1639.493600  	0.137671 
1641.422416  	0.140968 
1643.351232  	0.142569 
1645.280048  	0.142099 
1647.208864  	0.147751 
1649.137680  	0.150263 
1651.066496  	0.145531 
1652.995312  	0.145441 
1654.924128  	0.153563 
1656.852944  	0.150538 
1658.781760  	0.147986 
1660.710576  	0.144865 
1662.639392  	0.143181 
1664.568208  	0.141561 
1666.497024  	0.136892 
1668.425840  	0.131921 
1670.354656  	0.129482 
1672.283472  	0.125963 
1674.212288  	0.121700 
1676.141104  	0.120523 
1678.069920  	0.117683 
1679.998736  	0.115094 
1681.927552  	0.111916 
1683.856368  	0.111070 
1685.785184  	0.115831 
1687.714000  	0.114301 
1689.642816  	0.114404 
1691.571632  	0.113975 
1693.500448  	0.111529 
1695.429264  	0.110069 
1697.358080  	0.110950 
1699.286896  	0.108888 
1701.215712  	0.112672 
1703.144528  	0.110290 
1705.073344  	0.108058 
1707.002160  	0.106861 
1708.930976  	0.104163 
1710.859792  	0.099764 
1712.788608  	0.094172 
1714.717424  	0.086772 
1716.646240  	0.078705 
1718.575056  	0.070516 
1720.503872  	0.062442 
1722.432688  	0.054362 
1724.361504  	0.046025 
1726.290320  	0.038390 
1728.219136  	0.031575 
1730.147952  	0.025696 
1732.076768  	0.020053 
1734.005584  	0.016968 
1735.934400  	0.014795 
1737.863216  	0.011591 
1739.792032  	0.009440 
1741.720848  	0.008441 
1743.649664  	0.007392 
1745.578480  	0.005827 
1747.507296  	0.003935 
1749.436112  	0.003431 
1751.364928  	0.004134 
1753.293744  	0.003670 
1755.222560  	0.002201 
1757.151376  	0.002426 
1759.080192  	0.001628 
1761.009008  	0.001031 
1762.937824  	0.001360 
1764.866640  	0.000862 
1766.795456  	0.000125 
1768.724272  	-0.000050 
1770.653088  	-0.002116 
1772.581904  	-0.001447 
1774.510720  	-0.000202 
1776.439536  	-0.000182 
1778.368352  	-0.000744 
1780.297168  	-0.000931 
1782.225984  	-0.001018 
1784.154800  	-0.000936 
1786.083616  	-0.000834 
1788.012432  	-0.001434 
1789.941248  	-0.002385 
1791.870064  	-0.002296 
1793.798880  	-0.001467 
1795.727696  	-0.001622 
1797.656512  	-0.002435 
1799.585328  	-0.002833 
1801.514144  	-0.002024 
1803.442960  	-0.001914 
1805.371776  	-0.002307 
1807.300592  	-0.002457 
1809.229408  	-0.002881 
1811.158224  	-0.002669 
1813.087040  	-0.002535 
1815.015856  	-0.002871 
1816.944672  	-0.002941 
1818.873488  	-0.002747 
1820.802304  	-0.002854 
1822.731120  	-0.003174 
1824.659936  	-0.003186 
1826.588752  	-0.003085 
1828.517568  	-0.004260 
1830.446384  	-0.003209 
1832.375200  	-0.002663 
1834.304016  	-0.002802 
1836.232832  	-0.002807 
1838.161648  	-0.002807 
1840.090464  	-0.003117 
1842.019280  	-0.003527 
1843.948096  	-0.003279 
1845.876912  	-0.002604 
1847.805728  	-0.002739 
1849.734544  	-0.002638 
1851.663360  	-0.002873 
1853.592176  	-0.002785 
1855.520992  	-0.003043 
1857.449808  	-0.002968 
1859.378624  	-0.003047 
1861.307440  	-0.002879 
1863.236256  	-0.003245 
1865.165072  	-0.003764 
1867.093888  	-0.004239 
1869.022704  	-0.003249 
1870.951520  	-0.002987 
1872.880336  	-0.003377 
1874.809152  	-0.003483 
1876.737968  	-0.003334 
1878.666784  	-0.003239 
1880.595600  	-0.003040 
1882.524416  	-0.003095 
1884.453232  	-0.003206 
1886.382048  	-0.003634 
1888.310864  	-0.003602 
1890.239680  	-0.002761 
1892.168496  	-0.002866 
1894.097312  	-0.003715 
1896.026128  	-0.003505 
1897.954944  	-0.003281 
1899.883760  	-0.003273 
1901.812576  	-0.003353 
1903.741392  	-0.003275 
1905.670208  	-0.003582 
1907.599024  	-0.003444 
1909.527840  	-0.003306 
1911.456656  	-0.003138 
1913.385472  	-0.003217 
1915.314288  	-0.003635 
1917.243104  	-0.003945 
1919.171920  	-0.003006 
1921.100736  	-0.003108 
1923.029552  	-0.002656 
1924.958368  	-0.003638 
1926.887184  	-0.004199 
1928.816000  	-0.003873 
1930.744816  	-0.003577 
1932.673632  	-0.003918 
1934.602448  	-0.003691 
1936.531264  	-0.003937 
1938.460080  	-0.004201 
1940.388896  	-0.004397 
1942.317712  	-0.003397 
1944.246528  	-0.003271 
1946.175344  	-0.003597 
1948.104160  	-0.003931 
1950.032976  	-0.003812 
1951.961792  	-0.003999 
1953.890608  	-0.003781 
1955.819424  	-0.004357 
1957.748240  	-0.004607 
1959.677056  	-0.004665 
1961.605872  	-0.004145 
1963.534688  	-0.004693 
1965.463504  	-0.004140 
1967.392320  	-0.004825 
1969.321136  	-0.005076 
1971.249952  	-0.004124 
1973.178768  	-0.003850 
1975.107584  	-0.004800 
1977.036400  	-0.004120 
1978.965216  	-0.002403 
1980.894032  	-0.002222 
1982.822848  	-0.002458 
1984.751664  	-0.002809 
1986.680480  	-0.003489 
1988.609296  	-0.003596 
1990.538112  	-0.004206 
1992.466928  	-0.004165 
1994.395744  	-0.004266 
1996.324560  	-0.003530 
1998.253376  	-0.003426 
2000.182192  	-0.003525 
2002.111008  	-0.003932 
2004.039824  	-0.003516 
2005.968640  	-0.003275 
2007.897456  	-0.003344 
2009.826272  	-0.003323 
2011.755088  	-0.003582 
2013.683904  	-0.003855 
2015.612720  	-0.002981 
2017.541536  	-0.001831 
2019.470352  	-0.000940 
2021.399168  	-0.001331 
2023.327984  	-0.001200 
2025.256800  	-0.002198 
2027.185616  	-0.002800 
2029.114432  	-0.002142 
2031.043248  	-0.001659 
2032.972064  	-0.001784 
2034.900880  	-0.000998 
2036.829696  	-0.000326 
2038.758512  	0.000335 
2040.687328  	-0.000474 
2042.616144  	-0.001151 
2044.544960  	-0.001474 
2046.473776  	-0.000758 
2048.402592  	-0.000488 
2050.331408  	-0.001036 
2052.260224  	-0.002474 
2054.189040  	-0.003046 
2056.117856  	-0.002282 
2058.046672  	-0.001180 
2059.975488  	-0.001570 
2061.904304  	-0.001890 
2063.833120  	-0.001815 
2065.761936  	-0.001327 
2067.690752  	-0.001500 
2069.619568  	-0.001487 
2071.548384  	-0.001940 
2073.477200  	-0.001701 
2075.406016  	-0.001693 
2077.334832  	-0.001852 
2079.263648  	-0.001454 
2081.192464  	-0.001058 
2083.121280  	-0.001545 
2085.050096  	-0.001780 
2086.978912  	-0.002300 
2088.907728  	-0.001932 
2090.836544  	-0.001881 
2092.765360  	-0.002151 
2094.694176  	-0.002513 
2096.622992  	-0.001958 
2098.551808  	-0.001447 
2100.480624  	-0.001541 
2102.409440  	-0.001646 
2104.338256  	-0.001644 
2106.267072  	-0.001468 
2108.195888  	-0.001094 
2110.124704  	-0.001192 
2112.053520  	-0.001670 
2113.982336  	-0.001832 
2115.911152  	-0.001263 
2117.839968  	-0.001223 
2119.768784  	-0.001788 
2121.697600  	-0.002320 
2123.626416  	-0.002049 
2125.555232  	-0.002556 
2127.484048  	-0.003162 
2129.412864  	-0.003218 
2131.341680  	-0.003172 
2133.270496  	-0.003329 
2135.199312  	-0.002234 
2137.128128  	-0.001883 
2139.056944  	-0.002320 
2140.985760  	-0.002388 
2142.914576  	-0.001954 
2144.843392  	-0.001139 
2146.772208  	-0.000884 
2148.701024  	-0.001176 
2150.629840  	-0.001641 
2152.558656  	-0.002347 
2154.487472  	-0.001812 
2156.416288  	-0.001051 
2158.345104  	0.001936 
2160.273920  	0.004445 
2162.202736  	0.004340 
2164.131552  	0.003160 
2166.060368  	0.003626 
2167.989184  	0.003131 
2169.918000  	0.002486 
2171.846816  	0.002287 
2173.775632  	0.000925 
2175.704448  	0.000279 
2177.633264  	0.000405 
2179.562080  	-0.000112 
2181.490896  	0.000171 
2183.419712  	0.000634 
2185.348528  	0.000495 
2187.277344  	0.000828 
2189.206160  	0.001500 
2191.134976  	0.001838 
2193.063792  	0.002101 
2194.992608  	0.001596 
2196.921424  	0.001132 
2198.850240  	0.000191 
2200.779056  	0.000648 
2202.707872  	0.000679 
2204.636688  	0.000209 
2206.565504  	0.000577 
2208.494320  	0.001190 
2210.423136  	0.000606 
2212.351952  	-0.000011 
2214.280768  	0.000290 
2216.209584  	0.000436 
2218.138400  	-0.000093 
2220.067216  	-0.000147 
2221.996032  	-0.000148 
2223.924848  	-0.000444 
2225.853664  	-0.000926 
2227.782480  	-0.000567 
2229.711296  	0.000047 
2231.640112  	-0.000449 
2233.568928  	-0.001328 
2235.497744  	-0.001133 
2237.426560  	-0.001081 
2239.355376  	-0.001076 
2241.284192  	-0.001130 
2243.213008  	-0.001394 
2245.141824  	-0.001303 
2247.070640  	-0.000511 
2248.999456  	-0.001145 
2250.928272  	-0.001798 
2252.857088  	-0.001827 
2254.785904  	-0.001615 
2256.714720  	-0.001496 
2258.643536  	-0.001645 
2260.572352  	-0.001790 
2262.501168  	-0.001549 
2264.429984  	-0.001174 
2266.358800  	-0.001185 
2268.287616  	-0.001458 
2270.216432  	-0.001322 
2272.145248  	-0.001312 
2274.074064  	-0.001042 
2276.002880  	-0.000784 
2277.931696  	-0.000455 
2279.860512  	-0.000418 
2281.789328  	-0.000401 
2283.718144  	-0.000120 
2285.646960  	-0.000031 
2287.575776  	-0.000236 
2289.504592  	0.000054 
2291.433408  	0.000070 
2293.362224  	-0.000014 
2295.291040  	0.000268 
2297.219856  	0.000468 
2299.148672  	0.000475 
2301.077488  	0.000773 
2303.006304  	0.000937 
2304.935120  	0.000782 
2306.863936  	0.001053 
2308.792752  	0.001355 
2310.721568  	0.001179 
2312.650384  	0.001135 
2314.579200  	0.000875 
2316.508016  	0.000785 
2318.436832  	0.000638 
2320.365648  	0.000581 
2322.294464  	0.001067 
2324.223280  	0.000656 
2326.152096  	-0.001010 
2328.080912  	-0.001806 
2330.009728  	-0.002031 
2331.938544  	-0.002362 
2333.867360  	-0.003254 
2335.796176  	-0.003809 
2337.724992  	-0.004006 
2339.653808  	-0.003942 
2341.582624  	-0.003566 
2343.511440  	-0.002492 
2345.440256  	-0.000806 
2347.369072  	0.000001 
2349.297888  	-0.000950 
2351.226704  	-0.002331 
2353.155520  	-0.003539 
2355.084336  	-0.004288 
2357.013152  	-0.004665 
2358.941968  	-0.004740 
2360.870784  	-0.004332 
2362.799600  	-0.003546 
2364.728416  	-0.002933 
2366.657232  	-0.002184 
2368.586048  	-0.001378 
2370.514864  	-0.000239 
2372.443680  	0.000728 
2374.372496  	0.001260 
2376.301312  	0.001711 
2378.230128  	0.002164 
2380.158944  	0.002118 
2382.087760  	0.001508 
2384.016576  	0.000679 
2385.945392  	0.000141 
2387.874208  	-0.000087 
2389.803024  	-0.000099 
2391.731840  	0.000004 
2393.660656  	-0.000005 
2395.589472  	-0.000258 
2397.518288  	-0.000260 
2399.447104  	-0.000084 
2401.375920  	0.000149 
2403.304736  	0.000314 
2405.233552  	0.000343 
2407.162368  	0.000503 
2409.091184  	0.000812 
2411.020000  	0.000630 
2412.948816  	0.000432 
2414.877632  	0.000584 
2416.806448  	0.000930 
2418.735264  	0.000867 
2420.664080  	0.000624 
2422.592896  	0.000661 
2424.521712  	0.001042 
2426.450528  	0.001334 
2428.379344  	0.001360 
2430.308160  	0.001352 
2432.236976  	0.001425 
2434.165792  	0.001418 
2436.094608  	0.001466 
2438.023424  	0.001418 
2439.952240  	0.001436 
2441.881056  	0.001811 
2443.809872  	0.001985 
2445.738688  	0.001841 
2447.667504  	0.002015 
2449.596320  	0.002251 
2451.525136  	0.002280 
2453.453952  	0.002304 
2455.382768  	0.002540 
2457.311584  	0.002681 
2459.240400  	0.002446 
2461.169216  	0.002166 
2463.098032  	0.002267 
2465.026848  	0.002433 
2466.955664  	0.002582 
2468.884480  	0.002730 
2470.813296  	0.002983 
2472.742112  	0.002932 
2474.670928  	0.002884 
2476.599744  	0.003096 
2478.528560  	0.003341 
2480.457376  	0.003451 
2482.386192  	0.003527 
2484.315008  	0.003493 
2486.243824  	0.003522 
2488.172640  	0.003676 
2490.101456  	0.003806 
2492.030272  	0.003866 
2493.959088  	0.003972 
2495.887904  	0.004130 
2497.816720  	0.004275 
2499.745536  	0.004357 
2501.674352  	0.004633 
2503.603168  	0.004521 
2505.531984  	0.004574 
2507.460800  	0.004934 
2509.389616  	0.005068 
2511.318432  	0.004986 
2513.247248  	0.004837 
2515.176064  	0.004808 
2517.104880  	0.005083 
2519.033696  	0.005446 
2520.962512  	0.005429 
2522.891328  	0.005366 
2524.820144  	0.005577 
2526.748960  	0.005591 
2528.677776  	0.005505 
2530.606592  	0.005598 
2532.535408  	0.005674 
2534.464224  	0.005558 
2536.393040  	0.005652 
2538.321856  	0.005829 
2540.250672  	0.005920 
2542.179488  	0.005802 
2544.108304  	0.005832 
2546.037120  	0.006148 
2547.965936  	0.006279 
2549.894752  	0.006181 
2551.823568  	0.005975 
2553.752384  	0.005934 
2555.681200  	0.006172 
2557.610016  	0.006597 
2559.538832  	0.006815 
2561.467648  	0.006856 
2563.396464  	0.006892 
2565.325280  	0.006790 
2567.254096  	0.006988 
2569.182912  	0.007244 
2571.111728  	0.007357 
2573.040544  	0.007421 
2574.969360  	0.007519 
2576.898176  	0.007745 
2578.826992  	0.007959 
2580.755808  	0.007993 
2582.684624  	0.008137 
2584.613440  	0.008156 
2586.542256  	0.008195 
2588.471072  	0.008168 
2590.399888  	0.008201 
2592.328704  	0.008317 
2594.257520  	0.008490 
2596.186336  	0.008625 
2598.115152  	0.008573 
2600.043968  	0.008436 
2601.972784  	0.008425 
2603.901600  	0.008575 
2605.830416  	0.008784 
2607.759232  	0.008882 
2609.688048  	0.008924 
2611.616864  	0.008942 
2613.545680  	0.009045 
2615.474496  	0.009198 
2617.403312  	0.009362 
2619.332128  	0.009581 
2621.260944  	0.009638 
2623.189760  	0.009705 
2625.118576  	0.009764 
2627.047392  	0.009845 
2628.976208  	0.010095 
2630.905024  	0.010240 
2632.833840  	0.010458 
2634.762656  	0.010706 
2636.691472  	0.010764 
2638.620288  	0.010839 
2640.549104  	0.011032 
2642.477920  	0.011279 
2644.406736  	0.011322 
2646.335552  	0.011306 
2648.264368  	0.011472 
2650.193184  	0.011658 
2652.122000  	0.011724 
2654.050816  	0.011888 
2655.979632  	0.012077 
2657.908448  	0.012060 
2659.837264  	0.012058 
2661.766080  	0.012167 
2663.694896  	0.012134 
2665.623712  	0.012089 
2667.552528  	0.012358 
2669.481344  	0.012714 
2671.410160  	0.012950 
2673.338976  	0.012982 
2675.267792  	0.013060 
2677.196608  	0.013246 
2679.125424  	0.013391 
2681.054240  	0.013491 
2682.983056  	0.013561 
2684.911872  	0.013719 
2686.840688  	0.013851 
2688.769504  	0.013972 
2690.698320  	0.014109 
2692.627136  	0.014196 
2694.555952  	0.014268 
2696.484768  	0.014372 
2698.413584  	0.014607 
2700.342400  	0.014743 
2702.271216  	0.014848 
2704.200032  	0.014998 
2706.128848  	0.015099 
2708.057664  	0.015251 
2709.986480  	0.015376 
2711.915296  	0.015454 
2713.844112  	0.015562 
2715.772928  	0.015691 
2717.701744  	0.015687 
2719.630560  	0.015771 
2721.559376  	0.015977 
2723.488192  	0.016110 
2725.417008  	0.016294 
2727.345824  	0.016447 
2729.274640  	0.016559 
2731.203456  	0.016804 
2733.132272  	0.017054 
2735.061088  	0.017191 
2736.989904  	0.017301 
2738.918720  	0.017451 
2740.847536  	0.017529 
2742.776352  	0.017696 
2744.705168  	0.017817 
2746.633984  	0.017822 
2748.562800  	0.017925 
2750.491616  	0.018153 
2752.420432  	0.018436 
2754.349248  	0.018467 
2756.278064  	0.018364 
2758.206880  	0.018325 
2760.135696  	0.018462 
2762.064512  	0.018617 
2763.993328  	0.018606 
2765.922144  	0.018544 
2767.850960  	0.018639 
2769.779776  	0.018723 
2771.708592  	0.018700 
2773.637408  	0.018624 
2775.566224  	0.018568 
2777.495040  	0.018647 
2779.423856  	0.018733 
2781.352672  	0.018671 
2783.281488  	0.018694 
2785.210304  	0.018762 
2787.139120  	0.018803 
2789.067936  	0.018775 
2790.996752  	0.018688 
2792.925568  	0.018635 
2794.854384  	0.018676 
2796.783200  	0.018783 
2798.712016  	0.018934 
2800.640832  	0.019015 
2802.569648  	0.018896 
2804.498464  	0.018869 
2806.427280  	0.018850 
2808.356096  	0.018851 
2810.284912  	0.018956 
2812.213728  	0.018962 
2814.142544  	0.019011 
2816.071360  	0.019005 
2818.000176  	0.019036 
2819.928992  	0.019095 
2821.857808  	0.019167 
2823.786624  	0.019151 
2825.715440  	0.019075 
2827.644256  	0.019057 
2829.573072  	0.019119 
2831.501888  	0.019120 
2833.430704  	0.019008 
2835.359520  	0.018911 
2837.288336  	0.018862 
2839.217152  	0.018867 
2841.145968  	0.018706 
2843.074784  	0.018703 
2845.003600  	0.018769 
2846.932416  	0.018819 
2848.861232  	0.018980 
2850.790048  	0.018936 
2852.718864  	0.018874 
2854.647680  	0.018902 
2856.576496  	0.018922 
2858.505312  	0.018987 
2860.434128  	0.019045 
2862.362944  	0.019206 
2864.291760  	0.019366 
2866.220576  	0.019353 
2868.149392  	0.019363 
2870.078208  	0.019462 
2872.007024  	0.019641 
2873.935840  	0.019882 
2875.864656  	0.020185 
2877.793472  	0.020561 
2879.722288  	0.020848 
2881.651104  	0.021192 
2883.579920  	0.021389 
2885.508736  	0.021402 
2887.437552  	0.021506 
2889.366368  	0.021487 
2891.295184  	0.021372 
2893.224000  	0.021328 
2895.152816  	0.021302 
2897.081632  	0.021056 
2899.010448  	0.020563 
2900.939264  	0.020214 
2902.868080  	0.020379 
2904.796896  	0.020581 
2906.725712  	0.020657 
2908.654528  	0.020694 
2910.583344  	0.020940 
2912.512160  	0.021388 
2914.440976  	0.021794 
2916.369792  	0.022163 
2918.298608  	0.022573 
2920.227424  	0.022969 
2922.156240  	0.023325 
2924.085056  	0.023693 
2926.013872  	0.024229 
2927.942688  	0.024788 
2929.871504  	0.025294 
2931.800320  	0.025697 
2933.729136  	0.026188 
2935.657952  	0.026739 
2937.586768  	0.027157 
2939.515584  	0.027451 
2941.444400  	0.027893 
2943.373216  	0.028265 
2945.302032  	0.028314 
2947.230848  	0.028304 
2949.159664  	0.028365 
2951.088480  	0.028128 
2953.017296  	0.027783 
2954.946112  	0.027514 
2956.874928  	0.027357 
2958.803744  	0.026997 
2960.732560  	0.026454 
2962.661376  	0.025832 
2964.590192  	0.025311 
2966.519008  	0.024727 
2968.447824  	0.024145 
2970.376640  	0.023475 
2972.305456  	0.022748 
2974.234272  	0.022185 
2976.163088  	0.021697 
2978.091904  	0.021244 
2980.020720  	0.020852 
2981.949536  	0.020775 
2983.878352  	0.021030 
2985.807168  	0.020920 
2987.735984  	0.020949 
2989.664800  	0.021282 
2991.593616  	0.021914 
2993.522432  	0.022459 
2995.451248  	0.022813 
2997.380064  	0.023217 
2999.308880  	0.023602 
3001.237696  	0.023936 
3003.166512  	0.024306 
3005.095328  	0.024606 
3007.024144  	0.024826 
3008.952960  	0.025272 
3010.881776  	0.025636 
3012.810592  	0.025896 
3014.739408  	0.026202 
3016.668224  	0.026511 
3018.597040  	0.026783 
3020.525856  	0.027110 
3022.454672  	0.027452 
3024.383488  	0.027664 
3026.312304  	0.027994 
3028.241120  	0.028329 
3030.169936  	0.028551 
3032.098752  	0.028763 
3034.027568  	0.029045 
3035.956384  	0.029342 
3037.885200  	0.029451 
3039.814016  	0.029615 
3041.742832  	0.029914 
3043.671648  	0.030190 
3045.600464  	0.030678 
3047.529280  	0.030939 
3049.458096  	0.031091 
3051.386912  	0.031393 
3053.315728  	0.031527 
3055.244544  	0.031623 
3057.173360  	0.032112 
3059.102176  	0.032672 
3061.030992  	0.033178 
3062.959808  	0.033367 
3064.888624  	0.033638 
3066.817440  	0.034083 
3068.746256  	0.034631 
3070.675072  	0.035119 
3072.603888  	0.035397 
3074.532704  	0.035707 
3076.461520  	0.036079 
3078.390336  	0.036509 
3080.319152  	0.037042 
3082.247968  	0.037536 
3084.176784  	0.037984 
3086.105600  	0.038324 
3088.034416  	0.038693 
3089.963232  	0.039097 
3091.892048  	0.039450 
3093.820864  	0.039734 
3095.749680  	0.040327 
3097.678496  	0.040828 
3099.607312  	0.041259 
3101.536128  	0.041645 
3103.464944  	0.042010 
3105.393760  	0.042601 
3107.322576  	0.042997 
3109.251392  	0.043240 
3111.180208  	0.043682 
3113.109024  	0.043947 
3115.037840  	0.044030 
3116.966656  	0.044330 
3118.895472  	0.044648 
3120.824288  	0.044751 
3122.753104  	0.044960 
3124.681920  	0.045230 
3126.610736  	0.045623 
3128.539552  	0.045964 
3130.468368  	0.045941 
3132.397184  	0.046234 
3134.326000  	0.046539 
3136.254816  	0.046589 
3138.183632  	0.046779 
3140.112448  	0.047170 
3142.041264  	0.047455 
3143.970080  	0.047618 
3145.898896  	0.047848 
3147.827712  	0.048168 
3149.756528  	0.048375 
3151.685344  	0.048622 
3153.614160  	0.048943 
3155.542976  	0.049222 
3157.471792  	0.049650 
3159.400608  	0.049993 
3161.329424  	0.050143 
3163.258240  	0.050312 
3165.187056  	0.050557 
3167.115872  	0.050826 
3169.044688  	0.051140 
3170.973504  	0.051435 
3172.902320  	0.051461 
3174.831136  	0.051383 
3176.759952  	0.051534 
3178.688768  	0.051935 
3180.617584  	0.052186 
3182.546400  	0.051934 
3184.475216  	0.051881 
3186.404032  	0.052056 
3188.332848  	0.051988 
3190.261664  	0.051777 
3192.190480  	0.051537 
3194.119296  	0.051402 
3196.048112  	0.051294 
3197.976928  	0.051313 
3199.905744  	0.051203 
3201.834560  	0.050721 
3203.763376  	0.050366 
3205.692192  	0.050249 
3207.621008  	0.049825 
3209.549824  	0.049581 
3211.478640  	0.049342 
3213.407456  	0.049043 
3215.336272  	0.049067 
3217.265088  	0.048550 
3219.193904  	0.048225 
3221.122720  	0.048325 
3223.051536  	0.048308 
3224.980352  	0.047879 
3226.909168  	0.047463 
3228.837984  	0.047113 
3230.766800  	0.046878 
3232.695616  	0.046571 
3234.624432  	0.046268 
3236.553248  	0.046104 
3238.482064  	0.046012 
3240.410880  	0.046208 
3242.339696  	0.046171 
3244.268512  	0.046142 
3246.197328  	0.046635 
3248.126144  	0.046560 
3250.054960  	0.046431 
3251.983776  	0.046246 
3253.912592  	0.046363 
3255.841408  	0.046632 
3257.770224  	0.046816 
3259.699040  	0.046912 
3261.627856  	0.047177 
3263.556672  	0.047343 
3265.485488  	0.047653 
3267.414304  	0.047698 
3269.343120  	0.047690 
3271.271936  	0.047977 
3273.200752  	0.048222 
3275.129568  	0.048517 
3277.058384  	0.048769 
3278.987200  	0.048851 
3280.916016  	0.048755 
3282.844832  	0.048746 
3284.773648  	0.048865 
3286.702464  	0.048790 
3288.631280  	0.048905 
3290.560096  	0.049267 
3292.488912  	0.049672 
3294.417728  	0.049840 
3296.346544  	0.049978 
3298.275360  	0.050323 
3300.204176  	0.050540 
3302.132992  	0.050890 
3304.061808  	0.051323 
3305.990624  	0.051322 
3307.919440  	0.051476 
3309.848256  	0.052113 
3311.777072  	0.052568 
3313.705888  	0.052813 
3315.634704  	0.052919 
3317.563520  	0.053125 
3319.492336  	0.053484 
3321.421152  	0.053413 
3323.349968  	0.053438 
3325.278784  	0.053700 
3327.207600  	0.054100 
3329.136416  	0.054316 
3331.065232  	0.054435 
3332.994048  	0.054393 
3334.922864  	0.054406 
3336.851680  	0.054776 
3338.780496  	0.054905 
3340.709312  	0.054726 
3342.638128  	0.054670 
3344.566944  	0.054550 
3346.495760  	0.054331 
3348.424576  	0.053972 
3350.353392  	0.053877 
3352.282208  	0.053784 
3354.211024  	0.053468 
3356.139840  	0.053268 
3358.068656  	0.053061 
3359.997472  	0.052914 
3361.926288  	0.052746 
3363.855104  	0.052359 
3365.783920  	0.052191 
3367.712736  	0.051923 
3369.641552  	0.051849 
3371.570368  	0.051715 
3373.499184  	0.051237 
3375.428000  	0.050827 
3377.356816  	0.050925 
3379.285632  	0.050932 
3381.214448  	0.050625 
3383.143264  	0.050230 
3385.072080  	0.050148 
3387.000896  	0.049949 
3388.929712  	0.049682 
3390.858528  	0.049144 
3392.787344  	0.049268 
3394.716160  	0.049147 
3396.644976  	0.048885 
3398.573792  	0.048873 
3400.502608  	0.048549 
3402.431424  	0.048234 
3404.360240  	0.047995 
3406.289056  	0.047561 
3408.217872  	0.047229 
3410.146688  	0.047063 
3412.075504  	0.046839 
3414.004320  	0.046590 
3415.933136  	0.046182 
3417.861952  	0.045579 
3419.790768  	0.045326 
3421.719584  	0.045763 
3423.648400  	0.045635 
3425.577216  	0.044900 
3427.506032  	0.044476 
3429.434848  	0.044056 
3431.363664  	0.043637 
3433.292480  	0.043390 
3435.221296  	0.043199 
3437.150112  	0.042890 
3439.078928  	0.042472 
3441.007744  	0.042127 
3442.936560  	0.041909 
3444.865376  	0.041227 
3446.794192  	0.041246 
3448.723008  	0.041642 
3450.651824  	0.040635 
3452.580640  	0.039919 
3454.509456  	0.039487 
3456.438272  	0.039041 
3458.367088  	0.038428 
3460.295904  	0.038003 
3462.224720  	0.038118 
3464.153536  	0.037792 
3466.082352  	0.037128 
3468.011168  	0.036691 
3469.939984  	0.035937 
3471.868800  	0.034946 
3473.797616  	0.034267 
3475.726432  	0.034081 
3477.655248  	0.033505 
3479.584064  	0.032800 
3481.512880  	0.032749 
3483.441696  	0.032529 
3485.370512  	0.031285 
3487.299328  	0.030555 
3489.228144  	0.030475 
3491.156960  	0.029777 
3493.085776  	0.028681 
3495.014592  	0.028091 
3496.943408  	0.027942 
3498.872224  	0.027221 
3500.801040  	0.026202 
3502.729856  	0.026487 
3504.658672  	0.026985 
3506.587488  	0.025750 
3508.516304  	0.024898 
3510.445120  	0.025336 
3512.373936  	0.024718 
3514.302752  	0.023851 
3516.231568  	0.023237 
3518.160384  	0.022716 
3520.089200  	0.021813 
3522.018016  	0.021086 
3523.946832  	0.021535 
3525.875648  	0.020975 
3527.804464  	0.020709 
3529.733280  	0.020864 
3531.662096  	0.020334 
3533.590912  	0.019214 
3535.519728  	0.019079 
3537.448544  	0.019551 
3539.377360  	0.018317 
3541.306176  	0.017219 
3543.234992  	0.016579 
3545.163808  	0.017274 
3547.092624  	0.018191 
3549.021440  	0.016782 
3550.950256  	0.015207 
3552.879072  	0.016030 
3554.807888  	0.015790 
3556.736704  	0.014583 
3558.665520  	0.014008 
3560.594336  	0.013765 
3562.523152  	0.012525 
3564.451968  	0.010647 
3566.380784  	0.012142 
3568.309600  	0.015654 
3570.238416  	0.013781 
3572.167232  	0.011427 
3574.096048  	0.010444 
3576.024864  	0.010125 
3577.953680  	0.009843 
3579.882496  	0.009425 
3581.811312  	0.008696 
3583.740128  	0.006895 
3585.668944  	0.005452 
3587.597760  	0.008355 
3589.526576  	0.009307 
3591.455392  	0.005698 
3593.384208  	0.004354 
3595.313024  	0.005348 
3597.241840  	0.004804 
3599.170656  	0.003437 
3601.099472  	0.003655 
3603.028288  	0.003244 
3604.957104  	0.001083 
3606.885920  	0.000096 
3608.814736  	0.001743 
3610.743552  	0.000333 
3612.672368  	-0.000722 
3614.601184  	-0.000443 
3616.530000  	-0.003056 
3618.458816  	-0.002958 
3620.387632  	-0.000174 
3622.316448  	-0.001590 
3624.245264  	-0.004605 
3626.174080  	-0.008144 
3628.102896  	-0.007765 
3630.031712  	-0.001216 
3631.960528  	-0.004079 
3633.889344  	-0.005221 
3635.818160  	-0.005817 
3637.746976  	-0.007300 
3639.675792  	-0.007754 
3641.604608  	-0.008242 
3643.533424  	-0.009624 
3645.462240  	-0.013064 
3647.391056  	-0.014277 
3649.319872  	-0.010699 
3651.248688  	-0.006084 
3653.177504  	-0.009662 
3655.106320  	-0.012363 
3657.035136  	-0.009884 
3658.963952  	-0.010304 
3660.892768  	-0.011376 
3662.821584  	-0.012142 
3664.750400  	-0.012979 
3666.679216  	-0.015228 
3668.608032  	-0.017184 
3670.536848  	-0.013032 
3672.465664  	-0.014650 
3674.394480  	-0.017350 
3676.323296  	-0.010658 
3678.252112  	-0.011786 
3680.180928  	-0.012263 
3682.109744  	-0.012772 
3684.038560  	-0.013947 
3685.967376  	-0.016331 
3687.896192  	-0.017199 
3689.825008  	-0.013852 
3691.753824  	-0.011512 
3693.682640  	-0.011992 
3695.611456  	-0.012588 
3697.540272  	-0.012669 
3699.469088  	-0.014187 
3701.397904  	-0.013356 
3703.326720  	-0.011691 
3705.255536  	-0.012972 
3707.184352  	-0.014836 
3709.113168  	-0.016018 
3711.041984  	-0.013873 
3712.970800  	-0.010261 
3714.899616  	-0.011168 
3716.828432  	-0.013373 
3718.757248  	-0.013809 
3720.686064  	-0.014194 
3722.614880  	-0.013639 
3724.543696  	-0.013180 
3726.472512  	-0.012101 
3728.401328  	-0.012888 
3730.330144  	-0.016357 
3732.258960  	-0.017067 
3734.187776  	-0.015513 
3736.116592  	-0.010848 
3738.045408  	-0.010806 
3739.974224  	-0.013352 
3741.903040  	-0.016368 
3743.831856  	-0.015597 
3745.760672  	-0.011028 
3747.689488  	-0.015602 
3749.618304  	-0.015908 
3751.547120  	-0.011241 
3753.475936  	-0.009671 
3755.404752  	-0.012763 
3757.333568  	-0.013712 
3759.262384  	-0.012233 
3761.191200  	-0.010751 
3763.120016  	-0.012919 
3765.048832  	-0.012842 
3766.977648  	-0.012555 
3768.906464  	-0.013167 
3770.835280  	-0.010590 
3772.764096  	-0.011101 
3774.692912  	-0.012514 
3776.621728  	-0.013665 
3778.550544  	-0.013501 
3780.479360  	-0.011246 
3782.408176  	-0.012413 
3784.336992  	-0.012632 
3786.265808  	-0.011762 
3788.194624  	-0.012048 
3790.123440  	-0.012274 
3792.052256  	-0.012505 
3793.981072  	-0.013934 
3795.909888  	-0.013983 
3797.838704  	-0.013719 
3799.767520  	-0.016109 
3801.696336  	-0.012542 
3803.625152  	-0.011770 
3805.553968  	-0.014644 
3807.482784  	-0.011509 
3809.411600  	-0.011367 
3811.340416  	-0.012931 
3813.269232  	-0.015116 
3815.198048  	-0.015468 
3817.126864  	-0.012807 
3819.055680  	-0.016190 
3820.984496  	-0.013562 
3822.913312  	-0.010068 
3824.842128  	-0.013046 
3826.770944  	-0.012871 
3828.699760  	-0.013095 
3830.628576  	-0.014182 
3832.557392  	-0.013946 
3834.486208  	-0.014939 
3836.415024  	-0.015546 
3838.343840  	-0.013497 
3840.272656  	-0.011857 
3842.201472  	-0.012268 
3844.130288  	-0.011592 
3846.059104  	-0.012069 
3847.987920  	-0.014228 
3849.916736  	-0.016937 
3851.845552  	-0.018807 
3853.774368  	-0.010409 
3855.703184  	-0.008494 
3857.632000  	-0.011110 
3859.560816  	-0.013272 
3861.489632  	-0.014400 
3863.418448  	-0.013834 
3865.347264  	-0.011598 
3867.276080  	-0.014076 
3869.204896  	-0.014373 
3871.133712  	-0.010754 
3873.062528  	-0.012784 
3874.991344  	-0.011149 
3876.920160  	-0.012896 
3878.848976  	-0.014583 
3880.777792  	-0.011970 
3882.706608  	-0.012562 
3884.635424  	-0.013606 
3886.564240  	-0.010126 
3888.493056  	-0.012756 
3890.421872  	-0.013929 
3892.350688  	-0.011249 
3894.279504  	-0.011506 
3896.208320  	-0.013657 
3898.137136  	-0.014488 
3900.065952  	-0.013181 
3901.994768  	-0.012590 
3903.923584  	-0.010929 
3905.852400  	-0.009716 
3907.781216  	-0.011208 
3909.710032  	-0.012332 
3911.638848  	-0.012346 
3913.567664  	-0.012765 
3915.496480  	-0.013124 
3917.425296  	-0.011712 
3919.354112  	-0.011548 
3921.282928  	-0.012162 
3923.211744  	-0.012639 
3925.140560  	-0.011464 
3927.069376  	-0.012128 
3928.998192  	-0.013141 
3930.927008  	-0.012458 
3932.855824  	-0.011025 
3934.784640  	-0.011349 
3936.713456  	-0.012199 
3938.642272  	-0.012319 
3940.571088  	-0.012966 
3942.499904  	-0.011984 
3944.428720  	-0.011431 
3946.357536  	-0.012563 
3948.286352  	-0.012231 
3950.215168  	-0.011595 
3952.143984  	-0.012024 
3954.072800  	-0.012471 
3956.001616  	-0.012421 
3957.930432  	-0.012362 
3959.859248  	-0.012451 
3961.788064  	-0.012094 
3963.716880  	-0.011788 
3965.645696  	-0.012156 
3967.574512  	-0.012473 
3969.503328  	-0.012368 
3971.432144  	-0.012350 
3973.360960  	-0.012326 
3975.289776  	-0.011980 
3977.218592  	-0.011932 
3979.147408  	-0.012264 
3981.076224  	-0.012311 
3983.005040  	-0.011984 
3984.933856  	-0.011985 
3986.862672  	-0.012237 
3988.791488  	-0.012444 
3990.720304  	-0.012256 
3992.649120  	-0.012248 
3994.577936  	-0.012242 
3996.506752  	-0.012189 
3998.435568  	-0.012258 
4000.364384  	-0.012351 