##TITLE=No Description
##DATA TYPE=INFRARED SPECTRUM
##XUNITS=1/CM
##YUNITS=Abs
399.264912  	0.544490 
401.193728  	0.566438 
403.122544  	0.563491 
405.051360  	0.537694 
406.980176  	0.544433 
408.908992  	0.544684 
410.837808  	0.553644 
412.766624  	0.542645 
414.695440  	0.527971 
416.624256  	0.525304 
418.553072  	0.522437 
420.481888  	0.513866 
422.410704  	0.523749 
424.339520  	0.517301 
426.268336  	0.518807 
428.197152  	0.512279 
430.125968  	0.514051 
432.054784  	0.510188 
433.983600  	0.509908 
435.912416  	0.498474 
437.841232  	0.491827 
439.770048  	0.490899 
441.698864  	0.496700 
443.627680  	0.494840 
445.556496  	0.497308 
447.485312  	0.494428 
449.414128  	0.499348 
451.342944  	0.496279 
453.271760  	0.487484 
455.200576  	0.484614 
457.129392  	0.488987 
459.058208  	0.485720 
460.987024  	0.485672 
462.915840  	0.485347 
464.844656  	0.487452 
466.773472  	0.483220 
468.702288  	0.483260 
470.631104  	0.476818 
472.559920  	0.474260 
474.488736  	0.475209 
476.417552  	0.474740 
478.346368  	0.469579 
480.275184  	0.475341 
482.204000  	0.476006 
484.132816  	0.477566 
486.061632  	0.474974 
487.990448  	0.469800 
489.919264  	0.464439 
491.848080  	0.468798 
493.776896  	0.468053 
495.705712  	0.462488 
497.634528  	0.456664 
499.563344  	0.458896 
501.492160  	0.457531 
503.420976  	0.455563 
505.349792  	0.450024 
507.278608  	0.452102 
509.207424  	0.455646 
511.136240  	0.456977 
513.065056  	0.455727 
514.993872  	0.459564 
516.922688  	0.461329 
518.851504  	0.460779 
520.780320  	0.456561 
522.709136  	0.455022 
524.637952  	0.453605 
526.566768  	0.454131 
528.495584  	0.451653 
530.424400  	0.451775 
532.353216  	0.448190 
534.282032  	0.442316 
536.210848  	0.437363 
538.139664  	0.435517 
540.068480  	0.431555 
541.997296  	0.428255 
543.926112  	0.423864 
545.854928  	0.423490 
547.783744  	0.421261 
549.712560  	0.418938 
551.641376  	0.415039 
553.570192  	0.412602 
555.499008  	0.409423 
557.427824  	0.407602 
559.356640  	0.405545 
561.285456  	0.403386 
563.214272  	0.399897 
565.143088  	0.397389 
567.071904  	0.392974 
569.000720  	0.390337 
570.929536  	0.387326 
572.858352  	0.385003 
574.787168  	0.381872 
576.715984  	0.380527 
578.644800  	0.376925 
580.573616  	0.373443 
582.502432  	0.370096 
584.431248  	0.366597 
586.360064  	0.362261 
588.288880  	0.359376 
590.217696  	0.357359 
592.146512  	0.356337 
594.075328  	0.355089 
596.004144  	0.353125 
597.932960  	0.351096 
599.861776  	0.349236 
601.790592  	0.346924 
603.719408  	0.346116 
605.648224  	0.344310 
607.577040  	0.342398 
609.505856  	0.340454 
611.434672  	0.339108 
613.363488  	0.337236 
615.292304  	0.336254 
617.221120  	0.334043 
619.149936  	0.332570 
621.078752  	0.330275 
623.007568  	0.328879 
624.936384  	0.327770 
626.865200  	0.326772 
628.794016  	0.325552 
630.722832  	0.324764 
632.651648  	0.324193 
634.580464  	0.324089 
636.509280  	0.323316 
638.438096  	0.321992 
640.366912  	0.320704 
642.295728  	0.318922 
644.224544  	0.316497 
646.153360  	0.314648 
648.082176  	0.310932 
650.010992  	0.307406 
651.939808  	0.303353 
653.868624  	0.300923 
655.797440  	0.297827 
657.726256  	0.295198 
659.655072  	0.292132 
661.583888  	0.288816 
663.512704  	0.284795 
665.441520  	0.280656 
667.370336  	0.277111 
669.299152  	0.274776 
671.227968  	0.270255 
673.156784  	0.266853 
675.085600  	0.264216 
677.014416  	0.261548 
678.943232  	0.259456 
680.872048  	0.258368 
682.800864  	0.256227 
684.729680  	0.254515 
686.658496  	0.252739 
688.587312  	0.251268 
690.516128  	0.249203 
692.444944  	0.247599 
694.373760  	0.246171 
696.302576  	0.245140 
698.231392  	0.242948 
700.160208  	0.240871 
702.089024  	0.239131 
704.017840  	0.237191 
705.946656  	0.233832 
707.875472  	0.231945 
709.804288  	0.230066 
711.733104  	0.228255 
713.661920  	0.226225 
715.590736  	0.224635 
717.519552  	0.223705 
719.448368  	0.222600 
721.377184  	0.222244 
723.306000  	0.222689 
725.234816  	0.222551 
727.163632  	0.221161 
729.092448  	0.219288 
731.021264  	0.216427 
732.950080  	0.213297 
734.878896  	0.210938 
736.807712  	0.208385 
738.736528  	0.206472 
740.665344  	0.204094 
742.594160  	0.202682 
744.522976  	0.201445 
746.451792  	0.200376 
748.380608  	0.198529 
750.309424  	0.197473 
752.238240  	0.196261 
754.167056  	0.195518 
756.095872  	0.194551 
758.024688  	0.193209 
759.953504  	0.192486 
761.882320  	0.192272 
763.811136  	0.192080 
765.739952  	0.190488 
767.668768  	0.187633 
769.597584  	0.185232 
771.526400  	0.184093 
773.455216  	0.184248 
775.384032  	0.185816 
777.312848  	0.188881 
779.241664  	0.190639 
781.170480  	0.189631 
783.099296  	0.185729 
785.028112  	0.181206 
786.956928  	0.176664 
788.885744  	0.172820 
790.814560  	0.169369 
792.743376  	0.167130 
794.672192  	0.166173 
796.601008  	0.165072 
798.529824  	0.162458 
800.458640  	0.159117 
802.387456  	0.155996 
804.316272  	0.154108 
806.245088  	0.152944 
808.173904  	0.151957 
810.102720  	0.150922 
812.031536  	0.150091 
813.960352  	0.149818 
815.889168  	0.149747 
817.817984  	0.149798 
819.746800  	0.149744 
821.675616  	0.149422 
823.604432  	0.149544 
825.533248  	0.149793 
827.462064  	0.149601 
829.390880  	0.148774 
831.319696  	0.148130 
833.248512  	0.146958 
835.177328  	0.145319 
837.106144  	0.142700 
839.034960  	0.140218 
840.963776  	0.137553 
842.892592  	0.134721 
844.821408  	0.131668 
846.750224  	0.128874 
848.679040  	0.126614 
850.607856  	0.124749 
852.536672  	0.123777 
854.465488  	0.122619 
856.394304  	0.121763 
858.323120  	0.120871 
860.251936  	0.119528 
862.180752  	0.118124 
864.109568  	0.116551 
866.038384  	0.114896 
867.967200  	0.112961 
869.896016  	0.111329 
871.824832  	0.109994 
873.753648  	0.109040 
875.682464  	0.108509 
877.611280  	0.109336 
879.540096  	0.111037 
881.468912  	0.113456 
883.397728  	0.115898 
885.326544  	0.117886 
887.255360  	0.119278 
889.184176  	0.119753 
891.112992  	0.119568 
893.041808  	0.118647 
894.970624  	0.116618 
896.899440  	0.113812 
898.828256  	0.110792 
900.757072  	0.107505 
902.685888  	0.104107 
904.614704  	0.102125 
906.543520  	0.101563 
908.472336  	0.101896 
910.401152  	0.103030 
912.329968  	0.104615 
914.258784  	0.106274 
916.187600  	0.107877 
918.116416  	0.109137 
920.045232  	0.110162 
921.974048  	0.110674 
923.902864  	0.111035 
925.831680  	0.111195 
927.760496  	0.111566 
929.689312  	0.112027 
931.618128  	0.112665 
933.546944  	0.112934 
935.475760  	0.112808 
937.404576  	0.112276 
939.333392  	0.111538 
941.262208  	0.110858 
943.191024  	0.110651 
945.119840  	0.111891 
947.048656  	0.114602 
948.977472  	0.118895 
950.906288  	0.124652 
952.835104  	0.132024 
954.763920  	0.140736 
956.692736  	0.149702 
958.621552  	0.158305 
960.550368  	0.164942 
962.479184  	0.169889 
964.408000  	0.171645 
966.336816  	0.169763 
968.265632  	0.164501 
970.194448  	0.156675 
972.123264  	0.146620 
974.052080  	0.135689 
975.980896  	0.124836 
977.909712  	0.114448 
979.838528  	0.105061 
981.767344  	0.097185 
983.696160  	0.091317 
985.624976  	0.087510 
987.553792  	0.085963 
989.482608  	0.086494 
991.411424  	0.089033 
993.340240  	0.093101 
995.269056  	0.097871 
997.197872  	0.103012 
999.126688  	0.108024 
1001.055504  	0.113250 
1002.984320  	0.118371 
1004.913136  	0.123762 
1006.841952  	0.128784 
1008.770768  	0.133697 
1010.699584  	0.138112 
1012.628400  	0.141820 
1014.557216  	0.144621 
1016.486032  	0.146537 
1018.414848  	0.147707 
1020.343664  	0.148428 
1022.272480  	0.148943 
1024.201296  	0.149446 
1026.130112  	0.149371 
1028.058928  	0.149685 
1029.987744  	0.150936 
1031.916560  	0.152552 
1033.845376  	0.153873 
1035.774192  	0.155709 
1037.703008  	0.158536 
1039.631824  	0.162922 
1041.560640  	0.169961 
1043.489456  	0.180830 
1045.418272  	0.194463 
1047.347088  	0.209546 
1049.275904  	0.223507 
1051.204720  	0.234659 
1053.133536  	0.240946 
1055.062352  	0.243783 
1056.991168  	0.244524 
1058.919984  	0.244837 
1060.848800  	0.244971 
1062.777616  	0.245337 
1064.706432  	0.244967 
1066.635248  	0.244399 
1068.564064  	0.242281 
1070.492880  	0.238017 
1072.421696  	0.232933 
1074.350512  	0.229512 
1076.279328  	0.228856 
1078.208144  	0.231684 
1080.136960  	0.236069 
1082.065776  	0.240173 
1083.994592  	0.241542 
1085.923408  	0.239610 
1087.852224  	0.234061 
1089.781040  	0.226667 
1091.709856  	0.217074 
1093.638672  	0.206301 
1095.567488  	0.194133 
1097.496304  	0.182171 
1099.425120  	0.169992 
1101.353936  	0.158282 
1103.282752  	0.147307 
1105.211568  	0.137292 
1107.140384  	0.127816 
1109.069200  	0.119057 
1110.998016  	0.111166 
1112.926832  	0.104028 
1114.855648  	0.097317 
1116.784464  	0.091055 
1118.713280  	0.084939 
1120.642096  	0.079058 
1122.570912  	0.073593 
1124.499728  	0.068519 
1126.428544  	0.064329 
1128.357360  	0.060918 
1130.286176  	0.057732 
1132.214992  	0.055137 
1134.143808  	0.053033 
1136.072624  	0.051360 
1138.001440  	0.049764 
1139.930256  	0.048580 
1141.859072  	0.047352 
1143.787888  	0.046188 
1145.716704  	0.045203 
1147.645520  	0.044475 
1149.574336  	0.044013 
1151.503152  	0.043739 
1153.431968  	0.043898 
1155.360784  	0.044030 
1157.289600  	0.044292 
1159.218416  	0.044742 
1161.147232  	0.045510 
1163.076048  	0.046315 
1165.004864  	0.047175 
1166.933680  	0.047845 
1168.862496  	0.048530 
1170.791312  	0.049669 
1172.720128  	0.051167 
1174.648944  	0.053029 
1176.577760  	0.054841 
1178.506576  	0.056788 
1180.435392  	0.058737 
1182.364208  	0.061042 
1184.293024  	0.063610 
1186.221840  	0.066169 
1188.150656  	0.069257 
1190.079472  	0.073203 
1192.008288  	0.077899 
1193.937104  	0.083170 
1195.865920  	0.089064 
1197.794736  	0.095653 
1199.723552  	0.102495 
1201.652368  	0.109798 
1203.581184  	0.117136 
1205.510000  	0.124063 
1207.438816  	0.130387 
1209.367632  	0.136339 
1211.296448  	0.141161 
1213.225264  	0.145209 
1215.154080  	0.147873 
1217.082896  	0.149480 
1219.011712  	0.149921 
1220.940528  	0.150114 
1222.869344  	0.149408 
1224.798160  	0.148070 
1226.726976  	0.145745 
1228.655792  	0.143170 
1230.584608  	0.140050 
1232.513424  	0.136304 
1234.442240  	0.131955 
1236.371056  	0.127317 
1238.299872  	0.122274 
1240.228688  	0.116665 
1242.157504  	0.110977 
1244.086320  	0.105390 
1246.015136  	0.099750 
1247.943952  	0.094261 
1249.872768  	0.088869 
1251.801584  	0.083806 
1253.730400  	0.078726 
1255.659216  	0.073824 
1257.588032  	0.069150 
1259.516848  	0.064836 
1261.445664  	0.060743 
1263.374480  	0.057086 
1265.303296  	0.053875 
1267.232112  	0.051292 
1269.160928  	0.049305 
1271.089744  	0.047960 
1273.018560  	0.047389 
1274.947376  	0.047585 
1276.876192  	0.048137 
1278.805008  	0.048579 
1280.733824  	0.048512 
1282.662640  	0.047534 
1284.591456  	0.046116 
1286.520272  	0.044767 
1288.449088  	0.043932 
1290.377904  	0.044012 
1292.306720  	0.044847 
1294.235536  	0.045586 
1296.164352  	0.045519 
1298.093168  	0.044357 
1300.021984  	0.042319 
1301.950800  	0.040099 
1303.879616  	0.037820 
1305.808432  	0.035325 
1307.737248  	0.032614 
1309.666064  	0.030054 
1311.594880  	0.028075 
1313.523696  	0.026714 
1315.452512  	0.025640 
1317.381328  	0.025060 
1319.310144  	0.025177 
1321.238960  	0.025515 
1323.167776  	0.026065 
1325.096592  	0.026582 
1327.025408  	0.026909 
1328.954224  	0.026875 
1330.883040  	0.026290 
1332.811856  	0.025122 
1334.740672  	0.023878 
1336.669488  	0.023118 
1338.598304  	0.023049 
1340.527120  	0.023138 
1342.455936  	0.022582 
1344.384752  	0.022268 
1346.313568  	0.022416 
1348.242384  	0.023043 
1350.171200  	0.024030 
1352.100016  	0.025243 
1354.028832  	0.026636 
1355.957648  	0.028232 
1357.886464  	0.029522 
1359.815280  	0.030810 
1361.744096  	0.032772 
1363.672912  	0.035406 
1365.601728  	0.036544 
1367.530544  	0.037735 
1369.459360  	0.039432 
1371.388176  	0.039925 
1373.316992  	0.039692 
1375.245808  	0.039195 
1377.174624  	0.037477 
1379.103440  	0.035602 
1381.032256  	0.033483 
1382.961072  	0.031699 
1384.889888  	0.029939 
1386.818704  	0.029148 
1388.747520  	0.028328 
1390.676336  	0.026295 
1392.605152  	0.023909 
1394.533968  	0.022905 
1396.462784  	0.023230 
1398.391600  	0.023083 
1400.320416  	0.023597 
1402.249232  	0.023115 
1404.178048  	0.023473 
1406.106864  	0.024605 
1408.035680  	0.025208 
1409.964496  	0.026138 
1411.893312  	0.027879 
1413.822128  	0.029235 
1415.750944  	0.030223 
1417.679760  	0.031168 
1419.608576  	0.033586 
1421.537392  	0.033494 
1423.466208  	0.032574 
1425.395024  	0.032115 
1427.323840  	0.030163 
1429.252656  	0.028274 
1431.181472  	0.027345 
1433.110288  	0.026573 
1435.039104  	0.025663 
1436.967920  	0.028037 
1438.896736  	0.029544 
1440.825552  	0.029608 
1442.754368  	0.030030 
1444.683184  	0.029884 
1446.612000  	0.029593 
1448.540816  	0.030180 
1450.469632  	0.030160 
1452.398448  	0.029774 
1454.327264  	0.028680 
1456.256080  	0.027924 
1458.184896  	0.030811 
1460.113712  	0.030898 
1462.042528  	0.029530 
1463.971344  	0.028707 
1465.900160  	0.030242 
1467.828976  	0.030516 
1469.757792  	0.030286 
1471.686608  	0.031388 
1473.615424  	0.037115 
1475.544240  	0.041074 
1477.473056  	0.045070 
1479.401872  	0.047166 
1481.330688  	0.049907 
1483.259504  	0.052102 
1485.188320  	0.052867 
1487.117136  	0.053099 
1489.045952  	0.054241 
1490.974768  	0.055124 
1492.903584  	0.053011 
1494.832400  	0.049090 
1496.761216  	0.045508 
1498.690032  	0.041877 
1500.618848  	0.038392 
1502.547664  	0.033981 
1504.476480  	0.028763 
1506.405296  	0.026240 
1508.334112  	0.029635 
1510.262928  	0.027884 
1512.191744  	0.026503 
1514.120560  	0.025225 
1516.049376  	0.024650 
1517.978192  	0.026047 
1519.907008  	0.025723 
1521.835824  	0.029827 
1523.764640  	0.033434 
1525.693456  	0.035835 
1527.622272  	0.038504 
1529.551088  	0.038736 
1531.479904  	0.036781 
1533.408720  	0.035391 
1535.337536  	0.033836 
1537.266352  	0.029441 
1539.195168  	0.025086 
1541.123984  	0.025306 
1543.052800  	0.026018 
1544.981616  	0.026301 
1546.910432  	0.025362 
1548.839248  	0.024014 
1550.768064  	0.024295 
1552.696880  	0.022841 
1554.625696  	0.022479 
1556.554512  	0.020049 
1558.483328  	0.019812 
1560.412144  	0.029010 
1562.340960  	0.028562 
1564.269776  	0.029031 
1566.198592  	0.031548 
1568.127408  	0.032156 
1570.056224  	0.037108 
1571.985040  	0.040504 
1573.913856  	0.040476 
1575.842672  	0.042268 
1577.771488  	0.046687 
1579.700304  	0.046010 
1581.629120  	0.045126 
1583.557936  	0.044335 
1585.486752  	0.044517 
1587.415568  	0.045349 
1589.344384  	0.047674 
1591.273200  	0.050914 
1593.202016  	0.055036 
1595.130832  	0.059738 
1597.059648  	0.065080 
1598.988464  	0.069347 
1600.917280  	0.073389 
1602.846096  	0.076571 
1604.774912  	0.078891 
1606.703728  	0.079332 
1608.632544  	0.079487 
1610.561360  	0.078623 
1612.490176  	0.077012 
1614.418992  	0.073435 
1616.347808  	0.073108 
1618.276624  	0.076374 
1620.205440  	0.076478 
1622.134256  	0.076631 
1624.063072  	0.082328 
1625.991888  	0.085701 
1627.920704  	0.091080 
1629.849520  	0.097808 
1631.778336  	0.101964 
1633.707152  	0.104000 
1635.635968  	0.112434 
1637.564784  	0.123405 
1639.493600  	0.126934 
1641.422416  	0.130227 
1643.351232  	0.131945 
1645.280048  	0.131605 
1647.208864  	0.137217 
1649.137680  	0.139632 
1651.066496  	0.135233 
1652.995312  	0.135869 
1654.924128  	0.143849 
1656.852944  	0.141064 
1658.781760  	0.138887 
1660.710576  	0.136163 
1662.639392  	0.134889 
1664.568208  	0.133438 
1666.497024  	0.129026 
1668.425840  	0.124370 
1670.354656  	0.122118 
1672.283472  	0.118898 
1674.212288  	0.114769 
1676.141104  	0.113429 
1678.069920  	0.110740 
1679.998736  	0.108336 
1681.927552  	0.105240 
1683.856368  	0.104397 
1685.785184  	0.109363 
1687.714000  	0.107861 
1689.642816  	0.107969 
1691.571632  	0.107576 
1693.500448  	0.105278 
1695.429264  	0.104176 
1697.358080  	0.105228 
1699.286896  	0.103332 
1701.215712  	0.107501 
1703.144528  	0.105552 
1705.073344  	0.103708 
1707.002160  	0.102896 
1708.930976  	0.100565 
1710.859792  	0.096648 
1712.788608  	0.091446 
1714.717424  	0.084357 
1716.646240  	0.076807 
1718.575056  	0.068907 
1720.503872  	0.060877 
1722.432688  	0.052916 
1724.361504  	0.044836 
1726.290320  	0.037421 
1728.219136  	0.030656 
1730.147952  	0.024876 
1732.076768  	0.019335 
1734.005584  	0.016401 
1735.934400  	0.014442 
1737.863216  	0.011188 
1739.792032  	0.009306 
1741.720848  	0.008299 
1743.649664  	0.006956 
1745.578480  	0.005344 
1747.507296  	0.003661 
1749.436112  	0.003375 
1751.364928  	0.004175 
1753.293744  	0.003731 
1755.222560  	0.002169 
1757.151376  	0.002370 
1759.080192  	0.001547 
1761.009008  	0.000913 
1762.937824  	0.001479 
1764.866640  	0.000930 
1766.795456  	0.000044 
1768.724272  	-0.000169 
1770.653088  	-0.002193 
1772.581904  	-0.001391 
1774.510720  	-0.000115 
1776.439536  	-0.000238 
1778.368352  	-0.000926 
1780.297168  	-0.000971 
1782.225984  	-0.000760 
1784.154800  	-0.000676 
1786.083616  	-0.000577 
1788.012432  	-0.001322 
1789.941248  	-0.002444 
1791.870064  	-0.002209 
1793.798880  	-0.001223 
1795.727696  	-0.001377 
1797.656512  	-0.002281 
1799.585328  	-0.002773 
1801.514144  	-0.001791 
1803.442960  	-0.001648 
1805.371776  	-0.002344 
1807.300592  	-0.002492 
1809.229408  	-0.002689 
1811.158224  	-0.002572 
1813.087040  	-0.002555 
1815.015856  	-0.002961 
1816.944672  	-0.002941 
1818.873488  	-0.002719 
1820.802304  	-0.002864 
1822.731120  	-0.003135 
1824.659936  	-0.003006 
1826.588752  	-0.002914 
1828.517568  	-0.004053 
1830.446384  	-0.002939 
1832.375200  	-0.002482 
1834.304016  	-0.002621 
1836.232832  	-0.002756 
1838.161648  	-0.002919 
1840.090464  	-0.003232 
1842.019280  	-0.003943 
1843.948096  	-0.003642 
1845.876912  	-0.002634 
1847.805728  	-0.002658 
1849.734544  	-0.002510 
1851.663360  	-0.002971 
1853.592176  	-0.003002 
1855.520992  	-0.003335 
1857.449808  	-0.003127 
1859.378624  	-0.003092 
1861.307440  	-0.002901 
1863.236256  	-0.003246 
1865.165072  	-0.003794 
1867.093888  	-0.004581 
1869.022704  	-0.003789 
1870.951520  	-0.003160 
1872.880336  	-0.003358 
1874.809152  	-0.003557 
1876.737968  	-0.003603 
1878.666784  	-0.003632 
1880.595600  	-0.003459 
1882.524416  	-0.003562 
1884.453232  	-0.003639 
1886.382048  	-0.004005 
1888.310864  	-0.003883 
1890.239680  	-0.003021 
1892.168496  	-0.003074 
1894.097312  	-0.003737 
1896.026128  	-0.003584 
1897.954944  	-0.003443 
1899.883760  	-0.003462 
1901.812576  	-0.003605 
1903.741392  	-0.003469 
1905.670208  	-0.003717 
1907.599024  	-0.003560 
1909.527840  	-0.003255 
1911.456656  	-0.003062 
1913.385472  	-0.003381 
1915.314288  	-0.003967 
1917.243104  	-0.004212 
1919.171920  	-0.003431 
1921.100736  	-0.003875 
1923.029552  	-0.003372 
1924.958368  	-0.003778 
1926.887184  	-0.004334 
1928.816000  	-0.004013 
1930.744816  	-0.003725 
1932.673632  	-0.004107 
1934.602448  	-0.004260 
1936.531264  	-0.004601 
1938.460080  	-0.005066 
1940.388896  	-0.005566 
1942.317712  	-0.005267 
1944.246528  	-0.004947 
1946.175344  	-0.004288 
1948.104160  	-0.003899 
1950.032976  	-0.004503 
1951.961792  	-0.004967 
1953.890608  	-0.004808 
1955.819424  	-0.004734 
1957.748240  	-0.005072 
1959.677056  	-0.006058 
1961.605872  	-0.005362 
1963.534688  	-0.004969 
1965.463504  	-0.004658 
1967.392320  	-0.005910 
1969.321136  	-0.006460 
1971.249952  	-0.006181 
1973.178768  	-0.006189 
1975.107584  	-0.005848 
1977.036400  	-0.004556 
1978.965216  	-0.002776 
1980.894032  	-0.002283 
1982.822848  	-0.003541 
1984.751664  	-0.003479 
1986.680480  	-0.003335 
1988.609296  	-0.003085 
1990.538112  	-0.003847 
1992.466928  	-0.003958 
1994.395744  	-0.004426 
1996.324560  	-0.004411 
1998.253376  	-0.004127 
2000.182192  	-0.003992 
2002.111008  	-0.004341 
2004.039824  	-0.003866 
2005.968640  	-0.003853 
2007.897456  	-0.003581 
2009.826272  	-0.002992 
2011.755088  	-0.002685 
2013.683904  	-0.003344 
2015.612720  	-0.003740 
2017.541536  	-0.002765 
2019.470352  	-0.001427 
2021.399168  	-0.001711 
2023.327984  	-0.001885 
2025.256800  	-0.003191 
2027.185616  	-0.003257 
2029.114432  	-0.002853 
2031.043248  	-0.003305 
2032.972064  	-0.002322 
2034.900880  	-0.001003 
2036.829696  	-0.001136 
2038.758512  	-0.001478 
2040.687328  	-0.001411 
2042.616144  	-0.000453 
2044.544960  	-0.000654 
2046.473776  	-0.000853 
2048.402592  	-0.000937 
2050.331408  	-0.000981 
2052.260224  	-0.002144 
2054.189040  	-0.003002 
2056.117856  	-0.002329 
2058.046672  	-0.001718 
2059.975488  	-0.002124 
2061.904304  	-0.002350 
2063.833120  	-0.002767 
2065.761936  	-0.002278 
2067.690752  	-0.001847 
2069.619568  	-0.002031 
2071.548384  	-0.002497 
2073.477200  	-0.002184 
2075.406016  	-0.002044 
2077.334832  	-0.001742 
2079.263648  	-0.001554 
2081.192464  	-0.001338 
2083.121280  	-0.001502 
2085.050096  	-0.001807 
2086.978912  	-0.002056 
2088.907728  	-0.001667 
2090.836544  	-0.001957 
2092.765360  	-0.002467 
2094.694176  	-0.002287 
2096.622992  	-0.001857 
2098.551808  	-0.001595 
2100.480624  	-0.001539 
2102.409440  	-0.001725 
2104.338256  	-0.001987 
2106.267072  	-0.001861 
2108.195888  	-0.001213 
2110.124704  	-0.001364 
2112.053520  	-0.001624 
2113.982336  	-0.001759 
2115.911152  	-0.001347 
2117.839968  	-0.001202 
2119.768784  	-0.001618 
2121.697600  	-0.002401 
2123.626416  	-0.002320 
2125.555232  	-0.002691 
2127.484048  	-0.002802 
2129.412864  	-0.002747 
2131.341680  	-0.003167 
2133.270496  	-0.003472 
2135.199312  	-0.002855 
2137.128128  	-0.002554 
2139.056944  	-0.002297 
2140.985760  	-0.002428 
2142.914576  	-0.002412 
2144.843392  	-0.002310 
2146.772208  	-0.001652 
2148.701024  	-0.001017 
2150.629840  	-0.000892 
2152.558656  	-0.002097 
2154.487472  	-0.002248 
2156.416288  	-0.001421 
2158.345104  	0.001537 
2160.273920  	0.003084 
2162.202736  	0.001822 
2164.131552  	0.002768 
2166.060368  	0.003238 
2167.989184  	0.001758 
2169.918000  	0.001680 
2171.846816  	0.001646 
2173.775632  	0.001269 
2175.704448  	0.000710 
2177.633264  	0.000184 
2179.562080  	-0.000715 
2181.490896  	-0.000768 
2183.419712  	-0.000234 
2185.348528  	0.000188 
2187.277344  	0.000387 
2189.206160  	0.001007 
2191.134976  	0.001132 
2193.063792  	0.001048 
2194.992608  	0.000616 
2196.921424  	-0.000004 
2198.850240  	-0.000289 
2200.779056  	0.000181 
2202.707872  	-0.000231 
2204.636688  	-0.000732 
2206.565504  	-0.000056 
2208.494320  	0.000592 
2210.423136  	-0.000567 
2212.351952  	-0.001278 
2214.280768  	-0.000395 
2216.209584  	0.000162 
2218.138400  	-0.000262 
2220.067216  	-0.000388 
2221.996032  	-0.000267 
2223.924848  	-0.000186 
2225.853664  	-0.001053 
2227.782480  	-0.001291 
2229.711296  	-0.000684 
2231.640112  	-0.000930 
2233.568928  	-0.001203 
2235.497744  	-0.000938 
2237.426560  	-0.001493 
2239.355376  	-0.001739 
2241.284192  	-0.001506 
2243.213008  	-0.001177 
2245.141824  	-0.001159 
2247.070640  	-0.000827 
2248.999456  	-0.001117 
2250.928272  	-0.001501 
2252.857088  	-0.001629 
2254.785904  	-0.001359 
2256.714720  	-0.001154 
2258.643536  	-0.001387 
2260.572352  	-0.001428 
2262.501168  	-0.001142 
2264.429984  	-0.001251 
2266.358800  	-0.001585 
2268.287616  	-0.001267 
2270.216432  	-0.000986 
2272.145248  	-0.001000 
2274.074064  	-0.000713 
2276.002880  	-0.000483 
2277.931696  	-0.000329 
2279.860512  	-0.000298 
2281.789328  	0.000165 
2283.718144  	0.000263 
2285.646960  	0.000280 
2287.575776  	0.000181 
2289.504592  	0.000279 
2291.433408  	0.000278 
2293.362224  	0.000359 
2295.291040  	0.000640 
2297.219856  	0.000671 
2299.148672  	0.000621 
2301.077488  	0.000894 
2303.006304  	0.001016 
2304.935120  	0.000878 
2306.863936  	0.001101 
2308.792752  	0.001449 
2310.721568  	0.001624 
2312.650384  	0.001698 
2314.579200  	0.001433 
2316.508016  	0.001322 
2318.436832  	0.001341 
2320.365648  	0.001422 
2322.294464  	0.001674 
2324.223280  	0.001331 
2326.152096  	-0.000489 
2328.080912  	-0.001287 
2330.009728  	-0.001174 
2331.938544  	-0.001477 
2333.867360  	-0.002593 
2335.796176  	-0.003191 
2337.724992  	-0.003321 
2339.653808  	-0.003196 
2341.582624  	-0.002856 
2343.511440  	-0.001841 
2345.440256  	-0.000432 
2347.369072  	0.000131 
2349.297888  	-0.000950 
2351.226704  	-0.002203 
2353.155520  	-0.003093 
2355.084336  	-0.003656 
2357.013152  	-0.003956 
2358.941968  	-0.003916 
2360.870784  	-0.003136 
2362.799600  	-0.002660 
2364.728416  	-0.002688 
2366.657232  	-0.002081 
2368.586048  	-0.000925 
2370.514864  	0.000173 
2372.443680  	0.000870 
2374.372496  	0.001401 
2376.301312  	0.001695 
2378.230128  	0.002080 
2380.158944  	0.002105 
2382.087760  	0.001703 
2384.016576  	0.000952 
2385.945392  	0.000123 
2387.874208  	-0.000127 
2389.803024  	0.000052 
2391.731840  	-0.000045 
2393.660656  	-0.000277 
2395.589472  	-0.000397 
2397.518288  	-0.000336 
2399.447104  	-0.000103 
2401.375920  	0.000198 
2403.304736  	0.000336 
2405.233552  	0.000355 
2407.162368  	0.000385 
2409.091184  	0.000407 
2411.020000  	0.000444 
2412.948816  	0.000472 
2414.877632  	0.000441 
2416.806448  	0.000698 
2418.735264  	0.000784 
2420.664080  	0.000808 
2422.592896  	0.000823 
2424.521712  	0.000942 
2426.450528  	0.001116 
2428.379344  	0.001202 
2430.308160  	0.001383 
2432.236976  	0.001483 
2434.165792  	0.001641 
2436.094608  	0.001747 
2438.023424  	0.001542 
2439.952240  	0.001471 
2441.881056  	0.001638 
2443.809872  	0.001764 
2445.738688  	0.001830 
2447.667504  	0.002051 
2449.596320  	0.002110 
2451.525136  	0.002082 
2453.453952  	0.002225 
2455.382768  	0.002437 
2457.311584  	0.002544 
2459.240400  	0.002401 
2461.169216  	0.002358 
2463.098032  	0.002596 
2465.026848  	0.002710 
2466.955664  	0.002588 
2468.884480  	0.002652 
2470.813296  	0.002864 
2472.742112  	0.002924 
2474.670928  	0.002957 
2476.599744  	0.003061 
2478.528560  	0.003253 
2480.457376  	0.003280 
2482.386192  	0.003211 
2484.315008  	0.003343 
2486.243824  	0.003378 
2488.172640  	0.003502 
2490.101456  	0.003849 
2492.030272  	0.003960 
2493.959088  	0.003821 
2495.887904  	0.003777 
2497.816720  	0.003970 
2499.745536  	0.004229 
2501.674352  	0.004441 
2503.603168  	0.004427 
2505.531984  	0.004346 
2507.460800  	0.004456 
2509.389616  	0.004633 
2511.318432  	0.004740 
2513.247248  	0.004659 
2515.176064  	0.004603 
2517.104880  	0.004774 
2519.033696  	0.005176 
2520.962512  	0.005251 
2522.891328  	0.005264 
2524.820144  	0.005253 
2526.748960  	0.005135 
2528.677776  	0.005200 
2530.606592  	0.005375 
2532.535408  	0.005477 
2534.464224  	0.005517 
2536.393040  	0.005567 
2538.321856  	0.005674 
2540.250672  	0.005667 
2542.179488  	0.005722 
2544.108304  	0.005925 
2546.037120  	0.006082 
2547.965936  	0.006153 
2549.894752  	0.006124 
2551.823568  	0.006116 
2553.752384  	0.006057 
2555.681200  	0.006219 
2557.610016  	0.006312 
2559.538832  	0.006490 
2561.467648  	0.006805 
2563.396464  	0.006902 
2565.325280  	0.006890 
2567.254096  	0.007019 
2569.182912  	0.007124 
2571.111728  	0.007197 
2573.040544  	0.007336 
2574.969360  	0.007613 
2576.898176  	0.007885 
2578.826992  	0.007987 
2580.755808  	0.007797 
2582.684624  	0.007821 
2584.613440  	0.007958 
2586.542256  	0.007960 
2588.471072  	0.007843 
2590.399888  	0.007998 
2592.328704  	0.008191 
2594.257520  	0.008314 
2596.186336  	0.008406 
2598.115152  	0.008554 
2600.043968  	0.008446 
2601.972784  	0.008299 
2603.901600  	0.008461 
2605.830416  	0.008738 
2607.759232  	0.008961 
2609.688048  	0.008840 
2611.616864  	0.008766 
2613.545680  	0.008946 
2615.474496  	0.009182 
2617.403312  	0.009237 
2619.332128  	0.009366 
2621.260944  	0.009499 
2623.189760  	0.009569 
2625.118576  	0.009740 
2627.047392  	0.009855 
2628.976208  	0.009986 
2630.905024  	0.010024 
2632.833840  	0.010268 
2634.762656  	0.010395 
2636.691472  	0.010434 
2638.620288  	0.010699 
2640.549104  	0.010892 
2642.477920  	0.010971 
2644.406736  	0.011003 
2646.335552  	0.011087 
2648.264368  	0.011282 
2650.193184  	0.011412 
2652.122000  	0.011559 
2654.050816  	0.011643 
2655.979632  	0.011658 
2657.908448  	0.011751 
2659.837264  	0.011874 
2661.766080  	0.012013 
2663.694896  	0.012007 
2665.623712  	0.011970 
2667.552528  	0.012196 
2669.481344  	0.012449 
2671.410160  	0.012605 
2673.338976  	0.012662 
2675.267792  	0.012725 
2677.196608  	0.012862 
2679.125424  	0.013057 
2681.054240  	0.013206 
2682.983056  	0.013284 
2684.911872  	0.013389 
2686.840688  	0.013413 
2688.769504  	0.013508 
2690.698320  	0.013650 
2692.627136  	0.013804 
2694.555952  	0.013926 
2696.484768  	0.014084 
2698.413584  	0.014324 
2700.342400  	0.014353 
2702.271216  	0.014351 
2704.200032  	0.014524 
2706.128848  	0.014688 
2708.057664  	0.014825 
2709.986480  	0.014925 
2711.915296  	0.014983 
2713.844112  	0.015065 
2715.772928  	0.015216 
2717.701744  	0.015286 
2719.630560  	0.015379 
2721.559376  	0.015607 
2723.488192  	0.015721 
2725.417008  	0.015898 
2727.345824  	0.016062 
2729.274640  	0.016071 
2731.203456  	0.016200 
2733.132272  	0.016395 
2735.061088  	0.016527 
2736.989904  	0.016664 
2738.918720  	0.016861 
2740.847536  	0.016964 
2742.776352  	0.016999 
2744.705168  	0.017124 
2746.633984  	0.017263 
2748.562800  	0.017407 
2750.491616  	0.017595 
2752.420432  	0.017731 
2754.349248  	0.017677 
2756.278064  	0.017665 
2758.206880  	0.017717 
2760.135696  	0.017816 
2762.064512  	0.017891 
2763.993328  	0.017964 
2765.922144  	0.017915 
2767.850960  	0.017902 
2769.779776  	0.017960 
2771.708592  	0.017958 
2773.637408  	0.017893 
2775.566224  	0.017869 
2777.495040  	0.017868 
2779.423856  	0.017851 
2781.352672  	0.017810 
2783.281488  	0.017837 
2785.210304  	0.017894 
2787.139120  	0.017932 
2789.067936  	0.017970 
2790.996752  	0.018049 
2792.925568  	0.017987 
2794.854384  	0.017890 
2796.783200  	0.017873 
2798.712016  	0.018023 
2800.640832  	0.018128 
2802.569648  	0.018117 
2804.498464  	0.018031 
2806.427280  	0.018024 
2808.356096  	0.018036 
2810.284912  	0.018063 
2812.213728  	0.018038 
2814.142544  	0.018042 
2816.071360  	0.017995 
2818.000176  	0.018039 
2819.928992  	0.017996 
2821.857808  	0.017955 
2823.786624  	0.017953 
2825.715440  	0.017996 
2827.644256  	0.018024 
2829.573072  	0.018073 
2831.501888  	0.018071 
2833.430704  	0.017966 
2835.359520  	0.017829 
2837.288336  	0.017777 
2839.217152  	0.017753 
2841.145968  	0.017709 
2843.074784  	0.017745 
2845.003600  	0.017795 
2846.932416  	0.017886 
2848.861232  	0.017926 
2850.790048  	0.017855 
2852.718864  	0.017841 
2854.647680  	0.017855 
2856.576496  	0.017962 
2858.505312  	0.018033 
2860.434128  	0.018039 
2862.362944  	0.018126 
2864.291760  	0.018157 
2866.220576  	0.018256 
2868.149392  	0.018354 
2870.078208  	0.018365 
2872.007024  	0.018476 
2873.935840  	0.018697 
2875.864656  	0.019055 
2877.793472  	0.019399 
2879.722288  	0.019683 
2881.651104  	0.019941 
2883.579920  	0.020015 
2885.508736  	0.020129 
2887.437552  	0.020321 
2889.366368  	0.020275 
2891.295184  	0.020139 
2893.224000  	0.020023 
2895.152816  	0.020031 
2897.081632  	0.019770 
2899.010448  	0.019243 
2900.939264  	0.018900 
2902.868080  	0.019050 
2904.796896  	0.019288 
2906.725712  	0.019382 
2908.654528  	0.019389 
2910.583344  	0.019525 
2912.512160  	0.020002 
2914.440976  	0.020457 
2916.369792  	0.020727 
2918.298608  	0.021017 
2920.227424  	0.021444 
2922.156240  	0.021845 
2924.085056  	0.022210 
2926.013872  	0.022593 
2927.942688  	0.023122 
2929.871504  	0.023703 
2931.800320  	0.024059 
2933.729136  	0.024579 
2935.657952  	0.025001 
2937.586768  	0.025378 
2939.515584  	0.025758 
2941.444400  	0.026097 
2943.373216  	0.026394 
2945.302032  	0.026429 
2947.230848  	0.026499 
2949.159664  	0.026594 
2951.088480  	0.026494 
2953.017296  	0.026145 
2954.946112  	0.025814 
2956.874928  	0.025556 
2958.803744  	0.025269 
2960.732560  	0.024876 
2962.661376  	0.024194 
2964.590192  	0.023716 
2966.519008  	0.023258 
2968.447824  	0.022473 
2970.376640  	0.021748 
2972.305456  	0.021004 
2974.234272  	0.020362 
2976.163088  	0.019862 
2978.091904  	0.019436 
2980.020720  	0.019121 
2981.949536  	0.019103 
2983.878352  	0.019192 
2985.807168  	0.019138 
2987.735984  	0.019215 
2989.664800  	0.019593 
2991.593616  	0.020268 
2993.522432  	0.020690 
2995.451248  	0.021013 
2997.380064  	0.021612 
2999.308880  	0.022099 
3001.237696  	0.022308 
3003.166512  	0.022445 
3005.095328  	0.022738 
3007.024144  	0.023026 
3008.952960  	0.023431 
3010.881776  	0.023736 
3012.810592  	0.023976 
3014.739408  	0.024263 
3016.668224  	0.024581 
3018.597040  	0.024894 
3020.525856  	0.025094 
3022.454672  	0.025363 
3024.383488  	0.025574 
3026.312304  	0.025871 
3028.241120  	0.026076 
3030.169936  	0.026253 
3032.098752  	0.026576 
3034.027568  	0.026817 
3035.956384  	0.027076 
3037.885200  	0.027256 
3039.814016  	0.027398 
3041.742832  	0.027561 
3043.671648  	0.027877 
3045.600464  	0.028396 
3047.529280  	0.028719 
3049.458096  	0.028781 
3051.386912  	0.028814 
3053.315728  	0.029026 
3055.244544  	0.029238 
3057.173360  	0.029825 
3059.102176  	0.030350 
3061.030992  	0.030568 
3062.959808  	0.030623 
3064.888624  	0.031032 
3066.817440  	0.031636 
3068.746256  	0.032118 
3070.675072  	0.032476 
3072.603888  	0.032832 
3074.532704  	0.033135 
3076.461520  	0.033334 
3078.390336  	0.033645 
3080.319152  	0.034131 
3082.247968  	0.034679 
3084.176784  	0.035078 
3086.105600  	0.035423 
3088.034416  	0.035804 
3089.963232  	0.036171 
3091.892048  	0.036511 
3093.820864  	0.036843 
3095.749680  	0.037356 
3097.678496  	0.037771 
3099.607312  	0.038118 
3101.536128  	0.038663 
3103.464944  	0.038990 
3105.393760  	0.039399 
3107.322576  	0.039822 
3109.251392  	0.040229 
3111.180208  	0.040482 
3113.109024  	0.040456 
3115.037840  	0.040467 
3116.966656  	0.040860 
3118.895472  	0.041330 
3120.824288  	0.041545 
3122.753104  	0.041807 
3124.681920  	0.042018 
3126.610736  	0.042201 
3128.539552  	0.042443 
3130.468368  	0.042602 
3132.397184  	0.042934 
3134.326000  	0.043044 
3136.254816  	0.042993 
3138.183632  	0.043264 
3140.112448  	0.043695 
3142.041264  	0.043961 
3143.970080  	0.044101 
3145.898896  	0.044333 
3147.827712  	0.044566 
3149.756528  	0.044761 
3151.685344  	0.045178 
3153.614160  	0.045611 
3155.542976  	0.045845 
3157.471792  	0.046161 
3159.400608  	0.046565 
3161.329424  	0.046680 
3163.258240  	0.046784 
3165.187056  	0.046875 
3167.115872  	0.047148 
3169.044688  	0.047553 
3170.973504  	0.047852 
3172.902320  	0.048022 
3174.831136  	0.048094 
3176.759952  	0.048262 
3178.688768  	0.048572 
3180.617584  	0.048689 
3182.546400  	0.048349 
3184.475216  	0.048165 
3186.404032  	0.048360 
3188.332848  	0.048461 
3190.261664  	0.048335 
3192.190480  	0.048144 
3194.119296  	0.047988 
3196.048112  	0.047793 
3197.976928  	0.047689 
3199.905744  	0.047663 
3201.834560  	0.047469 
3203.763376  	0.047156 
3205.692192  	0.046770 
3207.621008  	0.046261 
3209.549824  	0.046109 
3211.478640  	0.046031 
3213.407456  	0.045711 
3215.336272  	0.045602 
3217.265088  	0.045180 
3219.193904  	0.044967 
3221.122720  	0.044946 
3223.051536  	0.044768 
3224.980352  	0.044485 
3226.909168  	0.044038 
3228.837984  	0.043580 
3230.766800  	0.043382 
3232.695616  	0.043322 
3234.624432  	0.043371 
3236.553248  	0.043272 
3238.482064  	0.043089 
3240.410880  	0.043112 
3242.339696  	0.042995 
3244.268512  	0.043004 
3246.197328  	0.043295 
3248.126144  	0.043089 
3250.054960  	0.043296 
3251.983776  	0.043414 
3253.912592  	0.043508 
3255.841408  	0.043576 
3257.770224  	0.043715 
3259.699040  	0.044108 
3261.627856  	0.044393 
3263.556672  	0.044301 
3265.485488  	0.044441 
3267.414304  	0.044593 
3269.343120  	0.044860 
3271.271936  	0.045012 
3273.200752  	0.045163 
3275.129568  	0.045443 
3277.058384  	0.045667 
3278.987200  	0.045820 
3280.916016  	0.045901 
3282.844832  	0.045860 
3284.773648  	0.045661 
3286.702464  	0.045687 
3288.631280  	0.045973 
3290.560096  	0.046077 
3292.488912  	0.046462 
3294.417728  	0.046798 
3296.346544  	0.046967 
3298.275360  	0.047474 
3300.204176  	0.047768 
3302.132992  	0.048081 
3304.061808  	0.048367 
3305.990624  	0.048481 
3307.919440  	0.048662 
3309.848256  	0.049144 
3311.777072  	0.049528 
3313.705888  	0.049801 
3315.634704  	0.049886 
3317.563520  	0.050172 
3319.492336  	0.050728 
3321.421152  	0.050850 
3323.349968  	0.050779 
3325.278784  	0.051010 
3327.207600  	0.051398 
3329.136416  	0.051625 
3331.065232  	0.051678 
3332.994048  	0.051739 
3334.922864  	0.052016 
3336.851680  	0.052273 
3338.780496  	0.052063 
3340.709312  	0.051655 
3342.638128  	0.051576 
3344.566944  	0.051654 
3346.495760  	0.051505 
3348.424576  	0.051321 
3350.353392  	0.051150 
3352.282208  	0.050967 
3354.211024  	0.050958 
3356.139840  	0.050905 
3358.068656  	0.050654 
3359.997472  	0.050232 
3361.926288  	0.050040 
3363.855104  	0.049913 
3365.783920  	0.049920 
3367.712736  	0.049673 
3369.641552  	0.049452 
3371.570368  	0.049462 
3373.499184  	0.049191 
3375.428000  	0.048591 
3377.356816  	0.048591 
3379.285632  	0.048644 
3381.214448  	0.048467 
3383.143264  	0.048189 
3385.072080  	0.048010 
3387.000896  	0.047762 
3388.929712  	0.047408 
3390.858528  	0.046947 
3392.787344  	0.047136 
3394.716160  	0.047100 
3396.644976  	0.046877 
3398.573792  	0.046781 
3400.502608  	0.046450 
3402.431424  	0.046287 
3404.360240  	0.046196 
3406.289056  	0.045909 
3408.217872  	0.045564 
3410.146688  	0.045344 
3412.075504  	0.045146 
3414.004320  	0.044963 
3415.933136  	0.044562 
3417.861952  	0.043876 
3419.790768  	0.043675 
3421.719584  	0.043974 
3423.648400  	0.043723 
3425.577216  	0.043238 
3427.506032  	0.042779 
3429.434848  	0.042483 
3431.363664  	0.042281 
3433.292480  	0.042055 
3435.221296  	0.041729 
3437.150112  	0.041382 
3439.078928  	0.040979 
3441.007744  	0.040669 
3442.936560  	0.040519 
3444.865376  	0.039760 
3446.794192  	0.039797 
3448.723008  	0.040117 
3450.651824  	0.039058 
3452.580640  	0.038312 
3454.509456  	0.038084 
3456.438272  	0.037691 
3458.367088  	0.037129 
3460.295904  	0.036958 
3462.224720  	0.036881 
3464.153536  	0.036339 
3466.082352  	0.035689 
3468.011168  	0.035258 
3469.939984  	0.034488 
3471.868800  	0.033640 
3473.797616  	0.033110 
3475.726432  	0.032940 
3477.655248  	0.032345 
3479.584064  	0.031583 
3481.512880  	0.031356 
3483.441696  	0.031135 
3485.370512  	0.030147 
3487.299328  	0.029801 
3489.228144  	0.029547 
3491.156960  	0.028643 
3493.085776  	0.027657 
3495.014592  	0.027146 
3496.943408  	0.027131 
3498.872224  	0.026499 
3500.801040  	0.025303 
3502.729856  	0.025510 
3504.658672  	0.025934 
3506.587488  	0.024613 
3508.516304  	0.023832 
3510.445120  	0.024357 
3512.373936  	0.023901 
3514.302752  	0.023051 
3516.231568  	0.022331 
3518.160384  	0.021687 
3520.089200  	0.020828 
3522.018016  	0.020064 
3523.946832  	0.020613 
3525.875648  	0.020223 
3527.804464  	0.019879 
3529.733280  	0.020066 
3531.662096  	0.019720 
3533.590912  	0.018562 
3535.519728  	0.018191 
3537.448544  	0.018619 
3539.377360  	0.017731 
3541.306176  	0.016746 
3543.234992  	0.016016 
3545.163808  	0.016734 
3547.092624  	0.017649 
3549.021440  	0.016293 
3550.950256  	0.014570 
3552.879072  	0.015154 
3554.807888  	0.014843 
3556.736704  	0.013734 
3558.665520  	0.013203 
3560.594336  	0.012933 
3562.523152  	0.011868 
3564.451968  	0.010182 
3566.380784  	0.011574 
3568.309600  	0.015057 
3570.238416  	0.013194 
3572.167232  	0.010827 
3574.096048  	0.009805 
3576.024864  	0.009400 
3577.953680  	0.009025 
3579.882496  	0.008667 
3581.811312  	0.008051 
3583.740128  	0.006162 
3585.668944  	0.004678 
3587.597760  	0.007735 
3589.526576  	0.008700 
3591.455392  	0.005311 
3593.384208  	0.004171 
3595.313024  	0.005097 
3597.241840  	0.004489 
3599.170656  	0.003133 
3601.099472  	0.003348 
3603.028288  	0.003004 
3604.957104  	0.000997 
3606.885920  	0.000063 
3608.814736  	0.001603 
3610.743552  	0.000284 
3612.672368  	-0.000879 
3614.601184  	-0.000749 
3616.530000  	-0.003474 
3618.458816  	-0.003523 
3620.387632  	-0.000345 
3622.316448  	-0.001285 
3624.245264  	-0.004199 
3626.174080  	-0.007941 
3628.102896  	-0.008047 
3630.031712  	-0.001305 
3631.960528  	-0.004194 
3633.889344  	-0.005406 
3635.818160  	-0.005768 
3637.746976  	-0.007065 
3639.675792  	-0.007554 
3641.604608  	-0.008220 
3643.533424  	-0.009592 
3645.462240  	-0.013088 
3647.391056  	-0.014557 
3649.319872  	-0.011028 
3651.248688  	-0.006341 
3653.177504  	-0.009654 
3655.106320  	-0.012206 
3657.035136  	-0.009747 
3658.963952  	-0.010247 
3660.892768  	-0.011044 
3662.821584  	-0.011549 
3664.750400  	-0.012519 
3666.679216  	-0.014700 
3668.608032  	-0.016501 
3670.536848  	-0.012361 
3672.465664  	-0.014258 
3674.394480  	-0.017126 
3676.323296  	-0.010069 
3678.252112  	-0.011303 
3680.180928  	-0.011847 
3682.109744  	-0.012381 
3684.038560  	-0.013639 
3685.967376  	-0.015804 
3687.896192  	-0.016386 
3689.825008  	-0.013183 
3691.753824  	-0.011086 
3693.682640  	-0.011554 
3695.611456  	-0.012392 
3697.540272  	-0.012567 
3699.469088  	-0.013938 
3701.397904  	-0.013161 
3703.326720  	-0.011640 
3705.255536  	-0.012811 
3707.184352  	-0.014602 
3709.113168  	-0.015720 
3711.041984  	-0.013856 
3712.970800  	-0.010077 
3714.899616  	-0.010709 
3716.828432  	-0.012737 
3718.757248  	-0.013148 
3720.686064  	-0.013706 
3722.614880  	-0.013106 
3724.543696  	-0.012494 
3726.472512  	-0.011341 
3728.401328  	-0.012232 
3730.330144  	-0.015917 
3732.258960  	-0.016538 
3734.187776  	-0.014777 
3736.116592  	-0.010616 
3738.045408  	-0.010528 
3739.974224  	-0.012942 
3741.903040  	-0.016140 
3743.831856  	-0.015499 
3745.760672  	-0.010871 
3747.689488  	-0.015426 
3749.618304  	-0.015728 
3751.547120  	-0.011278 
3753.475936  	-0.009371 
3755.404752  	-0.012048 
3757.333568  	-0.013128 
3759.262384  	-0.011961 
3761.191200  	-0.010656 
3763.120016  	-0.012731 
3765.048832  	-0.012454 
3766.977648  	-0.011967 
3768.906464  	-0.012582 
3770.835280  	-0.010172 
3772.764096  	-0.010712 
3774.692912  	-0.011999 
3776.621728  	-0.013099 
3778.550544  	-0.013047 
3780.479360  	-0.010743 
3782.408176  	-0.011726 
3784.336992  	-0.011908 
3786.265808  	-0.010843 
3788.194624  	-0.011113 
3790.123440  	-0.011615 
3792.052256  	-0.011979 
3793.981072  	-0.013367 
3795.909888  	-0.013421 
3797.838704  	-0.012933 
3799.767520  	-0.015497 
3801.696336  	-0.012252 
3803.625152  	-0.011324 
3805.553968  	-0.014044 
3807.482784  	-0.010797 
3809.411600  	-0.010607 
3811.340416  	-0.012156 
3813.269232  	-0.014434 
3815.198048  	-0.014757 
3817.126864  	-0.012182 
3819.055680  	-0.015597 
3820.984496  	-0.012937 
3822.913312  	-0.009476 
3824.842128  	-0.012547 
3826.770944  	-0.012312 
3828.699760  	-0.012420 
3830.628576  	-0.013461 
3832.557392  	-0.013307 
3834.486208  	-0.014490 
3836.415024  	-0.015203 
3838.343840  	-0.013140 
3840.272656  	-0.011256 
3842.201472  	-0.011453 
3844.130288  	-0.010698 
3846.059104  	-0.011317 
3847.987920  	-0.013490 
3849.916736  	-0.016244 
3851.845552  	-0.018162 
3853.774368  	-0.009608 
3855.703184  	-0.007699 
3857.632000  	-0.010336 
3859.560816  	-0.012579 
3861.489632  	-0.013645 
3863.418448  	-0.013053 
3865.347264  	-0.010895 
3867.276080  	-0.013305 
3869.204896  	-0.013708 
3871.133712  	-0.010278 
3873.062528  	-0.012073 
3874.991344  	-0.010355 
3876.920160  	-0.012148 
3878.848976  	-0.013901 
3880.777792  	-0.011352 
3882.706608  	-0.011843 
3884.635424  	-0.012775 
3886.564240  	-0.009384 
3888.493056  	-0.012115 
3890.421872  	-0.013283 
3892.350688  	-0.010530 
3894.279504  	-0.010828 
3896.208320  	-0.012987 
3898.137136  	-0.013929 
3900.065952  	-0.012727 
3901.994768  	-0.011943 
3903.923584  	-0.010103 
3905.852400  	-0.009096 
3907.781216  	-0.010815 
3909.710032  	-0.011932 
3911.638848  	-0.011856 
3913.567664  	-0.012206 
3915.496480  	-0.012452 
3917.425296  	-0.011098 
3919.354112  	-0.010901 
3921.282928  	-0.011507 
3923.211744  	-0.012167 
3925.140560  	-0.010836 
3927.069376  	-0.011363 
3928.998192  	-0.012487 
3930.927008  	-0.011804 
3932.855824  	-0.010449 
3934.784640  	-0.010717 
3936.713456  	-0.011546 
3938.642272  	-0.011773 
3940.571088  	-0.012412 
3942.499904  	-0.011291 
3944.428720  	-0.010737 
3946.357536  	-0.011988 
3948.286352  	-0.011675 
3950.215168  	-0.011124 
3952.143984  	-0.011375 
3954.072800  	-0.011692 
3956.001616  	-0.011671 
3957.930432  	-0.011600 
3959.859248  	-0.011747 
3961.788064  	-0.011410 
3963.716880  	-0.011154 
3965.645696  	-0.011445 
3967.574512  	-0.011790 
3969.503328  	-0.011772 
3971.432144  	-0.011726 
3973.360960  	-0.011655 
3975.289776  	-0.011433 
3977.218592  	-0.011416 
3979.147408  	-0.011595 
3981.076224  	-0.011592 
3983.005040  	-0.011377 
3984.933856  	-0.011489 
3986.862672  	-0.011803 
3988.791488  	-0.011971 
3990.720304  	-0.011650 
3992.649120  	-0.011468 
3994.577936  	-0.011473 
3996.506752  	-0.011739 
3998.435568  	-0.011912 
4000.364384  	-0.011852 