##TITLE=No Description
##DATA TYPE=INFRARED SPECTRUM
##XUNITS=1/CM
##YUNITS=Abs
399.264912  	0.583814 
401.193728  	0.580326 
403.122544  	0.558379 
405.051360  	0.536419 
406.980176  	0.552493 
408.908992  	0.550280 
410.837808  	0.555958 
412.766624  	0.555226 
414.695440  	0.553046 
416.624256  	0.557158 
418.553072  	0.554426 
420.481888  	0.511849 
422.410704  	0.515182 
424.339520  	0.520901 
426.268336  	0.530517 
428.197152  	0.534984 
430.125968  	0.533204 
432.054784  	0.519327 
433.983600  	0.513063 
435.912416  	0.504403 
437.841232  	0.512019 
439.770048  	0.512355 
441.698864  	0.506953 
443.627680  	0.495956 
445.556496  	0.495058 
447.485312  	0.498041 
449.414128  	0.503946 
451.342944  	0.502552 
453.271760  	0.500461 
455.200576  	0.490798 
457.129392  	0.490452 
459.058208  	0.491767 
460.987024  	0.493708 
462.915840  	0.488958 
464.844656  	0.488672 
466.773472  	0.486836 
468.702288  	0.486854 
470.631104  	0.485015 
472.559920  	0.489442 
474.488736  	0.488988 
476.417552  	0.487032 
478.346368  	0.481379 
480.275184  	0.481629 
482.204000  	0.478110 
484.132816  	0.478925 
486.061632  	0.475393 
487.990448  	0.475361 
489.919264  	0.470497 
491.848080  	0.469381 
493.776896  	0.467464 
495.705712  	0.468016 
497.634528  	0.463408 
499.563344  	0.463807 
501.492160  	0.463118 
503.420976  	0.462477 
505.349792  	0.459582 
507.278608  	0.459409 
509.207424  	0.460256 
511.136240  	0.463568 
513.065056  	0.463020 
514.993872  	0.461293 
516.922688  	0.461277 
518.851504  	0.465489 
520.780320  	0.463886 
522.709136  	0.463875 
524.637952  	0.461133 
526.566768  	0.461213 
528.495584  	0.458880 
530.424400  	0.455938 
532.353216  	0.452354 
534.282032  	0.447617 
536.210848  	0.441218 
538.139664  	0.438524 
540.068480  	0.434188 
541.997296  	0.429097 
543.926112  	0.426394 
545.854928  	0.426447 
547.783744  	0.424812 
549.712560  	0.421405 
551.641376  	0.416687 
553.570192  	0.414940 
555.499008  	0.411955 
557.427824  	0.410043 
559.356640  	0.407222 
561.285456  	0.404611 
563.214272  	0.400095 
565.143088  	0.397577 
567.071904  	0.394517 
569.000720  	0.391995 
570.929536  	0.388092 
572.858352  	0.386219 
574.787168  	0.383775 
576.715984  	0.381086 
578.644800  	0.377517 
580.573616  	0.374307 
582.502432  	0.370293 
584.431248  	0.366302 
586.360064  	0.361641 
588.288880  	0.359338 
590.217696  	0.357397 
592.146512  	0.355029 
594.075328  	0.353680 
596.004144  	0.353218 
597.932960  	0.350801 
599.861776  	0.348881 
601.790592  	0.346681 
603.719408  	0.345735 
605.648224  	0.343984 
607.577040  	0.341938 
609.505856  	0.339889 
611.434672  	0.339613 
613.363488  	0.338224 
615.292304  	0.336784 
617.221120  	0.334655 
619.149936  	0.332754 
621.078752  	0.330183 
623.007568  	0.329334 
624.936384  	0.328599 
626.865200  	0.327641 
628.794016  	0.326266 
630.722832  	0.324882 
632.651648  	0.323785 
634.580464  	0.323687 
636.509280  	0.323335 
638.438096  	0.322603 
640.366912  	0.321196 
642.295728  	0.319651 
644.224544  	0.317147 
646.153360  	0.314554 
648.082176  	0.310908 
650.010992  	0.308171 
651.939808  	0.304958 
653.868624  	0.301688 
655.797440  	0.297498 
657.726256  	0.294487 
659.655072  	0.291120 
661.583888  	0.287208 
663.512704  	0.283588 
665.441520  	0.280043 
667.370336  	0.275231 
669.299152  	0.271669 
671.227968  	0.268971 
673.156784  	0.265637 
675.085600  	0.262896 
677.014416  	0.260958 
678.943232  	0.258326 
680.872048  	0.256520 
682.800864  	0.255045 
684.729680  	0.253506 
686.658496  	0.252305 
688.587312  	0.251286 
690.516128  	0.248973 
692.444944  	0.247247 
694.373760  	0.246289 
696.302576  	0.244735 
698.231392  	0.242639 
700.160208  	0.240765 
702.089024  	0.238671 
704.017840  	0.236612 
705.946656  	0.233906 
707.875472  	0.231851 
709.804288  	0.229632 
711.733104  	0.227688 
713.661920  	0.225775 
715.590736  	0.224727 
717.519552  	0.224046 
719.448368  	0.223454 
721.377184  	0.223626 
723.306000  	0.223911 
725.234816  	0.223585 
727.163632  	0.222527 
729.092448  	0.220352 
731.021264  	0.217594 
732.950080  	0.214765 
734.878896  	0.212023 
736.807712  	0.209065 
738.736528  	0.207037 
740.665344  	0.205086 
742.594160  	0.203460 
744.522976  	0.201869 
746.451792  	0.201108 
748.380608  	0.199767 
750.309424  	0.198263 
752.238240  	0.196994 
754.167056  	0.196454 
756.095872  	0.195384 
758.024688  	0.193967 
759.953504  	0.193360 
761.882320  	0.193513 
763.811136  	0.193564 
765.739952  	0.192373 
767.668768  	0.190113 
769.597584  	0.187735 
771.526400  	0.186671 
773.455216  	0.187310 
775.384032  	0.189610 
777.312848  	0.193347 
779.241664  	0.196226 
781.170480  	0.195692 
783.099296  	0.191514 
785.028112  	0.186683 
786.956928  	0.181758 
788.885744  	0.177662 
790.814560  	0.174456 
792.743376  	0.172538 
794.672192  	0.171537 
796.601008  	0.170193 
798.529824  	0.167421 
800.458640  	0.163824 
802.387456  	0.160524 
804.316272  	0.158456 
806.245088  	0.157396 
808.173904  	0.156621 
810.102720  	0.155845 
812.031536  	0.155254 
813.960352  	0.155158 
815.889168  	0.155351 
817.817984  	0.155173 
819.746800  	0.155245 
821.675616  	0.155329 
823.604432  	0.155576 
825.533248  	0.155922 
827.462064  	0.155524 
829.390880  	0.154528 
831.319696  	0.153816 
833.248512  	0.152501 
835.177328  	0.150458 
837.106144  	0.147888 
839.034960  	0.145455 
840.963776  	0.142672 
842.892592  	0.139738 
844.821408  	0.136415 
846.750224  	0.133521 
848.679040  	0.131464 
850.607856  	0.129481 
852.536672  	0.127901 
854.465488  	0.126653 
856.394304  	0.125809 
858.323120  	0.124950 
860.251936  	0.123571 
862.180752  	0.121956 
864.109568  	0.120202 
866.038384  	0.118342 
867.967200  	0.116440 
869.896016  	0.114688 
871.824832  	0.113081 
873.753648  	0.112141 
875.682464  	0.111644 
877.611280  	0.112293 
879.540096  	0.113974 
881.468912  	0.116541 
883.397728  	0.119153 
885.326544  	0.121119 
887.255360  	0.122319 
889.184176  	0.122616 
891.112992  	0.122160 
893.041808  	0.121085 
894.970624  	0.119128 
896.899440  	0.116309 
898.828256  	0.112872 
900.757072  	0.109362 
902.685888  	0.106214 
904.614704  	0.104434 
906.543520  	0.103975 
908.472336  	0.104578 
910.401152  	0.105978 
912.329968  	0.107903 
914.258784  	0.110253 
916.187600  	0.112511 
918.116416  	0.114334 
920.045232  	0.115770 
921.974048  	0.116591 
923.902864  	0.116928 
925.831680  	0.117117 
927.760496  	0.117608 
929.689312  	0.118179 
931.618128  	0.118783 
933.546944  	0.119249 
935.475760  	0.119546 
937.404576  	0.119519 
939.333392  	0.119016 
941.262208  	0.118697 
943.191024  	0.119282 
945.119840  	0.121267 
947.048656  	0.125007 
948.977472  	0.130542 
950.906288  	0.137353 
952.835104  	0.145526 
954.763920  	0.155040 
956.692736  	0.164741 
958.621552  	0.173607 
960.550368  	0.180686 
962.479184  	0.185555 
964.408000  	0.186907 
966.336816  	0.184534 
968.265632  	0.178493 
970.194448  	0.169887 
972.123264  	0.159142 
974.052080  	0.147404 
975.980896  	0.135699 
977.909712  	0.124685 
979.838528  	0.114773 
981.767344  	0.106445 
983.696160  	0.100451 
985.624976  	0.096833 
987.553792  	0.095701 
989.482608  	0.096986 
991.411424  	0.100212 
993.340240  	0.105212 
995.269056  	0.111194 
997.197872  	0.117530 
999.126688  	0.123801 
1001.055504  	0.130052 
1002.984320  	0.136189 
1004.913136  	0.142558 
1006.841952  	0.148486 
1008.770768  	0.154031 
1010.699584  	0.158889 
1012.628400  	0.162718 
1014.557216  	0.165568 
1016.486032  	0.167700 
1018.414848  	0.168867 
1020.343664  	0.169892 
1022.272480  	0.170608 
1024.201296  	0.170974 
1026.130112  	0.170927 
1028.058928  	0.171364 
1029.987744  	0.172703 
1031.916560  	0.174379 
1033.845376  	0.175948 
1035.774192  	0.177928 
1037.703008  	0.181202 
1039.631824  	0.186317 
1041.560640  	0.193885 
1043.489456  	0.205323 
1045.418272  	0.219881 
1047.347088  	0.236327 
1049.275904  	0.251962 
1051.204720  	0.264886 
1053.133536  	0.272990 
1055.062352  	0.277256 
1056.991168  	0.278641 
1058.919984  	0.279640 
1060.848800  	0.279852 
1062.777616  	0.279462 
1064.706432  	0.277650 
1066.635248  	0.275321 
1068.564064  	0.271708 
1070.492880  	0.266089 
1072.421696  	0.259828 
1074.350512  	0.255656 
1076.279328  	0.253786 
1078.208144  	0.255223 
1080.136960  	0.258561 
1082.065776  	0.261369 
1083.994592  	0.261518 
1085.923408  	0.258600 
1087.852224  	0.252224 
1089.781040  	0.244326 
1091.709856  	0.234563 
1093.638672  	0.223477 
1095.567488  	0.210889 
1097.496304  	0.198219 
1099.425120  	0.185146 
1101.353936  	0.172762 
1103.282752  	0.161053 
1105.211568  	0.149822 
1107.140384  	0.139429 
1109.069200  	0.130110 
1110.998016  	0.121377 
1112.926832  	0.113361 
1114.855648  	0.106199 
1116.784464  	0.099419 
1118.713280  	0.092457 
1120.642096  	0.085798 
1122.570912  	0.079737 
1124.499728  	0.074446 
1126.428544  	0.069745 
1128.357360  	0.065613 
1130.286176  	0.062012 
1132.214992  	0.059119 
1134.143808  	0.056711 
1136.072624  	0.054523 
1138.001440  	0.052800 
1139.930256  	0.051286 
1141.859072  	0.049592 
1143.787888  	0.048199 
1145.716704  	0.047113 
1147.645520  	0.046207 
1149.574336  	0.045437 
1151.503152  	0.045066 
1153.431968  	0.045401 
1155.360784  	0.045592 
1157.289600  	0.045978 
1159.218416  	0.046568 
1161.147232  	0.047461 
1163.076048  	0.048475 
1165.004864  	0.049546 
1166.933680  	0.050467 
1168.862496  	0.051663 
1170.791312  	0.053059 
1172.720128  	0.054624 
1174.648944  	0.056862 
1176.577760  	0.059078 
1178.506576  	0.061231 
1180.435392  	0.063620 
1182.364208  	0.066095 
1184.293024  	0.068984 
1186.221840  	0.072223 
1188.150656  	0.075935 
1190.079472  	0.080301 
1192.008288  	0.085495 
1193.937104  	0.091438 
1195.865920  	0.098258 
1197.794736  	0.105739 
1199.723552  	0.113617 
1201.652368  	0.121637 
1203.581184  	0.129814 
1205.510000  	0.137751 
1207.438816  	0.144920 
1209.367632  	0.151517 
1211.296448  	0.156869 
1213.225264  	0.161451 
1215.154080  	0.164562 
1217.082896  	0.166513 
1219.011712  	0.167199 
1220.940528  	0.167225 
1222.869344  	0.166521 
1224.798160  	0.164953 
1226.726976  	0.162471 
1228.655792  	0.159793 
1230.584608  	0.156260 
1232.513424  	0.152126 
1234.442240  	0.147565 
1236.371056  	0.142587 
1238.299872  	0.136984 
1240.228688  	0.130739 
1242.157504  	0.124364 
1244.086320  	0.118133 
1246.015136  	0.111817 
1247.943952  	0.105690 
1249.872768  	0.099618 
1251.801584  	0.093854 
1253.730400  	0.088068 
1255.659216  	0.082542 
1257.588032  	0.077287 
1259.516848  	0.072269 
1261.445664  	0.067564 
1263.374480  	0.063346 
1265.303296  	0.059795 
1267.232112  	0.056827 
1269.160928  	0.054702 
1271.089744  	0.053347 
1273.018560  	0.052772 
1274.947376  	0.052886 
1276.876192  	0.053417 
1278.805008  	0.053784 
1280.733824  	0.053497 
1282.662640  	0.052319 
1284.591456  	0.050683 
1286.520272  	0.049073 
1288.449088  	0.048102 
1290.377904  	0.048108 
1292.306720  	0.048702 
1294.235536  	0.049199 
1296.164352  	0.048970 
1298.093168  	0.047414 
1300.021984  	0.045048 
1301.950800  	0.042635 
1303.879616  	0.040175 
1305.808432  	0.037419 
1307.737248  	0.034482 
1309.666064  	0.031860 
1311.594880  	0.029859 
1313.523696  	0.028373 
1315.452512  	0.027401 
1317.381328  	0.026946 
1319.310144  	0.026983 
1321.238960  	0.027354 
1323.167776  	0.028112 
1325.096592  	0.028783 
1327.025408  	0.029199 
1328.954224  	0.029077 
1330.883040  	0.028363 
1332.811856  	0.027244 
1334.740672  	0.026212 
1336.669488  	0.025510 
1338.598304  	0.025283 
1340.527120  	0.024818 
1342.455936  	0.024184 
1344.384752  	0.024030 
1346.313568  	0.024395 
1348.242384  	0.025198 
1350.171200  	0.026364 
1352.100016  	0.027869 
1354.028832  	0.029649 
1355.957648  	0.031554 
1357.886464  	0.033260 
1359.815280  	0.035088 
1361.744096  	0.037301 
1363.672912  	0.039695 
1365.601728  	0.041271 
1367.530544  	0.042624 
1369.459360  	0.044047 
1371.388176  	0.044594 
1373.316992  	0.044029 
1375.245808  	0.042680 
1377.174624  	0.040916 
1379.103440  	0.038778 
1381.032256  	0.036489 
1382.961072  	0.034401 
1384.889888  	0.032689 
1386.818704  	0.031354 
1388.747520  	0.029863 
1390.676336  	0.028004 
1392.605152  	0.025883 
1394.533968  	0.024381 
1396.462784  	0.024598 
1398.391600  	0.024608 
1400.320416  	0.024942 
1402.249232  	0.025199 
1404.178048  	0.025743 
1406.106864  	0.026809 
1408.035680  	0.028057 
1409.964496  	0.029485 
1411.893312  	0.031401 
1413.822128  	0.033160 
1415.750944  	0.034747 
1417.679760  	0.035770 
1419.608576  	0.036801 
1421.537392  	0.036944 
1423.466208  	0.036280 
1425.395024  	0.035305 
1427.323840  	0.033510 
1429.252656  	0.031155 
1431.181472  	0.029817 
1433.110288  	0.029349 
1435.039104  	0.028866 
1436.967920  	0.029870 
1438.896736  	0.031363 
1440.825552  	0.031874 
1442.754368  	0.032292 
1444.683184  	0.032228 
1446.612000  	0.031850 
1448.540816  	0.031912 
1450.469632  	0.032220 
1452.398448  	0.032187 
1454.327264  	0.031711 
1456.256080  	0.030325 
1458.184896  	0.030929 
1460.113712  	0.032301 
1462.042528  	0.032402 
1463.971344  	0.031759 
1465.900160  	0.033013 
1467.828976  	0.034430 
1469.757792  	0.035506 
1471.686608  	0.037035 
1473.615424  	0.042816 
1475.544240  	0.047817 
1477.473056  	0.052560 
1479.401872  	0.055432 
1481.330688  	0.058142 
1483.259504  	0.060263 
1485.188320  	0.061276 
1487.117136  	0.061091 
1489.045952  	0.060915 
1490.974768  	0.060222 
1492.903584  	0.058454 
1494.832400  	0.054650 
1496.761216  	0.049568 
1498.690032  	0.045009 
1500.618848  	0.041599 
1502.547664  	0.037755 
1504.476480  	0.033192 
1506.405296  	0.028345 
1508.334112  	0.029316 
1510.262928  	0.029038 
1512.191744  	0.028112 
1514.120560  	0.027396 
1516.049376  	0.026792 
1517.978192  	0.027574 
1519.907008  	0.028200 
1521.835824  	0.031256 
1523.764640  	0.035645 
1525.693456  	0.038691 
1527.622272  	0.041389 
1529.551088  	0.042378 
1531.479904  	0.041316 
1533.408720  	0.038829 
1535.337536  	0.037157 
1537.266352  	0.034081 
1539.195168  	0.028327 
1541.123984  	0.025568 
1543.052800  	0.026997 
1544.981616  	0.027278 
1546.910432  	0.026840 
1548.839248  	0.026011 
1550.768064  	0.025944 
1552.696880  	0.025142 
1554.625696  	0.024750 
1556.554512  	0.023000 
1558.483328  	0.021409 
1560.412144  	0.028794 
1562.340960  	0.031366 
1564.269776  	0.032936 
1566.198592  	0.036280 
1568.127408  	0.037872 
1570.056224  	0.042708 
1571.985040  	0.047452 
1573.913856  	0.049005 
1575.842672  	0.049965 
1577.771488  	0.053469 
1579.700304  	0.053757 
1581.629120  	0.053092 
1583.557936  	0.052305 
1585.486752  	0.052566 
1587.415568  	0.053832 
1589.344384  	0.056741 
1591.273200  	0.060797 
1593.202016  	0.065892 
1595.130832  	0.071395 
1597.059648  	0.077671 
1598.988464  	0.082716 
1600.917280  	0.087161 
1602.846096  	0.090282 
1604.774912  	0.092575 
1606.703728  	0.092773 
1608.632544  	0.092349 
1610.561360  	0.090987 
1612.490176  	0.089563 
1614.418992  	0.086607 
1616.347808  	0.085362 
1618.276624  	0.088297 
1620.205440  	0.090176 
1622.134256  	0.091156 
1624.063072  	0.097230 
1625.991888  	0.102312 
1627.920704  	0.108748 
1629.849520  	0.116780 
1631.778336  	0.122801 
1633.707152  	0.126162 
1635.635968  	0.134076 
1637.564784  	0.145454 
1639.493600  	0.150697 
1641.422416  	0.154654 
1643.351232  	0.157115 
1645.280048  	0.156696 
1647.208864  	0.160118 
1649.137680  	0.162804 
1651.066496  	0.159823 
1652.995312  	0.156789 
1654.924128  	0.162448 
1656.852944  	0.161017 
1658.781760  	0.158875 
1660.710576  	0.155442 
1662.639392  	0.152258 
1664.568208  	0.150071 
1666.497024  	0.146333 
1668.425840  	0.140895 
1670.354656  	0.136917 
1672.283472  	0.133995 
1674.212288  	0.130165 
1676.141104  	0.127752 
1678.069920  	0.125902 
1679.998736  	0.123902 
1681.927552  	0.121389 
1683.856368  	0.118601 
1685.785184  	0.122328 
1687.714000  	0.122435 
1689.642816  	0.122266 
1691.571632  	0.121729 
1693.500448  	0.120004 
1695.429264  	0.117353 
1697.358080  	0.116594 
1699.286896  	0.114167 
1701.215712  	0.115122 
1703.144528  	0.113922 
1705.073344  	0.110807 
1707.002160  	0.107999 
1708.930976  	0.105099 
1710.859792  	0.100406 
1712.788608  	0.094516 
1714.717424  	0.086434 
1716.646240  	0.077028 
1718.575056  	0.067186 
1720.503872  	0.060115 
1722.432688  	0.052859 
1724.361504  	0.044431 
1726.290320  	0.037131 
1728.219136  	0.030562 
1730.147952  	0.024476 
1732.076768  	0.019068 
1734.005584  	0.014511 
1735.934400  	0.012000 
1737.863216  	0.009991 
1739.792032  	0.007212 
1741.720848  	0.006121 
1743.649664  	0.004993 
1745.578480  	0.003752 
1747.507296  	0.001958 
1749.436112  	0.001148 
1751.364928  	0.001192 
1753.293744  	0.001176 
1755.222560  	0.000350 
1757.151376  	0.000017 
1759.080192  	-0.000586 
1761.009008  	-0.001231 
1762.937824  	-0.001430 
1764.866640  	-0.001222 
1766.795456  	-0.001733 
1768.724272  	-0.002125 
1770.653088  	-0.003965 
1772.581904  	-0.004662 
1774.510720  	-0.003435 
1776.439536  	-0.002758 
1778.368352  	-0.003023 
1780.297168  	-0.003480 
1782.225984  	-0.003421 
1784.154800  	-0.003219 
1786.083616  	-0.003429 
1788.012432  	-0.003578 
1789.941248  	-0.004139 
1791.870064  	-0.004766 
1793.798880  	-0.004698 
1795.727696  	-0.004135 
1797.656512  	-0.004719 
1799.585328  	-0.005174 
1801.514144  	-0.004748 
1803.442960  	-0.004426 
1805.371776  	-0.004779 
1807.300592  	-0.004702 
1809.229408  	-0.005162 
1811.158224  	-0.005188 
1813.087040  	-0.005006 
1815.015856  	-0.004956 
1816.944672  	-0.005077 
1818.873488  	-0.004797 
1820.802304  	-0.004908 
1822.731120  	-0.005046 
1824.659936  	-0.005449 
1826.588752  	-0.005549 
1828.517568  	-0.006318 
1830.446384  	-0.006030 
1832.375200  	-0.005283 
1834.304016  	-0.004977 
1836.232832  	-0.005181 
1838.161648  	-0.005253 
1840.090464  	-0.005309 
1842.019280  	-0.005446 
1843.948096  	-0.005984 
1845.876912  	-0.005442 
1847.805728  	-0.005044 
1849.734544  	-0.004857 
1851.663360  	-0.005303 
1853.592176  	-0.005294 
1855.520992  	-0.005443 
1857.449808  	-0.005316 
1859.378624  	-0.005044 
1861.307440  	-0.004668 
1863.236256  	-0.005119 
1865.165072  	-0.005666 
1867.093888  	-0.006293 
1869.022704  	-0.006062 
1870.951520  	-0.005638 
1872.880336  	-0.005522 
1874.809152  	-0.005748 
1876.737968  	-0.005610 
1878.666784  	-0.005403 
1880.595600  	-0.005073 
1882.524416  	-0.005469 
1884.453232  	-0.005746 
1886.382048  	-0.005730 
1888.310864  	-0.005402 
1890.239680  	-0.005479 
1892.168496  	-0.005531 
1894.097312  	-0.006121 
1896.026128  	-0.005956 
1897.954944  	-0.005532 
1899.883760  	-0.005420 
1901.812576  	-0.005719 
1903.741392  	-0.005632 
1905.670208  	-0.005710 
1907.599024  	-0.005533 
1909.527840  	-0.005637 
1911.456656  	-0.005374 
1913.385472  	-0.005318 
1915.314288  	-0.005293 
1917.243104  	-0.005706 
1919.171920  	-0.005579 
1921.100736  	-0.005576 
1923.029552  	-0.005167 
1924.958368  	-0.005842 
1926.887184  	-0.006517 
1928.816000  	-0.006160 
1930.744816  	-0.005429 
1932.673632  	-0.005519 
1934.602448  	-0.005609 
1936.531264  	-0.006168 
1938.460080  	-0.006559 
1940.388896  	-0.006563 
1942.317712  	-0.006091 
1944.246528  	-0.006136 
1946.175344  	-0.005941 
1948.104160  	-0.006167 
1950.032976  	-0.006374 
1951.961792  	-0.006741 
1953.890608  	-0.006130 
1955.819424  	-0.006266 
1957.748240  	-0.006332 
1959.677056  	-0.007395 
1961.605872  	-0.007514 
1963.534688  	-0.007593 
1965.463504  	-0.006533 
1967.392320  	-0.007362 
1969.321136  	-0.007234 
1971.249952  	-0.006780 
1973.178768  	-0.006993 
1975.107584  	-0.007618 
1977.036400  	-0.006738 
1978.965216  	-0.005104 
1980.894032  	-0.004817 
1982.822848  	-0.006136 
1984.751664  	-0.005796 
1986.680480  	-0.006808 
1988.609296  	-0.007372 
1990.538112  	-0.007181 
1992.466928  	-0.006278 
1994.395744  	-0.006848 
1996.324560  	-0.006893 
1998.253376  	-0.006291 
2000.182192  	-0.005842 
2002.111008  	-0.006657 
2004.039824  	-0.007027 
2005.968640  	-0.007225 
2007.897456  	-0.007039 
2009.826272  	-0.007269 
2011.755088  	-0.006434 
2013.683904  	-0.005667 
2015.612720  	-0.005970 
2017.541536  	-0.005988 
2019.470352  	-0.004609 
2021.399168  	-0.004806 
2023.327984  	-0.004435 
2025.256800  	-0.005667 
2027.185616  	-0.006570 
2029.114432  	-0.006440 
2031.043248  	-0.005834 
2032.972064  	-0.004802 
2034.900880  	-0.003588 
2036.829696  	-0.004537 
2038.758512  	-0.004308 
2040.687328  	-0.004128 
2042.616144  	-0.003228 
2044.544960  	-0.003753 
2046.473776  	-0.004122 
2048.402592  	-0.004192 
2050.331408  	-0.004202 
2052.260224  	-0.005431 
2054.189040  	-0.005714 
2056.117856  	-0.005041 
2058.046672  	-0.004276 
2059.975488  	-0.004816 
2061.904304  	-0.005158 
2063.833120  	-0.005297 
2065.761936  	-0.004790 
2067.690752  	-0.004656 
2069.619568  	-0.004430 
2071.548384  	-0.004654 
2073.477200  	-0.004618 
2075.406016  	-0.004446 
2077.334832  	-0.004237 
2079.263648  	-0.004324 
2081.192464  	-0.004102 
2083.121280  	-0.004469 
2085.050096  	-0.004670 
2086.978912  	-0.004921 
2088.907728  	-0.004719 
2090.836544  	-0.004852 
2092.765360  	-0.004775 
2094.694176  	-0.004767 
2096.622992  	-0.004405 
2098.551808  	-0.004162 
2100.480624  	-0.004324 
2102.409440  	-0.004721 
2104.338256  	-0.004822 
2106.267072  	-0.004533 
2108.195888  	-0.004018 
2110.124704  	-0.004372 
2112.053520  	-0.004631 
2113.982336  	-0.004451 
2115.911152  	-0.003716 
2117.839968  	-0.003565 
2119.768784  	-0.004245 
2121.697600  	-0.005388 
2123.626416  	-0.005329 
2125.555232  	-0.005480 
2127.484048  	-0.005629 
2129.412864  	-0.006316 
2131.341680  	-0.006303 
2133.270496  	-0.006645 
2135.199312  	-0.005777 
2137.128128  	-0.005074 
2139.056944  	-0.005359 
2140.985760  	-0.006018 
2142.914576  	-0.005799 
2144.843392  	-0.005726 
2146.772208  	-0.005154 
2148.701024  	-0.004457 
2150.629840  	-0.003481 
2152.558656  	-0.004272 
2154.487472  	-0.005028 
2156.416288  	-0.005955 
2158.345104  	-0.003105 
2160.273920  	-0.000356 
2162.202736  	-0.000333 
2164.131552  	-0.000747 
2166.060368  	-0.001284 
2167.989184  	-0.002474 
2169.918000  	-0.001872 
2171.846816  	-0.002285 
2173.775632  	-0.003487 
2175.704448  	-0.003548 
2177.633264  	-0.002996 
2179.562080  	-0.003825 
2181.490896  	-0.004001 
2183.419712  	-0.003472 
2185.348528  	-0.003922 
2187.277344  	-0.004048 
2189.206160  	-0.003231 
2191.134976  	-0.002819 
2193.063792  	-0.002393 
2194.992608  	-0.003590 
2196.921424  	-0.004266 
2198.850240  	-0.004617 
2200.779056  	-0.003865 
2202.707872  	-0.003566 
2204.636688  	-0.003444 
2206.565504  	-0.003488 
2208.494320  	-0.003288 
2210.423136  	-0.003731 
2212.351952  	-0.004099 
2214.280768  	-0.004229 
2216.209584  	-0.003797 
2218.138400  	-0.004008 
2220.067216  	-0.004287 
2221.996032  	-0.004542 
2223.924848  	-0.004528 
2225.853664  	-0.004766 
2227.782480  	-0.004362 
2229.711296  	-0.003889 
2231.640112  	-0.004128 
2233.568928  	-0.004737 
2235.497744  	-0.004561 
2237.426560  	-0.004943 
2239.355376  	-0.004956 
2241.284192  	-0.004839 
2243.213008  	-0.004671 
2245.141824  	-0.004640 
2247.070640  	-0.004421 
2248.999456  	-0.005218 
2250.928272  	-0.005627 
2252.857088  	-0.005343 
2254.785904  	-0.004856 
2256.714720  	-0.004820 
2258.643536  	-0.005280 
2260.572352  	-0.005412 
2262.501168  	-0.005081 
2264.429984  	-0.004803 
2266.358800  	-0.004630 
2268.287616  	-0.004630 
2270.216432  	-0.004677 
2272.145248  	-0.005010 
2274.074064  	-0.004735 
2276.002880  	-0.004623 
2277.931696  	-0.004468 
2279.860512  	-0.004061 
2281.789328  	-0.003507 
2283.718144  	-0.003504 
2285.646960  	-0.003540 
2287.575776  	-0.003532 
2289.504592  	-0.003557 
2291.433408  	-0.003734 
2293.362224  	-0.003675 
2295.291040  	-0.003563 
2297.219856  	-0.003266 
2299.148672  	-0.003132 
2301.077488  	-0.002919 
2303.006304  	-0.003120 
2304.935120  	-0.003238 
2306.863936  	-0.002887 
2308.792752  	-0.002654 
2310.721568  	-0.002794 
2312.650384  	-0.002923 
2314.579200  	-0.003378 
2316.508016  	-0.003887 
2318.436832  	-0.004174 
2320.365648  	-0.004189 
2322.294464  	-0.004378 
2324.223280  	-0.005177 
2326.152096  	-0.007244 
2328.080912  	-0.008433 
2330.009728  	-0.008714 
2331.938544  	-0.009185 
2333.867360  	-0.010073 
2335.796176  	-0.010667 
2337.724992  	-0.011002 
2339.653808  	-0.011360 
2341.582624  	-0.011424 
2343.511440  	-0.010253 
2345.440256  	-0.008454 
2347.369072  	-0.006752 
2349.297888  	-0.006552 
2351.226704  	-0.007958 
2353.155520  	-0.010002 
2355.084336  	-0.011881 
2357.013152  	-0.013332 
2358.941968  	-0.013747 
2360.870784  	-0.013014 
2362.799600  	-0.012350 
2364.728416  	-0.011911 
2366.657232  	-0.010634 
2368.586048  	-0.009078 
2370.514864  	-0.007438 
2372.443680  	-0.006204 
2374.372496  	-0.005150 
2376.301312  	-0.003884 
2378.230128  	-0.002826 
2380.158944  	-0.002441 
2382.087760  	-0.002417 
2384.016576  	-0.002703 
2385.945392  	-0.003110 
2387.874208  	-0.003343 
2389.803024  	-0.003289 
2391.731840  	-0.003392 
2393.660656  	-0.003515 
2395.589472  	-0.003462 
2397.518288  	-0.003390 
2399.447104  	-0.003432 
2401.375920  	-0.003287 
2403.304736  	-0.003074 
2405.233552  	-0.002970 
2407.162368  	-0.002913 
2409.091184  	-0.002759 
2411.020000  	-0.002785 
2412.948816  	-0.002907 
2414.877632  	-0.002863 
2416.806448  	-0.002813 
2418.735264  	-0.002877 
2420.664080  	-0.002907 
2422.592896  	-0.002797 
2424.521712  	-0.002423 
2426.450528  	-0.002077 
2428.379344  	-0.001975 
2430.308160  	-0.001963 
2432.236976  	-0.001921 
2434.165792  	-0.002030 
2436.094608  	-0.001859 
2438.023424  	-0.001770 
2439.952240  	-0.001740 
2441.881056  	-0.001508 
2443.809872  	-0.001368 
2445.738688  	-0.001468 
2447.667504  	-0.001306 
2449.596320  	-0.000975 
2451.525136  	-0.000835 
2453.453952  	-0.000858 
2455.382768  	-0.000672 
2457.311584  	-0.000557 
2459.240400  	-0.000916 
2461.169216  	-0.001072 
2463.098032  	-0.000908 
2465.026848  	-0.000829 
2466.955664  	-0.000749 
2468.884480  	-0.000649 
2470.813296  	-0.000478 
2472.742112  	-0.000376 
2474.670928  	-0.000231 
2476.599744  	-0.000083 
2478.528560  	0.000031 
2480.457376  	-0.000088 
2482.386192  	-0.000155 
2484.315008  	-0.000229 
2486.243824  	-0.000076 
2488.172640  	0.000194 
2490.101456  	0.000554 
2492.030272  	0.000593 
2493.959088  	0.000545 
2495.887904  	0.000683 
2497.816720  	0.000991 
2499.745536  	0.001099 
2501.674352  	0.001189 
2503.603168  	0.001287 
2505.531984  	0.001264 
2507.460800  	0.001199 
2509.389616  	0.001297 
2511.318432  	0.001220 
2513.247248  	0.001194 
2515.176064  	0.001254 
2517.104880  	0.001553 
2519.033696  	0.001912 
2520.962512  	0.002003 
2522.891328  	0.001794 
2524.820144  	0.001885 
2526.748960  	0.002134 
2528.677776  	0.002263 
2530.606592  	0.002279 
2532.535408  	0.002093 
2534.464224  	0.001900 
2536.393040  	0.001980 
2538.321856  	0.002195 
2540.250672  	0.002354 
2542.179488  	0.002464 
2544.108304  	0.002751 
2546.037120  	0.002915 
2547.965936  	0.002770 
2549.894752  	0.002636 
2551.823568  	0.002668 
2553.752384  	0.002680 
2555.681200  	0.002878 
2557.610016  	0.003029 
2559.538832  	0.003053 
2561.467648  	0.003265 
2563.396464  	0.003441 
2565.325280  	0.003273 
2567.254096  	0.003408 
2569.182912  	0.003729 
2571.111728  	0.003900 
2573.040544  	0.003901 
2574.969360  	0.004170 
2576.898176  	0.004391 
2578.826992  	0.004481 
2580.755808  	0.004528 
2582.684624  	0.004527 
2584.613440  	0.004416 
2586.542256  	0.004527 
2588.471072  	0.004602 
2590.399888  	0.004746 
2592.328704  	0.004829 
2594.257520  	0.004964 
2596.186336  	0.005109 
2598.115152  	0.005110 
2600.043968  	0.005207 
2601.972784  	0.005249 
2603.901600  	0.005262 
2605.830416  	0.005427 
2607.759232  	0.005397 
2609.688048  	0.005411 
2611.616864  	0.005624 
2613.545680  	0.005972 
2615.474496  	0.006134 
2617.403312  	0.006082 
2619.332128  	0.006186 
2621.260944  	0.006435 
2623.189760  	0.006546 
2625.118576  	0.006667 
2627.047392  	0.006861 
2628.976208  	0.007037 
2630.905024  	0.007065 
2632.833840  	0.007152 
2634.762656  	0.007353 
2636.691472  	0.007554 
2638.620288  	0.007740 
2640.549104  	0.007844 
2642.477920  	0.007989 
2644.406736  	0.008158 
2646.335552  	0.008292 
2648.264368  	0.008433 
2650.193184  	0.008596 
2652.122000  	0.008738 
2654.050816  	0.008873 
2655.979632  	0.009001 
2657.908448  	0.009115 
2659.837264  	0.009255 
2661.766080  	0.009448 
2663.694896  	0.009480 
2665.623712  	0.009413 
2667.552528  	0.009623 
2669.481344  	0.009943 
2671.410160  	0.010236 
2673.338976  	0.010344 
2675.267792  	0.010364 
2677.196608  	0.010440 
2679.125424  	0.010601 
2681.054240  	0.010797 
2682.983056  	0.010853 
2684.911872  	0.010895 
2686.840688  	0.011071 
2688.769504  	0.011278 
2690.698320  	0.011387 
2692.627136  	0.011497 
2694.555952  	0.011604 
2696.484768  	0.011762 
2698.413584  	0.011985 
2700.342400  	0.012055 
2702.271216  	0.012180 
2704.200032  	0.012308 
2706.128848  	0.012428 
2708.057664  	0.012583 
2709.986480  	0.012747 
2711.915296  	0.012943 
2713.844112  	0.013099 
2715.772928  	0.013222 
2717.701744  	0.013299 
2719.630560  	0.013358 
2721.559376  	0.013535 
2723.488192  	0.013703 
2725.417008  	0.013922 
2727.345824  	0.014138 
2729.274640  	0.014205 
2731.203456  	0.014270 
2733.132272  	0.014503 
2735.061088  	0.014747 
2736.989904  	0.014932 
2738.918720  	0.015106 
2740.847536  	0.015220 
2742.776352  	0.015321 
2744.705168  	0.015467 
2746.633984  	0.015563 
2748.562800  	0.015690 
2750.491616  	0.015980 
2752.420432  	0.016151 
2754.349248  	0.016055 
2756.278064  	0.016030 
2758.206880  	0.016111 
2760.135696  	0.016163 
2762.064512  	0.016173 
2763.993328  	0.016197 
2765.922144  	0.016221 
2767.850960  	0.016342 
2769.779776  	0.016419 
2771.708592  	0.016397 
2773.637408  	0.016406 
2775.566224  	0.016464 
2777.495040  	0.016520 
2779.423856  	0.016493 
2781.352672  	0.016511 
2783.281488  	0.016609 
2785.210304  	0.016577 
2787.139120  	0.016615 
2789.067936  	0.016720 
2790.996752  	0.016793 
2792.925568  	0.016839 
2794.854384  	0.016853 
2796.783200  	0.016815 
2798.712016  	0.016854 
2800.640832  	0.017009 
2802.569648  	0.017079 
2804.498464  	0.017057 
2806.427280  	0.017059 
2808.356096  	0.017130 
2810.284912  	0.017197 
2812.213728  	0.017125 
2814.142544  	0.017159 
2816.071360  	0.017217 
2818.000176  	0.017304 
2819.928992  	0.017290 
2821.857808  	0.017250 
2823.786624  	0.017318 
2825.715440  	0.017482 
2827.644256  	0.017512 
2829.573072  	0.017437 
2831.501888  	0.017413 
2833.430704  	0.017265 
2835.359520  	0.017074 
2837.288336  	0.017071 
2839.217152  	0.017160 
2841.145968  	0.017043 
2843.074784  	0.016818 
2845.003600  	0.016761 
2846.932416  	0.016894 
2848.861232  	0.017049 
2850.790048  	0.017045 
2852.718864  	0.017143 
2854.647680  	0.017255 
2856.576496  	0.017306 
2858.505312  	0.017234 
2860.434128  	0.017229 
2862.362944  	0.017356 
2864.291760  	0.017424 
2866.220576  	0.017418 
2868.149392  	0.017542 
2870.078208  	0.017611 
2872.007024  	0.017800 
2873.935840  	0.018162 
2875.864656  	0.018581 
2877.793472  	0.018988 
2879.722288  	0.019244 
2881.651104  	0.019563 
2883.579920  	0.019749 
2885.508736  	0.019828 
2887.437552  	0.020014 
2889.366368  	0.020024 
2891.295184  	0.019893 
2893.224000  	0.019841 
2895.152816  	0.019768 
2897.081632  	0.019497 
2899.010448  	0.018921 
2900.939264  	0.018594 
2902.868080  	0.018826 
2904.796896  	0.018966 
2906.725712  	0.019036 
2908.654528  	0.019123 
2910.583344  	0.019353 
2912.512160  	0.019916 
2914.440976  	0.020450 
2916.369792  	0.020842 
2918.298608  	0.021274 
2920.227424  	0.021724 
2922.156240  	0.022102 
2924.085056  	0.022546 
2926.013872  	0.023054 
2927.942688  	0.023630 
2929.871504  	0.024335 
2931.800320  	0.024921 
2933.729136  	0.025428 
2935.657952  	0.025914 
2937.586768  	0.026296 
2939.515584  	0.026658 
2941.444400  	0.026962 
2943.373216  	0.027215 
2945.302032  	0.027313 
2947.230848  	0.027291 
2949.159664  	0.027343 
2951.088480  	0.027140 
2953.017296  	0.026793 
2954.946112  	0.026427 
2956.874928  	0.026058 
2958.803744  	0.025668 
2960.732560  	0.025167 
2962.661376  	0.024583 
2964.590192  	0.024258 
2966.519008  	0.023670 
2968.447824  	0.022838 
2970.376640  	0.021985 
2972.305456  	0.021208 
2974.234272  	0.020610 
2976.163088  	0.020090 
2978.091904  	0.019690 
2980.020720  	0.019409 
2981.949536  	0.019233 
2983.878352  	0.019165 
2985.807168  	0.019179 
2987.735984  	0.019268 
2989.664800  	0.019745 
2991.593616  	0.020569 
2993.522432  	0.021035 
2995.451248  	0.021313 
2997.380064  	0.021758 
2999.308880  	0.022320 
3001.237696  	0.022789 
3003.166512  	0.023077 
3005.095328  	0.023322 
3007.024144  	0.023655 
3008.952960  	0.024045 
3010.881776  	0.024412 
3012.810592  	0.024763 
3014.739408  	0.025159 
3016.668224  	0.025547 
3018.597040  	0.026009 
3020.525856  	0.026267 
3022.454672  	0.026598 
3024.383488  	0.026903 
3026.312304  	0.027107 
3028.241120  	0.027319 
3030.169936  	0.027629 
3032.098752  	0.027934 
3034.027568  	0.028093 
3035.956384  	0.028421 
3037.885200  	0.028661 
3039.814016  	0.028910 
3041.742832  	0.029116 
3043.671648  	0.029340 
3045.600464  	0.029840 
3047.529280  	0.030189 
3049.458096  	0.030350 
3051.386912  	0.030780 
3053.315728  	0.031153 
3055.244544  	0.031201 
3057.173360  	0.031609 
3059.102176  	0.032035 
3061.030992  	0.032363 
3062.959808  	0.032749 
3064.888624  	0.033152 
3066.817440  	0.033617 
3068.746256  	0.034164 
3070.675072  	0.034588 
3072.603888  	0.034977 
3074.532704  	0.035428 
3076.461520  	0.035878 
3078.390336  	0.036256 
3080.319152  	0.036714 
3082.247968  	0.037233 
3084.176784  	0.037733 
3086.105600  	0.038137 
3088.034416  	0.038552 
3089.963232  	0.038942 
3091.892048  	0.039273 
3093.820864  	0.039560 
3095.749680  	0.040060 
3097.678496  	0.040534 
3099.607312  	0.040941 
3101.536128  	0.041382 
3103.464944  	0.041815 
3105.393760  	0.042234 
3107.322576  	0.042691 
3109.251392  	0.043081 
3111.180208  	0.043293 
3113.109024  	0.043359 
3115.037840  	0.043641 
3116.966656  	0.044196 
3118.895472  	0.044674 
3120.824288  	0.044774 
3122.753104  	0.045038 
3124.681920  	0.045221 
3126.610736  	0.045362 
3128.539552  	0.045583 
3130.468368  	0.045700 
3132.397184  	0.046001 
3134.326000  	0.046406 
3136.254816  	0.046675 
3138.183632  	0.046825 
3140.112448  	0.047019 
3142.041264  	0.047271 
3143.970080  	0.047591 
3145.898896  	0.047736 
3147.827712  	0.047909 
3149.756528  	0.048224 
3151.685344  	0.048551 
3153.614160  	0.048771 
3155.542976  	0.048838 
3157.471792  	0.049237 
3159.400608  	0.049693 
3161.329424  	0.049834 
3163.258240  	0.050148 
3165.187056  	0.050604 
3167.115872  	0.050825 
3169.044688  	0.051126 
3170.973504  	0.051490 
3172.902320  	0.051486 
3174.831136  	0.051270 
3176.759952  	0.051431 
3178.688768  	0.051871 
3180.617584  	0.052013 
3182.546400  	0.052000 
3184.475216  	0.051974 
3186.404032  	0.051974 
3188.332848  	0.051985 
3190.261664  	0.051750 
3192.190480  	0.051664 
3194.119296  	0.051541 
3196.048112  	0.051252 
3197.976928  	0.051147 
3199.905744  	0.050900 
3201.834560  	0.050570 
3203.763376  	0.050540 
3205.692192  	0.050366 
3207.621008  	0.049891 
3209.549824  	0.049622 
3211.478640  	0.049426 
3213.407456  	0.049092 
3215.336272  	0.048837 
3217.265088  	0.048427 
3219.193904  	0.048139 
3221.122720  	0.048199 
3223.051536  	0.048014 
3224.980352  	0.047499 
3226.909168  	0.047071 
3228.837984  	0.046725 
3230.766800  	0.046541 
3232.695616  	0.046179 
3234.624432  	0.045944 
3236.553248  	0.045936 
3238.482064  	0.045824 
3240.410880  	0.045884 
3242.339696  	0.045743 
3244.268512  	0.045472 
3246.197328  	0.045702 
3248.126144  	0.045828 
3250.054960  	0.046046 
3251.983776  	0.045991 
3253.912592  	0.045888 
3255.841408  	0.046075 
3257.770224  	0.046336 
3259.699040  	0.046597 
3261.627856  	0.046713 
3263.556672  	0.046652 
3265.485488  	0.046864 
3267.414304  	0.047131 
3269.343120  	0.047337 
3271.271936  	0.047439 
3273.200752  	0.047520 
3275.129568  	0.047835 
3277.058384  	0.048144 
3278.987200  	0.048277 
3280.916016  	0.048310 
3282.844832  	0.048427 
3284.773648  	0.048362 
3286.702464  	0.048235 
3288.631280  	0.048403 
3290.560096  	0.048538 
3292.488912  	0.048931 
3294.417728  	0.049315 
3296.346544  	0.049505 
3298.275360  	0.049856 
3300.204176  	0.050152 
3302.132992  	0.050578 
3304.061808  	0.050838 
3305.990624  	0.050911 
3307.919440  	0.051132 
3309.848256  	0.051363 
3311.777072  	0.051698 
3313.705888  	0.052214 
3315.634704  	0.052424 
3317.563520  	0.052638 
3319.492336  	0.053042 
3321.421152  	0.053167 
3323.349968  	0.053361 
3325.278784  	0.053594 
3327.207600  	0.053991 
3329.136416  	0.054182 
3331.065232  	0.054203 
3332.994048  	0.054299 
3334.922864  	0.054418 
3336.851680  	0.054555 
3338.780496  	0.054628 
3340.709312  	0.054488 
3342.638128  	0.054388 
3344.566944  	0.054227 
3346.495760  	0.053982 
3348.424576  	0.053632 
3350.353392  	0.053437 
3352.282208  	0.053236 
3354.211024  	0.052979 
3356.139840  	0.052698 
3358.068656  	0.052371 
3359.997472  	0.052103 
3361.926288  	0.051877 
3363.855104  	0.051617 
3365.783920  	0.051684 
3367.712736  	0.051437 
3369.641552  	0.051083 
3371.570368  	0.050939 
3373.499184  	0.050635 
3375.428000  	0.050162 
3377.356816  	0.050006 
3379.285632  	0.050004 
3381.214448  	0.049780 
3383.143264  	0.049354 
3385.072080  	0.049133 
3387.000896  	0.048805 
3388.929712  	0.048496 
3390.858528  	0.048119 
3392.787344  	0.048132 
3394.716160  	0.047983 
3396.644976  	0.047642 
3398.573792  	0.047493 
3400.502608  	0.047230 
3402.431424  	0.046940 
3404.360240  	0.046630 
3406.289056  	0.046409 
3408.217872  	0.046204 
3410.146688  	0.045835 
3412.075504  	0.045432 
3414.004320  	0.045092 
3415.933136  	0.044801 
3417.861952  	0.044274 
3419.790768  	0.043887 
3421.719584  	0.043860 
3423.648400  	0.043601 
3425.577216  	0.043267 
3427.506032  	0.042951 
3429.434848  	0.042552 
3431.363664  	0.042291 
3433.292480  	0.041976 
3435.221296  	0.041563 
3437.150112  	0.041252 
3439.078928  	0.040894 
3441.007744  	0.040406 
3442.936560  	0.040104 
3444.865376  	0.039597 
3446.794192  	0.039502 
3448.723008  	0.039730 
3450.651824  	0.038882 
3452.580640  	0.038064 
3454.509456  	0.037584 
3456.438272  	0.037049 
3458.367088  	0.036504 
3460.295904  	0.036038 
3462.224720  	0.035781 
3464.153536  	0.035430 
3466.082352  	0.034628 
3468.011168  	0.034166 
3469.939984  	0.033596 
3471.868800  	0.032769 
3473.797616  	0.032142 
3475.726432  	0.031783 
3477.655248  	0.031139 
3479.584064  	0.030427 
3481.512880  	0.030065 
3483.441696  	0.029551 
3485.370512  	0.028573 
3487.299328  	0.028085 
3489.228144  	0.027839 
3491.156960  	0.027215 
3493.085776  	0.026429 
3495.014592  	0.025828 
3496.943408  	0.025547 
3498.872224  	0.024872 
3500.801040  	0.023821 
3502.729856  	0.023813 
3504.658672  	0.024047 
3506.587488  	0.023155 
3508.516304  	0.022444 
3510.445120  	0.022452 
3512.373936  	0.021844 
3514.302752  	0.021016 
3516.231568  	0.020207 
3518.160384  	0.019684 
3520.089200  	0.019107 
3522.018016  	0.018610 
3523.946832  	0.018696 
3525.875648  	0.017998 
3527.804464  	0.017519 
3529.733280  	0.017619 
3531.662096  	0.017483 
3533.590912  	0.016592 
3535.519728  	0.016089 
3537.448544  	0.016184 
3539.377360  	0.015519 
3541.306176  	0.014672 
3543.234992  	0.014044 
3545.163808  	0.014675 
3547.092624  	0.014945 
3549.021440  	0.013602 
3550.950256  	0.012313 
3552.879072  	0.012557 
3554.807888  	0.012512 
3556.736704  	0.011651 
3558.665520  	0.011173 
3560.594336  	0.010802 
3562.523152  	0.009847 
3564.451968  	0.008383 
3566.380784  	0.008415 
3568.309600  	0.010441 
3570.238416  	0.009789 
3572.167232  	0.008259 
3574.096048  	0.007267 
3576.024864  	0.006647 
3577.953680  	0.006360 
3579.882496  	0.005992 
3581.811312  	0.005475 
3583.740128  	0.004150 
3585.668944  	0.002864 
3587.597760  	0.004046 
3589.526576  	0.004604 
3591.455392  	0.002394 
3593.384208  	0.001188 
3595.313024  	0.001300 
3597.241840  	0.000769 
3599.170656  	-0.000317 
3601.099472  	-0.000389 
3603.028288  	-0.000489 
3604.957104  	-0.001998 
3606.885920  	-0.003129 
3608.814736  	-0.002680 
3610.743552  	-0.003606 
3612.672368  	-0.004790 
3614.601184  	-0.004696 
3616.530000  	-0.006280 
3618.458816  	-0.007367 
3620.387632  	-0.006148 
3622.316448  	-0.006288 
3624.245264  	-0.007782 
3626.174080  	-0.010438 
3628.102896  	-0.012114 
3630.031712  	-0.008898 
3631.960528  	-0.009437 
3633.889344  	-0.010074 
3635.818160  	-0.010184 
3637.746976  	-0.011249 
3639.675792  	-0.011832 
3641.604608  	-0.012387 
3643.533424  	-0.013202 
3645.462240  	-0.015485 
3647.391056  	-0.017467 
3649.319872  	-0.017129 
3651.248688  	-0.014226 
3653.177504  	-0.014708 
3655.106320  	-0.016388 
3657.035136  	-0.015880 
3658.963952  	-0.015691 
3660.892768  	-0.016094 
3662.821584  	-0.016704 
3664.750400  	-0.017061 
3666.679216  	-0.018075 
3668.608032  	-0.020006 
3670.536848  	-0.018822 
3672.465664  	-0.019124 
3674.394480  	-0.021403 
3676.323296  	-0.018431 
3678.252112  	-0.017741 
3680.180928  	-0.017764 
3682.109744  	-0.017660 
3684.038560  	-0.018146 
3685.967376  	-0.019353 
3687.896192  	-0.020602 
3689.825008  	-0.020101 
3691.753824  	-0.018303 
3693.682640  	-0.017523 
3695.611456  	-0.017625 
3697.540272  	-0.017528 
3699.469088  	-0.018176 
3701.397904  	-0.018222 
3703.326720  	-0.017312 
3705.255536  	-0.017400 
3707.184352  	-0.018481 
3709.113168  	-0.019920 
3711.041984  	-0.020134 
3712.970800  	-0.017496 
3714.899616  	-0.016542 
3716.828432  	-0.017475 
3718.757248  	-0.017910 
3720.686064  	-0.018573 
3722.614880  	-0.018917 
3724.543696  	-0.018400 
3726.472512  	-0.017564 
3728.401328  	-0.017620 
3730.330144  	-0.019659 
3732.258960  	-0.021027 
3734.187776  	-0.020741 
3736.116592  	-0.018537 
3738.045408  	-0.017624 
3739.974224  	-0.018326 
3741.903040  	-0.019760 
3743.831856  	-0.020225 
3745.760672  	-0.018209 
3747.689488  	-0.020332 
3749.618304  	-0.021656 
3751.547120  	-0.019587 
3753.475936  	-0.017080 
3755.404752  	-0.017347 
3757.333568  	-0.017944 
3759.262384  	-0.017690 
3761.191200  	-0.016666 
3763.120016  	-0.017092 
3765.048832  	-0.017233 
3766.977648  	-0.017137 
3768.906464  	-0.017758 
3770.835280  	-0.016674 
3772.764096  	-0.016199 
3774.692912  	-0.016461 
3776.621728  	-0.017250 
3778.550544  	-0.017970 
3780.479360  	-0.016795 
3782.408176  	-0.016782 
3784.336992  	-0.017157 
3786.265808  	-0.016539 
3788.194624  	-0.016429 
3790.123440  	-0.016516 
3792.052256  	-0.016663 
3793.981072  	-0.017432 
3795.909888  	-0.018219 
3797.838704  	-0.018255 
3799.767520  	-0.019768 
3801.696336  	-0.019460 
3803.625152  	-0.017961 
3805.553968  	-0.019095 
3807.482784  	-0.018027 
3809.411600  	-0.016855 
3811.340416  	-0.016903 
3813.269232  	-0.017861 
3815.198048  	-0.019071 
3817.126864  	-0.018275 
3819.055680  	-0.019862 
3820.984496  	-0.019562 
3822.913312  	-0.016967 
3824.842128  	-0.017726 
3826.770944  	-0.017978 
3828.699760  	-0.017625 
3830.628576  	-0.018276 
3832.557392  	-0.018527 
3834.486208  	-0.019006 
3836.415024  	-0.019797 
3838.343840  	-0.019506 
3840.272656  	-0.018371 
3842.201472  	-0.017809 
3844.130288  	-0.017067 
3846.059104  	-0.016760 
3847.987920  	-0.017733 
3849.916736  	-0.019572 
3851.845552  	-0.021853 
3853.774368  	-0.018999 
3855.703184  	-0.016367 
3857.632000  	-0.016611 
3859.560816  	-0.017406 
3861.489632  	-0.018192 
3863.418448  	-0.018331 
3865.347264  	-0.017282 
3867.276080  	-0.017784 
3869.204896  	-0.018930 
3871.133712  	-0.017563 
3873.062528  	-0.018090 
3874.991344  	-0.016872 
3876.920160  	-0.016889 
3878.848976  	-0.017926 
3880.777792  	-0.017180 
3882.706608  	-0.016972 
3884.635424  	-0.017551 
3886.564240  	-0.016186 
3888.493056  	-0.017115 
3890.421872  	-0.018077 
3892.350688  	-0.016960 
3894.279504  	-0.016493 
3896.208320  	-0.017390 
3898.137136  	-0.018181 
3900.065952  	-0.017952 
3901.994768  	-0.017785 
3903.923584  	-0.017261 
3905.852400  	-0.016227 
3907.781216  	-0.016316 
3909.710032  	-0.016801 
3911.638848  	-0.016843 
3913.567664  	-0.016881 
3915.496480  	-0.016964 
3917.425296  	-0.016336 
3919.354112  	-0.016466 
3921.282928  	-0.016732 
3923.211744  	-0.016863 
3925.140560  	-0.016272 
3927.069376  	-0.016553 
3928.998192  	-0.017212 
3930.927008  	-0.016825 
3932.855824  	-0.016089 
3934.784640  	-0.016176 
3936.713456  	-0.016556 
3938.642272  	-0.016566 
3940.571088  	-0.016920 
3942.499904  	-0.016523 
3944.428720  	-0.016268 
3946.357536  	-0.016838 
3948.286352  	-0.016774 
3950.215168  	-0.016493 
3952.143984  	-0.016675 
3954.072800  	-0.016750 
3956.001616  	-0.016759 
3957.930432  	-0.016719 
3959.859248  	-0.016746 
3961.788064  	-0.016633 
3963.716880  	-0.016375 
3965.645696  	-0.016529 
3967.574512  	-0.016846 
3969.503328  	-0.016730 
3971.432144  	-0.016782 
3973.360960  	-0.016822 
3975.289776  	-0.016608 
3977.218592  	-0.016560 
3979.147408  	-0.016708 
3981.076224  	-0.016813 
3983.005040  	-0.016622 
3984.933856  	-0.016546 
3986.862672  	-0.016692 
3988.791488  	-0.016809 
3990.720304  	-0.016787 
3992.649120  	-0.016721 
3994.577936  	-0.016716 
3996.506752  	-0.016809 
3998.435568  	-0.016902 
4000.364384  	-0.016817 