##TITLE=No Description
##DATA TYPE=INFRARED SPECTRUM
##XUNITS=1/CM
##YUNITS=Abs
399.264912  	0.586057 
401.193728  	0.558482 
403.122544  	0.555168 
405.051360  	0.545098 
406.980176  	0.541803 
408.908992  	0.528523 
410.837808  	0.516677 
412.766624  	0.514902 
414.695440  	0.528401 
416.624256  	0.540951 
418.553072  	0.557379 
420.481888  	0.530467 
422.410704  	0.514251 
424.339520  	0.499566 
426.268336  	0.502489 
428.197152  	0.499754 
430.125968  	0.495682 
432.054784  	0.493442 
433.983600  	0.494962 
435.912416  	0.489795 
437.841232  	0.491038 
439.770048  	0.483755 
441.698864  	0.484926 
443.627680  	0.484031 
445.556496  	0.479585 
447.485312  	0.475179 
449.414128  	0.479923 
451.342944  	0.480393 
453.271760  	0.478174 
455.200576  	0.474192 
457.129392  	0.477748 
459.058208  	0.469604 
460.987024  	0.471690 
462.915840  	0.472098 
464.844656  	0.469685 
466.773472  	0.462096 
468.702288  	0.464721 
470.631104  	0.464599 
472.559920  	0.464269 
474.488736  	0.460753 
476.417552  	0.462033 
478.346368  	0.455167 
480.275184  	0.455061 
482.204000  	0.456485 
484.132816  	0.455601 
486.061632  	0.453830 
487.990448  	0.457298 
489.919264  	0.454550 
491.848080  	0.451779 
493.776896  	0.444507 
495.705712  	0.442623 
497.634528  	0.443317 
499.563344  	0.446871 
501.492160  	0.444413 
503.420976  	0.445096 
505.349792  	0.441699 
507.278608  	0.439311 
509.207424  	0.439545 
511.136240  	0.442732 
513.065056  	0.440069 
514.993872  	0.440472 
516.922688  	0.441216 
518.851504  	0.444486 
520.780320  	0.445399 
522.709136  	0.444404 
524.637952  	0.438026 
526.566768  	0.436884 
528.495584  	0.435721 
530.424400  	0.434325 
532.353216  	0.430484 
534.282032  	0.426968 
536.210848  	0.422415 
538.139664  	0.419931 
540.068480  	0.416209 
541.997296  	0.412239 
543.926112  	0.408996 
545.854928  	0.407934 
547.783744  	0.406192 
549.712560  	0.404849 
551.641376  	0.399666 
553.570192  	0.397010 
555.499008  	0.394750 
557.427824  	0.393387 
559.356640  	0.390255 
561.285456  	0.387716 
563.214272  	0.384290 
565.143088  	0.382301 
567.071904  	0.379834 
569.000720  	0.377607 
570.929536  	0.373745 
572.858352  	0.372694 
574.787168  	0.371398 
576.715984  	0.368920 
578.644800  	0.365238 
580.573616  	0.362292 
582.502432  	0.358141 
584.431248  	0.354532 
586.360064  	0.350651 
588.288880  	0.348434 
590.217696  	0.346292 
592.146512  	0.344731 
594.075328  	0.343525 
596.004144  	0.342041 
597.932960  	0.339653 
599.861776  	0.338013 
601.790592  	0.335971 
603.719408  	0.334757 
605.648224  	0.333248 
607.577040  	0.331849 
609.505856  	0.329205 
611.434672  	0.327644 
613.363488  	0.326130 
615.292304  	0.324738 
617.221120  	0.322138 
619.149936  	0.320856 
621.078752  	0.318950 
623.007568  	0.318090 
624.936384  	0.316983 
626.865200  	0.316245 
628.794016  	0.315343 
630.722832  	0.313818 
632.651648  	0.312654 
634.580464  	0.311536 
636.509280  	0.311085 
638.438096  	0.310822 
640.366912  	0.309389 
642.295728  	0.307838 
644.224544  	0.304995 
646.153360  	0.302756 
648.082176  	0.299347 
650.010992  	0.296432 
651.939808  	0.293179 
653.868624  	0.290680 
655.797440  	0.286789 
657.726256  	0.284268 
659.655072  	0.280838 
661.583888  	0.277847 
663.512704  	0.274952 
665.441520  	0.271188 
667.370336  	0.268047 
669.299152  	0.266316 
671.227968  	0.261889 
673.156784  	0.258325 
675.085600  	0.255721 
677.014416  	0.253642 
678.943232  	0.251395 
680.872048  	0.250002 
682.800864  	0.248229 
684.729680  	0.245962 
686.658496  	0.243882 
688.587312  	0.243079 
690.516128  	0.241425 
692.444944  	0.239978 
694.373760  	0.238500 
696.302576  	0.237400 
698.231392  	0.235314 
700.160208  	0.233374 
702.089024  	0.231043 
704.017840  	0.228962 
705.946656  	0.226418 
707.875472  	0.224348 
709.804288  	0.222171 
711.733104  	0.220505 
713.661920  	0.218693 
715.590736  	0.217419 
717.519552  	0.216415 
719.448368  	0.215671 
721.377184  	0.215381 
723.306000  	0.214891 
725.234816  	0.214359 
727.163632  	0.213136 
729.092448  	0.211159 
731.021264  	0.208419 
732.950080  	0.205615 
734.878896  	0.203295 
736.807712  	0.200583 
738.736528  	0.198741 
740.665344  	0.196990 
742.594160  	0.195780 
744.522976  	0.194307 
746.451792  	0.193491 
748.380608  	0.192214 
750.309424  	0.190896 
752.238240  	0.189472 
754.167056  	0.188505 
756.095872  	0.187397 
758.024688  	0.185946 
759.953504  	0.185110 
761.882320  	0.184865 
763.811136  	0.184609 
765.739952  	0.182981 
767.668768  	0.180234 
769.597584  	0.177752 
771.526400  	0.176401 
773.455216  	0.176182 
775.384032  	0.177498 
777.312848  	0.180906 
779.241664  	0.182679 
781.170480  	0.181196 
783.099296  	0.177191 
785.028112  	0.173484 
786.956928  	0.169470 
788.885744  	0.165564 
790.814560  	0.162510 
792.743376  	0.160687 
794.672192  	0.159529 
796.601008  	0.158322 
798.529824  	0.155725 
800.458640  	0.152592 
802.387456  	0.149914 
804.316272  	0.148098 
806.245088  	0.146561 
808.173904  	0.145352 
810.102720  	0.144540 
812.031536  	0.143688 
813.960352  	0.143152 
815.889168  	0.142844 
817.817984  	0.142544 
819.746800  	0.142192 
821.675616  	0.142041 
823.604432  	0.142279 
825.533248  	0.142285 
827.462064  	0.142210 
829.390880  	0.141299 
831.319696  	0.140459 
833.248512  	0.139040 
835.177328  	0.137577 
837.106144  	0.135453 
839.034960  	0.133421 
840.963776  	0.130905 
842.892592  	0.128140 
844.821408  	0.125392 
846.750224  	0.122860 
848.679040  	0.120950 
850.607856  	0.119147 
852.536672  	0.117899 
854.465488  	0.116645 
856.394304  	0.115743 
858.323120  	0.114817 
860.251936  	0.113639 
862.180752  	0.112168 
864.109568  	0.110584 
866.038384  	0.109338 
867.967200  	0.107695 
869.896016  	0.106270 
871.824832  	0.104690 
873.753648  	0.103658 
875.682464  	0.103211 
877.611280  	0.103740 
879.540096  	0.105057 
881.468912  	0.107306 
883.397728  	0.109801 
885.326544  	0.111651 
887.255360  	0.113064 
889.184176  	0.113663 
891.112992  	0.113412 
893.041808  	0.112438 
894.970624  	0.110770 
896.899440  	0.108556 
898.828256  	0.105683 
900.757072  	0.102418 
902.685888  	0.099325 
904.614704  	0.097319 
906.543520  	0.096370 
908.472336  	0.096771 
910.401152  	0.097756 
912.329968  	0.099132 
914.258784  	0.100655 
916.187600  	0.101930 
918.116416  	0.103037 
920.045232  	0.103996 
921.974048  	0.104438 
923.902864  	0.104762 
925.831680  	0.104824 
927.760496  	0.105075 
929.689312  	0.105445 
931.618128  	0.105838 
933.546944  	0.106021 
935.475760  	0.105982 
937.404576  	0.105538 
939.333392  	0.104640 
941.262208  	0.103834 
943.191024  	0.103587 
945.119840  	0.104448 
947.048656  	0.106758 
948.977472  	0.110427 
950.906288  	0.115446 
952.835104  	0.122162 
954.763920  	0.130108 
956.692736  	0.138222 
958.621552  	0.146053 
960.550368  	0.151951 
962.479184  	0.156240 
964.408000  	0.157827 
966.336816  	0.156414 
968.265632  	0.151560 
970.194448  	0.144479 
972.123264  	0.135497 
974.052080  	0.125446 
975.980896  	0.115331 
977.909712  	0.105623 
979.838528  	0.096921 
981.767344  	0.089830 
983.696160  	0.084597 
985.624976  	0.080978 
987.553792  	0.079361 
989.482608  	0.079736 
991.411424  	0.081931 
993.340240  	0.085654 
995.269056  	0.089926 
997.197872  	0.094385 
999.126688  	0.098905 
1001.055504  	0.103727 
1002.984320  	0.108302 
1004.913136  	0.113028 
1006.841952  	0.117450 
1008.770768  	0.121929 
1010.699584  	0.126116 
1012.628400  	0.129670 
1014.557216  	0.132166 
1016.486032  	0.133951 
1018.414848  	0.135095 
1020.343664  	0.135610 
1022.272480  	0.136219 
1024.201296  	0.136742 
1026.130112  	0.136510 
1028.058928  	0.136687 
1029.987744  	0.137716 
1031.916560  	0.138911 
1033.845376  	0.140069 
1035.774192  	0.141721 
1037.703008  	0.144074 
1039.631824  	0.148013 
1041.560640  	0.154273 
1043.489456  	0.163874 
1045.418272  	0.176029 
1047.347088  	0.190025 
1049.275904  	0.203068 
1051.204720  	0.213431 
1053.133536  	0.219376 
1055.062352  	0.222110 
1056.991168  	0.222713 
1058.919984  	0.223205 
1060.848800  	0.223603 
1062.777616  	0.224298 
1064.706432  	0.224319 
1066.635248  	0.223740 
1068.564064  	0.222010 
1070.492880  	0.218425 
1072.421696  	0.213896 
1074.350512  	0.210965 
1076.279328  	0.210237 
1078.208144  	0.212694 
1080.136960  	0.216763 
1082.065776  	0.220699 
1083.994592  	0.222351 
1085.923408  	0.220795 
1087.852224  	0.216005 
1089.781040  	0.209666 
1091.709856  	0.200957 
1093.638672  	0.191017 
1095.567488  	0.179926 
1097.496304  	0.169001 
1099.425120  	0.157774 
1101.353936  	0.146877 
1103.282752  	0.136582 
1105.211568  	0.127248 
1107.140384  	0.118308 
1109.069200  	0.110247 
1110.998016  	0.103111 
1112.926832  	0.096278 
1114.855648  	0.090076 
1116.784464  	0.084378 
1118.713280  	0.078649 
1120.642096  	0.072912 
1122.570912  	0.067833 
1124.499728  	0.063455 
1126.428544  	0.059497 
1128.357360  	0.056065 
1130.286176  	0.052951 
1132.214992  	0.050776 
1134.143808  	0.048869 
1136.072624  	0.047341 
1138.001440  	0.046000 
1139.930256  	0.044931 
1141.859072  	0.043792 
1143.787888  	0.042740 
1145.716704  	0.041843 
1147.645520  	0.041145 
1149.574336  	0.040598 
1151.503152  	0.040291 
1153.431968  	0.040480 
1155.360784  	0.040625 
1157.289600  	0.040771 
1159.218416  	0.041067 
1161.147232  	0.041564 
1163.076048  	0.042283 
1165.004864  	0.043172 
1166.933680  	0.043872 
1168.862496  	0.044433 
1170.791312  	0.045414 
1172.720128  	0.046594 
1174.648944  	0.048257 
1176.577760  	0.049945 
1178.506576  	0.051721 
1180.435392  	0.053495 
1182.364208  	0.055487 
1184.293024  	0.057799 
1186.221840  	0.060398 
1188.150656  	0.063488 
1190.079472  	0.066959 
1192.008288  	0.071026 
1193.937104  	0.075591 
1195.865920  	0.080903 
1197.794736  	0.087093 
1199.723552  	0.093436 
1201.652368  	0.100094 
1203.581184  	0.106718 
1205.510000  	0.112838 
1207.438816  	0.118599 
1209.367632  	0.124273 
1211.296448  	0.128674 
1213.225264  	0.132211 
1215.154080  	0.134623 
1217.082896  	0.136306 
1219.011712  	0.136800 
1220.940528  	0.136975 
1222.869344  	0.136368 
1224.798160  	0.135200 
1226.726976  	0.133095 
1228.655792  	0.130608 
1230.584608  	0.127691 
1232.513424  	0.124369 
1234.442240  	0.120462 
1236.371056  	0.116139 
1238.299872  	0.111426 
1240.228688  	0.106173 
1242.157504  	0.100991 
1244.086320  	0.096001 
1246.015136  	0.090851 
1247.943952  	0.085707 
1249.872768  	0.080801 
1251.801584  	0.076320 
1253.730400  	0.071580 
1255.659216  	0.067095 
1257.588032  	0.062763 
1259.516848  	0.058695 
1261.445664  	0.054899 
1263.374480  	0.051580 
1265.303296  	0.048665 
1267.232112  	0.046173 
1269.160928  	0.044246 
1271.089744  	0.043047 
1273.018560  	0.042557 
1274.947376  	0.042676 
1276.876192  	0.043191 
1278.805008  	0.043608 
1280.733824  	0.043634 
1282.662640  	0.042778 
1284.591456  	0.041423 
1286.520272  	0.040184 
1288.449088  	0.039487 
1290.377904  	0.039643 
1292.306720  	0.040380 
1294.235536  	0.041012 
1296.164352  	0.040951 
1298.093168  	0.039867 
1300.021984  	0.038010 
1301.950800  	0.036084 
1303.879616  	0.033977 
1305.808432  	0.031607 
1307.737248  	0.029112 
1309.666064  	0.026812 
1311.594880  	0.024947 
1313.523696  	0.023667 
1315.452512  	0.022603 
1317.381328  	0.021986 
1319.310144  	0.022100 
1321.238960  	0.022480 
1323.167776  	0.022923 
1325.096592  	0.023366 
1327.025408  	0.023715 
1328.954224  	0.023648 
1330.883040  	0.023074 
1332.811856  	0.022084 
1334.740672  	0.021001 
1336.669488  	0.020231 
1338.598304  	0.020269 
1340.527120  	0.020553 
1342.455936  	0.019879 
1344.384752  	0.019511 
1346.313568  	0.019643 
1348.242384  	0.020140 
1350.171200  	0.021005 
1352.100016  	0.022066 
1354.028832  	0.023286 
1355.957648  	0.024822 
1357.886464  	0.025928 
1359.815280  	0.026933 
1361.744096  	0.028781 
1363.672912  	0.031606 
1365.601728  	0.032669 
1367.530544  	0.033622 
1369.459360  	0.035144 
1371.388176  	0.035471 
1373.316992  	0.035353 
1375.245808  	0.035176 
1377.174624  	0.033547 
1379.103440  	0.031858 
1381.032256  	0.029913 
1382.961072  	0.028209 
1384.889888  	0.026514 
1386.818704  	0.025968 
1388.747520  	0.025427 
1390.676336  	0.023446 
1392.605152  	0.021008 
1394.533968  	0.020228 
1396.462784  	0.020631 
1398.391600  	0.020374 
1400.320416  	0.020989 
1402.249232  	0.020277 
1404.178048  	0.020548 
1406.106864  	0.021704 
1408.035680  	0.022150 
1409.964496  	0.022919 
1411.893312  	0.024510 
1413.822128  	0.025681 
1415.750944  	0.026422 
1417.679760  	0.027186 
1419.608576  	0.029981 
1421.537392  	0.029795 
1423.466208  	0.028889 
1425.395024  	0.028645 
1427.323840  	0.026585 
1429.252656  	0.024857 
1431.181472  	0.024111 
1433.110288  	0.023258 
1435.039104  	0.022241 
1436.967920  	0.025038 
1438.896736  	0.026442 
1440.825552  	0.026243 
1442.754368  	0.026627 
1444.683184  	0.026323 
1446.612000  	0.025958 
1448.540816  	0.026904 
1450.469632  	0.026919 
1452.398448  	0.026304 
1454.327264  	0.024804 
1456.256080  	0.023874 
1458.184896  	0.027604 
1460.113712  	0.027713 
1462.042528  	0.025963 
1463.971344  	0.025039 
1465.900160  	0.026926 
1467.828976  	0.027001 
1469.757792  	0.026116 
1471.686608  	0.026969 
1473.615424  	0.033053 
1475.544240  	0.036491 
1477.473056  	0.040213 
1479.401872  	0.042014 
1481.330688  	0.044469 
1483.259504  	0.046433 
1485.188320  	0.046973 
1487.117136  	0.047186 
1489.045952  	0.048536 
1490.974768  	0.049958 
1492.903584  	0.047697 
1494.832400  	0.043549 
1496.761216  	0.040593 
1498.690032  	0.037612 
1500.618848  	0.034390 
1502.547664  	0.029977 
1504.476480  	0.024436 
1506.405296  	0.022402 
1508.334112  	0.026890 
1510.262928  	0.024863 
1512.191744  	0.023288 
1514.120560  	0.021781 
1516.049376  	0.021276 
1517.978192  	0.022756 
1519.907008  	0.021971 
1521.835824  	0.026672 
1523.764640  	0.029966 
1525.693456  	0.031919 
1527.622272  	0.034533 
1529.551088  	0.034582 
1531.479904  	0.032426 
1533.408720  	0.031434 
1535.337536  	0.030226 
1537.266352  	0.025280 
1539.195168  	0.020886 
1541.123984  	0.022611 
1543.052800  	0.023417 
1544.981616  	0.023670 
1546.910432  	0.022521 
1548.839248  	0.021001 
1550.768064  	0.021445 
1552.696880  	0.019715 
1554.625696  	0.019382 
1556.554512  	0.016631 
1558.483328  	0.016436 
1560.412144  	0.026780 
1562.340960  	0.025344 
1564.269776  	0.025460 
1566.198592  	0.027588 
1568.127408  	0.027595 
1570.056224  	0.032826 
1571.985040  	0.035842 
1573.913856  	0.035096 
1575.842672  	0.036951 
1577.771488  	0.041610 
1579.700304  	0.040575 
1581.629120  	0.039750 
1583.557936  	0.039050 
1585.486752  	0.039150 
1587.415568  	0.039820 
1589.344384  	0.041934 
1591.273200  	0.044687 
1593.202016  	0.048245 
1595.130832  	0.052509 
1597.059648  	0.057476 
1598.988464  	0.061256 
1600.917280  	0.064801 
1602.846096  	0.067751 
1604.774912  	0.070019 
1606.703728  	0.070382 
1608.632544  	0.070626 
1610.561360  	0.069740 
1612.490176  	0.068087 
1614.418992  	0.064335 
1616.347808  	0.064319 
1618.276624  	0.067857 
1620.205440  	0.067101 
1622.134256  	0.067005 
1624.063072  	0.072950 
1625.991888  	0.075576 
1627.920704  	0.080304 
1629.849520  	0.086694 
1631.778336  	0.089820 
1633.707152  	0.090789 
1635.635968  	0.099272 
1637.564784  	0.110558 
1639.493600  	0.113100 
1641.422416  	0.115894 
1643.351232  	0.116772 
1645.280048  	0.115814 
1647.208864  	0.122650 
1649.137680  	0.125153 
1651.066496  	0.119130 
1652.995312  	0.121058 
1654.924128  	0.131227 
1656.852944  	0.127381 
1658.781760  	0.124982 
1660.710576  	0.122151 
1662.639392  	0.121482 
1664.568208  	0.120832 
1666.497024  	0.115969 
1668.425840  	0.111567 
1670.354656  	0.110758 
1672.283472  	0.107609 
1674.212288  	0.103313 
1676.141104  	0.103267 
1678.069920  	0.100187 
1679.998736  	0.097427 
1681.927552  	0.093870 
1683.856368  	0.093915 
1685.785184  	0.100230 
1687.714000  	0.097838 
1689.642816  	0.097913 
1691.571632  	0.097625 
1693.500448  	0.094816 
1695.429264  	0.093871 
1697.358080  	0.095440 
1699.286896  	0.093104 
1701.215712  	0.099177 
1703.144528  	0.096541 
1705.073344  	0.094598 
1707.002160  	0.094671 
1708.930976  	0.092605 
1710.859792  	0.088873 
1712.788608  	0.083646 
1714.717424  	0.077083 
1716.646240  	0.070367 
1718.575056  	0.064302 
1720.503872  	0.056694 
1722.432688  	0.048671 
1724.361504  	0.041087 
1726.290320  	0.034109 
1728.219136  	0.027725 
1730.147952  	0.022222 
1732.076768  	0.016699 
1734.005584  	0.014662 
1735.934400  	0.013441 
1737.863216  	0.009616 
1739.792032  	0.007830 
1741.720848  	0.006837 
1743.649664  	0.005659 
1745.578480  	0.004081 
1747.507296  	0.002462 
1749.436112  	0.002362 
1751.364928  	0.003345 
1753.293744  	0.002747 
1755.222560  	0.001026 
1757.151376  	0.001503 
1759.080192  	0.000626 
1761.009008  	-0.000088 
1762.937824  	0.000781 
1764.866640  	0.000059 
1766.795456  	-0.000998 
1768.724272  	-0.001088 
1770.653088  	-0.003128 
1772.581904  	-0.001765 
1774.510720  	-0.000609 
1776.439536  	-0.000846 
1778.368352  	-0.001509 
1780.297168  	-0.001674 
1782.225984  	-0.001432 
1784.154800  	-0.001414 
1786.083616  	-0.001249 
1788.012432  	-0.002108 
1789.941248  	-0.003181 
1791.870064  	-0.002685 
1793.798880  	-0.001756 
1795.727696  	-0.002224 
1797.656512  	-0.003077 
1799.585328  	-0.003430 
1801.514144  	-0.002295 
1803.442960  	-0.002141 
1805.371776  	-0.002833 
1807.300592  	-0.003096 
1809.229408  	-0.003432 
1811.158224  	-0.003245 
1813.087040  	-0.002971 
1815.015856  	-0.003378 
1816.944672  	-0.003380 
1818.873488  	-0.003113 
1820.802304  	-0.003313 
1822.731120  	-0.003863 
1824.659936  	-0.003703 
1826.588752  	-0.003677 
1828.517568  	-0.004903 
1830.446384  	-0.003273 
1832.375200  	-0.002731 
1834.304016  	-0.003158 
1836.232832  	-0.003165 
1838.161648  	-0.003266 
1840.090464  	-0.003860 
1842.019280  	-0.004839 
1843.948096  	-0.004129 
1845.876912  	-0.002841 
1847.805728  	-0.003106 
1849.734544  	-0.003277 
1851.663360  	-0.003782 
1853.592176  	-0.003680 
1855.520992  	-0.003978 
1857.449808  	-0.003873 
1859.378624  	-0.003691 
1861.307440  	-0.003272 
1863.236256  	-0.003693 
1865.165072  	-0.004553 
1867.093888  	-0.005219 
1869.022704  	-0.003879 
1870.951520  	-0.003077 
1872.880336  	-0.003722 
1874.809152  	-0.004070 
1876.737968  	-0.004001 
1878.666784  	-0.003770 
1880.595600  	-0.003457 
1882.524416  	-0.003739 
1884.453232  	-0.004066 
1886.382048  	-0.004360 
1888.310864  	-0.004230 
1890.239680  	-0.003499 
1892.168496  	-0.003801 
1894.097312  	-0.004586 
1896.026128  	-0.004299 
1897.954944  	-0.003680 
1899.883760  	-0.003510 
1901.812576  	-0.003886 
1903.741392  	-0.003975 
1905.670208  	-0.004066 
1907.599024  	-0.003919 
1909.527840  	-0.003428 
1911.456656  	-0.003270 
1913.385472  	-0.003643 
1915.314288  	-0.004212 
1917.243104  	-0.004520 
1919.171920  	-0.003492 
1921.100736  	-0.003740 
1923.029552  	-0.003274 
1924.958368  	-0.003965 
1926.887184  	-0.004619 
1928.816000  	-0.004160 
1930.744816  	-0.003996 
1932.673632  	-0.004523 
1934.602448  	-0.004446 
1936.531264  	-0.004395 
1938.460080  	-0.004811 
1940.388896  	-0.005750 
1942.317712  	-0.005392 
1944.246528  	-0.004767 
1946.175344  	-0.004238 
1948.104160  	-0.004287 
1950.032976  	-0.005122 
1951.961792  	-0.005651 
1953.890608  	-0.004922 
1955.819424  	-0.004798 
1957.748240  	-0.004935 
1959.677056  	-0.005763 
1961.605872  	-0.006228 
1963.534688  	-0.006766 
1965.463504  	-0.006638 
1967.392320  	-0.006833 
1969.321136  	-0.006682 
1971.249952  	-0.006991 
1973.178768  	-0.006661 
1975.107584  	-0.006296 
1977.036400  	-0.005163 
1978.965216  	-0.003318 
1980.894032  	-0.003166 
1982.822848  	-0.004942 
1984.751664  	-0.004871 
1986.680480  	-0.004748 
1988.609296  	-0.005025 
1990.538112  	-0.005848 
1992.466928  	-0.005431 
1994.395744  	-0.005209 
1996.324560  	-0.004822 
1998.253376  	-0.004862 
2000.182192  	-0.004640 
2002.111008  	-0.005603 
2004.039824  	-0.005600 
2005.968640  	-0.005197 
2007.897456  	-0.004777 
2009.826272  	-0.004265 
2011.755088  	-0.004829 
2013.683904  	-0.005196 
2015.612720  	-0.004491 
2017.541536  	-0.003820 
2019.470352  	-0.003325 
2021.399168  	-0.003512 
2023.327984  	-0.003632 
2025.256800  	-0.004471 
2027.185616  	-0.005017 
2029.114432  	-0.004545 
2031.043248  	-0.003913 
2032.972064  	-0.003216 
2034.900880  	-0.001930 
2036.829696  	-0.001992 
2038.758512  	-0.002298 
2040.687328  	-0.002578 
2042.616144  	-0.001478 
2044.544960  	-0.001852 
2046.473776  	-0.002773 
2048.402592  	-0.002818 
2050.331408  	-0.002541 
2052.260224  	-0.003444 
2054.189040  	-0.004194 
2056.117856  	-0.003837 
2058.046672  	-0.002791 
2059.975488  	-0.002509 
2061.904304  	-0.002822 
2063.833120  	-0.003422 
2065.761936  	-0.002743 
2067.690752  	-0.002456 
2069.619568  	-0.002613 
2071.548384  	-0.003350 
2073.477200  	-0.003139 
2075.406016  	-0.002560 
2077.334832  	-0.002473 
2079.263648  	-0.002396 
2081.192464  	-0.002358 
2083.121280  	-0.002898 
2085.050096  	-0.003067 
2086.978912  	-0.003208 
2088.907728  	-0.002805 
2090.836544  	-0.002828 
2092.765360  	-0.003169 
2094.694176  	-0.003287 
2096.622992  	-0.003042 
2098.551808  	-0.002828 
2100.480624  	-0.002607 
2102.409440  	-0.002665 
2104.338256  	-0.002825 
2106.267072  	-0.002347 
2108.195888  	-0.001788 
2110.124704  	-0.001981 
2112.053520  	-0.002497 
2113.982336  	-0.002686 
2115.911152  	-0.002667 
2117.839968  	-0.002466 
2119.768784  	-0.002372 
2121.697600  	-0.002920 
2123.626416  	-0.003259 
2125.555232  	-0.004010 
2127.484048  	-0.004165 
2129.412864  	-0.003980 
2131.341680  	-0.003875 
2133.270496  	-0.004060 
2135.199312  	-0.003682 
2137.128128  	-0.003538 
2139.056944  	-0.003564 
2140.985760  	-0.003603 
2142.914576  	-0.003615 
2144.843392  	-0.002897 
2146.772208  	-0.002282 
2148.701024  	-0.002167 
2150.629840  	-0.002305 
2152.558656  	-0.002934 
2154.487472  	-0.003037 
2156.416288  	-0.003269 
2158.345104  	-0.000707 
2160.273920  	0.002779 
2162.202736  	0.002687 
2164.131552  	0.002259 
2166.060368  	0.002135 
2167.989184  	0.000408 
2169.918000  	-0.000960 
2171.846816  	-0.001264 
2173.775632  	-0.002090 
2175.704448  	-0.001996 
2177.633264  	-0.001421 
2179.562080  	-0.001962 
2181.490896  	-0.001584 
2183.419712  	-0.000531 
2185.348528  	-0.000708 
2187.277344  	-0.001000 
2189.206160  	-0.000359 
2191.134976  	-0.000145 
2193.063792  	-0.000211 
2194.992608  	-0.000687 
2196.921424  	-0.000664 
2198.850240  	-0.000497 
2200.779056  	-0.000149 
2202.707872  	-0.000893 
2204.636688  	-0.001236 
2206.565504  	-0.000728 
2208.494320  	-0.000365 
2210.423136  	-0.000923 
2212.351952  	-0.001588 
2214.280768  	-0.001213 
2216.209584  	-0.000711 
2218.138400  	-0.001042 
2220.067216  	-0.001034 
2221.996032  	-0.001074 
2223.924848  	-0.001198 
2225.853664  	-0.001269 
2227.782480  	-0.001347 
2229.711296  	-0.000948 
2231.640112  	-0.001276 
2233.568928  	-0.001914 
2235.497744  	-0.001795 
2237.426560  	-0.001721 
2239.355376  	-0.002012 
2241.284192  	-0.002338 
2243.213008  	-0.002086 
2245.141824  	-0.001798 
2247.070640  	-0.001170 
2248.999456  	-0.001659 
2250.928272  	-0.001886 
2252.857088  	-0.001817 
2254.785904  	-0.001924 
2256.714720  	-0.001873 
2258.643536  	-0.002310 
2260.572352  	-0.002078 
2262.501168  	-0.001883 
2264.429984  	-0.002133 
2266.358800  	-0.002225 
2268.287616  	-0.001864 
2270.216432  	-0.001450 
2272.145248  	-0.001457 
2274.074064  	-0.001651 
2276.002880  	-0.001630 
2277.931696  	-0.001309 
2279.860512  	-0.000996 
2281.789328  	-0.000715 
2283.718144  	-0.000620 
2285.646960  	-0.000440 
2287.575776  	-0.000486 
2289.504592  	-0.000522 
2291.433408  	-0.000452 
2293.362224  	-0.000147 
2295.291040  	0.000098 
2297.219856  	0.000097 
2299.148672  	0.000338 
2301.077488  	0.000493 
2303.006304  	0.000472 
2304.935120  	0.000471 
2306.863936  	0.000803 
2308.792752  	0.001182 
2310.721568  	0.001090 
2312.650384  	0.001185 
2314.579200  	0.000940 
2316.508016  	0.000566 
2318.436832  	0.000661 
2320.365648  	0.001066 
2322.294464  	0.001266 
2324.223280  	0.000761 
2326.152096  	-0.000846 
2328.080912  	-0.001338 
2330.009728  	-0.001015 
2331.938544  	-0.001276 
2333.867360  	-0.002424 
2335.796176  	-0.003144 
2337.724992  	-0.003183 
2339.653808  	-0.003048 
2341.582624  	-0.002546 
2343.511440  	-0.001352 
2345.440256  	0.000527 
2347.369072  	0.000852 
2349.297888  	-0.000942 
2351.226704  	-0.002473 
2353.155520  	-0.003223 
2355.084336  	-0.003556 
2357.013152  	-0.003607 
2358.941968  	-0.003709 
2360.870784  	-0.002956 
2362.799600  	-0.002150 
2364.728416  	-0.001821 
2366.657232  	-0.001025 
2368.586048  	-0.000015 
2370.514864  	0.000948 
2372.443680  	0.001491 
2374.372496  	0.001790 
2376.301312  	0.002184 
2378.230128  	0.002356 
2380.158944  	0.002002 
2382.087760  	0.001232 
2384.016576  	0.000456 
2385.945392  	-0.000228 
2387.874208  	-0.000528 
2389.803024  	-0.000557 
2391.731840  	-0.000666 
2393.660656  	-0.000838 
2395.589472  	-0.000880 
2397.518288  	-0.000716 
2399.447104  	-0.000435 
2401.375920  	-0.000236 
2403.304736  	-0.000110 
2405.233552  	-0.000166 
2407.162368  	-0.000172 
2409.091184  	-0.000080 
2411.020000  	-0.000147 
2412.948816  	-0.000236 
2414.877632  	-0.000022 
2416.806448  	0.000216 
2418.735264  	0.000202 
2420.664080  	0.000175 
2422.592896  	0.000239 
2424.521712  	0.000366 
2426.450528  	0.000628 
2428.379344  	0.000796 
2430.308160  	0.000958 
2432.236976  	0.001059 
2434.165792  	0.000945 
2436.094608  	0.000882 
2438.023424  	0.001054 
2439.952240  	0.000986 
2441.881056  	0.000990 
2443.809872  	0.001240 
2445.738688  	0.001351 
2447.667504  	0.001481 
2449.596320  	0.001666 
2451.525136  	0.001757 
2453.453952  	0.001781 
2455.382768  	0.001680 
2457.311584  	0.001630 
2459.240400  	0.001617 
2461.169216  	0.001671 
2463.098032  	0.001845 
2465.026848  	0.002022 
2466.955664  	0.002012 
2468.884480  	0.002128 
2470.813296  	0.002401 
2472.742112  	0.002170 
2474.670928  	0.002239 
2476.599744  	0.002516 
2478.528560  	0.002602 
2480.457376  	0.002590 
2482.386192  	0.002526 
2484.315008  	0.002555 
2486.243824  	0.002553 
2488.172640  	0.002801 
2490.101456  	0.003116 
2492.030272  	0.003099 
2493.959088  	0.002912 
2495.887904  	0.002961 
2497.816720  	0.003240 
2499.745536  	0.003379 
2501.674352  	0.003552 
2503.603168  	0.003569 
2505.531984  	0.003714 
2507.460800  	0.003773 
2509.389616  	0.003798 
2511.318432  	0.003752 
2513.247248  	0.003598 
2515.176064  	0.003583 
2517.104880  	0.003807 
2519.033696  	0.004339 
2520.962512  	0.004511 
2522.891328  	0.004423 
2524.820144  	0.004580 
2526.748960  	0.004484 
2528.677776  	0.004404 
2530.606592  	0.004719 
2532.535408  	0.004867 
2534.464224  	0.004580 
2536.393040  	0.004422 
2538.321856  	0.004634 
2540.250672  	0.004655 
2542.179488  	0.004603 
2544.108304  	0.004830 
2546.037120  	0.004976 
2547.965936  	0.004979 
2549.894752  	0.005039 
2551.823568  	0.005103 
2553.752384  	0.004907 
2555.681200  	0.004966 
2557.610016  	0.005347 
2559.538832  	0.005525 
2561.467648  	0.005581 
2563.396464  	0.005543 
2565.325280  	0.005582 
2567.254096  	0.005769 
2569.182912  	0.005800 
2571.111728  	0.005968 
2573.040544  	0.006343 
2574.969360  	0.006553 
2576.898176  	0.006671 
2578.826992  	0.006763 
2580.755808  	0.006590 
2582.684624  	0.006526 
2584.613440  	0.006483 
2586.542256  	0.006616 
2588.471072  	0.006763 
2590.399888  	0.006784 
2592.328704  	0.006865 
2594.257520  	0.007033 
2596.186336  	0.007043 
2598.115152  	0.007009 
2600.043968  	0.007097 
2601.972784  	0.007229 
2603.901600  	0.007319 
2605.830416  	0.007449 
2607.759232  	0.007494 
2609.688048  	0.007311 
2611.616864  	0.007325 
2613.545680  	0.007682 
2615.474496  	0.007881 
2617.403312  	0.007877 
2619.332128  	0.008043 
2621.260944  	0.008176 
2623.189760  	0.008196 
2625.118576  	0.008313 
2627.047392  	0.008535 
2628.976208  	0.008687 
2630.905024  	0.008751 
2632.833840  	0.008886 
2634.762656  	0.008946 
2636.691472  	0.008939 
2638.620288  	0.009142 
2640.549104  	0.009359 
2642.477920  	0.009549 
2644.406736  	0.009566 
2646.335552  	0.009610 
2648.264368  	0.009780 
2650.193184  	0.009911 
2652.122000  	0.010079 
2654.050816  	0.010279 
2655.979632  	0.010406 
2657.908448  	0.010397 
2659.837264  	0.010330 
2661.766080  	0.010422 
2663.694896  	0.010506 
2665.623712  	0.010452 
2667.552528  	0.010648 
2669.481344  	0.010953 
2671.410160  	0.011067 
2673.338976  	0.011126 
2675.267792  	0.011314 
2677.196608  	0.011452 
2679.125424  	0.011476 
2681.054240  	0.011547 
2682.983056  	0.011636 
2684.911872  	0.011749 
2686.840688  	0.011926 
2688.769504  	0.012101 
2690.698320  	0.012191 
2692.627136  	0.012222 
2694.555952  	0.012298 
2696.484768  	0.012438 
2698.413584  	0.012601 
2700.342400  	0.012656 
2702.271216  	0.012676 
2704.200032  	0.012843 
2706.128848  	0.012941 
2708.057664  	0.013068 
2709.986480  	0.013235 
2711.915296  	0.013362 
2713.844112  	0.013404 
2715.772928  	0.013456 
2717.701744  	0.013487 
2719.630560  	0.013494 
2721.559376  	0.013663 
2723.488192  	0.013796 
2725.417008  	0.013944 
2727.345824  	0.014126 
2729.274640  	0.014235 
2731.203456  	0.014362 
2733.132272  	0.014519 
2735.061088  	0.014683 
2736.989904  	0.014792 
2738.918720  	0.014952 
2740.847536  	0.015011 
2742.776352  	0.015119 
2744.705168  	0.015251 
2746.633984  	0.015266 
2748.562800  	0.015415 
2750.491616  	0.015680 
2752.420432  	0.015811 
2754.349248  	0.015754 
2756.278064  	0.015723 
2758.206880  	0.015733 
2760.135696  	0.015855 
2762.064512  	0.015940 
2763.993328  	0.015950 
2765.922144  	0.015975 
2767.850960  	0.015989 
2769.779776  	0.016037 
2771.708592  	0.016002 
2773.637408  	0.015904 
2775.566224  	0.015797 
2777.495040  	0.015843 
2779.423856  	0.015851 
2781.352672  	0.015883 
2783.281488  	0.015940 
2785.210304  	0.015948 
2787.139120  	0.016034 
2789.067936  	0.016039 
2790.996752  	0.015981 
2792.925568  	0.015993 
2794.854384  	0.015877 
2796.783200  	0.015839 
2798.712016  	0.015935 
2800.640832  	0.015926 
2802.569648  	0.015939 
2804.498464  	0.016036 
2806.427280  	0.016072 
2808.356096  	0.016095 
2810.284912  	0.016132 
2812.213728  	0.016032 
2814.142544  	0.016036 
2816.071360  	0.016005 
2818.000176  	0.016122 
2819.928992  	0.016147 
2821.857808  	0.016108 
2823.786624  	0.016107 
2825.715440  	0.015995 
2827.644256  	0.015985 
2829.573072  	0.015999 
2831.501888  	0.015960 
2833.430704  	0.015834 
2835.359520  	0.015728 
2837.288336  	0.015761 
2839.217152  	0.015853 
2841.145968  	0.015775 
2843.074784  	0.015685 
2845.003600  	0.015580 
2846.932416  	0.015641 
2848.861232  	0.015738 
2850.790048  	0.015662 
2852.718864  	0.015713 
2854.647680  	0.015885 
2856.576496  	0.015969 
2858.505312  	0.015934 
2860.434128  	0.015903 
2862.362944  	0.016044 
2864.291760  	0.016031 
2866.220576  	0.016122 
2868.149392  	0.016217 
2870.078208  	0.016229 
2872.007024  	0.016374 
2873.935840  	0.016658 
2875.864656  	0.016898 
2877.793472  	0.017130 
2879.722288  	0.017406 
2881.651104  	0.017740 
2883.579920  	0.017831 
2885.508736  	0.017830 
2887.437552  	0.017956 
2889.366368  	0.017904 
2891.295184  	0.017751 
2893.224000  	0.017692 
2895.152816  	0.017731 
2897.081632  	0.017450 
2899.010448  	0.016865 
2900.939264  	0.016518 
2902.868080  	0.016619 
2904.796896  	0.016795 
2906.725712  	0.016838 
2908.654528  	0.016893 
2910.583344  	0.017210 
2912.512160  	0.017654 
2914.440976  	0.018067 
2916.369792  	0.018399 
2918.298608  	0.018625 
2920.227424  	0.018836 
2922.156240  	0.019015 
2924.085056  	0.019267 
2926.013872  	0.019772 
2927.942688  	0.020439 
2929.871504  	0.020967 
2931.800320  	0.021303 
2933.729136  	0.021739 
2935.657952  	0.022175 
2937.586768  	0.022468 
2939.515584  	0.022830 
2941.444400  	0.023125 
2943.373216  	0.023333 
2945.302032  	0.023390 
2947.230848  	0.023407 
2949.159664  	0.023439 
2951.088480  	0.023219 
2953.017296  	0.022951 
2954.946112  	0.022776 
2956.874928  	0.022470 
2958.803744  	0.022004 
2960.732560  	0.021635 
2962.661376  	0.021185 
2964.590192  	0.020696 
2966.519008  	0.020260 
2968.447824  	0.019606 
2970.376640  	0.018862 
2972.305456  	0.018230 
2974.234272  	0.017769 
2976.163088  	0.017205 
2978.091904  	0.016743 
2980.020720  	0.016429 
2981.949536  	0.016427 
2983.878352  	0.016485 
2985.807168  	0.016378 
2987.735984  	0.016388 
2989.664800  	0.016759 
2991.593616  	0.017431 
2993.522432  	0.017807 
2995.451248  	0.018067 
2997.380064  	0.018527 
2999.308880  	0.018900 
3001.237696  	0.019242 
3003.166512  	0.019513 
3005.095328  	0.019687 
3007.024144  	0.019884 
3008.952960  	0.020125 
3010.881776  	0.020322 
3012.810592  	0.020530 
3014.739408  	0.020837 
3016.668224  	0.021107 
3018.597040  	0.021391 
3020.525856  	0.021577 
3022.454672  	0.021852 
3024.383488  	0.022048 
3026.312304  	0.022262 
3028.241120  	0.022293 
3030.169936  	0.022400 
3032.098752  	0.022823 
3034.027568  	0.023096 
3035.956384  	0.023301 
3037.885200  	0.023289 
3039.814016  	0.023373 
3041.742832  	0.023537 
3043.671648  	0.023803 
3045.600464  	0.024241 
3047.529280  	0.024473 
3049.458096  	0.024620 
3051.386912  	0.024772 
3053.315728  	0.025012 
3055.244544  	0.025209 
3057.173360  	0.025621 
3059.102176  	0.025951 
3061.030992  	0.026197 
3062.959808  	0.026201 
3064.888624  	0.026438 
3066.817440  	0.027049 
3068.746256  	0.027598 
3070.675072  	0.027798 
3072.603888  	0.027977 
3074.532704  	0.028184 
3076.461520  	0.028330 
3078.390336  	0.028591 
3080.319152  	0.029107 
3082.247968  	0.029649 
3084.176784  	0.029934 
3086.105600  	0.030159 
3088.034416  	0.030662 
3089.963232  	0.031054 
3091.892048  	0.031137 
3093.820864  	0.031161 
3095.749680  	0.031612 
3097.678496  	0.031983 
3099.607312  	0.032433 
3101.536128  	0.033095 
3103.464944  	0.033512 
3105.393760  	0.033837 
3107.322576  	0.034024 
3109.251392  	0.034188 
3111.180208  	0.034512 
3113.109024  	0.034627 
3115.037840  	0.034647 
3116.966656  	0.034906 
3118.895472  	0.035305 
3120.824288  	0.035372 
3122.753104  	0.035475 
3124.681920  	0.035606 
3126.610736  	0.035746 
3128.539552  	0.036015 
3130.468368  	0.036068 
3132.397184  	0.036216 
3134.326000  	0.036370 
3136.254816  	0.036471 
3138.183632  	0.036616 
3140.112448  	0.036842 
3142.041264  	0.037081 
3143.970080  	0.037397 
3145.898896  	0.037609 
3147.827712  	0.037757 
3149.756528  	0.037848 
3151.685344  	0.038047 
3153.614160  	0.038270 
3155.542976  	0.038556 
3157.471792  	0.038904 
3159.400608  	0.039222 
3161.329424  	0.039266 
3163.258240  	0.039414 
3165.187056  	0.039834 
3167.115872  	0.039989 
3169.044688  	0.040091 
3170.973504  	0.040312 
3172.902320  	0.040361 
3174.831136  	0.040393 
3176.759952  	0.040547 
3178.688768  	0.040840 
3180.617584  	0.040987 
3182.546400  	0.040923 
3184.475216  	0.040894 
3186.404032  	0.040768 
3188.332848  	0.040725 
3190.261664  	0.040565 
3192.190480  	0.040369 
3194.119296  	0.040226 
3196.048112  	0.040074 
3197.976928  	0.040082 
3199.905744  	0.039925 
3201.834560  	0.039667 
3203.763376  	0.039506 
3205.692192  	0.039200 
3207.621008  	0.038719 
3209.549824  	0.038601 
3211.478640  	0.038366 
3213.407456  	0.038094 
3215.336272  	0.038132 
3217.265088  	0.037691 
3219.193904  	0.037357 
3221.122720  	0.037468 
3223.051536  	0.037367 
3224.980352  	0.037010 
3226.909168  	0.036686 
3228.837984  	0.036441 
3230.766800  	0.036273 
3232.695616  	0.036055 
3234.624432  	0.035682 
3236.553248  	0.035551 
3238.482064  	0.035756 
3240.410880  	0.035942 
3242.339696  	0.035699 
3244.268512  	0.035625 
3246.197328  	0.035925 
3248.126144  	0.035753 
3250.054960  	0.035903 
3251.983776  	0.035983 
3253.912592  	0.036027 
3255.841408  	0.036284 
3257.770224  	0.036562 
3259.699040  	0.036865 
3261.627856  	0.036920 
3263.556672  	0.036883 
3265.485488  	0.037148 
3267.414304  	0.037278 
3269.343120  	0.037369 
3271.271936  	0.037480 
3273.200752  	0.037657 
3275.129568  	0.038006 
3277.058384  	0.038215 
3278.987200  	0.038301 
3280.916016  	0.038381 
3282.844832  	0.038300 
3284.773648  	0.038267 
3286.702464  	0.038335 
3288.631280  	0.038483 
3290.560096  	0.038662 
3292.488912  	0.039133 
3294.417728  	0.039453 
3296.346544  	0.039531 
3298.275360  	0.039826 
3300.204176  	0.040013 
3302.132992  	0.040521 
3304.061808  	0.040786 
3305.990624  	0.040663 
3307.919440  	0.040900 
3309.848256  	0.041400 
3311.777072  	0.041776 
3313.705888  	0.042026 
3315.634704  	0.042172 
3317.563520  	0.042488 
3319.492336  	0.042774 
3321.421152  	0.042812 
3323.349968  	0.042898 
3325.278784  	0.043161 
3327.207600  	0.043374 
3329.136416  	0.043476 
3331.065232  	0.043556 
3332.994048  	0.043715 
3334.922864  	0.044207 
3336.851680  	0.044628 
3338.780496  	0.044430 
3340.709312  	0.043987 
3342.638128  	0.044000 
3344.566944  	0.043916 
3346.495760  	0.043743 
3348.424576  	0.043407 
3350.353392  	0.043322 
3352.282208  	0.043364 
3354.211024  	0.043281 
3356.139840  	0.043204 
3358.068656  	0.043037 
3359.997472  	0.042691 
3361.926288  	0.042508 
3363.855104  	0.042334 
3365.783920  	0.042385 
3367.712736  	0.042119 
3369.641552  	0.041847 
3371.570368  	0.041788 
3373.499184  	0.041521 
3375.428000  	0.041135 
3377.356816  	0.041106 
3379.285632  	0.041330 
3381.214448  	0.041262 
3383.143264  	0.041036 
3385.072080  	0.041026 
3387.000896  	0.040705 
3388.929712  	0.040336 
3390.858528  	0.039924 
3392.787344  	0.040230 
3394.716160  	0.040100 
3396.644976  	0.039849 
3398.573792  	0.039979 
3400.502608  	0.039624 
3402.431424  	0.039481 
3404.360240  	0.039499 
3406.289056  	0.039100 
3408.217872  	0.038767 
3410.146688  	0.038629 
3412.075504  	0.038396 
3414.004320  	0.038223 
3415.933136  	0.037862 
3417.861952  	0.037427 
3419.790768  	0.037315 
3421.719584  	0.037460 
3423.648400  	0.037197 
3425.577216  	0.036914 
3427.506032  	0.036698 
3429.434848  	0.036441 
3431.363664  	0.036070 
3433.292480  	0.035582 
3435.221296  	0.035180 
3437.150112  	0.034887 
3439.078928  	0.034558 
3441.007744  	0.034378 
3442.936560  	0.034537 
3444.865376  	0.033904 
3446.794192  	0.033970 
3448.723008  	0.034531 
3450.651824  	0.033543 
3452.580640  	0.032767 
3454.509456  	0.032443 
3456.438272  	0.032173 
3458.367088  	0.031420 
3460.295904  	0.030950 
3462.224720  	0.031111 
3464.153536  	0.030963 
3466.082352  	0.030396 
3468.011168  	0.029942 
3469.939984  	0.029245 
3471.868800  	0.028592 
3473.797616  	0.027994 
3475.726432  	0.027852 
3477.655248  	0.027166 
3479.584064  	0.026607 
3481.512880  	0.026751 
3483.441696  	0.026710 
3485.370512  	0.025644 
3487.299328  	0.025072 
3489.228144  	0.024913 
3491.156960  	0.024211 
3493.085776  	0.023212 
3495.014592  	0.022698 
3496.943408  	0.022660 
3498.872224  	0.022065 
3500.801040  	0.020905 
3502.729856  	0.021362 
3504.658672  	0.022171 
3506.587488  	0.020909 
3508.516304  	0.019937 
3510.445120  	0.020481 
3512.373936  	0.020089 
3514.302752  	0.019332 
3516.231568  	0.018366 
3518.160384  	0.017790 
3520.089200  	0.017096 
3522.018016  	0.016467 
3523.946832  	0.017265 
3525.875648  	0.016687 
3527.804464  	0.016261 
3529.733280  	0.016551 
3531.662096  	0.016223 
3533.590912  	0.015105 
3535.519728  	0.014802 
3537.448544  	0.015323 
3539.377360  	0.014298 
3541.306176  	0.013341 
3543.234992  	0.012709 
3545.163808  	0.013633 
3547.092624  	0.014821 
3549.021440  	0.013333 
3550.950256  	0.011466 
3552.879072  	0.012403 
3554.807888  	0.012305 
3556.736704  	0.011141 
3558.665520  	0.010497 
3560.594336  	0.010317 
3562.523152  	0.008953 
3564.451968  	0.006868 
3566.380784  	0.008889 
3568.309600  	0.013347 
3570.238416  	0.011100 
3572.167232  	0.008302 
3574.096048  	0.007232 
3576.024864  	0.006909 
3577.953680  	0.006644 
3579.882496  	0.006463 
3581.811312  	0.005786 
3583.740128  	0.003661 
3585.668944  	0.002166 
3587.597760  	0.006283 
3589.526576  	0.007643 
3591.455392  	0.003611 
3593.384208  	0.001991 
3595.313024  	0.003097 
3597.241840  	0.002695 
3599.170656  	0.001467 
3601.099472  	0.002040 
3603.028288  	0.001626 
3604.957104  	-0.001035 
3606.885920  	-0.001979 
3608.814736  	0.000250 
3610.743552  	-0.001151 
3612.672368  	-0.002298 
3614.601184  	-0.001848 
3616.530000  	-0.005033 
3618.458816  	-0.004918 
3620.387632  	-0.001192 
3622.316448  	-0.002439 
3624.245264  	-0.005825 
3626.174080  	-0.009884 
3628.102896  	-0.009241 
3630.031712  	-0.000623 
3631.960528  	-0.004370 
3633.889344  	-0.005930 
3635.818160  	-0.006279 
3637.746976  	-0.007748 
3639.675792  	-0.008483 
3641.604608  	-0.009142 
3643.533424  	-0.010523 
3645.462240  	-0.014415 
3647.391056  	-0.015257 
3649.319872  	-0.010159 
3651.248688  	-0.004935 
3653.177504  	-0.009583 
3655.106320  	-0.012870 
3657.035136  	-0.009483 
3658.963952  	-0.010106 
3660.892768  	-0.011457 
3662.821584  	-0.012060 
3664.750400  	-0.012895 
3666.679216  	-0.015373 
3668.608032  	-0.017041 
3670.536848  	-0.011743 
3672.465664  	-0.014280 
3674.394480  	-0.017801 
3676.323296  	-0.008836 
3678.252112  	-0.010449 
3680.180928  	-0.011383 
3682.109744  	-0.012104 
3684.038560  	-0.013471 
3685.967376  	-0.016313 
3687.896192  	-0.016830 
3689.825008  	-0.012473 
3691.753824  	-0.010207 
3693.682640  	-0.011053 
3695.611456  	-0.012016 
3697.540272  	-0.012420 
3699.469088  	-0.014288 
3701.397904  	-0.013048 
3703.326720  	-0.011019 
3705.255536  	-0.012570 
3707.184352  	-0.014774 
3709.113168  	-0.016279 
3711.041984  	-0.013470 
3712.970800  	-0.008675 
3714.899616  	-0.010001 
3716.828432  	-0.012710 
3718.757248  	-0.013145 
3720.686064  	-0.013652 
3722.614880  	-0.013106 
3724.543696  	-0.012599 
3726.472512  	-0.011425 
3728.401328  	-0.012271 
3730.330144  	-0.016215 
3732.258960  	-0.016855 
3734.187776  	-0.014925 
3736.116592  	-0.009392 
3738.045408  	-0.009490 
3739.974224  	-0.012801 
3741.903040  	-0.016689 
3743.831856  	-0.015630 
3745.760672  	-0.009729 
3747.689488  	-0.015587 
3749.618304  	-0.016065 
3751.547120  	-0.010290 
3753.475936  	-0.008451 
3755.404752  	-0.012261 
3757.333568  	-0.013335 
3759.262384  	-0.011481 
3761.191200  	-0.009813 
3763.120016  	-0.012598 
3765.048832  	-0.012434 
3766.977648  	-0.011882 
3768.906464  	-0.012548 
3770.835280  	-0.009702 
3772.764096  	-0.010262 
3774.692912  	-0.011763 
3776.621728  	-0.013158 
3778.550544  	-0.012941 
3780.479360  	-0.010005 
3782.408176  	-0.011530 
3784.336992  	-0.011820 
3786.265808  	-0.010663 
3788.194624  	-0.011011 
3790.123440  	-0.011620 
3792.052256  	-0.012191 
3793.981072  	-0.013826 
3795.909888  	-0.013760 
3797.838704  	-0.013173 
3799.767520  	-0.016033 
3801.696336  	-0.011491 
3803.625152  	-0.010360 
3805.553968  	-0.014073 
3807.482784  	-0.010076 
3809.411600  	-0.009945 
3811.340416  	-0.012104 
3813.269232  	-0.014998 
3815.198048  	-0.015318 
3817.126864  	-0.011740 
3819.055680  	-0.015695 
3820.984496  	-0.012345 
3822.913312  	-0.008443 
3824.842128  	-0.012354 
3826.770944  	-0.011968 
3828.699760  	-0.012232 
3830.628576  	-0.013687 
3832.557392  	-0.013162 
3834.486208  	-0.014313 
3836.415024  	-0.015126 
3838.343840  	-0.012659 
3840.272656  	-0.010603 
3842.201472  	-0.010985 
3844.130288  	-0.010213 
3846.059104  	-0.010953 
3847.987920  	-0.013659 
3849.916736  	-0.016973 
3851.845552  	-0.019080 
3853.774368  	-0.008840 
3855.703184  	-0.006824 
3857.632000  	-0.010118 
3859.560816  	-0.012773 
3861.489632  	-0.013917 
3863.418448  	-0.013273 
3865.347264  	-0.010584 
3867.276080  	-0.013534 
3869.204896  	-0.014275 
3871.133712  	-0.010005 
3873.062528  	-0.012138 
3874.991344  	-0.009998 
3876.920160  	-0.012192 
3878.848976  	-0.014418 
3880.777792  	-0.011345 
3882.706608  	-0.011896 
3884.635424  	-0.012971 
3886.564240  	-0.008704 
3888.493056  	-0.012142 
3890.421872  	-0.013663 
3892.350688  	-0.010167 
3894.279504  	-0.010522 
3896.208320  	-0.013322 
3898.137136  	-0.014455 
3900.065952  	-0.012912 
3901.994768  	-0.012037 
3903.923584  	-0.009705 
3905.852400  	-0.008322 
3907.781216  	-0.010253 
3909.710032  	-0.011570 
3911.638848  	-0.011824 
3913.567664  	-0.012476 
3915.496480  	-0.012798 
3917.425296  	-0.010961 
3919.354112  	-0.010676 
3921.282928  	-0.011496 
3923.211744  	-0.012203 
3925.140560  	-0.010601 
3927.069376  	-0.011223 
3928.998192  	-0.012510 
3930.927008  	-0.011772 
3932.855824  	-0.010035 
3934.784640  	-0.010376 
3936.713456  	-0.011570 
3938.642272  	-0.011771 
3940.571088  	-0.012425 
3942.499904  	-0.011266 
3944.428720  	-0.010604 
3946.357536  	-0.011934 
3948.286352  	-0.011643 
3950.215168  	-0.010883 
3952.143984  	-0.011210 
3954.072800  	-0.011678 
3956.001616  	-0.011682 
3957.930432  	-0.011636 
3959.859248  	-0.011785 
3961.788064  	-0.011411 
3963.716880  	-0.011108 
3965.645696  	-0.011497 
3967.574512  	-0.011764 
3969.503328  	-0.011604 
3971.432144  	-0.011677 
3973.360960  	-0.011756 
3975.289776  	-0.011489 
3977.218592  	-0.011319 
3979.147408  	-0.011513 
3981.076224  	-0.011657 
3983.005040  	-0.011341 
3984.933856  	-0.011253 
3986.862672  	-0.011419 
3988.791488  	-0.011633 
3990.720304  	-0.011622 
3992.649120  	-0.011563 
3994.577936  	-0.011399 
3996.506752  	-0.011399 
3998.435568  	-0.011625 
4000.364384  	-0.011739 