##TITLE=No Description
##DATA TYPE=INFRARED SPECTRUM
##XUNITS=1/CM
##YUNITS=Abs
399.264912  	0.597603 
401.193728  	0.580771 
403.122544  	0.565335 
405.051360  	0.549731 
406.980176  	0.557882 
408.908992  	0.550852 
410.837808  	0.531952 
412.766624  	0.525456 
414.695440  	0.541364 
416.624256  	0.542366 
418.553072  	0.557934 
420.481888  	0.546913 
422.410704  	0.526124 
424.339520  	0.502872 
426.268336  	0.510690 
428.197152  	0.512558 
430.125968  	0.507864 
432.054784  	0.502242 
433.983600  	0.493781 
435.912416  	0.486646 
437.841232  	0.491033 
439.770048  	0.496995 
441.698864  	0.505709 
443.627680  	0.497182 
445.556496  	0.493779 
447.485312  	0.492609 
449.414128  	0.490250 
451.342944  	0.485303 
453.271760  	0.482973 
455.200576  	0.479943 
457.129392  	0.480268 
459.058208  	0.474764 
460.987024  	0.477601 
462.915840  	0.474152 
464.844656  	0.476338 
466.773472  	0.474671 
468.702288  	0.474347 
470.631104  	0.470666 
472.559920  	0.470339 
474.488736  	0.469687 
476.417552  	0.471549 
478.346368  	0.467505 
480.275184  	0.470342 
482.204000  	0.471935 
484.132816  	0.471930 
486.061632  	0.467033 
487.990448  	0.464012 
489.919264  	0.461349 
491.848080  	0.464553 
493.776896  	0.464184 
495.705712  	0.461803 
497.634528  	0.459236 
499.563344  	0.461632 
501.492160  	0.458661 
503.420976  	0.454514 
505.349792  	0.451227 
507.278608  	0.451289 
509.207424  	0.449624 
511.136240  	0.452523 
513.065056  	0.453493 
514.993872  	0.455576 
516.922688  	0.454347 
518.851504  	0.455266 
520.780320  	0.453952 
522.709136  	0.453617 
524.637952  	0.450980 
526.566768  	0.451303 
528.495584  	0.448560 
530.424400  	0.449095 
532.353216  	0.445845 
534.282032  	0.440611 
536.210848  	0.434892 
538.139664  	0.431290 
540.068480  	0.426553 
541.997296  	0.423192 
543.926112  	0.420598 
545.854928  	0.418795 
547.783744  	0.415899 
549.712560  	0.413064 
551.641376  	0.408883 
553.570192  	0.406201 
555.499008  	0.403450 
557.427824  	0.401974 
559.356640  	0.399474 
561.285456  	0.396768 
563.214272  	0.393478 
565.143088  	0.391532 
567.071904  	0.387295 
569.000720  	0.384334 
570.929536  	0.380713 
572.858352  	0.378228 
574.787168  	0.376083 
576.715984  	0.374627 
578.644800  	0.371218 
580.573616  	0.367372 
582.502432  	0.363208 
584.431248  	0.360055 
586.360064  	0.356542 
588.288880  	0.354357 
590.217696  	0.351942 
592.146512  	0.349975 
594.075328  	0.347770 
596.004144  	0.346116 
597.932960  	0.344553 
599.861776  	0.343469 
601.790592  	0.341081 
603.719408  	0.338983 
605.648224  	0.337279 
607.577040  	0.336403 
609.505856  	0.333967 
611.434672  	0.333021 
613.363488  	0.331744 
615.292304  	0.330215 
617.221120  	0.327848 
619.149936  	0.326601 
621.078752  	0.324532 
623.007568  	0.323180 
624.936384  	0.321779 
626.865200  	0.320937 
628.794016  	0.320174 
630.722832  	0.319201 
632.651648  	0.318247 
634.580464  	0.316980 
636.509280  	0.316447 
638.438096  	0.316143 
640.366912  	0.315268 
642.295728  	0.314032 
644.224544  	0.311319 
646.153360  	0.309935 
648.082176  	0.307054 
650.010992  	0.303162 
651.939808  	0.298760 
653.868624  	0.296414 
655.797440  	0.292911 
657.726256  	0.289341 
659.655072  	0.285856 
661.583888  	0.282847 
663.512704  	0.278999 
665.441520  	0.274632 
667.370336  	0.270577 
669.299152  	0.268169 
671.227968  	0.264081 
673.156784  	0.260581 
675.085600  	0.258472 
677.014416  	0.257061 
678.943232  	0.254836 
680.872048  	0.252726 
682.800864  	0.250676 
684.729680  	0.248883 
686.658496  	0.246918 
688.587312  	0.245830 
690.516128  	0.244495 
692.444944  	0.243253 
694.373760  	0.241916 
696.302576  	0.240623 
698.231392  	0.238256 
700.160208  	0.236059 
702.089024  	0.234149 
704.017840  	0.232572 
705.946656  	0.229978 
707.875472  	0.227534 
709.804288  	0.225222 
711.733104  	0.223752 
713.661920  	0.222213 
715.590736  	0.221002 
717.519552  	0.220214 
719.448368  	0.219518 
721.377184  	0.218979 
723.306000  	0.219324 
725.234816  	0.219480 
727.163632  	0.218336 
729.092448  	0.216104 
731.021264  	0.213327 
732.950080  	0.210472 
734.878896  	0.207852 
736.807712  	0.205209 
738.736528  	0.203236 
740.665344  	0.201316 
742.594160  	0.200068 
744.522976  	0.198608 
746.451792  	0.197645 
748.380608  	0.196079 
750.309424  	0.194895 
752.238240  	0.193651 
754.167056  	0.192962 
756.095872  	0.191782 
758.024688  	0.190700 
759.953504  	0.190270 
761.882320  	0.190029 
763.811136  	0.190138 
765.739952  	0.188762 
767.668768  	0.186438 
769.597584  	0.184277 
771.526400  	0.182944 
773.455216  	0.183498 
775.384032  	0.185759 
777.312848  	0.189348 
779.241664  	0.191747 
781.170480  	0.191174 
783.099296  	0.187423 
785.028112  	0.182689 
786.956928  	0.177895 
788.885744  	0.174131 
790.814560  	0.170772 
792.743376  	0.168730 
794.672192  	0.167965 
796.601008  	0.166968 
798.529824  	0.164162 
800.458640  	0.160500 
802.387456  	0.157358 
804.316272  	0.155319 
806.245088  	0.154023 
808.173904  	0.153531 
810.102720  	0.153022 
812.031536  	0.152245 
813.960352  	0.151954 
815.889168  	0.152219 
817.817984  	0.152568 
819.746800  	0.152691 
821.675616  	0.152584 
823.604432  	0.152867 
825.533248  	0.153048 
827.462064  	0.152824 
829.390880  	0.151821 
831.319696  	0.151242 
833.248512  	0.149918 
835.177328  	0.148382 
837.106144  	0.146230 
839.034960  	0.143868 
840.963776  	0.141016 
842.892592  	0.138039 
844.821408  	0.134974 
846.750224  	0.132235 
848.679040  	0.130178 
850.607856  	0.128478 
852.536672  	0.127392 
854.465488  	0.126007 
856.394304  	0.124943 
858.323120  	0.123766 
860.251936  	0.122467 
862.180752  	0.121162 
864.109568  	0.119633 
866.038384  	0.118041 
867.967200  	0.116356 
869.896016  	0.114924 
871.824832  	0.113443 
873.753648  	0.112710 
875.682464  	0.112352 
877.611280  	0.112809 
879.540096  	0.114247 
881.468912  	0.116999 
883.397728  	0.119669 
885.326544  	0.121624 
887.255360  	0.123034 
889.184176  	0.123365 
891.112992  	0.122923 
893.041808  	0.121974 
894.970624  	0.120144 
896.899440  	0.117271 
898.828256  	0.113914 
900.757072  	0.110480 
902.685888  	0.107227 
904.614704  	0.105358 
906.543520  	0.104857 
908.472336  	0.105338 
910.401152  	0.106555 
912.329968  	0.108405 
914.258784  	0.110710 
916.187600  	0.112798 
918.116416  	0.114367 
920.045232  	0.115613 
921.974048  	0.116371 
923.902864  	0.116885 
925.831680  	0.117108 
927.760496  	0.117454 
929.689312  	0.117894 
931.618128  	0.118456 
933.546944  	0.118804 
935.475760  	0.119069 
937.404576  	0.118822 
939.333392  	0.117928 
941.262208  	0.117478 
943.191024  	0.117836 
945.119840  	0.119348 
947.048656  	0.122544 
948.977472  	0.127764 
950.906288  	0.134223 
952.835104  	0.142008 
954.763920  	0.151041 
956.692736  	0.160287 
958.621552  	0.169008 
960.550368  	0.175859 
962.479184  	0.180757 
964.408000  	0.182071 
966.336816  	0.179836 
968.265632  	0.174010 
970.194448  	0.165791 
972.123264  	0.155493 
974.052080  	0.144178 
975.980896  	0.132707 
977.909712  	0.121801 
979.838528  	0.112184 
981.767344  	0.104233 
983.696160  	0.098468 
985.624976  	0.094785 
987.553792  	0.093597 
989.482608  	0.094823 
991.411424  	0.098028 
993.340240  	0.102867 
995.269056  	0.108571 
997.197872  	0.114583 
999.126688  	0.120469 
1001.055504  	0.126645 
1002.984320  	0.132647 
1004.913136  	0.138725 
1006.841952  	0.144408 
1008.770768  	0.149802 
1010.699584  	0.154381 
1012.628400  	0.158203 
1014.557216  	0.160927 
1016.486032  	0.162933 
1018.414848  	0.164267 
1020.343664  	0.165067 
1022.272480  	0.165683 
1024.201296  	0.165990 
1026.130112  	0.165844 
1028.058928  	0.166209 
1029.987744  	0.167537 
1031.916560  	0.169151 
1033.845376  	0.170880 
1035.774192  	0.172981 
1037.703008  	0.175794 
1039.631824  	0.180546 
1041.560640  	0.187667 
1043.489456  	0.198665 
1045.418272  	0.212911 
1047.347088  	0.228878 
1049.275904  	0.243591 
1051.204720  	0.255413 
1053.133536  	0.262734 
1055.062352  	0.266810 
1056.991168  	0.268243 
1058.919984  	0.268934 
1060.848800  	0.268974 
1062.777616  	0.268793 
1064.706432  	0.267210 
1066.635248  	0.265063 
1068.564064  	0.261760 
1070.492880  	0.256880 
1072.421696  	0.251150 
1074.350512  	0.246972 
1076.279328  	0.245219 
1078.208144  	0.246926 
1080.136960  	0.250326 
1082.065776  	0.253299 
1083.994592  	0.253633 
1085.923408  	0.251158 
1087.852224  	0.245110 
1089.781040  	0.237415 
1091.709856  	0.227791 
1093.638672  	0.217199 
1095.567488  	0.205038 
1097.496304  	0.192731 
1099.425120  	0.180109 
1101.353936  	0.168142 
1103.282752  	0.156821 
1105.211568  	0.146173 
1107.140384  	0.136157 
1109.069200  	0.127071 
1110.998016  	0.118766 
1112.926832  	0.111175 
1114.855648  	0.104209 
1116.784464  	0.097599 
1118.713280  	0.090984 
1120.642096  	0.084569 
1122.570912  	0.078893 
1124.499728  	0.073971 
1126.428544  	0.069414 
1128.357360  	0.065434 
1130.286176  	0.062033 
1132.214992  	0.059270 
1134.143808  	0.056913 
1136.072624  	0.055041 
1138.001440  	0.053316 
1139.930256  	0.051881 
1141.859072  	0.050379 
1143.787888  	0.048984 
1145.716704  	0.047813 
1147.645520  	0.047006 
1149.574336  	0.046570 
1151.503152  	0.046302 
1153.431968  	0.046492 
1155.360784  	0.046532 
1157.289600  	0.046911 
1159.218416  	0.047535 
1161.147232  	0.048481 
1163.076048  	0.049422 
1165.004864  	0.050344 
1166.933680  	0.051305 
1168.862496  	0.052398 
1170.791312  	0.053739 
1172.720128  	0.055206 
1174.648944  	0.057233 
1176.577760  	0.059350 
1178.506576  	0.061615 
1180.435392  	0.063942 
1182.364208  	0.066276 
1184.293024  	0.069004 
1186.221840  	0.072093 
1188.150656  	0.075684 
1190.079472  	0.079836 
1192.008288  	0.084877 
1193.937104  	0.090787 
1195.865920  	0.097230 
1197.794736  	0.104416 
1199.723552  	0.111848 
1201.652368  	0.119771 
1203.581184  	0.127766 
1205.510000  	0.135194 
1207.438816  	0.141995 
1209.367632  	0.148413 
1211.296448  	0.153694 
1213.225264  	0.157993 
1215.154080  	0.160750 
1217.082896  	0.162610 
1219.011712  	0.163055 
1220.940528  	0.163150 
1222.869344  	0.162438 
1224.798160  	0.161048 
1226.726976  	0.158670 
1228.655792  	0.155807 
1230.584608  	0.152235 
1232.513424  	0.148412 
1234.442240  	0.144028 
1236.371056  	0.139241 
1238.299872  	0.133804 
1240.228688  	0.127773 
1242.157504  	0.121831 
1244.086320  	0.115876 
1246.015136  	0.109824 
1247.943952  	0.103791 
1249.872768  	0.097988 
1251.801584  	0.092595 
1253.730400  	0.087030 
1255.659216  	0.081782 
1257.588032  	0.076750 
1259.516848  	0.072035 
1261.445664  	0.067436 
1263.374480  	0.063347 
1265.303296  	0.059966 
1267.232112  	0.057176 
1269.160928  	0.055077 
1271.089744  	0.053856 
1273.018560  	0.053378 
1274.947376  	0.053503 
1276.876192  	0.053996 
1278.805008  	0.054361 
1280.733824  	0.054185 
1282.662640  	0.053049 
1284.591456  	0.051441 
1286.520272  	0.049934 
1288.449088  	0.049003 
1290.377904  	0.049086 
1292.306720  	0.049709 
1294.235536  	0.050107 
1296.164352  	0.049869 
1298.093168  	0.048524 
1300.021984  	0.046241 
1301.950800  	0.043828 
1303.879616  	0.041415 
1305.808432  	0.038768 
1307.737248  	0.036022 
1309.666064  	0.033479 
1311.594880  	0.031458 
1313.523696  	0.030069 
1315.452512  	0.028959 
1317.381328  	0.028356 
1319.310144  	0.028536 
1321.238960  	0.028928 
1323.167776  	0.029611 
1325.096592  	0.030290 
1327.025408  	0.030648 
1328.954224  	0.030511 
1330.883040  	0.029833 
1332.811856  	0.028667 
1334.740672  	0.027514 
1336.669488  	0.026793 
1338.598304  	0.026747 
1340.527120  	0.026740 
1342.455936  	0.026033 
1344.384752  	0.025733 
1346.313568  	0.025890 
1348.242384  	0.026536 
1350.171200  	0.027656 
1352.100016  	0.029057 
1354.028832  	0.030644 
1355.957648  	0.032550 
1357.886464  	0.034055 
1359.815280  	0.035428 
1361.744096  	0.037478 
1363.672912  	0.040448 
1365.601728  	0.041842 
1367.530544  	0.042944 
1369.459360  	0.044513 
1371.388176  	0.044838 
1373.316992  	0.044391 
1375.245808  	0.043789 
1377.174624  	0.041957 
1379.103440  	0.039891 
1381.032256  	0.037555 
1382.961072  	0.035500 
1384.889888  	0.033531 
1386.818704  	0.032736 
1388.747520  	0.031833 
1390.676336  	0.029573 
1392.605152  	0.026888 
1394.533968  	0.025868 
1396.462784  	0.026372 
1398.391600  	0.026216 
1400.320416  	0.026945 
1402.249232  	0.026594 
1404.178048  	0.027074 
1406.106864  	0.028465 
1408.035680  	0.029405 
1409.964496  	0.030542 
1411.893312  	0.032502 
1413.822128  	0.033968 
1415.750944  	0.034896 
1417.679760  	0.035743 
1419.608576  	0.038441 
1421.537392  	0.038302 
1423.466208  	0.037231 
1425.395024  	0.036604 
1427.323840  	0.034312 
1429.252656  	0.032219 
1431.181472  	0.031262 
1433.110288  	0.030403 
1435.039104  	0.029377 
1436.967920  	0.031911 
1438.896736  	0.033381 
1440.825552  	0.033246 
1442.754368  	0.033640 
1444.683184  	0.033374 
1446.612000  	0.032994 
1448.540816  	0.033776 
1450.469632  	0.033755 
1452.398448  	0.033185 
1454.327264  	0.031867 
1456.256080  	0.031053 
1458.184896  	0.034462 
1460.113712  	0.034907 
1462.042528  	0.033483 
1463.971344  	0.032602 
1465.900160  	0.034724 
1467.828976  	0.035478 
1469.757792  	0.035401 
1471.686608  	0.036841 
1473.615424  	0.043687 
1475.544240  	0.048182 
1477.473056  	0.052784 
1479.401872  	0.055153 
1481.330688  	0.057901 
1483.259504  	0.059912 
1485.188320  	0.060317 
1487.117136  	0.060106 
1489.045952  	0.060768 
1490.974768  	0.061454 
1492.903584  	0.058949 
1494.832400  	0.054285 
1496.761216  	0.050196 
1498.690032  	0.046601 
1500.618848  	0.043195 
1502.547664  	0.038449 
1504.476480  	0.032594 
1506.405296  	0.029295 
1508.334112  	0.033086 
1510.262928  	0.031451 
1512.191744  	0.030054 
1514.120560  	0.028587 
1516.049376  	0.027968 
1517.978192  	0.029356 
1519.907008  	0.028957 
1521.835824  	0.033655 
1523.764640  	0.037663 
1525.693456  	0.040252 
1527.622272  	0.043060 
1529.551088  	0.043326 
1531.479904  	0.041335 
1533.408720  	0.040035 
1535.337536  	0.038535 
1537.266352  	0.033599 
1539.195168  	0.028628 
1541.123984  	0.028993 
1543.052800  	0.029826 
1544.981616  	0.030094 
1546.910432  	0.028912 
1548.839248  	0.027335 
1550.768064  	0.027803 
1552.696880  	0.026304 
1554.625696  	0.025935 
1556.554512  	0.023116 
1558.483328  	0.023091 
1560.412144  	0.033915 
1562.340960  	0.033409 
1564.269776  	0.034117 
1566.198592  	0.037119 
1568.127408  	0.037982 
1570.056224  	0.044014 
1571.985040  	0.047873 
1573.913856  	0.047884 
1575.842672  	0.049798 
1577.771488  	0.054596 
1579.700304  	0.053777 
1581.629120  	0.052885 
1583.557936  	0.052017 
1585.486752  	0.052239 
1587.415568  	0.053413 
1589.344384  	0.056276 
1591.273200  	0.059953 
1593.202016  	0.064590 
1595.130832  	0.069947 
1597.059648  	0.075945 
1598.988464  	0.080557 
1600.917280  	0.084778 
1602.846096  	0.087989 
1604.774912  	0.090301 
1606.703728  	0.090496 
1608.632544  	0.090352 
1610.561360  	0.089093 
1612.490176  	0.087324 
1614.418992  	0.083587 
1616.347808  	0.083378 
1618.276624  	0.087196 
1620.205440  	0.087553 
1622.134256  	0.088108 
1624.063072  	0.094913 
1625.991888  	0.098925 
1627.920704  	0.105024 
1629.849520  	0.112768 
1631.778336  	0.117469 
1633.707152  	0.119696 
1635.635968  	0.128955 
1637.564784  	0.140787 
1639.493600  	0.144487 
1641.422416  	0.147876 
1643.351232  	0.149360 
1645.280048  	0.148491 
1647.208864  	0.153883 
1649.137680  	0.156004 
1651.066496  	0.150886 
1652.995312  	0.151055 
1654.924128  	0.158979 
1656.852944  	0.155459 
1658.781760  	0.152532 
1660.710576  	0.148914 
1662.639392  	0.146943 
1664.568208  	0.145250 
1666.497024  	0.140323 
1668.425840  	0.135220 
1670.354656  	0.132993 
1672.283472  	0.129605 
1674.212288  	0.125348 
1676.141104  	0.124612 
1678.069920  	0.121740 
1679.998736  	0.118981 
1681.927552  	0.115609 
1683.856368  	0.114854 
1685.785184  	0.120321 
1687.714000  	0.118748 
1689.642816  	0.118678 
1691.571632  	0.117957 
1693.500448  	0.115005 
1695.429264  	0.113078 
1697.358080  	0.113458 
1699.286896  	0.110889 
1701.215712  	0.114580 
1703.144528  	0.111653 
1705.073344  	0.108690 
1707.002160  	0.106939 
1708.930976  	0.103877 
1710.859792  	0.099160 
1712.788608  	0.093088 
1714.717424  	0.085490 
1716.646240  	0.077519 
1718.575056  	0.070209 
1720.503872  	0.062161 
1722.432688  	0.053973 
1724.361504  	0.045788 
1726.290320  	0.038464 
1728.219136  	0.031857 
1730.147952  	0.026103 
1732.076768  	0.020287 
1734.005584  	0.017569 
1735.934400  	0.015778 
1737.863216  	0.012282 
1739.792032  	0.010217 
1741.720848  	0.009093 
1743.649664  	0.007810 
1745.578480  	0.006204 
1747.507296  	0.004452 
1749.436112  	0.004287 
1751.364928  	0.004996 
1753.293744  	0.004310 
1755.222560  	0.002579 
1757.151376  	0.002977 
1759.080192  	0.002115 
1761.009008  	0.001463 
1762.937824  	0.002167 
1764.866640  	0.001563 
1766.795456  	0.000520 
1768.724272  	0.000397 
1770.653088  	-0.001777 
1772.581904  	-0.000754 
1774.510720  	0.000677 
1776.439536  	0.000562 
1778.368352  	-0.000168 
1780.297168  	-0.000283 
1782.225984  	-0.000258 
1784.154800  	-0.000321 
1786.083616  	-0.000253 
1788.012432  	-0.000892 
1789.941248  	-0.001933 
1791.870064  	-0.001667 
1793.798880  	-0.000758 
1795.727696  	-0.000949 
1797.656512  	-0.001830 
1799.585328  	-0.002194 
1801.514144  	-0.001138 
1803.442960  	-0.001047 
1805.371776  	-0.001742 
1807.300592  	-0.001980 
1809.229408  	-0.002352 
1811.158224  	-0.002091 
1813.087040  	-0.001910 
1815.015856  	-0.002379 
1816.944672  	-0.002352 
1818.873488  	-0.001997 
1820.802304  	-0.002290 
1822.731120  	-0.002788 
1824.659936  	-0.002770 
1826.588752  	-0.002594 
1828.517568  	-0.003643 
1830.446384  	-0.002379 
1832.375200  	-0.002003 
1834.304016  	-0.002221 
1836.232832  	-0.002263 
1838.161648  	-0.002297 
1840.090464  	-0.002714 
1842.019280  	-0.003543 
1843.948096  	-0.003278 
1845.876912  	-0.002151 
1847.805728  	-0.002129 
1849.734544  	-0.002045 
1851.663360  	-0.002601 
1853.592176  	-0.002596 
1855.520992  	-0.002804 
1857.449808  	-0.002626 
1859.378624  	-0.002616 
1861.307440  	-0.002429 
1863.236256  	-0.002958 
1865.165072  	-0.003706 
1867.093888  	-0.004389 
1869.022704  	-0.003244 
1870.951520  	-0.002504 
1872.880336  	-0.002904 
1874.809152  	-0.003238 
1876.737968  	-0.003225 
1878.666784  	-0.003306 
1880.595600  	-0.003169 
1882.524416  	-0.003366 
1884.453232  	-0.003575 
1886.382048  	-0.003661 
1888.310864  	-0.003275 
1890.239680  	-0.002434 
1892.168496  	-0.002637 
1894.097312  	-0.003684 
1896.026128  	-0.003587 
1897.954944  	-0.003362 
1899.883760  	-0.003300 
1901.812576  	-0.003145 
1903.741392  	-0.002881 
1905.670208  	-0.003280 
1907.599024  	-0.003252 
1909.527840  	-0.003080 
1911.456656  	-0.003043 
1913.385472  	-0.002991 
1915.314288  	-0.003127 
1917.243104  	-0.003648 
1919.171920  	-0.002836 
1921.100736  	-0.003154 
1923.029552  	-0.002702 
1924.958368  	-0.003262 
1926.887184  	-0.003778 
1928.816000  	-0.003304 
1930.744816  	-0.002961 
1932.673632  	-0.003496 
1934.602448  	-0.003579 
1936.531264  	-0.003885 
1938.460080  	-0.004466 
1940.388896  	-0.004884 
1942.317712  	-0.003736 
1944.246528  	-0.003693 
1946.175344  	-0.004259 
1948.104160  	-0.004348 
1950.032976  	-0.004392 
1951.961792  	-0.003953 
1953.890608  	-0.003165 
1955.819424  	-0.003430 
1957.748240  	-0.003715 
1959.677056  	-0.004462 
1961.605872  	-0.003965 
1963.534688  	-0.004237 
1965.463504  	-0.004857 
1967.392320  	-0.006239 
1969.321136  	-0.005776 
1971.249952  	-0.005225 
1973.178768  	-0.005235 
1975.107584  	-0.005117 
1977.036400  	-0.004238 
1978.965216  	-0.003062 
1980.894032  	-0.002817 
1982.822848  	-0.003804 
1984.751664  	-0.003536 
1986.680480  	-0.003725 
1988.609296  	-0.003580 
1990.538112  	-0.003700 
1992.466928  	-0.004137 
1994.395744  	-0.004980 
1996.324560  	-0.003947 
1998.253376  	-0.003779 
2000.182192  	-0.003742 
2002.111008  	-0.004321 
2004.039824  	-0.004614 
2005.968640  	-0.004715 
2007.897456  	-0.004788 
2009.826272  	-0.004414 
2011.755088  	-0.003969 
2013.683904  	-0.004452 
2015.612720  	-0.004088 
2017.541536  	-0.002595 
2019.470352  	-0.000945 
2021.399168  	-0.001359 
2023.327984  	-0.001380 
2025.256800  	-0.002357 
2027.185616  	-0.002925 
2029.114432  	-0.003658 
2031.043248  	-0.003553 
2032.972064  	-0.001839 
2034.900880  	-0.000371 
2036.829696  	-0.000655 
2038.758512  	-0.000704 
2040.687328  	-0.000553 
2042.616144  	-0.000474 
2044.544960  	-0.001315 
2046.473776  	-0.000665 
2048.402592  	-0.000182 
2050.331408  	-0.000458 
2052.260224  	-0.001969 
2054.189040  	-0.002445 
2056.117856  	-0.002141 
2058.046672  	-0.001806 
2059.975488  	-0.001692 
2061.904304  	-0.001799 
2063.833120  	-0.002345 
2065.761936  	-0.001933 
2067.690752  	-0.001413 
2069.619568  	-0.001176 
2071.548384  	-0.001539 
2073.477200  	-0.001442 
2075.406016  	-0.001477 
2077.334832  	-0.001486 
2079.263648  	-0.001078 
2081.192464  	-0.000843 
2083.121280  	-0.001490 
2085.050096  	-0.001845 
2086.978912  	-0.001942 
2088.907728  	-0.001210 
2090.836544  	-0.001377 
2092.765360  	-0.001935 
2094.694176  	-0.002308 
2096.622992  	-0.001655 
2098.551808  	-0.001001 
2100.480624  	-0.001207 
2102.409440  	-0.001798 
2104.338256  	-0.001872 
2106.267072  	-0.001458 
2108.195888  	-0.000816 
2110.124704  	-0.001030 
2112.053520  	-0.001240 
2113.982336  	-0.001277 
2115.911152  	-0.000922 
2117.839968  	-0.000928 
2119.768784  	-0.001447 
2121.697600  	-0.002142 
2123.626416  	-0.001944 
2125.555232  	-0.002286 
2127.484048  	-0.002561 
2129.412864  	-0.002965 
2131.341680  	-0.003291 
2133.270496  	-0.003549 
2135.199312  	-0.002582 
2137.128128  	-0.001710 
2139.056944  	-0.001624 
2140.985760  	-0.002532 
2142.914576  	-0.002732 
2144.843392  	-0.002090 
2146.772208  	-0.001866 
2148.701024  	-0.002003 
2150.629840  	-0.001346 
2152.558656  	-0.001883 
2154.487472  	-0.001789 
2156.416288  	-0.001387 
2158.345104  	0.001191 
2160.273920  	0.003151 
2162.202736  	0.002841 
2164.131552  	0.002519 
2166.060368  	0.002793 
2167.989184  	0.001668 
2169.918000  	0.001231 
2171.846816  	0.000611 
2173.775632  	-0.000019 
2175.704448  	-0.000179 
2177.633264  	-0.000349 
2179.562080  	-0.001299 
2181.490896  	-0.001294 
2183.419712  	-0.000580 
2185.348528  	-0.000729 
2187.277344  	-0.000530 
2189.206160  	0.000104 
2191.134976  	0.000304 
2193.063792  	0.001391 
2194.992608  	0.000789 
2196.921424  	0.000086 
2198.850240  	0.000416 
2200.779056  	0.000355 
2202.707872  	-0.000624 
2204.636688  	-0.000250 
2206.565504  	0.000438 
2208.494320  	0.000726 
2210.423136  	-0.000123 
2212.351952  	-0.000455 
2214.280768  	-0.000390 
2216.209584  	-0.000351 
2218.138400  	-0.000733 
2220.067216  	-0.000577 
2221.996032  	-0.000108 
2223.924848  	0.000265 
2225.853664  	-0.000168 
2227.782480  	-0.000646 
2229.711296  	-0.000285 
2231.640112  	-0.000531 
2233.568928  	-0.001087 
2235.497744  	-0.000943 
2237.426560  	-0.000690 
2239.355376  	-0.000573 
2241.284192  	-0.000622 
2243.213008  	-0.000967 
2245.141824  	-0.001246 
2247.070640  	-0.000585 
2248.999456  	-0.001062 
2250.928272  	-0.001394 
2252.857088  	-0.001492 
2254.785904  	-0.001341 
2256.714720  	-0.001200 
2258.643536  	-0.001568 
2260.572352  	-0.001931 
2262.501168  	-0.001463 
2264.429984  	-0.001169 
2266.358800  	-0.001201 
2268.287616  	-0.000893 
2270.216432  	-0.000658 
2272.145248  	-0.000884 
2274.074064  	-0.000796 
2276.002880  	-0.000564 
2277.931696  	-0.000319 
2279.860512  	-0.000034 
2281.789328  	0.000258 
2283.718144  	0.000375 
2285.646960  	0.000409 
2287.575776  	0.000291 
2289.504592  	0.000456 
2291.433408  	0.000470 
2293.362224  	0.000652 
2295.291040  	0.000904 
2297.219856  	0.000919 
2299.148672  	0.000880 
2301.077488  	0.001093 
2303.006304  	0.001167 
2304.935120  	0.001114 
2306.863936  	0.001251 
2308.792752  	0.001408 
2310.721568  	0.001422 
2312.650384  	0.001203 
2314.579200  	0.000913 
2316.508016  	0.000790 
2318.436832  	0.000602 
2320.365648  	0.000593 
2322.294464  	0.000557 
2324.223280  	-0.000008 
2326.152096  	-0.001892 
2328.080912  	-0.002885 
2330.009728  	-0.002915 
2331.938544  	-0.002840 
2333.867360  	-0.003766 
2335.796176  	-0.004711 
2337.724992  	-0.004969 
2339.653808  	-0.005059 
2341.582624  	-0.004805 
2343.511440  	-0.003173 
2345.440256  	-0.001117 
2347.369072  	-0.000195 
2349.297888  	-0.001437 
2351.226704  	-0.003493 
2353.155520  	-0.005156 
2355.084336  	-0.006080 
2357.013152  	-0.006574 
2358.941968  	-0.006885 
2360.870784  	-0.006296 
2362.799600  	-0.005239 
2364.728416  	-0.004675 
2366.657232  	-0.003768 
2368.586048  	-0.002367 
2370.514864  	-0.000907 
2372.443680  	0.000183 
2374.372496  	0.001050 
2376.301312  	0.001749 
2378.230128  	0.002288 
2380.158944  	0.002313 
2382.087760  	0.002000 
2384.016576  	0.001450 
2385.945392  	0.000767 
2387.874208  	0.000430 
2389.803024  	0.000378 
2391.731840  	0.000333 
2393.660656  	0.000302 
2395.589472  	0.000299 
2397.518288  	0.000225 
2399.447104  	0.000213 
2401.375920  	0.000557 
2403.304736  	0.000777 
2405.233552  	0.000795 
2407.162368  	0.000766 
2409.091184  	0.000755 
2411.020000  	0.000822 
2412.948816  	0.000818 
2414.877632  	0.000902 
2416.806448  	0.001161 
2418.735264  	0.001118 
2420.664080  	0.000945 
2422.592896  	0.001055 
2424.521712  	0.001332 
2426.450528  	0.001603 
2428.379344  	0.001689 
2430.308160  	0.001752 
2432.236976  	0.001893 
2434.165792  	0.001951 
2436.094608  	0.001951 
2438.023424  	0.001848 
2439.952240  	0.001785 
2441.881056  	0.001731 
2443.809872  	0.001932 
2445.738688  	0.002246 
2447.667504  	0.002435 
2449.596320  	0.002513 
2451.525136  	0.002568 
2453.453952  	0.002547 
2455.382768  	0.002603 
2457.311584  	0.002738 
2459.240400  	0.002625 
2461.169216  	0.002491 
2463.098032  	0.002583 
2465.026848  	0.002761 
2466.955664  	0.002893 
2468.884480  	0.003000 
2470.813296  	0.003032 
2472.742112  	0.003025 
2474.670928  	0.003156 
2476.599744  	0.003208 
2478.528560  	0.003237 
2480.457376  	0.003182 
2482.386192  	0.003095 
2484.315008  	0.003173 
2486.243824  	0.003327 
2488.172640  	0.003718 
2490.101456  	0.004190 
2492.030272  	0.004258 
2493.959088  	0.004037 
2495.887904  	0.004071 
2497.816720  	0.004290 
2499.745536  	0.004362 
2501.674352  	0.004569 
2503.603168  	0.004543 
2505.531984  	0.004606 
2507.460800  	0.004809 
2509.389616  	0.004717 
2511.318432  	0.004568 
2513.247248  	0.004738 
2515.176064  	0.005001 
2517.104880  	0.005385 
2519.033696  	0.005696 
2520.962512  	0.005639 
2522.891328  	0.005522 
2524.820144  	0.005764 
2526.748960  	0.005703 
2528.677776  	0.005442 
2530.606592  	0.005364 
2532.535408  	0.005570 
2534.464224  	0.005539 
2536.393040  	0.005501 
2538.321856  	0.005763 
2540.250672  	0.005896 
2542.179488  	0.005991 
2544.108304  	0.006117 
2546.037120  	0.006225 
2547.965936  	0.006281 
2549.894752  	0.006252 
2551.823568  	0.006236 
2553.752384  	0.006214 
2555.681200  	0.006325 
2557.610016  	0.006609 
2559.538832  	0.006757 
2561.467648  	0.006821 
2563.396464  	0.006973 
2565.325280  	0.007004 
2567.254096  	0.007063 
2569.182912  	0.007268 
2571.111728  	0.007489 
2573.040544  	0.007707 
2574.969360  	0.007995 
2576.898176  	0.008267 
2578.826992  	0.008165 
2580.755808  	0.008112 
2582.684624  	0.008212 
2584.613440  	0.008129 
2586.542256  	0.008164 
2588.471072  	0.008321 
2590.399888  	0.008366 
2592.328704  	0.008397 
2594.257520  	0.008629 
2596.186336  	0.008769 
2598.115152  	0.008759 
2600.043968  	0.008884 
2601.972784  	0.008941 
2603.901600  	0.008963 
2605.830416  	0.009149 
2607.759232  	0.009292 
2609.688048  	0.009185 
2611.616864  	0.009193 
2613.545680  	0.009417 
2615.474496  	0.009471 
2617.403312  	0.009652 
2619.332128  	0.009863 
2621.260944  	0.010031 
2623.189760  	0.010054 
2625.118576  	0.010215 
2627.047392  	0.010390 
2628.976208  	0.010549 
2630.905024  	0.010650 
2632.833840  	0.010830 
2634.762656  	0.010991 
2636.691472  	0.011067 
2638.620288  	0.011315 
2640.549104  	0.011514 
2642.477920  	0.011568 
2644.406736  	0.011608 
2646.335552  	0.011779 
2648.264368  	0.011988 
2650.193184  	0.012043 
2652.122000  	0.012145 
2654.050816  	0.012361 
2655.979632  	0.012420 
2657.908448  	0.012432 
2659.837264  	0.012665 
2661.766080  	0.012870 
2663.694896  	0.012833 
2665.623712  	0.012788 
2667.552528  	0.012915 
2669.481344  	0.013086 
2671.410160  	0.013346 
2673.338976  	0.013464 
2675.267792  	0.013523 
2677.196608  	0.013695 
2679.125424  	0.013840 
2681.054240  	0.013953 
2682.983056  	0.013980 
2684.911872  	0.014120 
2686.840688  	0.014198 
2688.769504  	0.014352 
2690.698320  	0.014554 
2692.627136  	0.014706 
2694.555952  	0.014875 
2696.484768  	0.014966 
2698.413584  	0.015068 
2700.342400  	0.015148 
2702.271216  	0.015300 
2704.200032  	0.015513 
2706.128848  	0.015590 
2708.057664  	0.015713 
2709.986480  	0.015808 
2711.915296  	0.015927 
2713.844112  	0.016051 
2715.772928  	0.016228 
2717.701744  	0.016331 
2719.630560  	0.016436 
2721.559376  	0.016616 
2723.488192  	0.016663 
2725.417008  	0.016801 
2727.345824  	0.017032 
2729.274640  	0.017149 
2731.203456  	0.017216 
2733.132272  	0.017413 
2735.061088  	0.017710 
2736.989904  	0.017759 
2738.918720  	0.017753 
2740.847536  	0.017873 
2742.776352  	0.018088 
2744.705168  	0.018258 
2746.633984  	0.018313 
2748.562800  	0.018402 
2750.491616  	0.018619 
2752.420432  	0.018859 
2754.349248  	0.018878 
2756.278064  	0.018880 
2758.206880  	0.018883 
2760.135696  	0.018928 
2762.064512  	0.018993 
2763.993328  	0.019072 
2765.922144  	0.019099 
2767.850960  	0.019208 
2769.779776  	0.019274 
2771.708592  	0.019209 
2773.637408  	0.019132 
2775.566224  	0.019189 
2777.495040  	0.019324 
2779.423856  	0.019294 
2781.352672  	0.019235 
2783.281488  	0.019241 
2785.210304  	0.019324 
2787.139120  	0.019417 
2789.067936  	0.019472 
2790.996752  	0.019457 
2792.925568  	0.019450 
2794.854384  	0.019465 
2796.783200  	0.019467 
2798.712016  	0.019581 
2800.640832  	0.019701 
2802.569648  	0.019612 
2804.498464  	0.019546 
2806.427280  	0.019569 
2808.356096  	0.019668 
2810.284912  	0.019872 
2812.213728  	0.019842 
2814.142544  	0.019819 
2816.071360  	0.019868 
2818.000176  	0.019920 
2819.928992  	0.019826 
2821.857808  	0.019881 
2823.786624  	0.019954 
2825.715440  	0.019940 
2827.644256  	0.019866 
2829.573072  	0.019753 
2831.501888  	0.019772 
2833.430704  	0.019754 
2835.359520  	0.019625 
2837.288336  	0.019565 
2839.217152  	0.019561 
2841.145968  	0.019523 
2843.074784  	0.019535 
2845.003600  	0.019463 
2846.932416  	0.019508 
2848.861232  	0.019681 
2850.790048  	0.019648 
2852.718864  	0.019624 
2854.647680  	0.019721 
2856.576496  	0.019751 
2858.505312  	0.019717 
2860.434128  	0.019753 
2862.362944  	0.019853 
2864.291760  	0.019902 
2866.220576  	0.019904 
2868.149392  	0.020055 
2870.078208  	0.020144 
2872.007024  	0.020297 
2873.935840  	0.020630 
2875.864656  	0.020951 
2877.793472  	0.021312 
2879.722288  	0.021578 
2881.651104  	0.021827 
2883.579920  	0.021949 
2885.508736  	0.022042 
2887.437552  	0.022262 
2889.366368  	0.022251 
2891.295184  	0.022134 
2893.224000  	0.022130 
2895.152816  	0.022199 
2897.081632  	0.021920 
2899.010448  	0.021209 
2900.939264  	0.020758 
2902.868080  	0.020986 
2904.796896  	0.021243 
2906.725712  	0.021341 
2908.654528  	0.021398 
2910.583344  	0.021700 
2912.512160  	0.022222 
2914.440976  	0.022642 
2916.369792  	0.022972 
2918.298608  	0.023316 
2920.227424  	0.023756 
2922.156240  	0.024132 
2924.085056  	0.024603 
2926.013872  	0.025214 
2927.942688  	0.025696 
2929.871504  	0.026188 
2931.800320  	0.026670 
2933.729136  	0.027262 
2935.657952  	0.027821 
2937.586768  	0.028160 
2939.515584  	0.028527 
2941.444400  	0.028919 
2943.373216  	0.029115 
2945.302032  	0.029140 
2947.230848  	0.029049 
2949.159664  	0.029063 
2951.088480  	0.028962 
2953.017296  	0.028852 
2954.946112  	0.028489 
2956.874928  	0.027976 
2958.803744  	0.027532 
2960.732560  	0.026996 
2962.661376  	0.026466 
2964.590192  	0.026034 
2966.519008  	0.025427 
2968.447824  	0.024684 
2970.376640  	0.024021 
2972.305456  	0.023309 
2974.234272  	0.022734 
2976.163088  	0.022260 
2978.091904  	0.021887 
2980.020720  	0.021562 
2981.949536  	0.021428 
2983.878352  	0.021448 
2985.807168  	0.021426 
2987.735984  	0.021489 
2989.664800  	0.021830 
2991.593616  	0.022628 
2993.522432  	0.023196 
2995.451248  	0.023579 
2997.380064  	0.024122 
2999.308880  	0.024489 
3001.237696  	0.024781 
3003.166512  	0.025076 
3005.095328  	0.025341 
3007.024144  	0.025704 
3008.952960  	0.026133 
3010.881776  	0.026409 
3012.810592  	0.026657 
3014.739408  	0.026995 
3016.668224  	0.027356 
3018.597040  	0.027677 
3020.525856  	0.027902 
3022.454672  	0.028235 
3024.383488  	0.028504 
3026.312304  	0.028860 
3028.241120  	0.029093 
3030.169936  	0.029302 
3032.098752  	0.029698 
3034.027568  	0.029891 
3035.956384  	0.030121 
3037.885200  	0.030373 
3039.814016  	0.030635 
3041.742832  	0.030859 
3043.671648  	0.031105 
3045.600464  	0.031510 
3047.529280  	0.031753 
3049.458096  	0.031901 
3051.386912  	0.032129 
3053.315728  	0.032357 
3055.244544  	0.032523 
3057.173360  	0.033052 
3059.102176  	0.033487 
3061.030992  	0.033618 
3062.959808  	0.033811 
3064.888624  	0.034336 
3066.817440  	0.034998 
3068.746256  	0.035418 
3070.675072  	0.035526 
3072.603888  	0.035724 
3074.532704  	0.036267 
3076.461520  	0.036724 
3078.390336  	0.037048 
3080.319152  	0.037622 
3082.247968  	0.037994 
3084.176784  	0.038256 
3086.105600  	0.038710 
3088.034416  	0.039241 
3089.963232  	0.039719 
3091.892048  	0.039932 
3093.820864  	0.040025 
3095.749680  	0.040555 
3097.678496  	0.041170 
3099.607312  	0.041647 
3101.536128  	0.042182 
3103.464944  	0.042625 
3105.393760  	0.043026 
3107.322576  	0.043309 
3109.251392  	0.043473 
3111.180208  	0.043687 
3113.109024  	0.043793 
3115.037840  	0.043928 
3116.966656  	0.044326 
3118.895472  	0.044826 
3120.824288  	0.045002 
3122.753104  	0.045238 
3124.681920  	0.045471 
3126.610736  	0.045708 
3128.539552  	0.045927 
3130.468368  	0.045876 
3132.397184  	0.046102 
3134.326000  	0.046313 
3136.254816  	0.046271 
3138.183632  	0.046505 
3140.112448  	0.046980 
3142.041264  	0.047278 
3143.970080  	0.047378 
3145.898896  	0.047583 
3147.827712  	0.047850 
3149.756528  	0.047978 
3151.685344  	0.048299 
3153.614160  	0.048601 
3155.542976  	0.048834 
3157.471792  	0.049218 
3159.400608  	0.049551 
3161.329424  	0.049648 
3163.258240  	0.049726 
3165.187056  	0.050000 
3167.115872  	0.050402 
3169.044688  	0.050761 
3170.973504  	0.050981 
3172.902320  	0.050920 
3174.831136  	0.050635 
3176.759952  	0.050707 
3178.688768  	0.051395 
3180.617584  	0.051599 
3182.546400  	0.051321 
3184.475216  	0.051356 
3186.404032  	0.051535 
3188.332848  	0.051315 
3190.261664  	0.051051 
3192.190480  	0.050979 
3194.119296  	0.050802 
3196.048112  	0.050567 
3197.976928  	0.050456 
3199.905744  	0.050388 
3201.834560  	0.050193 
3203.763376  	0.049923 
3205.692192  	0.049412 
3207.621008  	0.048916 
3209.549824  	0.048963 
3211.478640  	0.048891 
3213.407456  	0.048485 
3215.336272  	0.048372 
3217.265088  	0.047890 
3219.193904  	0.047634 
3221.122720  	0.047662 
3223.051536  	0.047419 
3224.980352  	0.046961 
3226.909168  	0.046610 
3228.837984  	0.046367 
3230.766800  	0.046089 
3232.695616  	0.045832 
3234.624432  	0.045624 
3236.553248  	0.045331 
3238.482064  	0.045264 
3240.410880  	0.045431 
3242.339696  	0.045433 
3244.268512  	0.045339 
3246.197328  	0.045647 
3248.126144  	0.045456 
3250.054960  	0.045440 
3251.983776  	0.045326 
3253.912592  	0.045474 
3255.841408  	0.045793 
3257.770224  	0.046065 
3259.699040  	0.046174 
3261.627856  	0.046186 
3263.556672  	0.046211 
3265.485488  	0.046392 
3267.414304  	0.046590 
3269.343120  	0.046615 
3271.271936  	0.046508 
3273.200752  	0.046808 
3275.129568  	0.047368 
3277.058384  	0.047622 
3278.987200  	0.047628 
3280.916016  	0.047628 
3282.844832  	0.047643 
3284.773648  	0.047681 
3286.702464  	0.047681 
3288.631280  	0.047780 
3290.560096  	0.047853 
3292.488912  	0.048520 
3294.417728  	0.048919 
3296.346544  	0.049023 
3298.275360  	0.049257 
3300.204176  	0.049506 
3302.132992  	0.049881 
3304.061808  	0.050064 
3305.990624  	0.050124 
3307.919440  	0.050435 
3309.848256  	0.050876 
3311.777072  	0.051214 
3313.705888  	0.051504 
3315.634704  	0.051647 
3317.563520  	0.051792 
3319.492336  	0.052306 
3321.421152  	0.052602 
3323.349968  	0.052502 
3325.278784  	0.052701 
3327.207600  	0.053029 
3329.136416  	0.053223 
3331.065232  	0.053261 
3332.994048  	0.053325 
3334.922864  	0.053577 
3336.851680  	0.054003 
3338.780496  	0.054095 
3340.709312  	0.053605 
3342.638128  	0.053334 
3344.566944  	0.053228 
3346.495760  	0.053063 
3348.424576  	0.052704 
3350.353392  	0.052541 
3352.282208  	0.052367 
3354.211024  	0.052203 
3356.139840  	0.052140 
3358.068656  	0.051977 
3359.997472  	0.051683 
3361.926288  	0.051368 
3363.855104  	0.050950 
3365.783920  	0.050845 
3367.712736  	0.050627 
3369.641552  	0.050329 
3371.570368  	0.050302 
3373.499184  	0.050181 
3375.428000  	0.049668 
3377.356816  	0.049494 
3379.285632  	0.049495 
3381.214448  	0.049148 
3383.143264  	0.048868 
3385.072080  	0.048897 
3387.000896  	0.048733 
3388.929712  	0.048408 
3390.858528  	0.047690 
3392.787344  	0.047824 
3394.716160  	0.047945 
3396.644976  	0.047732 
3398.573792  	0.047453 
3400.502608  	0.046917 
3402.431424  	0.046827 
3404.360240  	0.046796 
3406.289056  	0.046410 
3408.217872  	0.045942 
3410.146688  	0.045609 
3412.075504  	0.045415 
3414.004320  	0.045303 
3415.933136  	0.044864 
3417.861952  	0.044130 
3419.790768  	0.043919 
3421.719584  	0.044270 
3423.648400  	0.043985 
3425.577216  	0.043444 
3427.506032  	0.043230 
3429.434848  	0.042811 
3431.363664  	0.042675 
3433.292480  	0.042457 
3435.221296  	0.041877 
3437.150112  	0.041505 
3439.078928  	0.040951 
3441.007744  	0.040561 
3442.936560  	0.040545 
3444.865376  	0.039806 
3446.794192  	0.039972 
3448.723008  	0.040642 
3450.651824  	0.039519 
3452.580640  	0.038808 
3454.509456  	0.038555 
3456.438272  	0.038153 
3458.367088  	0.037647 
3460.295904  	0.037203 
3462.224720  	0.036880 
3464.153536  	0.036380 
3466.082352  	0.035759 
3468.011168  	0.035257 
3469.939984  	0.034396 
3471.868800  	0.033642 
3473.797616  	0.033227 
3475.726432  	0.033176 
3477.655248  	0.032477 
3479.584064  	0.031652 
3481.512880  	0.031714 
3483.441696  	0.031370 
3485.370512  	0.030152 
3487.299328  	0.029691 
3489.228144  	0.029667 
3491.156960  	0.028857 
3493.085776  	0.027676 
3495.014592  	0.027215 
3496.943408  	0.027273 
3498.872224  	0.026445 
3500.801040  	0.025233 
3502.729856  	0.025682 
3504.658672  	0.026294 
3506.587488  	0.025088 
3508.516304  	0.024196 
3510.445120  	0.024547 
3512.373936  	0.024000 
3514.302752  	0.023191 
3516.231568  	0.022553 
3518.160384  	0.022258 
3520.089200  	0.021498 
3522.018016  	0.020795 
3523.946832  	0.021245 
3525.875648  	0.020402 
3527.804464  	0.019981 
3529.733280  	0.020323 
3531.662096  	0.020039 
3533.590912  	0.018950 
3535.519728  	0.018772 
3537.448544  	0.019087 
3539.377360  	0.017886 
3541.306176  	0.016761 
3543.234992  	0.015995 
3545.163808  	0.016802 
3547.092624  	0.017852 
3549.021440  	0.016651 
3550.950256  	0.015039 
3552.879072  	0.015572 
3554.807888  	0.015257 
3556.736704  	0.014055 
3558.665520  	0.013313 
3560.594336  	0.013223 
3562.523152  	0.012234 
3564.451968  	0.010347 
3566.380784  	0.011893 
3568.309600  	0.015969 
3570.238416  	0.014099 
3572.167232  	0.011347 
3574.096048  	0.010274 
3576.024864  	0.009983 
3577.953680  	0.009496 
3579.882496  	0.009208 
3581.811312  	0.008392 
3583.740128  	0.006304 
3585.668944  	0.004918 
3587.597760  	0.008420 
3589.526576  	0.009534 
3591.455392  	0.006041 
3593.384208  	0.004741 
3595.313024  	0.005298 
3597.241840  	0.004432 
3599.170656  	0.003315 
3601.099472  	0.003978 
3603.028288  	0.003397 
3604.957104  	0.000769 
3606.885920  	0.000010 
3608.814736  	0.002097 
3610.743552  	0.000518 
3612.672368  	-0.000805 
3614.601184  	-0.000545 
3616.530000  	-0.003423 
3618.458816  	-0.003565 
3620.387632  	-0.000363 
3622.316448  	-0.001442 
3624.245264  	-0.004531 
3626.174080  	-0.008427 
3628.102896  	-0.008078 
3630.031712  	-0.000721 
3631.960528  	-0.004020 
3633.889344  	-0.005222 
3635.818160  	-0.005486 
3637.746976  	-0.006722 
3639.675792  	-0.007249 
3641.604608  	-0.008001 
3643.533424  	-0.009559 
3645.462240  	-0.013544 
3647.391056  	-0.014679 
3649.319872  	-0.010304 
3651.248688  	-0.005400 
3653.177504  	-0.009460 
3655.106320  	-0.012020 
3657.035136  	-0.008876 
3658.963952  	-0.009733 
3660.892768  	-0.010904 
3662.821584  	-0.011511 
3664.750400  	-0.012525 
3666.679216  	-0.015270 
3668.608032  	-0.017338 
3670.536848  	-0.012415 
3672.465664  	-0.014571 
3674.394480  	-0.017610 
3676.323296  	-0.009414 
3678.252112  	-0.010712 
3680.180928  	-0.011396 
3682.109744  	-0.012167 
3684.038560  	-0.013390 
3685.967376  	-0.016009 
3687.896192  	-0.016913 
3689.825008  	-0.013394 
3691.753824  	-0.010890 
3693.682640  	-0.011466 
3695.611456  	-0.012259 
3697.540272  	-0.012345 
3699.469088  	-0.014112 
3701.397904  	-0.013311 
3703.326720  	-0.011254 
3705.255536  	-0.012700 
3707.184352  	-0.014937 
3709.113168  	-0.016344 
3711.041984  	-0.013863 
3712.970800  	-0.009219 
3714.899616  	-0.010292 
3716.828432  	-0.012755 
3718.757248  	-0.013169 
3720.686064  	-0.013687 
3722.614880  	-0.013229 
3724.543696  	-0.012876 
3726.472512  	-0.011689 
3728.401328  	-0.012430 
3730.330144  	-0.016250 
3732.258960  	-0.016822 
3734.187776  	-0.014977 
3736.116592  	-0.010154 
3738.045408  	-0.010180 
3739.974224  	-0.012920 
3741.903040  	-0.016646 
3743.831856  	-0.016010 
3745.760672  	-0.010678 
3747.689488  	-0.016116 
3749.618304  	-0.016610 
3751.547120  	-0.010946 
3753.475936  	-0.008704 
3755.404752  	-0.012216 
3757.333568  	-0.013504 
3759.262384  	-0.011929 
3761.191200  	-0.010175 
3763.120016  	-0.012422 
3765.048832  	-0.012268 
3766.977648  	-0.012006 
3768.906464  	-0.012615 
3770.835280  	-0.009875 
3772.764096  	-0.010276 
3774.692912  	-0.011467 
3776.621728  	-0.012903 
3778.550544  	-0.012966 
3780.479360  	-0.010183 
3782.408176  	-0.011507 
3784.336992  	-0.011832 
3786.265808  	-0.010652 
3788.194624  	-0.010865 
3790.123440  	-0.011422 
3792.052256  	-0.011883 
3793.981072  	-0.013408 
3795.909888  	-0.013557 
3797.838704  	-0.013385 
3799.767520  	-0.016256 
3801.696336  	-0.012214 
3803.625152  	-0.011023 
3805.553968  	-0.014236 
3807.482784  	-0.010423 
3809.411600  	-0.010175 
3811.340416  	-0.012026 
3813.269232  	-0.014637 
3815.198048  	-0.014967 
3817.126864  	-0.012042 
3819.055680  	-0.015965 
3820.984496  	-0.012904 
3822.913312  	-0.008958 
3824.842128  	-0.012360 
3826.770944  	-0.011943 
3828.699760  	-0.012435 
3830.628576  	-0.013943 
3832.557392  	-0.013528 
3834.486208  	-0.014723 
3836.415024  	-0.015520 
3838.343840  	-0.013194 
3840.272656  	-0.011003 
3842.201472  	-0.011214 
3844.130288  	-0.010525 
3846.059104  	-0.011325 
3847.987920  	-0.013750 
3849.916736  	-0.016852 
3851.845552  	-0.019230 
3853.774368  	-0.009537 
3855.703184  	-0.007239 
3857.632000  	-0.010097 
3859.560816  	-0.012619 
3861.489632  	-0.013926 
3863.418448  	-0.013310 
3865.347264  	-0.010717 
3867.276080  	-0.013570 
3869.204896  	-0.014227 
3871.133712  	-0.010125 
3873.062528  	-0.012057 
3874.991344  	-0.009914 
3876.920160  	-0.011915 
3878.848976  	-0.014024 
3880.777792  	-0.011143 
3882.706608  	-0.011753 
3884.635424  	-0.012953 
3886.564240  	-0.009065 
3888.493056  	-0.012065 
3890.421872  	-0.013289 
3892.350688  	-0.010083 
3894.279504  	-0.010383 
3896.208320  	-0.012967 
3898.137136  	-0.014064 
3900.065952  	-0.012793 
3901.994768  	-0.012098 
3903.923584  	-0.010062 
3905.852400  	-0.008562 
3907.781216  	-0.010153 
3909.710032  	-0.011289 
3911.638848  	-0.011454 
3913.567664  	-0.012147 
3915.496480  	-0.012450 
3917.425296  	-0.010743 
3919.354112  	-0.010436 
3921.282928  	-0.011202 
3923.211744  	-0.011917 
3925.140560  	-0.010390 
3927.069376  	-0.011014 
3928.998192  	-0.012165 
3930.927008  	-0.011440 
3932.855824  	-0.009888 
3934.784640  	-0.010239 
3936.713456  	-0.011045 
3938.642272  	-0.011299 
3940.571088  	-0.012217 
3942.499904  	-0.011070 
3944.428720  	-0.010360 
3946.357536  	-0.011632 
3948.286352  	-0.011151 
3950.215168  	-0.010391 
3952.143984  	-0.010751 
3954.072800  	-0.011266 
3956.001616  	-0.011313 
3957.930432  	-0.011175 
3959.859248  	-0.011341 
3961.788064  	-0.011019 
3963.716880  	-0.010640 
3965.645696  	-0.011160 
3967.574512  	-0.011502 
3969.503328  	-0.011267 
3971.432144  	-0.011292 
3973.360960  	-0.011418 
3975.289776  	-0.011178 
3977.218592  	-0.010931 
3979.147408  	-0.011020 
3981.076224  	-0.011087 
3983.005040  	-0.010968 
3984.933856  	-0.011078 
3986.862672  	-0.011442 
3988.791488  	-0.011572 
3990.720304  	-0.011286 
3992.649120  	-0.011281 
3994.577936  	-0.011215 
3996.506752  	-0.011269 
3998.435568  	-0.011461 
4000.364384  	-0.011502 