##TITLE=No Description
##DATA TYPE=INFRARED SPECTRUM
##XUNITS=1/CM
##YUNITS=Abs
399.264912  	0.566133 
401.193728  	0.571165 
403.122544  	0.585259 
405.051360  	0.581229 
406.980176  	0.577846 
408.908992  	0.558954 
410.837808  	0.541567 
412.766624  	0.529787 
414.695440  	0.539606 
416.624256  	0.548213 
418.553072  	0.540708 
420.481888  	0.526753 
422.410704  	0.530757 
424.339520  	0.523744 
426.268336  	0.522449 
428.197152  	0.521376 
430.125968  	0.517430 
432.054784  	0.506387 
433.983600  	0.507333 
435.912416  	0.506240 
437.841232  	0.504723 
439.770048  	0.496950 
441.698864  	0.497429 
443.627680  	0.493774 
445.556496  	0.492999 
447.485312  	0.487860 
449.414128  	0.494222 
451.342944  	0.496942 
453.271760  	0.492846 
455.200576  	0.484052 
457.129392  	0.481156 
459.058208  	0.478665 
460.987024  	0.482079 
462.915840  	0.476982 
464.844656  	0.479139 
466.773472  	0.476515 
468.702288  	0.479193 
470.631104  	0.476779 
472.559920  	0.478233 
474.488736  	0.476527 
476.417552  	0.474708 
478.346368  	0.466928 
480.275184  	0.473614 
482.204000  	0.476988 
484.132816  	0.474892 
486.061632  	0.471566 
487.990448  	0.471682 
489.919264  	0.467006 
491.848080  	0.464336 
493.776896  	0.462110 
495.705712  	0.463139 
497.634528  	0.464634 
499.563344  	0.467702 
501.492160  	0.463381 
503.420976  	0.458028 
505.349792  	0.452102 
507.278608  	0.451622 
509.207424  	0.450892 
511.136240  	0.453540 
513.065056  	0.455676 
514.993872  	0.457059 
516.922688  	0.455802 
518.851504  	0.457770 
520.780320  	0.455523 
522.709136  	0.453067 
524.637952  	0.451150 
526.566768  	0.451091 
528.495584  	0.449506 
530.424400  	0.449176 
532.353216  	0.444938 
534.282032  	0.440619 
536.210848  	0.434053 
538.139664  	0.431234 
540.068480  	0.428318 
541.997296  	0.426004 
543.926112  	0.422687 
545.854928  	0.419836 
547.783744  	0.417696 
549.712560  	0.416015 
551.641376  	0.413054 
553.570192  	0.410157 
555.499008  	0.406160 
557.427824  	0.405378 
559.356640  	0.402805 
561.285456  	0.400561 
563.214272  	0.397546 
565.143088  	0.395166 
567.071904  	0.391494 
569.000720  	0.388369 
570.929536  	0.385886 
572.858352  	0.385378 
574.787168  	0.382024 
576.715984  	0.378858 
578.644800  	0.375765 
580.573616  	0.372668 
582.502432  	0.368910 
584.431248  	0.366485 
586.360064  	0.363257 
588.288880  	0.360275 
590.217696  	0.357799 
592.146512  	0.356719 
594.075328  	0.355168 
596.004144  	0.352935 
597.932960  	0.351135 
599.861776  	0.349773 
601.790592  	0.347182 
603.719408  	0.345638 
605.648224  	0.344640 
607.577040  	0.343117 
609.505856  	0.340233 
611.434672  	0.338691 
613.363488  	0.337017 
615.292304  	0.335473 
617.221120  	0.332743 
619.149936  	0.331721 
621.078752  	0.330532 
623.007568  	0.329508 
624.936384  	0.328212 
626.865200  	0.326919 
628.794016  	0.325199 
630.722832  	0.324416 
632.651648  	0.323399 
634.580464  	0.322357 
636.509280  	0.322291 
638.438096  	0.321167 
640.366912  	0.319331 
642.295728  	0.317977 
644.224544  	0.314869 
646.153360  	0.312636 
648.082176  	0.309911 
650.010992  	0.307680 
651.939808  	0.304444 
653.868624  	0.301235 
655.797440  	0.296819 
657.726256  	0.293890 
659.655072  	0.290856 
661.583888  	0.288077 
663.512704  	0.284815 
665.441520  	0.281431 
667.370336  	0.277928 
669.299152  	0.275262 
671.227968  	0.271336 
673.156784  	0.268227 
675.085600  	0.265412 
677.014416  	0.263289 
678.943232  	0.261250 
680.872048  	0.259336 
682.800864  	0.256602 
684.729680  	0.254437 
686.658496  	0.252891 
688.587312  	0.252190 
690.516128  	0.249930 
692.444944  	0.248117 
694.373760  	0.246699 
696.302576  	0.245391 
698.231392  	0.243005 
700.160208  	0.241053 
702.089024  	0.239059 
704.017840  	0.236808 
705.946656  	0.234308 
707.875472  	0.232229 
709.804288  	0.230000 
711.733104  	0.228259 
713.661920  	0.226363 
715.590736  	0.225140 
717.519552  	0.224155 
719.448368  	0.223255 
721.377184  	0.223058 
723.306000  	0.222790 
725.234816  	0.222147 
727.163632  	0.220672 
729.092448  	0.218303 
731.021264  	0.215633 
732.950080  	0.212584 
734.878896  	0.210014 
736.807712  	0.207459 
738.736528  	0.205490 
740.665344  	0.203500 
742.594160  	0.202403 
744.522976  	0.201157 
746.451792  	0.199920 
748.380608  	0.198222 
750.309424  	0.196902 
752.238240  	0.195650 
754.167056  	0.194884 
756.095872  	0.193818 
758.024688  	0.192364 
759.953504  	0.191559 
761.882320  	0.191225 
763.811136  	0.190687 
765.739952  	0.188790 
767.668768  	0.185818 
769.597584  	0.183107 
771.526400  	0.181896 
773.455216  	0.182349 
775.384032  	0.183761 
777.312848  	0.186538 
779.241664  	0.187992 
781.170480  	0.186485 
783.099296  	0.182283 
785.028112  	0.178032 
786.956928  	0.173818 
788.885744  	0.170104 
790.814560  	0.167132 
792.743376  	0.165245 
794.672192  	0.164214 
796.601008  	0.162879 
798.529824  	0.159997 
800.458640  	0.156691 
802.387456  	0.153782 
804.316272  	0.151798 
806.245088  	0.150252 
808.173904  	0.149041 
810.102720  	0.148091 
812.031536  	0.147391 
813.960352  	0.146817 
815.889168  	0.146504 
817.817984  	0.146208 
819.746800  	0.145830 
821.675616  	0.145424 
823.604432  	0.145247 
825.533248  	0.145498 
827.462064  	0.145352 
829.390880  	0.144427 
831.319696  	0.143447 
833.248512  	0.142103 
835.177328  	0.140561 
837.106144  	0.138315 
839.034960  	0.136193 
840.963776  	0.133620 
842.892592  	0.130602 
844.821408  	0.127373 
846.750224  	0.124880 
848.679040  	0.123031 
850.607856  	0.121405 
852.536672  	0.120059 
854.465488  	0.118732 
856.394304  	0.117641 
858.323120  	0.116601 
860.251936  	0.115473 
862.180752  	0.114175 
864.109568  	0.112669 
866.038384  	0.111120 
867.967200  	0.109432 
869.896016  	0.107625 
871.824832  	0.106164 
873.753648  	0.105240 
875.682464  	0.104605 
877.611280  	0.105050 
879.540096  	0.106507 
881.468912  	0.108591 
883.397728  	0.110960 
885.326544  	0.113093 
887.255360  	0.114418 
889.184176  	0.114813 
891.112992  	0.114641 
893.041808  	0.113785 
894.970624  	0.112105 
896.899440  	0.109659 
898.828256  	0.106497 
900.757072  	0.103081 
902.685888  	0.099908 
904.614704  	0.097899 
906.543520  	0.097158 
908.472336  	0.097459 
910.401152  	0.098294 
912.329968  	0.099620 
914.258784  	0.101097 
916.187600  	0.102269 
918.116416  	0.103351 
920.045232  	0.104354 
921.974048  	0.104868 
923.902864  	0.104998 
925.831680  	0.104917 
927.760496  	0.105235 
929.689312  	0.105818 
931.618128  	0.106320 
933.546944  	0.106564 
935.475760  	0.106587 
937.404576  	0.106049 
939.333392  	0.105176 
941.262208  	0.104404 
943.191024  	0.104016 
945.119840  	0.104907 
947.048656  	0.107424 
948.977472  	0.111310 
950.906288  	0.116253 
952.835104  	0.122771 
954.763920  	0.130679 
956.692736  	0.139118 
958.621552  	0.147049 
960.550368  	0.153256 
962.479184  	0.157730 
964.408000  	0.159357 
966.336816  	0.157947 
968.265632  	0.153084 
970.194448  	0.145946 
972.123264  	0.136802 
974.052080  	0.126542 
975.980896  	0.116301 
977.909712  	0.106528 
979.838528  	0.097619 
981.767344  	0.090170 
983.696160  	0.084542 
985.624976  	0.080780 
987.553792  	0.079074 
989.482608  	0.079334 
991.411424  	0.081492 
993.340240  	0.084998 
995.269056  	0.088996 
997.197872  	0.093371 
999.126688  	0.097792 
1001.055504  	0.102484 
1002.984320  	0.107136 
1004.913136  	0.111742 
1006.841952  	0.116227 
1008.770768  	0.120796 
1010.699584  	0.124788 
1012.628400  	0.128191 
1014.557216  	0.130975 
1016.486032  	0.132972 
1018.414848  	0.134107 
1020.343664  	0.134660 
1022.272480  	0.135161 
1024.201296  	0.135764 
1026.130112  	0.135866 
1028.058928  	0.136179 
1029.987744  	0.137089 
1031.916560  	0.138390 
1033.845376  	0.139634 
1035.774192  	0.141502 
1037.703008  	0.144100 
1039.631824  	0.148135 
1041.560640  	0.154529 
1043.489456  	0.164479 
1045.418272  	0.177284 
1047.347088  	0.191709 
1049.275904  	0.204948 
1051.204720  	0.215134 
1053.133536  	0.221028 
1055.062352  	0.223835 
1056.991168  	0.224555 
1058.919984  	0.224936 
1060.848800  	0.224934 
1062.777616  	0.225467 
1064.706432  	0.225913 
1066.635248  	0.225894 
1068.564064  	0.224134 
1070.492880  	0.220564 
1072.421696  	0.216063 
1074.350512  	0.213148 
1076.279328  	0.212839 
1078.208144  	0.215840 
1080.136960  	0.220452 
1082.065776  	0.224422 
1083.994592  	0.225789 
1085.923408  	0.224504 
1087.852224  	0.219757 
1089.781040  	0.212683 
1091.709856  	0.203711 
1093.638672  	0.193662 
1095.567488  	0.182232 
1097.496304  	0.170807 
1099.425120  	0.159225 
1101.353936  	0.148161 
1103.282752  	0.137568 
1105.211568  	0.127760 
1107.140384  	0.118741 
1109.069200  	0.110819 
1110.998016  	0.103413 
1112.926832  	0.096330 
1114.855648  	0.090063 
1116.784464  	0.084231 
1118.713280  	0.078461 
1120.642096  	0.072988 
1122.570912  	0.067889 
1124.499728  	0.063128 
1126.428544  	0.058945 
1128.357360  	0.055692 
1130.286176  	0.052796 
1132.214992  	0.050442 
1134.143808  	0.048570 
1136.072624  	0.047067 
1138.001440  	0.045852 
1139.930256  	0.044829 
1141.859072  	0.043588 
1143.787888  	0.042402 
1145.716704  	0.041675 
1147.645520  	0.040997 
1149.574336  	0.040425 
1151.503152  	0.040189 
1153.431968  	0.040328 
1155.360784  	0.040359 
1157.289600  	0.040407 
1159.218416  	0.040713 
1161.147232  	0.041302 
1163.076048  	0.041967 
1165.004864  	0.042715 
1166.933680  	0.043193 
1168.862496  	0.043867 
1170.791312  	0.044949 
1172.720128  	0.046189 
1174.648944  	0.047772 
1176.577760  	0.049425 
1178.506576  	0.051209 
1180.435392  	0.052980 
1182.364208  	0.054952 
1184.293024  	0.057285 
1186.221840  	0.059802 
1188.150656  	0.062834 
1190.079472  	0.066366 
1192.008288  	0.070400 
1193.937104  	0.075206 
1195.865920  	0.080672 
1197.794736  	0.086691 
1199.723552  	0.093071 
1201.652368  	0.099771 
1203.581184  	0.106404 
1205.510000  	0.112725 
1207.438816  	0.118622 
1209.367632  	0.124110 
1211.296448  	0.128512 
1213.225264  	0.132135 
1215.154080  	0.134572 
1217.082896  	0.136358 
1219.011712  	0.137086 
1220.940528  	0.137209 
1222.869344  	0.136564 
1224.798160  	0.135399 
1226.726976  	0.133360 
1228.655792  	0.130979 
1230.584608  	0.127993 
1232.513424  	0.124411 
1234.442240  	0.120336 
1236.371056  	0.116045 
1238.299872  	0.111165 
1240.228688  	0.105951 
1242.157504  	0.100851 
1244.086320  	0.095830 
1246.015136  	0.090494 
1247.943952  	0.085404 
1249.872768  	0.080562 
1251.801584  	0.075817 
1253.730400  	0.070966 
1255.659216  	0.066434 
1257.588032  	0.062169 
1259.516848  	0.058062 
1261.445664  	0.054121 
1263.374480  	0.050608 
1265.303296  	0.047626 
1267.232112  	0.045168 
1269.160928  	0.043299 
1271.089744  	0.042012 
1273.018560  	0.041385 
1274.947376  	0.041483 
1276.876192  	0.042081 
1278.805008  	0.042653 
1280.733824  	0.042589 
1282.662640  	0.041645 
1284.591456  	0.040412 
1286.520272  	0.039199 
1288.449088  	0.038406 
1290.377904  	0.038477 
1292.306720  	0.039257 
1294.235536  	0.039975 
1296.164352  	0.040128 
1298.093168  	0.039258 
1300.021984  	0.037422 
1301.950800  	0.035346 
1303.879616  	0.033298 
1305.808432  	0.030953 
1307.737248  	0.028319 
1309.666064  	0.025871 
1311.594880  	0.023991 
1313.523696  	0.022634 
1315.452512  	0.021629 
1317.381328  	0.021073 
1319.310144  	0.021068 
1321.238960  	0.021307 
1323.167776  	0.021809 
1325.096592  	0.022301 
1327.025408  	0.022627 
1328.954224  	0.022520 
1330.883040  	0.021864 
1332.811856  	0.020887 
1334.740672  	0.019922 
1336.669488  	0.019270 
1338.598304  	0.019148 
1340.527120  	0.019014 
1342.455936  	0.018477 
1344.384752  	0.018314 
1346.313568  	0.018536 
1348.242384  	0.019070 
1350.171200  	0.019879 
1352.100016  	0.021011 
1354.028832  	0.022343 
1355.957648  	0.023784 
1357.886464  	0.025040 
1359.815280  	0.026267 
1361.744096  	0.027997 
1363.672912  	0.030163 
1365.601728  	0.031418 
1367.530544  	0.032685 
1369.459360  	0.034279 
1371.388176  	0.034991 
1373.316992  	0.034869 
1375.245808  	0.034124 
1377.174624  	0.032747 
1379.103440  	0.031154 
1381.032256  	0.029275 
1382.961072  	0.027685 
1384.889888  	0.026347 
1386.818704  	0.025507 
1388.747520  	0.024346 
1390.676336  	0.022626 
1392.605152  	0.020873 
1394.533968  	0.019821 
1396.462784  	0.019657 
1398.391600  	0.019470 
1400.320416  	0.019706 
1402.249232  	0.019622 
1404.178048  	0.019932 
1406.106864  	0.020713 
1408.035680  	0.021417 
1409.964496  	0.022274 
1411.893312  	0.023643 
1413.822128  	0.024851 
1415.750944  	0.026007 
1417.679760  	0.026982 
1419.608576  	0.028351 
1421.537392  	0.028434 
1423.466208  	0.027971 
1425.395024  	0.027301 
1427.323840  	0.025679 
1429.252656  	0.023839 
1431.181472  	0.022825 
1433.110288  	0.022275 
1435.039104  	0.021850 
1436.967920  	0.023360 
1438.896736  	0.024702 
1440.825552  	0.025149 
1442.754368  	0.025626 
1444.683184  	0.025556 
1446.612000  	0.025419 
1448.540816  	0.025782 
1450.469632  	0.025901 
1452.398448  	0.025773 
1454.327264  	0.025035 
1456.256080  	0.024346 
1458.184896  	0.025592 
1460.113712  	0.025952 
1462.042528  	0.025207 
1463.971344  	0.024427 
1465.900160  	0.025286 
1467.828976  	0.025659 
1469.757792  	0.025719 
1471.686608  	0.026698 
1473.615424  	0.031067 
1475.544240  	0.034690 
1477.473056  	0.038359 
1479.401872  	0.040539 
1481.330688  	0.043024 
1483.259504  	0.044998 
1485.188320  	0.046156 
1487.117136  	0.046722 
1489.045952  	0.047661 
1490.974768  	0.048024 
1492.903584  	0.046616 
1494.832400  	0.043617 
1496.761216  	0.039868 
1498.690032  	0.036075 
1500.618848  	0.032929 
1502.547664  	0.029379 
1504.476480  	0.025482 
1506.405296  	0.022654 
1508.334112  	0.023891 
1510.262928  	0.022890 
1512.191744  	0.021861 
1514.120560  	0.021112 
1516.049376  	0.020840 
1517.978192  	0.021631 
1519.907008  	0.022040 
1521.835824  	0.025172 
1523.764640  	0.028390 
1525.693456  	0.030797 
1527.622272  	0.032902 
1529.551088  	0.033312 
1531.479904  	0.032081 
1533.408720  	0.030389 
1535.337536  	0.028726 
1537.266352  	0.025747 
1539.195168  	0.021909 
1541.123984  	0.020903 
1543.052800  	0.021527 
1544.981616  	0.021608 
1546.910432  	0.020928 
1548.839248  	0.020085 
1550.768064  	0.020136 
1552.696880  	0.019163 
1554.625696  	0.018650 
1556.554512  	0.016965 
1558.483328  	0.016752 
1560.412144  	0.022659 
1562.340960  	0.023240 
1564.269776  	0.024014 
1566.198592  	0.026186 
1568.127408  	0.027155 
1570.056224  	0.030983 
1571.985040  	0.033906 
1573.913856  	0.034527 
1575.842672  	0.035744 
1577.771488  	0.038915 
1579.700304  	0.038780 
1581.629120  	0.038241 
1583.557936  	0.037474 
1585.486752  	0.037413 
1587.415568  	0.038160 
1589.344384  	0.040299 
1591.273200  	0.043151 
1593.202016  	0.046751 
1595.130832  	0.050887 
1597.059648  	0.055797 
1598.988464  	0.059794 
1600.917280  	0.063468 
1602.846096  	0.066387 
1604.774912  	0.068804 
1606.703728  	0.069480 
1608.632544  	0.069559 
1610.561360  	0.068661 
1612.490176  	0.067218 
1614.418992  	0.064412 
1616.347808  	0.063851 
1618.276624  	0.065996 
1620.205440  	0.066355 
1622.134256  	0.066740 
1624.063072  	0.071280 
1625.991888  	0.074387 
1627.920704  	0.079114 
1629.849520  	0.085091 
1631.778336  	0.089320 
1633.707152  	0.091665 
1635.635968  	0.098877 
1637.564784  	0.108257 
1639.493600  	0.112083 
1641.422416  	0.115470 
1643.351232  	0.117582 
1645.280048  	0.117777 
1647.208864  	0.122451 
1649.137680  	0.124968 
1651.066496  	0.122186 
1652.995312  	0.122294 
1654.924128  	0.129093 
1656.852944  	0.127396 
1658.781760  	0.126117 
1660.710576  	0.124034 
1662.639392  	0.122657 
1664.568208  	0.121377 
1666.497024  	0.118006 
1668.425840  	0.113906 
1670.354656  	0.111213 
1672.283472  	0.108180 
1674.212288  	0.104602 
1676.141104  	0.102733 
1678.069920  	0.100470 
1679.998736  	0.098368 
1681.927552  	0.096030 
1683.856368  	0.094550 
1685.785184  	0.097824 
1687.714000  	0.097421 
1689.642816  	0.097914 
1691.571632  	0.097855 
1693.500448  	0.096495 
1695.429264  	0.095550 
1697.358080  	0.096465 
1699.286896  	0.095351 
1701.215712  	0.098640 
1703.144528  	0.097802 
1705.073344  	0.096639 
1707.002160  	0.095894 
1708.930976  	0.094302 
1710.859792  	0.091020 
1712.788608  	0.086667 
1714.717424  	0.080319 
1716.646240  	0.072816 
1718.575056  	0.064059 
1720.503872  	0.056802 
1722.432688  	0.049439 
1724.361504  	0.041257 
1726.290320  	0.034163 
1728.219136  	0.028008 
1730.147952  	0.022450 
1732.076768  	0.017587 
1734.005584  	0.013950 
1735.934400  	0.011384 
1737.863216  	0.009221 
1739.792032  	0.007027 
1741.720848  	0.006026 
1743.649664  	0.004963 
1745.578480  	0.003601 
1747.507296  	0.002221 
1749.436112  	0.001676 
1751.364928  	0.001650 
1753.293744  	0.001230 
1755.222560  	0.000409 
1757.151376  	0.000459 
1759.080192  	-0.000109 
1761.009008  	-0.000638 
1762.937824  	-0.000677 
1764.866640  	-0.000845 
1766.795456  	-0.001368 
1768.724272  	-0.001724 
1770.653088  	-0.003313 
1772.581904  	-0.003299 
1774.510720  	-0.002234 
1776.439536  	-0.001873 
1778.368352  	-0.002361 
1780.297168  	-0.002729 
1782.225984  	-0.002758 
1784.154800  	-0.002560 
1786.083616  	-0.002660 
1788.012432  	-0.003053 
1789.941248  	-0.003602 
1791.870064  	-0.003700 
1793.798880  	-0.003478 
1795.727696  	-0.003292 
1797.656512  	-0.003826 
1799.585328  	-0.004158 
1801.514144  	-0.003597 
1803.442960  	-0.003589 
1805.371776  	-0.004012 
1807.300592  	-0.003965 
1809.229408  	-0.004178 
1811.158224  	-0.004147 
1813.087040  	-0.004131 
1815.015856  	-0.004167 
1816.944672  	-0.004230 
1818.873488  	-0.004080 
1820.802304  	-0.004320 
1822.731120  	-0.004630 
1824.659936  	-0.004703 
1826.588752  	-0.004575 
1828.517568  	-0.005223 
1830.446384  	-0.004923 
1832.375200  	-0.004544 
1834.304016  	-0.004245 
1836.232832  	-0.004360 
1838.161648  	-0.004625 
1840.090464  	-0.005015 
1842.019280  	-0.005275 
1843.948096  	-0.005054 
1845.876912  	-0.004423 
1847.805728  	-0.004409 
1849.734544  	-0.004503 
1851.663360  	-0.004945 
1853.592176  	-0.004973 
1855.520992  	-0.005180 
1857.449808  	-0.004986 
1859.378624  	-0.004885 
1861.307440  	-0.004679 
1863.236256  	-0.004986 
1865.165072  	-0.005322 
1867.093888  	-0.005778 
1869.022704  	-0.005358 
1870.951520  	-0.005042 
1872.880336  	-0.005041 
1874.809152  	-0.005082 
1876.737968  	-0.004794 
1878.666784  	-0.004770 
1880.595600  	-0.004774 
1882.524416  	-0.005125 
1884.453232  	-0.005359 
1886.382048  	-0.005316 
1888.310864  	-0.004941 
1890.239680  	-0.004845 
1892.168496  	-0.004989 
1894.097312  	-0.005538 
1896.026128  	-0.005431 
1897.954944  	-0.005301 
1899.883760  	-0.005143 
1901.812576  	-0.005533 
1903.741392  	-0.005479 
1905.670208  	-0.005281 
1907.599024  	-0.005093 
1909.527840  	-0.004934 
1911.456656  	-0.004723 
1913.385472  	-0.004774 
1915.314288  	-0.004884 
1917.243104  	-0.005209 
1919.171920  	-0.004646 
1921.100736  	-0.004503 
1923.029552  	-0.004437 
1924.958368  	-0.005558 
1926.887184  	-0.005984 
1928.816000  	-0.005344 
1930.744816  	-0.004903 
1932.673632  	-0.005321 
1934.602448  	-0.005592 
1936.531264  	-0.005669 
1938.460080  	-0.005718 
1940.388896  	-0.005697 
1942.317712  	-0.005179 
1944.246528  	-0.005648 
1946.175344  	-0.005658 
1948.104160  	-0.005745 
1950.032976  	-0.006075 
1951.961792  	-0.006094 
1953.890608  	-0.005121 
1955.819424  	-0.004961 
1957.748240  	-0.005392 
1959.677056  	-0.006372 
1961.605872  	-0.005993 
1963.534688  	-0.006021 
1965.463504  	-0.005847 
1967.392320  	-0.006912 
1969.321136  	-0.007053 
1971.249952  	-0.006874 
1973.178768  	-0.006681 
1975.107584  	-0.006341 
1977.036400  	-0.005857 
1978.965216  	-0.005519 
1980.894032  	-0.005057 
1982.822848  	-0.005466 
1984.751664  	-0.005855 
1986.680480  	-0.005934 
1988.609296  	-0.005165 
1990.538112  	-0.005032 
1992.466928  	-0.005740 
1994.395744  	-0.006726 
1996.324560  	-0.005757 
1998.253376  	-0.004925 
2000.182192  	-0.004617 
2002.111008  	-0.005087 
2004.039824  	-0.005385 
2005.968640  	-0.005779 
2007.897456  	-0.005626 
2009.826272  	-0.005820 
2011.755088  	-0.005673 
2013.683904  	-0.006096 
2015.612720  	-0.005817 
2017.541536  	-0.003965 
2019.470352  	-0.001949 
2021.399168  	-0.002232 
2023.327984  	-0.003182 
2025.256800  	-0.004456 
2027.185616  	-0.004261 
2029.114432  	-0.003873 
2031.043248  	-0.003916 
2032.972064  	-0.003892 
2034.900880  	-0.002948 
2036.829696  	-0.002432 
2038.758512  	-0.002190 
2040.687328  	-0.002189 
2042.616144  	-0.001788 
2044.544960  	-0.003184 
2046.473776  	-0.003625 
2048.402592  	-0.003661 
2050.331408  	-0.003481 
2052.260224  	-0.004010 
2054.189040  	-0.004736 
2056.117856  	-0.004364 
2058.046672  	-0.003471 
2059.975488  	-0.003401 
2061.904304  	-0.003995 
2063.833120  	-0.004004 
2065.761936  	-0.003262 
2067.690752  	-0.003342 
2069.619568  	-0.003718 
2071.548384  	-0.003691 
2073.477200  	-0.003608 
2075.406016  	-0.003621 
2077.334832  	-0.003168 
2079.263648  	-0.003237 
2081.192464  	-0.002851 
2083.121280  	-0.003389 
2085.050096  	-0.003847 
2086.978912  	-0.004144 
2088.907728  	-0.003819 
2090.836544  	-0.003886 
2092.765360  	-0.004202 
2094.694176  	-0.004309 
2096.622992  	-0.003712 
2098.551808  	-0.003085 
2100.480624  	-0.003227 
2102.409440  	-0.003788 
2104.338256  	-0.004031 
2106.267072  	-0.003561 
2108.195888  	-0.003079 
2110.124704  	-0.003437 
2112.053520  	-0.003599 
2113.982336  	-0.003244 
2115.911152  	-0.003183 
2117.839968  	-0.003372 
2119.768784  	-0.003571 
2121.697600  	-0.004346 
2123.626416  	-0.004595 
2125.555232  	-0.004701 
2127.484048  	-0.004660 
2129.412864  	-0.005100 
2131.341680  	-0.005340 
2133.270496  	-0.005425 
2135.199312  	-0.004205 
2137.128128  	-0.003591 
2139.056944  	-0.003574 
2140.985760  	-0.003656 
2142.914576  	-0.003460 
2144.843392  	-0.003184 
2146.772208  	-0.003391 
2148.701024  	-0.003524 
2150.629840  	-0.002885 
2152.558656  	-0.003439 
2154.487472  	-0.004029 
2156.416288  	-0.004536 
2158.345104  	-0.002150 
2160.273920  	0.000931 
2162.202736  	0.001570 
2164.131552  	0.000822 
2166.060368  	0.000709 
2167.989184  	-0.000248 
2169.918000  	-0.000476 
2171.846816  	-0.000866 
2173.775632  	-0.001819 
2175.704448  	-0.002431 
2177.633264  	-0.002151 
2179.562080  	-0.002429 
2181.490896  	-0.002385 
2183.419712  	-0.001518 
2185.348528  	-0.001653 
2187.277344  	-0.001830 
2189.206160  	-0.001269 
2191.134976  	-0.001161 
2193.063792  	-0.000999 
2194.992608  	-0.001708 
2196.921424  	-0.002039 
2198.850240  	-0.001932 
2200.779056  	-0.001592 
2202.707872  	-0.002104 
2204.636688  	-0.002317 
2206.565504  	-0.001897 
2208.494320  	-0.001456 
2210.423136  	-0.002045 
2212.351952  	-0.002261 
2214.280768  	-0.002522 
2216.209584  	-0.002395 
2218.138400  	-0.002234 
2220.067216  	-0.001935 
2221.996032  	-0.002220 
2223.924848  	-0.002582 
2225.853664  	-0.003001 
2227.782480  	-0.002944 
2229.711296  	-0.002242 
2231.640112  	-0.002523 
2233.568928  	-0.003058 
2235.497744  	-0.002799 
2237.426560  	-0.002874 
2239.355376  	-0.003151 
2241.284192  	-0.002988 
2243.213008  	-0.003005 
2245.141824  	-0.003424 
2247.070640  	-0.002980 
2248.999456  	-0.003369 
2250.928272  	-0.004005 
2252.857088  	-0.003577 
2254.785904  	-0.002896 
2256.714720  	-0.002817 
2258.643536  	-0.003078 
2260.572352  	-0.003194 
2262.501168  	-0.003145 
2264.429984  	-0.003076 
2266.358800  	-0.002971 
2268.287616  	-0.002922 
2270.216432  	-0.002841 
2272.145248  	-0.002895 
2274.074064  	-0.002703 
2276.002880  	-0.002679 
2277.931696  	-0.002492 
2279.860512  	-0.002240 
2281.789328  	-0.001820 
2283.718144  	-0.001757 
2285.646960  	-0.001791 
2287.575776  	-0.002005 
2289.504592  	-0.002047 
2291.433408  	-0.001949 
2293.362224  	-0.001506 
2295.291040  	-0.000952 
2297.219856  	-0.000823 
2299.148672  	-0.000911 
2301.077488  	-0.000462 
2303.006304  	-0.000192 
2304.935120  	-0.000084 
2306.863936  	0.000397 
2308.792752  	0.000729 
2310.721568  	0.000885 
2312.650384  	0.001077 
2314.579200  	0.000890 
2316.508016  	0.001033 
2318.436832  	0.001419 
2320.365648  	0.002069 
2322.294464  	0.002298 
2324.223280  	0.001816 
2326.152096  	0.000483 
2328.080912  	0.000063 
2330.009728  	0.000304 
2331.938544  	0.000448 
2333.867360  	-0.000452 
2335.796176  	-0.000943 
2337.724992  	-0.000899 
2339.653808  	-0.001001 
2341.582624  	-0.000800 
2343.511440  	0.000148 
2345.440256  	0.001181 
2347.369072  	0.001009 
2349.297888  	0.000445 
2351.226704  	0.000400 
2353.155520  	0.000440 
2355.084336  	0.000450 
2357.013152  	0.000439 
2358.941968  	0.000500 
2360.870784  	0.000932 
2362.799600  	0.001495 
2364.728416  	0.001410 
2366.657232  	0.001408 
2368.586048  	0.001732 
2370.514864  	0.001956 
2372.443680  	0.001777 
2374.372496  	0.001586 
2376.301312  	0.001297 
2378.230128  	0.001096 
2380.158944  	0.000588 
2382.087760  	-0.000247 
2384.016576  	-0.001066 
2385.945392  	-0.001772 
2387.874208  	-0.002168 
2389.803024  	-0.002199 
2391.731840  	-0.002277 
2393.660656  	-0.002291 
2395.589472  	-0.002184 
2397.518288  	-0.002221 
2399.447104  	-0.002243 
2401.375920  	-0.001989 
2403.304736  	-0.001844 
2405.233552  	-0.001804 
2407.162368  	-0.001850 
2409.091184  	-0.001797 
2411.020000  	-0.001569 
2412.948816  	-0.001527 
2414.877632  	-0.001565 
2416.806448  	-0.001434 
2418.735264  	-0.001408 
2420.664080  	-0.001413 
2422.592896  	-0.001274 
2424.521712  	-0.000968 
2426.450528  	-0.000869 
2428.379344  	-0.000741 
2430.308160  	-0.000693 
2432.236976  	-0.000776 
2434.165792  	-0.000871 
2436.094608  	-0.000724 
2438.023424  	-0.000478 
2439.952240  	-0.000457 
2441.881056  	-0.000390 
2443.809872  	-0.000331 
2445.738688  	-0.000310 
2447.667504  	-0.000206 
2449.596320  	-0.000100 
2451.525136  	-0.000066 
2453.453952  	-0.000118 
2455.382768  	-0.000026 
2457.311584  	0.000073 
2459.240400  	-0.000011 
2461.169216  	0.000034 
2463.098032  	0.000138 
2465.026848  	0.000210 
2466.955664  	0.000272 
2468.884480  	0.000363 
2470.813296  	0.000405 
2472.742112  	0.000470 
2474.670928  	0.000538 
2476.599744  	0.000661 
2478.528560  	0.000922 
2480.457376  	0.000919 
2482.386192  	0.000685 
2484.315008  	0.000586 
2486.243824  	0.000804 
2488.172640  	0.001064 
2490.101456  	0.001267 
2492.030272  	0.001363 
2493.959088  	0.001390 
2495.887904  	0.001488 
2497.816720  	0.001601 
2499.745536  	0.001632 
2501.674352  	0.001961 
2503.603168  	0.002139 
2505.531984  	0.002161 
2507.460800  	0.002091 
2509.389616  	0.002088 
2511.318432  	0.002140 
2513.247248  	0.002310 
2515.176064  	0.002360 
2517.104880  	0.002473 
2519.033696  	0.002775 
2520.962512  	0.002887 
2522.891328  	0.002873 
2524.820144  	0.002873 
2526.748960  	0.002675 
2528.677776  	0.002620 
2530.606592  	0.002910 
2532.535408  	0.003195 
2534.464224  	0.003095 
2536.393040  	0.003023 
2538.321856  	0.003127 
2540.250672  	0.003228 
2542.179488  	0.003155 
2544.108304  	0.003228 
2546.037120  	0.003372 
2547.965936  	0.003527 
2549.894752  	0.003585 
2551.823568  	0.003577 
2553.752384  	0.003581 
2555.681200  	0.003576 
2557.610016  	0.003727 
2559.538832  	0.003933 
2561.467648  	0.004020 
2563.396464  	0.004047 
2565.325280  	0.004103 
2567.254096  	0.004305 
2569.182912  	0.004458 
2571.111728  	0.004531 
2573.040544  	0.004697 
2574.969360  	0.005001 
2576.898176  	0.005246 
2578.826992  	0.005219 
2580.755808  	0.005105 
2582.684624  	0.005193 
2584.613440  	0.005272 
2586.542256  	0.005336 
2588.471072  	0.005432 
2590.399888  	0.005493 
2592.328704  	0.005672 
2594.257520  	0.005779 
2596.186336  	0.005827 
2598.115152  	0.005742 
2600.043968  	0.005714 
2601.972784  	0.005786 
2603.901600  	0.005910 
2605.830416  	0.006110 
2607.759232  	0.006210 
2609.688048  	0.006210 
2611.616864  	0.006224 
2613.545680  	0.006414 
2615.474496  	0.006470 
2617.403312  	0.006537 
2619.332128  	0.006667 
2621.260944  	0.006827 
2623.189760  	0.006913 
2625.118576  	0.007059 
2627.047392  	0.007219 
2628.976208  	0.007305 
2630.905024  	0.007391 
2632.833840  	0.007560 
2634.762656  	0.007747 
2636.691472  	0.007840 
2638.620288  	0.007973 
2640.549104  	0.008150 
2642.477920  	0.008285 
2644.406736  	0.008403 
2646.335552  	0.008454 
2648.264368  	0.008496 
2650.193184  	0.008589 
2652.122000  	0.008760 
2654.050816  	0.008918 
2655.979632  	0.008938 
2657.908448  	0.008987 
2659.837264  	0.009149 
2661.766080  	0.009259 
2663.694896  	0.009277 
2665.623712  	0.009304 
2667.552528  	0.009502 
2669.481344  	0.009758 
2671.410160  	0.009898 
2673.338976  	0.009957 
2675.267792  	0.010012 
2677.196608  	0.010118 
2679.125424  	0.010217 
2681.054240  	0.010379 
2682.983056  	0.010487 
2684.911872  	0.010652 
2686.840688  	0.010746 
2688.769504  	0.010771 
2690.698320  	0.010801 
2692.627136  	0.010921 
2694.555952  	0.011126 
2696.484768  	0.011205 
2698.413584  	0.011352 
2700.342400  	0.011406 
2702.271216  	0.011504 
2704.200032  	0.011673 
2706.128848  	0.011770 
2708.057664  	0.011939 
2709.986480  	0.012086 
2711.915296  	0.012211 
2713.844112  	0.012259 
2715.772928  	0.012325 
2717.701744  	0.012398 
2719.630560  	0.012458 
2721.559376  	0.012663 
2723.488192  	0.012830 
2725.417008  	0.012866 
2727.345824  	0.013032 
2729.274640  	0.013149 
2731.203456  	0.013112 
2733.132272  	0.013283 
2735.061088  	0.013596 
2736.989904  	0.013805 
2738.918720  	0.013926 
2740.847536  	0.013937 
2742.776352  	0.014025 
2744.705168  	0.014239 
2746.633984  	0.014277 
2748.562800  	0.014301 
2750.491616  	0.014544 
2752.420432  	0.014693 
2754.349248  	0.014665 
2756.278064  	0.014694 
2758.206880  	0.014746 
2760.135696  	0.014706 
2762.064512  	0.014757 
2763.993328  	0.014794 
2765.922144  	0.014775 
2767.850960  	0.014816 
2769.779776  	0.014913 
2771.708592  	0.014883 
2773.637408  	0.014780 
2775.566224  	0.014775 
2777.495040  	0.014832 
2779.423856  	0.014813 
2781.352672  	0.014780 
2783.281488  	0.014836 
2785.210304  	0.014943 
2787.139120  	0.014963 
2789.067936  	0.014908 
2790.996752  	0.014868 
2792.925568  	0.014822 
2794.854384  	0.014788 
2796.783200  	0.014802 
2798.712016  	0.014861 
2800.640832  	0.015047 
2802.569648  	0.015029 
2804.498464  	0.014944 
2806.427280  	0.014917 
2808.356096  	0.014944 
2810.284912  	0.014942 
2812.213728  	0.014759 
2814.142544  	0.014715 
2816.071360  	0.014752 
2818.000176  	0.014858 
2819.928992  	0.014957 
2821.857808  	0.015003 
2823.786624  	0.014951 
2825.715440  	0.014926 
2827.644256  	0.014956 
2829.573072  	0.014894 
2831.501888  	0.014893 
2833.430704  	0.014871 
2835.359520  	0.014815 
2837.288336  	0.014773 
2839.217152  	0.014785 
2841.145968  	0.014775 
2843.074784  	0.014810 
2845.003600  	0.014698 
2846.932416  	0.014702 
2848.861232  	0.014878 
2850.790048  	0.014910 
2852.718864  	0.014894 
2854.647680  	0.014961 
2856.576496  	0.015118 
2858.505312  	0.015331 
2860.434128  	0.015455 
2862.362944  	0.015457 
2864.291760  	0.015515 
2866.220576  	0.015659 
2868.149392  	0.015844 
2870.078208  	0.015863 
2872.007024  	0.015860 
2873.935840  	0.016162 
2875.864656  	0.016509 
2877.793472  	0.016768 
2879.722288  	0.017031 
2881.651104  	0.017363 
2883.579920  	0.017567 
2885.508736  	0.017673 
2887.437552  	0.017843 
2889.366368  	0.017850 
2891.295184  	0.017791 
2893.224000  	0.017704 
2895.152816  	0.017698 
2897.081632  	0.017546 
2899.010448  	0.017192 
2900.939264  	0.016904 
2902.868080  	0.016882 
2904.796896  	0.016993 
2906.725712  	0.017035 
2908.654528  	0.016983 
2910.583344  	0.017146 
2912.512160  	0.017588 
2914.440976  	0.017957 
2916.369792  	0.018179 
2918.298608  	0.018368 
2920.227424  	0.018617 
2922.156240  	0.018873 
2924.085056  	0.019190 
2926.013872  	0.019680 
2927.942688  	0.020232 
2929.871504  	0.020733 
2931.800320  	0.021052 
2933.729136  	0.021554 
2935.657952  	0.022052 
2937.586768  	0.022401 
2939.515584  	0.022753 
2941.444400  	0.023166 
2943.373216  	0.023477 
2945.302032  	0.023510 
2947.230848  	0.023509 
2949.159664  	0.023613 
2951.088480  	0.023501 
2953.017296  	0.023287 
2954.946112  	0.023027 
2956.874928  	0.022858 
2958.803744  	0.022461 
2960.732560  	0.021994 
2962.661376  	0.021479 
2964.590192  	0.021093 
2966.519008  	0.020648 
2968.447824  	0.020109 
2970.376640  	0.019521 
2972.305456  	0.018813 
2974.234272  	0.018318 
2976.163088  	0.017820 
2978.091904  	0.017245 
2980.020720  	0.016842 
2981.949536  	0.016819 
2983.878352  	0.016910 
2985.807168  	0.016955 
2987.735984  	0.017099 
2989.664800  	0.017345 
2991.593616  	0.017731 
2993.522432  	0.018105 
2995.451248  	0.018435 
2997.380064  	0.018884 
2999.308880  	0.019192 
3001.237696  	0.019410 
3003.166512  	0.019599 
3005.095328  	0.019661 
3007.024144  	0.019719 
3008.952960  	0.019982 
3010.881776  	0.020284 
3012.810592  	0.020483 
3014.739408  	0.020621 
3016.668224  	0.020748 
3018.597040  	0.020985 
3020.525856  	0.021202 
3022.454672  	0.021477 
3024.383488  	0.021664 
3026.312304  	0.021895 
3028.241120  	0.022023 
3030.169936  	0.022080 
3032.098752  	0.022280 
3034.027568  	0.022481 
3035.956384  	0.022659 
3037.885200  	0.022786 
3039.814016  	0.022912 
3041.742832  	0.023072 
3043.671648  	0.023455 
3045.600464  	0.024005 
3047.529280  	0.024213 
3049.458096  	0.024253 
3051.386912  	0.024400 
3053.315728  	0.024573 
3055.244544  	0.024697 
3057.173360  	0.025127 
3059.102176  	0.025473 
3061.030992  	0.025790 
3062.959808  	0.026061 
3064.888624  	0.026385 
3066.817440  	0.026720 
3068.746256  	0.027112 
3070.675072  	0.027480 
3072.603888  	0.027743 
3074.532704  	0.028133 
3076.461520  	0.028540 
3078.390336  	0.028829 
3080.319152  	0.029225 
3082.247968  	0.029744 
3084.176784  	0.030153 
3086.105600  	0.030347 
3088.034416  	0.030687 
3089.963232  	0.031081 
3091.892048  	0.031373 
3093.820864  	0.031717 
3095.749680  	0.032148 
3097.678496  	0.032440 
3099.607312  	0.032800 
3101.536128  	0.033263 
3103.464944  	0.033703 
3105.393760  	0.034084 
3107.322576  	0.034490 
3109.251392  	0.034892 
3111.180208  	0.035223 
3113.109024  	0.035274 
3115.037840  	0.035315 
3116.966656  	0.035689 
3118.895472  	0.036139 
3120.824288  	0.036338 
3122.753104  	0.036488 
3124.681920  	0.036602 
3126.610736  	0.036835 
3128.539552  	0.037019 
3130.468368  	0.036950 
3132.397184  	0.037111 
3134.326000  	0.037492 
3136.254816  	0.037632 
3138.183632  	0.037791 
3140.112448  	0.038122 
3142.041264  	0.038334 
3143.970080  	0.038533 
3145.898896  	0.038762 
3147.827712  	0.039084 
3149.756528  	0.039431 
3151.685344  	0.039682 
3153.614160  	0.040004 
3155.542976  	0.040169 
3157.471792  	0.040271 
3159.400608  	0.040664 
3161.329424  	0.040982 
3163.258240  	0.041254 
3165.187056  	0.041612 
3167.115872  	0.041781 
3169.044688  	0.042024 
3170.973504  	0.042382 
3172.902320  	0.042406 
3174.831136  	0.042279 
3176.759952  	0.042466 
3178.688768  	0.042935 
3180.617584  	0.043190 
3182.546400  	0.043067 
3184.475216  	0.043129 
3186.404032  	0.043233 
3188.332848  	0.043116 
3190.261664  	0.043000 
3192.190480  	0.042874 
3194.119296  	0.042648 
3196.048112  	0.042481 
3197.976928  	0.042371 
3199.905744  	0.042217 
3201.834560  	0.042006 
3203.763376  	0.041860 
3205.692192  	0.041700 
3207.621008  	0.041303 
3209.549824  	0.041140 
3211.478640  	0.040835 
3213.407456  	0.040533 
3215.336272  	0.040528 
3217.265088  	0.040088 
3219.193904  	0.039944 
3221.122720  	0.039863 
3223.051536  	0.039635 
3224.980352  	0.039389 
3226.909168  	0.039036 
3228.837984  	0.038759 
3230.766800  	0.038660 
3232.695616  	0.038446 
3234.624432  	0.038071 
3236.553248  	0.037950 
3238.482064  	0.038058 
3240.410880  	0.038288 
3242.339696  	0.038213 
3244.268512  	0.038030 
3246.197328  	0.038359 
3248.126144  	0.038430 
3250.054960  	0.038578 
3251.983776  	0.038594 
3253.912592  	0.038663 
3255.841408  	0.038956 
3257.770224  	0.039270 
3259.699040  	0.039416 
3261.627856  	0.039435 
3263.556672  	0.039519 
3265.485488  	0.039837 
3267.414304  	0.039983 
3269.343120  	0.040098 
3271.271936  	0.040106 
3273.200752  	0.040249 
3275.129568  	0.040670 
3277.058384  	0.041000 
3278.987200  	0.041034 
3280.916016  	0.041106 
3282.844832  	0.041251 
3284.773648  	0.041177 
3286.702464  	0.041147 
3288.631280  	0.041424 
3290.560096  	0.041659 
3292.488912  	0.042131 
3294.417728  	0.042416 
3296.346544  	0.042530 
3298.275360  	0.042875 
3300.204176  	0.043118 
3302.132992  	0.043553 
3304.061808  	0.043906 
3305.990624  	0.043971 
3307.919440  	0.044112 
3309.848256  	0.044443 
3311.777072  	0.044849 
3313.705888  	0.045093 
3315.634704  	0.045215 
3317.563520  	0.045712 
3319.492336  	0.046178 
3321.421152  	0.046335 
3323.349968  	0.046374 
3325.278784  	0.046590 
3327.207600  	0.046848 
3329.136416  	0.046939 
3331.065232  	0.046923 
3332.994048  	0.047122 
3334.922864  	0.047589 
3336.851680  	0.047822 
3338.780496  	0.047690 
3340.709312  	0.047533 
3342.638128  	0.047474 
3344.566944  	0.047370 
3346.495760  	0.047202 
3348.424576  	0.047006 
3350.353392  	0.046935 
3352.282208  	0.046966 
3354.211024  	0.046733 
3356.139840  	0.046359 
3358.068656  	0.046143 
3359.997472  	0.045955 
3361.926288  	0.045753 
3363.855104  	0.045581 
3365.783920  	0.045794 
3367.712736  	0.045614 
3369.641552  	0.045244 
3371.570368  	0.045258 
3373.499184  	0.045099 
3375.428000  	0.044847 
3377.356816  	0.044774 
3379.285632  	0.044818 
3381.214448  	0.044730 
3383.143264  	0.044423 
3385.072080  	0.044405 
3387.000896  	0.044276 
3388.929712  	0.043939 
3390.858528  	0.043476 
3392.787344  	0.043425 
3394.716160  	0.043368 
3396.644976  	0.043279 
3398.573792  	0.043241 
3400.502608  	0.043100 
3402.431424  	0.042969 
3404.360240  	0.042775 
3406.289056  	0.042402 
3408.217872  	0.042029 
3410.146688  	0.041765 
3412.075504  	0.041517 
3414.004320  	0.041330 
3415.933136  	0.041098 
3417.861952  	0.040694 
3419.790768  	0.040507 
3421.719584  	0.040495 
3423.648400  	0.040178 
3425.577216  	0.039805 
3427.506032  	0.039545 
3429.434848  	0.039294 
3431.363664  	0.038946 
3433.292480  	0.038659 
3435.221296  	0.038283 
3437.150112  	0.037932 
3439.078928  	0.037667 
3441.007744  	0.037333 
3442.936560  	0.037245 
3444.865376  	0.036816 
3446.794192  	0.036838 
3448.723008  	0.037209 
3450.651824  	0.036233 
3452.580640  	0.035411 
3454.509456  	0.034996 
3456.438272  	0.034435 
3458.367088  	0.033890 
3460.295904  	0.033679 
3462.224720  	0.033742 
3464.153536  	0.033350 
3466.082352  	0.032685 
3468.011168  	0.032176 
3469.939984  	0.031561 
3471.868800  	0.030730 
3473.797616  	0.030223 
3475.726432  	0.030087 
3477.655248  	0.029392 
3479.584064  	0.028594 
3481.512880  	0.028262 
3483.441696  	0.028107 
3485.370512  	0.027400 
3487.299328  	0.027011 
3489.228144  	0.026827 
3491.156960  	0.026036 
3493.085776  	0.024944 
3495.014592  	0.024280 
3496.943408  	0.024088 
3498.872224  	0.023549 
3500.801040  	0.022700 
3502.729856  	0.022907 
3504.658672  	0.023218 
3506.587488  	0.022205 
3508.516304  	0.021415 
3510.445120  	0.021447 
3512.373936  	0.021031 
3514.302752  	0.020352 
3516.231568  	0.019647 
3518.160384  	0.019047 
3520.089200  	0.018335 
3522.018016  	0.017923 
3523.946832  	0.018275 
3525.875648  	0.017666 
3527.804464  	0.017239 
3529.733280  	0.017093 
3531.662096  	0.016779 
3533.590912  	0.015964 
3535.519728  	0.015587 
3537.448544  	0.015675 
3539.377360  	0.014850 
3541.306176  	0.013994 
3543.234992  	0.013384 
3545.163808  	0.014026 
3547.092624  	0.014619 
3549.021440  	0.013364 
3550.950256  	0.012073 
3552.879072  	0.012370 
3554.807888  	0.012142 
3556.736704  	0.011285 
3558.665520  	0.010768 
3560.594336  	0.010536 
3562.523152  	0.009648 
3564.451968  	0.008205 
3566.380784  	0.009167 
3568.309600  	0.011447 
3570.238416  	0.009841 
3572.167232  	0.008164 
3574.096048  	0.007351 
3576.024864  	0.006849 
3577.953680  	0.006556 
3579.882496  	0.006202 
3581.811312  	0.005463 
3583.740128  	0.004030 
3585.668944  	0.003049 
3587.597760  	0.005201 
3589.526576  	0.005688 
3591.455392  	0.003055 
3593.384208  	0.002137 
3595.313024  	0.002709 
3597.241840  	0.001990 
3599.170656  	0.000608 
3601.099472  	0.000806 
3603.028288  	0.000621 
3604.957104  	-0.001047 
3606.885920  	-0.001940 
3608.814736  	-0.001100 
3610.743552  	-0.002126 
3612.672368  	-0.003016 
3614.601184  	-0.003259 
3616.530000  	-0.005277 
3618.458816  	-0.005541 
3620.387632  	-0.003663 
3622.316448  	-0.004374 
3624.245264  	-0.006307 
3626.174080  	-0.008881 
3628.102896  	-0.009106 
3630.031712  	-0.005211 
3631.960528  	-0.006928 
3633.889344  	-0.007627 
3635.818160  	-0.007981 
3637.746976  	-0.009064 
3639.675792  	-0.009668 
3641.604608  	-0.010227 
3643.533424  	-0.011311 
3645.462240  	-0.013678 
3647.391056  	-0.014898 
3649.319872  	-0.013012 
3651.248688  	-0.009983 
3653.177504  	-0.011903 
3655.106320  	-0.013699 
3657.035136  	-0.012672 
3658.963952  	-0.012881 
3660.892768  	-0.013200 
3662.821584  	-0.013774 
3664.750400  	-0.014248 
3666.679216  	-0.015545 
3668.608032  	-0.016882 
3670.536848  	-0.014716 
3672.465664  	-0.015881 
3674.394480  	-0.017556 
3676.323296  	-0.013542 
3678.252112  	-0.014061 
3680.180928  	-0.014372 
3682.109744  	-0.014503 
3684.038560  	-0.015045 
3685.967376  	-0.016407 
3687.896192  	-0.017050 
3689.825008  	-0.015702 
3691.753824  	-0.014222 
3693.682640  	-0.014079 
3695.611456  	-0.014296 
3697.540272  	-0.014215 
3699.469088  	-0.014975 
3701.397904  	-0.014630 
3703.326720  	-0.013815 
3705.255536  	-0.014535 
3707.184352  	-0.015753 
3709.113168  	-0.016819 
3711.041984  	-0.015880 
3712.970800  	-0.013266 
3714.899616  	-0.013553 
3716.828432  	-0.014630 
3718.757248  	-0.014648 
3720.686064  	-0.015038 
3722.614880  	-0.015150 
3724.543696  	-0.014861 
3726.472512  	-0.013962 
3728.401328  	-0.014219 
3730.330144  	-0.016358 
3732.258960  	-0.017139 
3734.187776  	-0.015966 
3736.116592  	-0.013352 
3738.045408  	-0.013669 
3739.974224  	-0.015063 
3741.903040  	-0.016730 
3743.831856  	-0.016118 
3745.760672  	-0.014120 
3747.689488  	-0.016988 
3749.618304  	-0.017174 
3751.547120  	-0.014244 
3753.475936  	-0.013029 
3755.404752  	-0.014771 
3757.333568  	-0.015370 
3759.262384  	-0.014477 
3761.191200  	-0.013410 
3763.120016  	-0.014499 
3765.048832  	-0.014450 
3766.977648  	-0.014409 
3768.906464  	-0.014775 
3770.835280  	-0.013398 
3772.764096  	-0.013464 
3774.692912  	-0.014110 
3776.621728  	-0.014865 
3778.550544  	-0.015021 
3780.479360  	-0.013692 
3782.408176  	-0.014185 
3784.336992  	-0.014277 
3786.265808  	-0.013556 
3788.194624  	-0.013657 
3790.123440  	-0.014043 
3792.052256  	-0.014299 
3793.981072  	-0.015097 
3795.909888  	-0.015139 
3797.838704  	-0.015134 
3799.767520  	-0.016809 
3801.696336  	-0.015344 
3803.625152  	-0.014700 
3805.553968  	-0.015925 
3807.482784  	-0.014080 
3809.411600  	-0.013881 
3811.340416  	-0.014501 
3813.269232  	-0.015786 
3815.198048  	-0.016218 
3817.126864  	-0.014841 
3819.055680  	-0.016720 
3820.984496  	-0.015409 
3822.913312  	-0.013503 
3824.842128  	-0.014970 
3826.770944  	-0.014796 
3828.699760  	-0.014935 
3830.628576  	-0.015484 
3832.557392  	-0.015399 
3834.486208  	-0.016037 
3836.415024  	-0.016457 
3838.343840  	-0.015449 
3840.272656  	-0.014371 
3842.201472  	-0.014393 
3844.130288  	-0.013881 
3846.059104  	-0.013881 
3847.987920  	-0.015131 
3849.916736  	-0.017004 
3851.845552  	-0.018328 
3853.774368  	-0.013858 
3855.703184  	-0.012475 
3857.632000  	-0.013579 
3859.560816  	-0.014824 
3861.489632  	-0.015556 
3863.418448  	-0.015278 
3865.347264  	-0.013680 
3867.276080  	-0.015162 
3869.204896  	-0.015731 
3871.133712  	-0.013899 
3873.062528  	-0.014787 
3874.991344  	-0.013807 
3876.920160  	-0.014703 
3878.848976  	-0.015379 
3880.777792  	-0.013966 
3882.706608  	-0.014354 
3884.635424  	-0.014749 
3886.564240  	-0.012969 
3888.493056  	-0.014611 
3890.421872  	-0.015258 
3892.350688  	-0.013769 
3894.279504  	-0.013808 
3896.208320  	-0.014963 
3898.137136  	-0.015431 
3900.065952  	-0.014721 
3901.994768  	-0.014264 
3903.923584  	-0.013244 
3905.852400  	-0.012730 
3907.781216  	-0.013670 
3909.710032  	-0.014286 
3911.638848  	-0.014213 
3913.567664  	-0.014403 
3915.496480  	-0.014546 
3917.425296  	-0.013603 
3919.354112  	-0.013569 
3921.282928  	-0.014062 
3923.211744  	-0.014375 
3925.140560  	-0.013676 
3927.069376  	-0.014059 
3928.998192  	-0.014574 
3930.927008  	-0.014104 
3932.855824  	-0.013221 
3934.784640  	-0.013481 
3936.713456  	-0.013917 
3938.642272  	-0.013950 
3940.571088  	-0.014374 
3942.499904  	-0.013709 
3944.428720  	-0.013482 
3946.357536  	-0.014222 
3948.286352  	-0.014044 
3950.215168  	-0.013798 
3952.143984  	-0.014159 
3954.072800  	-0.014418 
3956.001616  	-0.014364 
3957.930432  	-0.014361 
3959.859248  	-0.014437 
3961.788064  	-0.014146 
3963.716880  	-0.013820 
3965.645696  	-0.013971 
3967.574512  	-0.014273 
3969.503328  	-0.014286 
3971.432144  	-0.014343 
3973.360960  	-0.014303 
3975.289776  	-0.014074 
3977.218592  	-0.013988 
3979.147408  	-0.014142 
3981.076224  	-0.014191 
3983.005040  	-0.014031 
3984.933856  	-0.014097 
3986.862672  	-0.014346 
3988.791488  	-0.014304 
3990.720304  	-0.014198 
3992.649120  	-0.014187 
3994.577936  	-0.014148 
3996.506752  	-0.014243 
3998.435568  	-0.014331 
4000.364384  	-0.014440 