##TITLE=No Description
##DATA TYPE=INFRARED SPECTRUM
##XUNITS=1/CM
##YUNITS=Abs
399.264912  	0.571996 
401.193728  	0.553114 
403.122544  	0.557312 
405.051360  	0.553464 
406.980176  	0.548551 
408.908992  	0.533242 
410.837808  	0.532574 
412.766624  	0.530732 
414.695440  	0.522000 
416.624256  	0.522886 
418.553072  	0.546809 
420.481888  	0.521464 
422.410704  	0.527052 
424.339520  	0.525239 
426.268336  	0.519208 
428.197152  	0.515569 
430.125968  	0.514266 
432.054784  	0.501745 
433.983600  	0.499363 
435.912416  	0.492716 
437.841232  	0.495519 
439.770048  	0.494847 
441.698864  	0.497264 
443.627680  	0.491073 
445.556496  	0.482318 
447.485312  	0.475705 
449.414128  	0.475367 
451.342944  	0.474551 
453.271760  	0.478543 
455.200576  	0.476895 
457.129392  	0.477909 
459.058208  	0.475740 
460.987024  	0.474374 
462.915840  	0.469657 
464.844656  	0.472702 
466.773472  	0.471249 
468.702288  	0.471002 
470.631104  	0.464641 
472.559920  	0.466704 
474.488736  	0.469530 
476.417552  	0.469416 
478.346368  	0.463395 
480.275184  	0.463789 
482.204000  	0.462515 
484.132816  	0.462877 
486.061632  	0.465770 
487.990448  	0.466301 
489.919264  	0.458521 
491.848080  	0.460218 
493.776896  	0.459785 
495.705712  	0.458113 
497.634528  	0.455878 
499.563344  	0.455283 
501.492160  	0.449948 
503.420976  	0.446534 
505.349792  	0.444477 
507.278608  	0.448193 
509.207424  	0.450810 
511.136240  	0.452431 
513.065056  	0.450771 
514.993872  	0.449764 
516.922688  	0.448852 
518.851504  	0.451472 
520.780320  	0.450928 
522.709136  	0.452079 
524.637952  	0.450905 
526.566768  	0.450705 
528.495584  	0.448092 
530.424400  	0.443985 
532.353216  	0.437984 
534.282032  	0.434768 
536.210848  	0.430648 
538.139664  	0.428236 
540.068480  	0.424449 
541.997296  	0.419989 
543.926112  	0.415327 
545.854928  	0.413652 
547.783744  	0.411181 
549.712560  	0.410118 
551.641376  	0.406805 
553.570192  	0.403658 
555.499008  	0.400674 
557.427824  	0.399654 
559.356640  	0.396777 
561.285456  	0.393414 
563.214272  	0.389924 
565.143088  	0.387631 
567.071904  	0.382532 
569.000720  	0.379569 
570.929536  	0.377124 
572.858352  	0.375336 
574.787168  	0.372276 
576.715984  	0.369906 
578.644800  	0.367435 
580.573616  	0.365402 
582.502432  	0.360347 
584.431248  	0.355734 
586.360064  	0.351960 
588.288880  	0.349445 
590.217696  	0.347711 
592.146512  	0.346594 
594.075328  	0.344191 
596.004144  	0.341510 
597.932960  	0.339407 
599.861776  	0.338013 
601.790592  	0.335842 
603.719408  	0.335311 
605.648224  	0.334246 
607.577040  	0.333105 
609.505856  	0.331145 
611.434672  	0.329718 
613.363488  	0.327180 
615.292304  	0.325475 
617.221120  	0.323022 
619.149936  	0.321719 
621.078752  	0.320181 
623.007568  	0.319385 
624.936384  	0.318486 
626.865200  	0.317011 
628.794016  	0.316100 
630.722832  	0.316301 
632.651648  	0.315280 
634.580464  	0.313648 
636.509280  	0.313204 
638.438096  	0.312467 
640.366912  	0.311363 
642.295728  	0.310250 
644.224544  	0.308059 
646.153360  	0.305418 
648.082176  	0.301662 
650.010992  	0.298876 
651.939808  	0.295033 
653.868624  	0.291334 
655.797440  	0.287684 
657.726256  	0.284953 
659.655072  	0.281642 
661.583888  	0.279179 
663.512704  	0.276192 
665.441520  	0.271478 
667.370336  	0.265363 
669.299152  	0.262599 
671.227968  	0.259444 
673.156784  	0.256437 
675.085600  	0.254295 
677.014416  	0.252237 
678.943232  	0.249759 
680.872048  	0.248190 
682.800864  	0.246721 
684.729680  	0.245086 
686.658496  	0.243073 
688.587312  	0.242041 
690.516128  	0.240123 
692.444944  	0.238593 
694.373760  	0.237709 
696.302576  	0.236695 
698.231392  	0.234523 
700.160208  	0.232440 
702.089024  	0.230109 
704.017840  	0.228260 
705.946656  	0.225884 
707.875472  	0.223962 
709.804288  	0.221886 
711.733104  	0.220431 
713.661920  	0.218596 
715.590736  	0.217325 
717.519552  	0.216565 
719.448368  	0.215961 
721.377184  	0.215746 
723.306000  	0.215882 
725.234816  	0.216182 
727.163632  	0.214959 
729.092448  	0.212585 
731.021264  	0.209894 
732.950080  	0.207069 
734.878896  	0.204280 
736.807712  	0.201351 
738.736528  	0.199488 
740.665344  	0.197521 
742.594160  	0.196033 
744.522976  	0.194719 
746.451792  	0.193749 
748.380608  	0.192074 
750.309424  	0.190923 
752.238240  	0.189668 
754.167056  	0.188964 
756.095872  	0.188016 
758.024688  	0.186925 
759.953504  	0.186463 
761.882320  	0.186220 
763.811136  	0.186512 
765.739952  	0.185282 
767.668768  	0.182859 
769.597584  	0.180300 
771.526400  	0.178919 
773.455216  	0.179615 
775.384032  	0.181941 
777.312848  	0.185699 
779.241664  	0.188394 
781.170480  	0.187945 
783.099296  	0.183936 
785.028112  	0.178922 
786.956928  	0.173768 
788.885744  	0.169874 
790.814560  	0.166862 
792.743376  	0.164966 
794.672192  	0.164267 
796.601008  	0.163276 
798.529824  	0.160293 
800.458640  	0.156475 
802.387456  	0.153620 
804.316272  	0.151601 
806.245088  	0.150298 
808.173904  	0.149747 
810.102720  	0.149189 
812.031536  	0.148652 
813.960352  	0.148497 
815.889168  	0.148515 
817.817984  	0.148790 
819.746800  	0.149013 
821.675616  	0.149185 
823.604432  	0.149374 
825.533248  	0.149508 
827.462064  	0.149298 
829.390880  	0.148535 
831.319696  	0.148213 
833.248512  	0.147082 
835.177328  	0.145520 
837.106144  	0.143142 
839.034960  	0.140851 
840.963776  	0.137870 
842.892592  	0.134581 
844.821408  	0.131526 
846.750224  	0.128722 
848.679040  	0.126508 
850.607856  	0.124536 
852.536672  	0.123449 
854.465488  	0.122165 
856.394304  	0.121247 
858.323120  	0.120521 
860.251936  	0.119459 
862.180752  	0.118186 
864.109568  	0.116441 
866.038384  	0.114484 
867.967200  	0.112535 
869.896016  	0.111028 
871.824832  	0.109358 
873.753648  	0.108552 
875.682464  	0.108493 
877.611280  	0.109308 
879.540096  	0.110980 
881.468912  	0.113333 
883.397728  	0.115924 
885.326544  	0.118230 
887.255360  	0.119789 
889.184176  	0.120376 
891.112992  	0.120151 
893.041808  	0.119196 
894.970624  	0.117222 
896.899440  	0.114384 
898.828256  	0.110982 
900.757072  	0.107258 
902.685888  	0.103780 
904.614704  	0.101774 
906.543520  	0.101066 
908.472336  	0.101719 
910.401152  	0.103148 
912.329968  	0.105070 
914.258784  	0.107160 
916.187600  	0.109094 
918.116416  	0.110710 
920.045232  	0.112049 
921.974048  	0.112837 
923.902864  	0.113406 
925.831680  	0.113801 
927.760496  	0.114448 
929.689312  	0.115129 
931.618128  	0.115749 
933.546944  	0.116233 
935.475760  	0.116702 
937.404576  	0.116476 
939.333392  	0.115622 
941.262208  	0.115034 
943.191024  	0.115301 
945.119840  	0.117070 
947.048656  	0.120457 
948.977472  	0.125655 
950.906288  	0.132640 
952.835104  	0.141248 
954.763920  	0.151131 
956.692736  	0.161513 
958.621552  	0.171352 
960.550368  	0.178858 
962.479184  	0.184202 
964.408000  	0.185968 
966.336816  	0.183884 
968.265632  	0.177775 
970.194448  	0.169125 
972.123264  	0.158273 
974.052080  	0.146242 
975.980896  	0.134088 
977.909712  	0.122620 
979.838528  	0.112380 
981.767344  	0.103849 
983.696160  	0.097719 
985.624976  	0.093795 
987.553792  	0.092395 
989.482608  	0.093276 
991.411424  	0.096261 
993.340240  	0.101182 
995.269056  	0.106763 
997.197872  	0.112789 
999.126688  	0.118711 
1001.055504  	0.124887 
1002.984320  	0.130911 
1004.913136  	0.137120 
1006.841952  	0.142869 
1008.770768  	0.148354 
1010.699584  	0.152978 
1012.628400  	0.156871 
1014.557216  	0.159797 
1016.486032  	0.161768 
1018.414848  	0.162884 
1020.343664  	0.163588 
1022.272480  	0.164209 
1024.201296  	0.164555 
1026.130112  	0.164236 
1028.058928  	0.164371 
1029.987744  	0.165689 
1031.916560  	0.167506 
1033.845376  	0.169151 
1035.774192  	0.171274 
1037.703008  	0.174496 
1039.631824  	0.179851 
1041.560640  	0.188008 
1043.489456  	0.200152 
1045.418272  	0.215185 
1047.347088  	0.232087 
1049.275904  	0.247536 
1051.204720  	0.259546 
1053.133536  	0.266442 
1055.062352  	0.269363 
1056.991168  	0.269730 
1058.919984  	0.269892 
1060.848800  	0.269747 
1062.777616  	0.269697 
1064.706432  	0.268328 
1066.635248  	0.266503 
1068.564064  	0.263271 
1070.492880  	0.258317 
1072.421696  	0.252687 
1074.350512  	0.248840 
1076.279328  	0.247586 
1078.208144  	0.249990 
1080.136960  	0.254074 
1082.065776  	0.258212 
1083.994592  	0.259223 
1085.923408  	0.256433 
1087.852224  	0.249697 
1089.781040  	0.241229 
1091.709856  	0.230886 
1093.638672  	0.219391 
1095.567488  	0.206514 
1097.496304  	0.193519 
1099.425120  	0.180342 
1101.353936  	0.167662 
1103.282752  	0.155534 
1105.211568  	0.144286 
1107.140384  	0.134106 
1109.069200  	0.124978 
1110.998016  	0.116474 
1112.926832  	0.108651 
1114.855648  	0.101525 
1116.784464  	0.094845 
1118.713280  	0.088427 
1120.642096  	0.082124 
1122.570912  	0.076135 
1124.499728  	0.070900 
1126.428544  	0.066364 
1128.357360  	0.062635 
1130.286176  	0.059320 
1132.214992  	0.056698 
1134.143808  	0.054452 
1136.072624  	0.052594 
1138.001440  	0.051125 
1139.930256  	0.049808 
1141.859072  	0.048341 
1143.787888  	0.047026 
1145.716704  	0.045974 
1147.645520  	0.045329 
1149.574336  	0.044696 
1151.503152  	0.044329 
1153.431968  	0.044695 
1155.360784  	0.044891 
1157.289600  	0.045194 
1159.218416  	0.045785 
1161.147232  	0.046763 
1163.076048  	0.047706 
1165.004864  	0.048694 
1166.933680  	0.049677 
1168.862496  	0.050684 
1170.791312  	0.051953 
1172.720128  	0.053564 
1174.648944  	0.055685 
1176.577760  	0.057758 
1178.506576  	0.060025 
1180.435392  	0.062298 
1182.364208  	0.064657 
1184.293024  	0.067550 
1186.221840  	0.070745 
1188.150656  	0.074416 
1190.079472  	0.078671 
1192.008288  	0.083583 
1193.937104  	0.089388 
1195.865920  	0.096131 
1197.794736  	0.103575 
1199.723552  	0.111226 
1201.652368  	0.119293 
1203.581184  	0.127343 
1205.510000  	0.134960 
1207.438816  	0.141845 
1209.367632  	0.148344 
1211.296448  	0.153708 
1213.225264  	0.158047 
1215.154080  	0.160753 
1217.082896  	0.162630 
1219.011712  	0.163359 
1220.940528  	0.163467 
1222.869344  	0.162464 
1224.798160  	0.160827 
1226.726976  	0.158215 
1228.655792  	0.155378 
1230.584608  	0.151936 
1232.513424  	0.147924 
1234.442240  	0.143177 
1236.371056  	0.138206 
1238.299872  	0.132702 
1240.228688  	0.126418 
1242.157504  	0.120239 
1244.086320  	0.114280 
1246.015136  	0.108119 
1247.943952  	0.101931 
1249.872768  	0.096096 
1251.801584  	0.090704 
1253.730400  	0.085099 
1255.659216  	0.079794 
1257.588032  	0.074654 
1259.516848  	0.069720 
1261.445664  	0.065108 
1263.374480  	0.061220 
1265.303296  	0.057947 
1267.232112  	0.055155 
1269.160928  	0.053045 
1271.089744  	0.051751 
1273.018560  	0.051209 
1274.947376  	0.051262 
1276.876192  	0.051886 
1278.805008  	0.052496 
1280.733824  	0.052444 
1282.662640  	0.051349 
1284.591456  	0.049809 
1286.520272  	0.048371 
1288.449088  	0.047574 
1290.377904  	0.047727 
1292.306720  	0.048483 
1294.235536  	0.049162 
1296.164352  	0.049043 
1298.093168  	0.047798 
1300.021984  	0.045694 
1301.950800  	0.043335 
1303.879616  	0.040874 
1305.808432  	0.038186 
1307.737248  	0.035315 
1309.666064  	0.032621 
1311.594880  	0.030456 
1313.523696  	0.028992 
1315.452512  	0.027942 
1317.381328  	0.027297 
1319.310144  	0.027316 
1321.238960  	0.027744 
1323.167776  	0.028407 
1325.096592  	0.029036 
1327.025408  	0.029451 
1328.954224  	0.029379 
1330.883040  	0.028720 
1332.811856  	0.027535 
1334.740672  	0.026404 
1336.669488  	0.025675 
1338.598304  	0.025607 
1340.527120  	0.025625 
1342.455936  	0.024939 
1344.384752  	0.024579 
1346.313568  	0.024742 
1348.242384  	0.025378 
1350.171200  	0.026441 
1352.100016  	0.027794 
1354.028832  	0.029259 
1355.957648  	0.031067 
1357.886464  	0.032566 
1359.815280  	0.033936 
1361.744096  	0.035952 
1363.672912  	0.038846 
1365.601728  	0.040229 
1367.530544  	0.041453 
1369.459360  	0.043112 
1371.388176  	0.043506 
1373.316992  	0.043076 
1375.245808  	0.042452 
1377.174624  	0.040734 
1379.103440  	0.038747 
1381.032256  	0.036418 
1382.961072  	0.034423 
1384.889888  	0.032447 
1386.818704  	0.031475 
1388.747520  	0.030612 
1390.676336  	0.028457 
1392.605152  	0.025715 
1394.533968  	0.024524 
1396.462784  	0.025157 
1398.391600  	0.025038 
1400.320416  	0.025701 
1402.249232  	0.025263 
1404.178048  	0.025573 
1406.106864  	0.026844 
1408.035680  	0.027720 
1409.964496  	0.028869 
1411.893312  	0.030831 
1413.822128  	0.032289 
1415.750944  	0.033314 
1417.679760  	0.034098 
1419.608576  	0.036419 
1421.537392  	0.036527 
1423.466208  	0.035550 
1425.395024  	0.034993 
1427.323840  	0.032861 
1429.252656  	0.030721 
1431.181472  	0.029742 
1433.110288  	0.028980 
1435.039104  	0.027895 
1436.967920  	0.030307 
1438.896736  	0.032053 
1440.825552  	0.032106 
1442.754368  	0.032528 
1444.683184  	0.032314 
1446.612000  	0.031836 
1448.540816  	0.032458 
1450.469632  	0.032548 
1452.398448  	0.032156 
1454.327264  	0.030728 
1456.256080  	0.029180 
1458.184896  	0.032433 
1460.113712  	0.033289 
1462.042528  	0.032005 
1463.971344  	0.030902 
1465.900160  	0.032916 
1467.828976  	0.033713 
1469.757792  	0.033392 
1471.686608  	0.034220 
1473.615424  	0.040770 
1475.544240  	0.045484 
1477.473056  	0.050209 
1479.401872  	0.052738 
1481.330688  	0.055704 
1483.259504  	0.057922 
1485.188320  	0.058484 
1487.117136  	0.058343 
1489.045952  	0.058994 
1490.974768  	0.059832 
1492.903584  	0.057800 
1494.832400  	0.053433 
1496.761216  	0.049052 
1498.690032  	0.045242 
1500.618848  	0.041856 
1502.547664  	0.037058 
1504.476480  	0.030909 
1506.405296  	0.027061 
1508.334112  	0.031174 
1510.262928  	0.029974 
1512.191744  	0.028600 
1514.120560  	0.027226 
1516.049376  	0.026370 
1517.978192  	0.027539 
1519.907008  	0.027024 
1521.835824  	0.031357 
1523.764640  	0.035795 
1525.693456  	0.038548 
1527.622272  	0.041608 
1529.551088  	0.041986 
1531.479904  	0.039782 
1533.408720  	0.037848 
1535.337536  	0.036531 
1537.266352  	0.031539 
1539.195168  	0.025423 
1541.123984  	0.025577 
1543.052800  	0.027336 
1544.981616  	0.028042 
1546.910432  	0.027276 
1548.839248  	0.025886 
1550.768064  	0.026274 
1552.696880  	0.024702 
1554.625696  	0.024193 
1556.554512  	0.021097 
1558.483328  	0.019892 
1560.412144  	0.031382 
1562.340960  	0.031538 
1564.269776  	0.032143 
1566.198592  	0.034980 
1568.127408  	0.035656 
1570.056224  	0.041267 
1571.985040  	0.045447 
1573.913856  	0.045532 
1575.842672  	0.047019 
1577.771488  	0.051960 
1579.700304  	0.051672 
1581.629120  	0.050818 
1583.557936  	0.049899 
1585.486752  	0.050039 
1587.415568  	0.051041 
1589.344384  	0.053801 
1591.273200  	0.057509 
1593.202016  	0.062055 
1595.130832  	0.067335 
1597.059648  	0.073430 
1598.988464  	0.078288 
1600.917280  	0.082705 
1602.846096  	0.085967 
1604.774912  	0.088380 
1606.703728  	0.088860 
1608.632544  	0.088822 
1610.561360  	0.087633 
1612.490176  	0.085805 
1614.418992  	0.081903 
1616.347808  	0.080944 
1618.276624  	0.084486 
1620.205440  	0.085321 
1622.134256  	0.085860 
1624.063072  	0.091976 
1625.991888  	0.096000 
1627.920704  	0.101920 
1629.849520  	0.109685 
1631.778336  	0.114646 
1633.707152  	0.116985 
1635.635968  	0.124922 
1637.564784  	0.136771 
1639.493600  	0.141550 
1641.422416  	0.145111 
1643.351232  	0.146741 
1645.280048  	0.145950 
1647.208864  	0.150396 
1649.137680  	0.153117 
1651.066496  	0.149069 
1652.995312  	0.148009 
1654.924128  	0.155423 
1656.852944  	0.153193 
1658.781760  	0.151024 
1660.710576  	0.147719 
1662.639392  	0.145326 
1664.568208  	0.143502 
1666.497024  	0.138992 
1668.425840  	0.133457 
1670.354656  	0.130365 
1672.283472  	0.127206 
1674.212288  	0.122857 
1676.141104  	0.121262 
1678.069920  	0.118671 
1679.998736  	0.116121 
1681.927552  	0.112657 
1683.856368  	0.110543 
1685.785184  	0.115662 
1687.714000  	0.115014 
1689.642816  	0.115187 
1691.571632  	0.114719 
1693.500448  	0.112105 
1695.429264  	0.110084 
1697.358080  	0.110525 
1699.286896  	0.108438 
1701.215712  	0.112362 
1703.144528  	0.110284 
1705.073344  	0.107675 
1707.002160  	0.106382 
1708.930976  	0.103879 
1710.859792  	0.099405 
1712.788608  	0.093388 
1714.717424  	0.085486 
1716.646240  	0.076813 
1718.575056  	0.069044 
1720.503872  	0.061259 
1722.432688  	0.053051 
1724.361504  	0.044723 
1726.290320  	0.037105 
1728.219136  	0.030022 
1730.147952  	0.024011 
1732.076768  	0.018015 
1734.005584  	0.015013 
1735.934400  	0.013805 
1737.863216  	0.010316 
1739.792032  	0.008112 
1741.720848  	0.007247 
1743.649664  	0.006149 
1745.578480  	0.004499 
1747.507296  	0.002524 
1749.436112  	0.002294 
1751.364928  	0.003480 
1753.293744  	0.003217 
1755.222560  	0.001403 
1757.151376  	0.001729 
1759.080192  	0.000974 
1761.009008  	0.000203 
1762.937824  	0.001072 
1764.866640  	0.000564 
1766.795456  	-0.000520 
1768.724272  	-0.000738 
1770.653088  	-0.003353 
1772.581904  	-0.002601 
1774.510720  	-0.000820 
1776.439536  	-0.000549 
1778.368352  	-0.001252 
1780.297168  	-0.001665 
1782.225984  	-0.001403 
1784.154800  	-0.001276 
1786.083616  	-0.001217 
1788.012432  	-0.002066 
1789.941248  	-0.003287 
1791.870064  	-0.003108 
1793.798880  	-0.001939 
1795.727696  	-0.001970 
1797.656512  	-0.003006 
1799.585328  	-0.003541 
1801.514144  	-0.002293 
1803.442960  	-0.001994 
1805.371776  	-0.002737 
1807.300592  	-0.003037 
1809.229408  	-0.003492 
1811.158224  	-0.003162 
1813.087040  	-0.002822 
1815.015856  	-0.003215 
1816.944672  	-0.003234 
1818.873488  	-0.002983 
1820.802304  	-0.003271 
1822.731120  	-0.003828 
1824.659936  	-0.003963 
1826.588752  	-0.003781 
1828.517568  	-0.005053 
1830.446384  	-0.003795 
1832.375200  	-0.002925 
1834.304016  	-0.003122 
1836.232832  	-0.003335 
1838.161648  	-0.003304 
1840.090464  	-0.003614 
1842.019280  	-0.004514 
1843.948096  	-0.004190 
1845.876912  	-0.003055 
1847.805728  	-0.003211 
1849.734544  	-0.003166 
1851.663360  	-0.003629 
1853.592176  	-0.003551 
1855.520992  	-0.003803 
1857.449808  	-0.003756 
1859.378624  	-0.003706 
1861.307440  	-0.003493 
1863.236256  	-0.003986 
1865.165072  	-0.004537 
1867.093888  	-0.005134 
1869.022704  	-0.004032 
1870.951520  	-0.003304 
1872.880336  	-0.003739 
1874.809152  	-0.004011 
1876.737968  	-0.003877 
1878.666784  	-0.003688 
1880.595600  	-0.003540 
1882.524416  	-0.004009 
1884.453232  	-0.004261 
1886.382048  	-0.004526 
1888.310864  	-0.004295 
1890.239680  	-0.003313 
1892.168496  	-0.003490 
1894.097312  	-0.004266 
1896.026128  	-0.003779 
1897.954944  	-0.003467 
1899.883760  	-0.003527 
1901.812576  	-0.003797 
1903.741392  	-0.003972 
1905.670208  	-0.004242 
1907.599024  	-0.004093 
1909.527840  	-0.003645 
1911.456656  	-0.003214 
1913.385472  	-0.003379 
1915.314288  	-0.003886 
1917.243104  	-0.004380 
1919.171920  	-0.003682 
1921.100736  	-0.004179 
1923.029552  	-0.003750 
1924.958368  	-0.004364 
1926.887184  	-0.004654 
1928.816000  	-0.004158 
1930.744816  	-0.003865 
1932.673632  	-0.004296 
1934.602448  	-0.004413 
1936.531264  	-0.004366 
1938.460080  	-0.004646 
1940.388896  	-0.005398 
1942.317712  	-0.004775 
1944.246528  	-0.004713 
1946.175344  	-0.004499 
1948.104160  	-0.003843 
1950.032976  	-0.003944 
1951.961792  	-0.005081 
1953.890608  	-0.005418 
1955.819424  	-0.005297 
1957.748240  	-0.005462 
1959.677056  	-0.006441 
1961.605872  	-0.005882 
1963.534688  	-0.005433 
1965.463504  	-0.004983 
1967.392320  	-0.006192 
1969.321136  	-0.006484 
1971.249952  	-0.006616 
1973.178768  	-0.006904 
1975.107584  	-0.006776 
1977.036400  	-0.005660 
1978.965216  	-0.004147 
1980.894032  	-0.003487 
1982.822848  	-0.003623 
1984.751664  	-0.003774 
1986.680480  	-0.004458 
1988.609296  	-0.004590 
1990.538112  	-0.005010 
1992.466928  	-0.004722 
1994.395744  	-0.005710 
1996.324560  	-0.005432 
1998.253376  	-0.004696 
2000.182192  	-0.004751 
2002.111008  	-0.005493 
2004.039824  	-0.005945 
2005.968640  	-0.005826 
2007.897456  	-0.005126 
2009.826272  	-0.005042 
2011.755088  	-0.005513 
2013.683904  	-0.005540 
2015.612720  	-0.004893 
2017.541536  	-0.003793 
2019.470352  	-0.002179 
2021.399168  	-0.002685 
2023.327984  	-0.002872 
2025.256800  	-0.003508 
2027.185616  	-0.002952 
2029.114432  	-0.002841 
2031.043248  	-0.004060 
2032.972064  	-0.003685 
2034.900880  	-0.002513 
2036.829696  	-0.002177 
2038.758512  	-0.001982 
2040.687328  	-0.002295 
2042.616144  	-0.002016 
2044.544960  	-0.002719 
2046.473776  	-0.003235 
2048.402592  	-0.003017 
2050.331408  	-0.003169 
2052.260224  	-0.003798 
2054.189040  	-0.004454 
2056.117856  	-0.003735 
2058.046672  	-0.002473 
2059.975488  	-0.002560 
2061.904304  	-0.002994 
2063.833120  	-0.003586 
2065.761936  	-0.003193 
2067.690752  	-0.002688 
2069.619568  	-0.002613 
2071.548384  	-0.003100 
2073.477200  	-0.002443 
2075.406016  	-0.002334 
2077.334832  	-0.002440 
2079.263648  	-0.002195 
2081.192464  	-0.001897 
2083.121280  	-0.002269 
2085.050096  	-0.002271 
2086.978912  	-0.002438 
2088.907728  	-0.002366 
2090.836544  	-0.002966 
2092.765360  	-0.003400 
2094.694176  	-0.003387 
2096.622992  	-0.002919 
2098.551808  	-0.002370 
2100.480624  	-0.002582 
2102.409440  	-0.002762 
2104.338256  	-0.002548 
2106.267072  	-0.002024 
2108.195888  	-0.001506 
2110.124704  	-0.001888 
2112.053520  	-0.002025 
2113.982336  	-0.001846 
2115.911152  	-0.001845 
2117.839968  	-0.002321 
2119.768784  	-0.002731 
2121.697600  	-0.003236 
2123.626416  	-0.003170 
2125.555232  	-0.003721 
2127.484048  	-0.004004 
2129.412864  	-0.003951 
2131.341680  	-0.004021 
2133.270496  	-0.004379 
2135.199312  	-0.003469 
2137.128128  	-0.002750 
2139.056944  	-0.002634 
2140.985760  	-0.002892 
2142.914576  	-0.003011 
2144.843392  	-0.002349 
2146.772208  	-0.001816 
2148.701024  	-0.002012 
2150.629840  	-0.001989 
2152.558656  	-0.003209 
2154.487472  	-0.004066 
2156.416288  	-0.003902 
2158.345104  	-0.000793 
2160.273920  	0.001789 
2162.202736  	0.002613 
2164.131552  	0.002490 
2166.060368  	0.002051 
2167.989184  	0.001065 
2169.918000  	0.000333 
2171.846816  	0.000386 
2173.775632  	-0.000439 
2175.704448  	-0.001267 
2177.633264  	-0.000852 
2179.562080  	-0.001677 
2181.490896  	-0.001976 
2183.419712  	-0.000357 
2185.348528  	-0.000031 
2187.277344  	-0.000670 
2189.206160  	-0.000245 
2191.134976  	0.000350 
2193.063792  	0.000712 
2194.992608  	-0.000077 
2196.921424  	-0.000139 
2198.850240  	0.000178 
2200.779056  	0.000149 
2202.707872  	-0.000882 
2204.636688  	-0.001223 
2206.565504  	-0.001089 
2208.494320  	-0.000710 
2210.423136  	-0.001106 
2212.351952  	-0.001271 
2214.280768  	-0.000897 
2216.209584  	-0.000459 
2218.138400  	-0.000860 
2220.067216  	-0.000951 
2221.996032  	-0.000979 
2223.924848  	-0.001384 
2225.853664  	-0.002113 
2227.782480  	-0.002140 
2229.711296  	-0.002000 
2231.640112  	-0.002423 
2233.568928  	-0.002713 
2235.497744  	-0.001950 
2237.426560  	-0.001516 
2239.355376  	-0.001874 
2241.284192  	-0.002262 
2243.213008  	-0.002122 
2245.141824  	-0.002223 
2247.070640  	-0.001739 
2248.999456  	-0.002237 
2250.928272  	-0.002569 
2252.857088  	-0.002197 
2254.785904  	-0.001737 
2256.714720  	-0.001916 
2258.643536  	-0.002459 
2260.572352  	-0.002374 
2262.501168  	-0.002163 
2264.429984  	-0.002261 
2266.358800  	-0.002168 
2268.287616  	-0.001880 
2270.216432  	-0.001835 
2272.145248  	-0.001956 
2274.074064  	-0.001800 
2276.002880  	-0.001878 
2277.931696  	-0.001621 
2279.860512  	-0.001096 
2281.789328  	-0.000582 
2283.718144  	-0.000654 
2285.646960  	-0.000829 
2287.575776  	-0.000805 
2289.504592  	-0.000820 
2291.433408  	-0.000842 
2293.362224  	-0.000772 
2295.291040  	-0.000791 
2297.219856  	-0.000653 
2299.148672  	-0.000398 
2301.077488  	-0.000175 
2303.006304  	-0.000290 
2304.935120  	-0.000355 
2306.863936  	-0.000315 
2308.792752  	-0.000315 
2310.721568  	-0.000521 
2312.650384  	-0.000857 
2314.579200  	-0.001222 
2316.508016  	-0.001634 
2318.436832  	-0.002276 
2320.365648  	-0.002672 
2322.294464  	-0.002820 
2324.223280  	-0.003541 
2326.152096  	-0.005803 
2328.080912  	-0.007045 
2330.009728  	-0.007492 
2331.938544  	-0.007838 
2333.867360  	-0.008757 
2335.796176  	-0.009598 
2337.724992  	-0.009812 
2339.653808  	-0.009785 
2341.582624  	-0.009670 
2343.511440  	-0.008341 
2345.440256  	-0.005595 
2347.369072  	-0.003680 
2349.297888  	-0.005025 
2351.226704  	-0.007557 
2353.155520  	-0.009793 
2355.084336  	-0.011480 
2357.013152  	-0.012533 
2358.941968  	-0.013098 
2360.870784  	-0.012512 
2362.799600  	-0.011600 
2364.728416  	-0.010346 
2366.657232  	-0.008750 
2368.586048  	-0.007244 
2370.514864  	-0.005429 
2372.443680  	-0.003441 
2374.372496  	-0.002019 
2376.301312  	-0.000764 
2378.230128  	0.000373 
2380.158944  	0.000795 
2382.087760  	0.000518 
2384.016576  	0.000103 
2385.945392  	-0.000315 
2387.874208  	-0.000600 
2389.803024  	-0.000627 
2391.731840  	-0.000611 
2393.660656  	-0.000679 
2395.589472  	-0.000842 
2397.518288  	-0.000916 
2399.447104  	-0.000825 
2401.375920  	-0.000615 
2403.304736  	-0.000396 
2405.233552  	-0.000353 
2407.162368  	-0.000325 
2409.091184  	-0.000237 
2411.020000  	-0.000209 
2412.948816  	-0.000336 
2414.877632  	-0.000256 
2416.806448  	-0.000096 
2418.735264  	-0.000295 
2420.664080  	-0.000323 
2422.592896  	-0.000127 
2424.521712  	0.000050 
2426.450528  	0.000189 
2428.379344  	0.000494 
2430.308160  	0.000690 
2432.236976  	0.000686 
2434.165792  	0.000597 
2436.094608  	0.000764 
2438.023424  	0.000858 
2439.952240  	0.000751 
2441.881056  	0.000891 
2443.809872  	0.001017 
2445.738688  	0.001111 
2447.667504  	0.001335 
2449.596320  	0.001397 
2451.525136  	0.001396 
2453.453952  	0.001477 
2455.382768  	0.001694 
2457.311584  	0.001856 
2459.240400  	0.001751 
2461.169216  	0.001670 
2463.098032  	0.001799 
2465.026848  	0.001898 
2466.955664  	0.001868 
2468.884480  	0.001985 
2470.813296  	0.002122 
2472.742112  	0.002094 
2474.670928  	0.002136 
2476.599744  	0.002222 
2478.528560  	0.002312 
2480.457376  	0.002253 
2482.386192  	0.002162 
2484.315008  	0.002199 
2486.243824  	0.002388 
2488.172640  	0.002574 
2490.101456  	0.002801 
2492.030272  	0.002937 
2493.959088  	0.002912 
2495.887904  	0.002922 
2497.816720  	0.003198 
2499.745536  	0.003345 
2501.674352  	0.003403 
2503.603168  	0.003474 
2505.531984  	0.003547 
2507.460800  	0.003480 
2509.389616  	0.003683 
2511.318432  	0.003854 
2513.247248  	0.003851 
2515.176064  	0.003775 
2517.104880  	0.003925 
2519.033696  	0.004285 
2520.962512  	0.004366 
2522.891328  	0.004366 
2524.820144  	0.004284 
2526.748960  	0.004267 
2528.677776  	0.004341 
2530.606592  	0.004460 
2532.535408  	0.004502 
2534.464224  	0.004300 
2536.393040  	0.004210 
2538.321856  	0.004562 
2540.250672  	0.004814 
2542.179488  	0.004713 
2544.108304  	0.004742 
2546.037120  	0.004921 
2547.965936  	0.005105 
2549.894752  	0.005159 
2551.823568  	0.005102 
2553.752384  	0.004999 
2555.681200  	0.005110 
2557.610016  	0.005358 
2559.538832  	0.005635 
2561.467648  	0.005833 
2563.396464  	0.005746 
2565.325280  	0.005663 
2567.254096  	0.005889 
2569.182912  	0.005946 
2571.111728  	0.006164 
2573.040544  	0.006381 
2574.969360  	0.006587 
2576.898176  	0.006747 
2578.826992  	0.006814 
2580.755808  	0.006957 
2582.684624  	0.007012 
2584.613440  	0.006807 
2586.542256  	0.006798 
2588.471072  	0.006965 
2590.399888  	0.007037 
2592.328704  	0.007169 
2594.257520  	0.007321 
2596.186336  	0.007328 
2598.115152  	0.007247 
2600.043968  	0.007321 
2601.972784  	0.007466 
2603.901600  	0.007471 
2605.830416  	0.007599 
2607.759232  	0.007721 
2609.688048  	0.007692 
2611.616864  	0.007754 
2613.545680  	0.008046 
2615.474496  	0.008287 
2617.403312  	0.008297 
2619.332128  	0.008303 
2621.260944  	0.008488 
2623.189760  	0.008648 
2625.118576  	0.008805 
2627.047392  	0.008957 
2628.976208  	0.009133 
2630.905024  	0.009266 
2632.833840  	0.009459 
2634.762656  	0.009629 
2636.691472  	0.009685 
2638.620288  	0.009877 
2640.549104  	0.010034 
2642.477920  	0.010115 
2644.406736  	0.010173 
2646.335552  	0.010291 
2648.264368  	0.010391 
2650.193184  	0.010504 
2652.122000  	0.010665 
2654.050816  	0.010819 
2655.979632  	0.010962 
2657.908448  	0.011073 
2659.837264  	0.011222 
2661.766080  	0.011370 
2663.694896  	0.011375 
2665.623712  	0.011370 
2667.552528  	0.011569 
2669.481344  	0.011752 
2671.410160  	0.011936 
2673.338976  	0.012082 
2675.267792  	0.012147 
2677.196608  	0.012271 
2679.125424  	0.012389 
2681.054240  	0.012485 
2682.983056  	0.012532 
2684.911872  	0.012620 
2686.840688  	0.012791 
2688.769504  	0.012930 
2690.698320  	0.013017 
2692.627136  	0.013109 
2694.555952  	0.013223 
2696.484768  	0.013388 
2698.413584  	0.013531 
2700.342400  	0.013590 
2702.271216  	0.013720 
2704.200032  	0.013900 
2706.128848  	0.014067 
2708.057664  	0.014192 
2709.986480  	0.014260 
2711.915296  	0.014341 
2713.844112  	0.014439 
2715.772928  	0.014570 
2717.701744  	0.014661 
2719.630560  	0.014677 
2721.559376  	0.014906 
2723.488192  	0.015115 
2725.417008  	0.015279 
2727.345824  	0.015422 
2729.274640  	0.015567 
2731.203456  	0.015679 
2733.132272  	0.015811 
2735.061088  	0.016081 
2736.989904  	0.016254 
2738.918720  	0.016299 
2740.847536  	0.016327 
2742.776352  	0.016424 
2744.705168  	0.016587 
2746.633984  	0.016757 
2748.562800  	0.016896 
2750.491616  	0.017100 
2752.420432  	0.017223 
2754.349248  	0.017155 
2756.278064  	0.017145 
2758.206880  	0.017173 
2760.135696  	0.017234 
2762.064512  	0.017336 
2763.993328  	0.017403 
2765.922144  	0.017334 
2767.850960  	0.017376 
2769.779776  	0.017393 
2771.708592  	0.017316 
2773.637408  	0.017297 
2775.566224  	0.017363 
2777.495040  	0.017460 
2779.423856  	0.017414 
2781.352672  	0.017356 
2783.281488  	0.017430 
2785.210304  	0.017467 
2787.139120  	0.017592 
2789.067936  	0.017602 
2790.996752  	0.017494 
2792.925568  	0.017503 
2794.854384  	0.017448 
2796.783200  	0.017443 
2798.712016  	0.017514 
2800.640832  	0.017672 
2802.569648  	0.017675 
2804.498464  	0.017549 
2806.427280  	0.017569 
2808.356096  	0.017641 
2810.284912  	0.017643 
2812.213728  	0.017577 
2814.142544  	0.017626 
2816.071360  	0.017636 
2818.000176  	0.017655 
2819.928992  	0.017571 
2821.857808  	0.017576 
2823.786624  	0.017670 
2825.715440  	0.017572 
2827.644256  	0.017538 
2829.573072  	0.017563 
2831.501888  	0.017524 
2833.430704  	0.017413 
2835.359520  	0.017278 
2837.288336  	0.017221 
2839.217152  	0.017187 
2841.145968  	0.017100 
2843.074784  	0.017094 
2845.003600  	0.017120 
2846.932416  	0.017182 
2848.861232  	0.017228 
2850.790048  	0.017211 
2852.718864  	0.017262 
2854.647680  	0.017326 
2856.576496  	0.017375 
2858.505312  	0.017361 
2860.434128  	0.017354 
2862.362944  	0.017437 
2864.291760  	0.017475 
2866.220576  	0.017452 
2868.149392  	0.017474 
2870.078208  	0.017516 
2872.007024  	0.017670 
2873.935840  	0.017852 
2875.864656  	0.018160 
2877.793472  	0.018598 
2879.722288  	0.018872 
2881.651104  	0.019118 
2883.579920  	0.019159 
2885.508736  	0.019163 
2887.437552  	0.019318 
2889.366368  	0.019388 
2891.295184  	0.019345 
2893.224000  	0.019153 
2895.152816  	0.019034 
2897.081632  	0.018763 
2899.010448  	0.018149 
2900.939264  	0.017760 
2902.868080  	0.018046 
2904.796896  	0.018309 
2906.725712  	0.018429 
2908.654528  	0.018482 
2910.583344  	0.018600 
2912.512160  	0.019075 
2914.440976  	0.019617 
2916.369792  	0.020093 
2918.298608  	0.020386 
2920.227424  	0.020637 
2922.156240  	0.021063 
2924.085056  	0.021461 
2926.013872  	0.022003 
2927.942688  	0.022659 
2929.871504  	0.023186 
2931.800320  	0.023561 
2933.729136  	0.024133 
2935.657952  	0.024683 
2937.586768  	0.025057 
2939.515584  	0.025448 
2941.444400  	0.025826 
2943.373216  	0.026064 
2945.302032  	0.026021 
2947.230848  	0.026000 
2949.159664  	0.025993 
2951.088480  	0.025753 
2953.017296  	0.025448 
2954.946112  	0.025154 
2956.874928  	0.024833 
2958.803744  	0.024410 
2960.732560  	0.023937 
2962.661376  	0.023334 
2964.590192  	0.022944 
2966.519008  	0.022476 
2968.447824  	0.021682 
2970.376640  	0.020878 
2972.305456  	0.020180 
2974.234272  	0.019682 
2976.163088  	0.019216 
2978.091904  	0.018743 
2980.020720  	0.018433 
2981.949536  	0.018358 
2983.878352  	0.018369 
2985.807168  	0.018373 
2987.735984  	0.018442 
2989.664800  	0.018751 
2991.593616  	0.019527 
2993.522432  	0.020130 
2995.451248  	0.020466 
2997.380064  	0.021001 
2999.308880  	0.021455 
3001.237696  	0.021865 
3003.166512  	0.022228 
3005.095328  	0.022440 
3007.024144  	0.022644 
3008.952960  	0.023037 
3010.881776  	0.023503 
3012.810592  	0.023889 
3014.739408  	0.024215 
3016.668224  	0.024564 
3018.597040  	0.024864 
3020.525856  	0.025139 
3022.454672  	0.025520 
3024.383488  	0.025865 
3026.312304  	0.026233 
3028.241120  	0.026476 
3030.169936  	0.026656 
3032.098752  	0.027006 
3034.027568  	0.027282 
3035.956384  	0.027499 
3037.885200  	0.027651 
3039.814016  	0.027871 
3041.742832  	0.028128 
3043.671648  	0.028540 
3045.600464  	0.029140 
3047.529280  	0.029389 
3049.458096  	0.029535 
3051.386912  	0.029696 
3053.315728  	0.029879 
3055.244544  	0.030168 
3057.173360  	0.030707 
3059.102176  	0.031095 
3061.030992  	0.031434 
3062.959808  	0.031640 
3064.888624  	0.032012 
3066.817440  	0.032509 
3068.746256  	0.033069 
3070.675072  	0.033472 
3072.603888  	0.033758 
3074.532704  	0.034119 
3076.461520  	0.034484 
3078.390336  	0.034975 
3080.319152  	0.035571 
3082.247968  	0.036012 
3084.176784  	0.036458 
3086.105600  	0.036840 
3088.034416  	0.037257 
3089.963232  	0.037671 
3091.892048  	0.038067 
3093.820864  	0.038378 
3095.749680  	0.038788 
3097.678496  	0.039209 
3099.607312  	0.039843 
3101.536128  	0.040542 
3103.464944  	0.040970 
3105.393760  	0.041373 
3107.322576  	0.041678 
3109.251392  	0.041862 
3111.180208  	0.042061 
3113.109024  	0.042216 
3115.037840  	0.042312 
3116.966656  	0.042640 
3118.895472  	0.043225 
3120.824288  	0.043623 
3122.753104  	0.043969 
3124.681920  	0.044122 
3126.610736  	0.044251 
3128.539552  	0.044618 
3130.468368  	0.044749 
3132.397184  	0.044863 
3134.326000  	0.045124 
3136.254816  	0.045378 
3138.183632  	0.045556 
3140.112448  	0.045891 
3142.041264  	0.046216 
3143.970080  	0.046379 
3145.898896  	0.046618 
3147.827712  	0.046999 
3149.756528  	0.047315 
3151.685344  	0.047642 
3153.614160  	0.047805 
3155.542976  	0.048040 
3157.471792  	0.048388 
3159.400608  	0.048775 
3161.329424  	0.048935 
3163.258240  	0.049192 
3165.187056  	0.049598 
3167.115872  	0.049927 
3169.044688  	0.050169 
3170.973504  	0.050495 
3172.902320  	0.050551 
3174.831136  	0.050332 
3176.759952  	0.050361 
3178.688768  	0.050770 
3180.617584  	0.051140 
3182.546400  	0.051063 
3184.475216  	0.051005 
3186.404032  	0.050986 
3188.332848  	0.050754 
3190.261664  	0.050650 
3192.190480  	0.050654 
3194.119296  	0.050506 
3196.048112  	0.050315 
3197.976928  	0.050440 
3199.905744  	0.050454 
3201.834560  	0.050032 
3203.763376  	0.049864 
3205.692192  	0.049633 
3207.621008  	0.049084 
3209.549824  	0.048743 
3211.478640  	0.048488 
3213.407456  	0.048216 
3215.336272  	0.048176 
3217.265088  	0.047703 
3219.193904  	0.047465 
3221.122720  	0.047392 
3223.051536  	0.047213 
3224.980352  	0.047032 
3226.909168  	0.046562 
3228.837984  	0.046094 
3230.766800  	0.045939 
3232.695616  	0.045607 
3234.624432  	0.045339 
3236.553248  	0.045312 
3238.482064  	0.045321 
3240.410880  	0.045488 
3242.339696  	0.045479 
3244.268512  	0.045440 
3246.197328  	0.045774 
3248.126144  	0.045676 
3250.054960  	0.045726 
3251.983776  	0.045699 
3253.912592  	0.045878 
3255.841408  	0.046211 
3257.770224  	0.046447 
3259.699040  	0.046580 
3261.627856  	0.046702 
3263.556672  	0.046703 
3265.485488  	0.046890 
3267.414304  	0.047206 
3269.343120  	0.047390 
3271.271936  	0.047391 
3273.200752  	0.047426 
3275.129568  	0.047766 
3277.058384  	0.048103 
3278.987200  	0.048178 
3280.916016  	0.048227 
3282.844832  	0.048284 
3284.773648  	0.048320 
3286.702464  	0.048391 
3288.631280  	0.048419 
3290.560096  	0.048523 
3292.488912  	0.049167 
3294.417728  	0.049672 
3296.346544  	0.049826 
3298.275360  	0.049966 
3300.204176  	0.050157 
3302.132992  	0.050674 
3304.061808  	0.050945 
3305.990624  	0.051073 
3307.919440  	0.051193 
3309.848256  	0.051563 
3311.777072  	0.051793 
3313.705888  	0.051923 
3315.634704  	0.052076 
3317.563520  	0.052495 
3319.492336  	0.053022 
3321.421152  	0.053201 
3323.349968  	0.053330 
3325.278784  	0.053562 
3327.207600  	0.053789 
3329.136416  	0.053946 
3331.065232  	0.053942 
3332.994048  	0.053980 
3334.922864  	0.054023 
3336.851680  	0.054402 
3338.780496  	0.054641 
3340.709312  	0.054369 
3342.638128  	0.054012 
3344.566944  	0.053811 
3346.495760  	0.053671 
3348.424576  	0.053407 
3350.353392  	0.053177 
3352.282208  	0.053024 
3354.211024  	0.052880 
3356.139840  	0.052687 
3358.068656  	0.052652 
3359.997472  	0.052468 
3361.926288  	0.052124 
3363.855104  	0.051749 
3365.783920  	0.051682 
3367.712736  	0.051520 
3369.641552  	0.051366 
3371.570368  	0.051291 
3373.499184  	0.050887 
3375.428000  	0.050353 
3377.356816  	0.050297 
3379.285632  	0.050405 
3381.214448  	0.050397 
3383.143264  	0.050196 
3385.072080  	0.049999 
3387.000896  	0.049757 
3388.929712  	0.049347 
3390.858528  	0.048833 
3392.787344  	0.048912 
3394.716160  	0.048674 
3396.644976  	0.048369 
3398.573792  	0.048248 
3400.502608  	0.047877 
3402.431424  	0.047728 
3404.360240  	0.047571 
3406.289056  	0.047165 
3408.217872  	0.046909 
3410.146688  	0.046594 
3412.075504  	0.046100 
3414.004320  	0.045961 
3415.933136  	0.045718 
3417.861952  	0.044962 
3419.790768  	0.044802 
3421.719584  	0.045209 
3423.648400  	0.045028 
3425.577216  	0.044511 
3427.506032  	0.044173 
3429.434848  	0.043708 
3431.363664  	0.043433 
3433.292480  	0.043260 
3435.221296  	0.042912 
3437.150112  	0.042571 
3439.078928  	0.042066 
3441.007744  	0.041530 
3442.936560  	0.041380 
3444.865376  	0.040575 
3446.794192  	0.040585 
3448.723008  	0.041174 
3450.651824  	0.040219 
3452.580640  	0.039414 
3454.509456  	0.039016 
3456.438272  	0.038529 
3458.367088  	0.037888 
3460.295904  	0.037475 
3462.224720  	0.037356 
3464.153536  	0.037038 
3466.082352  	0.036430 
3468.011168  	0.035817 
3469.939984  	0.035109 
3471.868800  	0.034337 
3473.797616  	0.033775 
3475.726432  	0.033626 
3477.655248  	0.032851 
3479.584064  	0.031969 
3481.512880  	0.031907 
3483.441696  	0.031790 
3485.370512  	0.030640 
3487.299328  	0.030011 
3489.228144  	0.029874 
3491.156960  	0.029209 
3493.085776  	0.028231 
3495.014592  	0.027787 
3496.943408  	0.027615 
3498.872224  	0.026725 
3500.801040  	0.025565 
3502.729856  	0.025811 
3504.658672  	0.026284 
3506.587488  	0.025101 
3508.516304  	0.024242 
3510.445120  	0.024629 
3512.373936  	0.024120 
3514.302752  	0.023311 
3516.231568  	0.022559 
3518.160384  	0.022079 
3520.089200  	0.021167 
3522.018016  	0.020375 
3523.946832  	0.020897 
3525.875648  	0.020356 
3527.804464  	0.020107 
3529.733280  	0.020301 
3531.662096  	0.019845 
3533.590912  	0.018749 
3535.519728  	0.018440 
3537.448544  	0.018826 
3539.377360  	0.017843 
3541.306176  	0.016700 
3543.234992  	0.015856 
3545.163808  	0.016524 
3547.092624  	0.017535 
3549.021440  	0.016212 
3550.950256  	0.014465 
3552.879072  	0.015267 
3554.807888  	0.015139 
3556.736704  	0.013974 
3558.665520  	0.013315 
3560.594336  	0.013018 
3562.523152  	0.011597 
3564.451968  	0.009517 
3566.380784  	0.011048 
3568.309600  	0.014972 
3570.238416  	0.013031 
3572.167232  	0.010590 
3574.096048  	0.009773 
3576.024864  	0.009329 
3577.953680  	0.009011 
3579.882496  	0.008882 
3581.811312  	0.008006 
3583.740128  	0.005720 
3585.668944  	0.003827 
3587.597760  	0.007120 
3589.526576  	0.008667 
3591.455392  	0.004879 
3593.384208  	0.003380 
3595.313024  	0.004397 
3597.241840  	0.003944 
3599.170656  	0.002312 
3601.099472  	0.002778 
3603.028288  	0.002422 
3604.957104  	-0.000223 
3606.885920  	-0.001387 
3608.814736  	0.000565 
3610.743552  	-0.000613 
3612.672368  	-0.001921 
3614.601184  	-0.001750 
3616.530000  	-0.004647 
3618.458816  	-0.004650 
3620.387632  	-0.001189 
3622.316448  	-0.002137 
3624.245264  	-0.005254 
3626.174080  	-0.009510 
3628.102896  	-0.009693 
3630.031712  	-0.001788 
3631.960528  	-0.004780 
3633.889344  	-0.006158 
3635.818160  	-0.006357 
3637.746976  	-0.007757 
3639.675792  	-0.008448 
3641.604608  	-0.009122 
3643.533424  	-0.010553 
3645.462240  	-0.014756 
3647.391056  	-0.016866 
3649.319872  	-0.012759 
3651.248688  	-0.007077 
3653.177504  	-0.010672 
3655.106320  	-0.013685 
3657.035136  	-0.010579 
3658.963952  	-0.010832 
3660.892768  	-0.011926 
3662.821584  	-0.012666 
3664.750400  	-0.013684 
3666.679216  	-0.016438 
3668.608032  	-0.018722 
3670.536848  	-0.014013 
3672.465664  	-0.016162 
3674.394480  	-0.020136 
3676.323296  	-0.011753 
3678.252112  	-0.012317 
3680.180928  	-0.012839 
3682.109744  	-0.013433 
3684.038560  	-0.014799 
3685.967376  	-0.017675 
3687.896192  	-0.019143 
3689.825008  	-0.015501 
3691.753824  	-0.012245 
3693.682640  	-0.012442 
3695.611456  	-0.013397 
3697.540272  	-0.013497 
3699.469088  	-0.015153 
3701.397904  	-0.014404 
3703.326720  	-0.012624 
3705.255536  	-0.014019 
3707.184352  	-0.016194 
3709.113168  	-0.018166 
3711.041984  	-0.015918 
3712.970800  	-0.010775 
3714.899616  	-0.011358 
3716.828432  	-0.013875 
3718.757248  	-0.014714 
3720.686064  	-0.015478 
3722.614880  	-0.014924 
3724.543696  	-0.014378 
3726.472512  	-0.013091 
3728.401328  	-0.013683 
3730.330144  	-0.017694 
3732.258960  	-0.018792 
3734.187776  	-0.017406 
3736.116592  	-0.012339 
3738.045408  	-0.011884 
3739.974224  	-0.014491 
3741.903040  	-0.018069 
3743.831856  	-0.017568 
3745.760672  	-0.012202 
3747.689488  	-0.017711 
3749.618304  	-0.018894 
3751.547120  	-0.013503 
3753.475936  	-0.010458 
3755.404752  	-0.013524 
3757.333568  	-0.014887 
3759.262384  	-0.013368 
3761.191200  	-0.011490 
3763.120016  	-0.013738 
3765.048832  	-0.013769 
3766.977648  	-0.013328 
3768.906464  	-0.014187 
3770.835280  	-0.011304 
3772.764096  	-0.011330 
3774.692912  	-0.012600 
3776.621728  	-0.014162 
3778.550544  	-0.014489 
3780.479360  	-0.011651 
3782.408176  	-0.012626 
3784.336992  	-0.012934 
3786.265808  	-0.011815 
3788.194624  	-0.012073 
3790.123440  	-0.012558 
3792.052256  	-0.013001 
3793.981072  	-0.014704 
3795.909888  	-0.014875 
3797.838704  	-0.014503 
3799.767520  	-0.017737 
3801.696336  	-0.013886 
3803.625152  	-0.012331 
3805.553968  	-0.015774 
3807.482784  	-0.011892 
3809.411600  	-0.011262 
3811.340416  	-0.013149 
3813.269232  	-0.015905 
3815.198048  	-0.016814 
3817.126864  	-0.013597 
3819.055680  	-0.017538 
3820.984496  	-0.015116 
3822.913312  	-0.010687 
3824.842128  	-0.013854 
3826.770944  	-0.013570 
3828.699760  	-0.013840 
3830.628576  	-0.015240 
3832.557392  	-0.014910 
3834.486208  	-0.016251 
3836.415024  	-0.017443 
3838.343840  	-0.015425 
3840.272656  	-0.012942 
3842.201472  	-0.012799 
3844.130288  	-0.011882 
3846.059104  	-0.012259 
3847.987920  	-0.014673 
3849.916736  	-0.018070 
3851.845552  	-0.020985 
3853.774368  	-0.011836 
3855.703184  	-0.008759 
3857.632000  	-0.011296 
3859.560816  	-0.013823 
3861.489632  	-0.015366 
3863.418448  	-0.014976 
3865.347264  	-0.012224 
3867.276080  	-0.014702 
3869.204896  	-0.015572 
3871.133712  	-0.011487 
3873.062528  	-0.013540 
3874.991344  	-0.011438 
3876.920160  	-0.013152 
3878.848976  	-0.015354 
3880.777792  	-0.012565 
3882.706608  	-0.012851 
3884.635424  	-0.014062 
3886.564240  	-0.010254 
3888.493056  	-0.013280 
3890.421872  	-0.014823 
3892.350688  	-0.011563 
3894.279504  	-0.011631 
3896.208320  	-0.014302 
3898.137136  	-0.015629 
3900.065952  	-0.014042 
3901.994768  	-0.013160 
3903.923584  	-0.011271 
3905.852400  	-0.009664 
3907.781216  	-0.011155 
3909.710032  	-0.012409 
3911.638848  	-0.012451 
3913.567664  	-0.012927 
3915.496480  	-0.013595 
3917.425296  	-0.012198 
3919.354112  	-0.011742 
3921.282928  	-0.012186 
3923.211744  	-0.012822 
3925.140560  	-0.011449 
3927.069376  	-0.012045 
3928.998192  	-0.013323 
3930.927008  	-0.012675 
3932.855824  	-0.011107 
3934.784640  	-0.011278 
3936.713456  	-0.012146 
3938.642272  	-0.012289 
3940.571088  	-0.013033 
3942.499904  	-0.012077 
3944.428720  	-0.011429 
3946.357536  	-0.012603 
3948.286352  	-0.012247 
3950.215168  	-0.011700 
3952.143984  	-0.012218 
3954.072800  	-0.012636 
3956.001616  	-0.012622 
3957.930432  	-0.012541 
3959.859248  	-0.012532 
3961.788064  	-0.012012 
3963.716880  	-0.011639 
3965.645696  	-0.012041 
3967.574512  	-0.012317 
3969.503328  	-0.012299 
3971.432144  	-0.012407 
3973.360960  	-0.012399 
3975.289776  	-0.011938 
3977.218592  	-0.011865 
3979.147408  	-0.012181 
3981.076224  	-0.012397 
3983.005040  	-0.012233 
3984.933856  	-0.012190 
3986.862672  	-0.012408 
3988.791488  	-0.012559 
3990.720304  	-0.012397 
3992.649120  	-0.012313 
3994.577936  	-0.012260 
3996.506752  	-0.012404 
3998.435568  	-0.012339 
4000.364384  	-0.012262 