##TITLE=No Description
##DATA TYPE=INFRARED SPECTRUM
##XUNITS=1/CM
##YUNITS=Abs
399.264912  	0.543085 
401.193728  	0.566273 
403.122544  	0.563624 
405.051360  	0.535252 
406.980176  	0.530436 
408.908992  	0.544861 
410.837808  	0.560113 
412.766624  	0.547961 
414.695440  	0.525607 
416.624256  	0.518898 
418.553072  	0.523888 
420.481888  	0.511223 
422.410704  	0.512941 
424.339520  	0.515277 
426.268336  	0.526205 
428.197152  	0.520830 
430.125968  	0.511826 
432.054784  	0.494623 
433.983600  	0.490899 
435.912416  	0.491734 
437.841232  	0.496273 
439.770048  	0.492009 
441.698864  	0.486550 
443.627680  	0.481093 
445.556496  	0.483161 
447.485312  	0.487706 
449.414128  	0.491939 
451.342944  	0.485704 
453.271760  	0.479635 
455.200576  	0.477307 
457.129392  	0.480663 
459.058208  	0.470669 
460.987024  	0.471476 
462.915840  	0.474746 
464.844656  	0.477380 
466.773472  	0.472771 
468.702288  	0.473558 
470.631104  	0.477753 
472.559920  	0.480850 
474.488736  	0.482173 
476.417552  	0.482286 
478.346368  	0.470360 
480.275184  	0.470108 
482.204000  	0.470202 
484.132816  	0.472332 
486.061632  	0.469797 
487.990448  	0.465704 
489.919264  	0.461688 
491.848080  	0.465522 
493.776896  	0.464616 
495.705712  	0.464208 
497.634528  	0.461016 
499.563344  	0.461907 
501.492160  	0.460788 
503.420976  	0.457310 
505.349792  	0.453185 
507.278608  	0.452657 
509.207424  	0.450937 
511.136240  	0.452779 
513.065056  	0.453538 
514.993872  	0.456035 
516.922688  	0.455543 
518.851504  	0.456356 
520.780320  	0.455659 
522.709136  	0.455870 
524.637952  	0.454152 
526.566768  	0.454902 
528.495584  	0.450780 
530.424400  	0.448418 
532.353216  	0.445013 
534.282032  	0.441317 
536.210848  	0.434822 
538.139664  	0.430021 
540.068480  	0.426146 
541.997296  	0.423892 
543.926112  	0.421549 
545.854928  	0.418949 
547.783744  	0.415601 
549.712560  	0.413372 
551.641376  	0.409161 
553.570192  	0.406450 
555.499008  	0.404127 
557.427824  	0.403889 
559.356640  	0.402557 
561.285456  	0.399323 
563.214272  	0.394457 
565.143088  	0.391087 
567.071904  	0.386359 
569.000720  	0.383898 
570.929536  	0.381495 
572.858352  	0.379905 
574.787168  	0.378207 
576.715984  	0.376406 
578.644800  	0.372150 
580.573616  	0.368375 
582.502432  	0.364440 
584.431248  	0.360039 
586.360064  	0.355751 
588.288880  	0.353331 
590.217696  	0.351391 
592.146512  	0.349987 
594.075328  	0.348410 
596.004144  	0.346697 
597.932960  	0.344388 
599.861776  	0.343250 
601.790592  	0.340808 
603.719408  	0.339961 
605.648224  	0.338560 
607.577040  	0.336472 
609.505856  	0.334273 
611.434672  	0.333718 
613.363488  	0.331932 
615.292304  	0.330044 
617.221120  	0.327660 
619.149936  	0.326089 
621.078752  	0.324801 
623.007568  	0.324345 
624.936384  	0.322689 
626.865200  	0.322092 
628.794016  	0.320663 
630.722832  	0.318971 
632.651648  	0.317564 
634.580464  	0.317401 
636.509280  	0.317775 
638.438096  	0.316591 
640.366912  	0.314998 
642.295728  	0.314083 
644.224544  	0.311811 
646.153360  	0.309385 
648.082176  	0.305895 
650.010992  	0.303391 
651.939808  	0.299790 
653.868624  	0.295544 
655.797440  	0.291529 
657.726256  	0.288988 
659.655072  	0.284911 
661.583888  	0.281513 
663.512704  	0.279041 
665.441520  	0.275845 
667.370336  	0.270523 
669.299152  	0.266080 
671.227968  	0.263069 
673.156784  	0.260337 
675.085600  	0.258340 
677.014416  	0.255685 
678.943232  	0.252842 
680.872048  	0.251463 
682.800864  	0.249848 
684.729680  	0.248573 
686.658496  	0.246358 
688.587312  	0.245016 
690.516128  	0.243177 
692.444944  	0.241896 
694.373760  	0.241409 
696.302576  	0.240218 
698.231392  	0.237527 
700.160208  	0.235303 
702.089024  	0.233407 
704.017840  	0.231405 
705.946656  	0.228796 
707.875472  	0.226825 
709.804288  	0.224960 
711.733104  	0.222988 
713.661920  	0.221242 
715.590736  	0.219717 
717.519552  	0.219009 
719.448368  	0.218741 
721.377184  	0.218514 
723.306000  	0.218538 
725.234816  	0.218326 
727.163632  	0.216936 
729.092448  	0.214756 
731.021264  	0.212172 
732.950080  	0.209089 
734.878896  	0.206368 
736.807712  	0.204143 
738.736528  	0.202008 
740.665344  	0.199842 
742.594160  	0.198543 
744.522976  	0.196936 
746.451792  	0.195822 
748.380608  	0.194367 
750.309424  	0.193098 
752.238240  	0.191754 
754.167056  	0.191062 
756.095872  	0.190111 
758.024688  	0.188846 
759.953504  	0.188257 
761.882320  	0.188265 
763.811136  	0.188507 
765.739952  	0.187202 
767.668768  	0.184443 
769.597584  	0.181843 
771.526400  	0.180627 
773.455216  	0.181194 
775.384032  	0.183261 
777.312848  	0.186855 
779.241664  	0.189351 
781.170480  	0.188526 
783.099296  	0.184254 
785.028112  	0.179335 
786.956928  	0.174834 
788.885744  	0.171326 
790.814560  	0.167833 
792.743376  	0.165980 
794.672192  	0.165284 
796.601008  	0.163767 
798.529824  	0.160707 
800.458640  	0.157217 
802.387456  	0.154294 
804.316272  	0.152418 
806.245088  	0.150864 
808.173904  	0.149804 
810.102720  	0.149049 
812.031536  	0.148482 
813.960352  	0.148366 
815.889168  	0.148636 
817.817984  	0.148766 
819.746800  	0.148549 
821.675616  	0.148642 
823.604432  	0.149192 
825.533248  	0.149388 
827.462064  	0.148919 
829.390880  	0.148378 
831.319696  	0.147843 
833.248512  	0.146407 
835.177328  	0.144793 
837.106144  	0.142481 
839.034960  	0.140034 
840.963776  	0.137230 
842.892592  	0.134251 
844.821408  	0.130915 
846.750224  	0.127740 
848.679040  	0.125421 
850.607856  	0.123575 
852.536672  	0.122283 
854.465488  	0.121151 
856.394304  	0.120124 
858.323120  	0.119297 
860.251936  	0.118018 
862.180752  	0.116614 
864.109568  	0.114728 
866.038384  	0.112448 
867.967200  	0.110513 
869.896016  	0.108998 
871.824832  	0.107772 
873.753648  	0.106862 
875.682464  	0.106369 
877.611280  	0.107071 
879.540096  	0.108946 
881.468912  	0.111392 
883.397728  	0.113846 
885.326544  	0.116100 
887.255360  	0.117586 
889.184176  	0.117933 
891.112992  	0.117614 
893.041808  	0.116735 
894.970624  	0.114930 
896.899440  	0.111924 
898.828256  	0.108543 
900.757072  	0.105011 
902.685888  	0.101536 
904.614704  	0.099423 
906.543520  	0.098718 
908.472336  	0.099401 
910.401152  	0.100773 
912.329968  	0.102526 
914.258784  	0.104702 
916.187600  	0.106573 
918.116416  	0.108188 
920.045232  	0.109486 
921.974048  	0.110304 
923.902864  	0.110926 
925.831680  	0.111300 
927.760496  	0.111811 
929.689312  	0.112586 
931.618128  	0.113553 
933.546944  	0.114178 
935.475760  	0.114435 
937.404576  	0.114196 
939.333392  	0.113384 
941.262208  	0.112745 
943.191024  	0.112994 
945.119840  	0.114693 
947.048656  	0.118088 
948.977472  	0.123473 
950.906288  	0.130384 
952.835104  	0.138831 
954.763920  	0.148703 
956.692736  	0.159032 
958.621552  	0.168782 
960.550368  	0.176331 
962.479184  	0.181655 
964.408000  	0.183424 
966.336816  	0.181399 
968.265632  	0.175539 
970.194448  	0.166912 
972.123264  	0.156095 
974.052080  	0.144033 
975.980896  	0.131799 
977.909712  	0.120302 
979.838528  	0.110124 
981.767344  	0.101863 
983.696160  	0.095529 
985.624976  	0.091261 
987.553792  	0.089623 
989.482608  	0.090477 
991.411424  	0.093478 
993.340240  	0.098178 
995.269056  	0.103574 
997.197872  	0.109367 
999.126688  	0.115171 
1001.055504  	0.121106 
1002.984320  	0.127008 
1004.913136  	0.133005 
1006.841952  	0.138781 
1008.770768  	0.144200 
1010.699584  	0.148998 
1012.628400  	0.152881 
1014.557216  	0.155706 
1016.486032  	0.157750 
1018.414848  	0.158703 
1020.343664  	0.159301 
1022.272480  	0.159882 
1024.201296  	0.160259 
1026.130112  	0.160002 
1028.058928  	0.160409 
1029.987744  	0.161878 
1031.916560  	0.163583 
1033.845376  	0.165222 
1035.774192  	0.167436 
1037.703008  	0.170478 
1039.631824  	0.175649 
1041.560640  	0.183883 
1043.489456  	0.196025 
1045.418272  	0.211206 
1047.347088  	0.227895 
1049.275904  	0.243298 
1051.204720  	0.255152 
1053.133536  	0.262105 
1055.062352  	0.265326 
1056.991168  	0.265652 
1058.919984  	0.265910 
1060.848800  	0.265772 
1062.777616  	0.265586 
1064.706432  	0.264522 
1066.635248  	0.263019 
1068.564064  	0.260202 
1070.492880  	0.255440 
1072.421696  	0.249728 
1074.350512  	0.246046 
1076.279328  	0.245005 
1078.208144  	0.247462 
1080.136960  	0.251929 
1082.065776  	0.256216 
1083.994592  	0.257292 
1085.923408  	0.254552 
1087.852224  	0.248184 
1089.781040  	0.239765 
1091.709856  	0.229307 
1093.638672  	0.217779 
1095.567488  	0.204811 
1097.496304  	0.191726 
1099.425120  	0.178361 
1101.353936  	0.165681 
1103.282752  	0.153754 
1105.211568  	0.142665 
1107.140384  	0.132192 
1109.069200  	0.122998 
1110.998016  	0.114670 
1112.926832  	0.106731 
1114.855648  	0.099570 
1116.784464  	0.093023 
1118.713280  	0.086525 
1120.642096  	0.080261 
1122.570912  	0.074395 
1124.499728  	0.069172 
1126.428544  	0.064712 
1128.357360  	0.060740 
1130.286176  	0.057206 
1132.214992  	0.054624 
1134.143808  	0.052584 
1136.072624  	0.050671 
1138.001440  	0.049143 
1139.930256  	0.047951 
1141.859072  	0.046667 
1143.787888  	0.045264 
1145.716704  	0.044031 
1147.645520  	0.043296 
1149.574336  	0.042894 
1151.503152  	0.042666 
1153.431968  	0.042938 
1155.360784  	0.043117 
1157.289600  	0.043463 
1159.218416  	0.043916 
1161.147232  	0.044599 
1163.076048  	0.045596 
1165.004864  	0.046694 
1166.933680  	0.047489 
1168.862496  	0.048479 
1170.791312  	0.049817 
1172.720128  	0.051421 
1174.648944  	0.053451 
1176.577760  	0.055410 
1178.506576  	0.057658 
1180.435392  	0.060020 
1182.364208  	0.062356 
1184.293024  	0.065111 
1186.221840  	0.068097 
1188.150656  	0.071699 
1190.079472  	0.075977 
1192.008288  	0.080956 
1193.937104  	0.086668 
1195.865920  	0.093239 
1197.794736  	0.100574 
1199.723552  	0.108269 
1201.652368  	0.116372 
1203.581184  	0.124476 
1205.510000  	0.132004 
1207.438816  	0.138901 
1209.367632  	0.145481 
1211.296448  	0.150753 
1213.225264  	0.154878 
1215.154080  	0.157653 
1217.082896  	0.159579 
1219.011712  	0.160319 
1220.940528  	0.160432 
1222.869344  	0.159600 
1224.798160  	0.158106 
1226.726976  	0.155779 
1228.655792  	0.152988 
1230.584608  	0.149425 
1232.513424  	0.145431 
1234.442240  	0.140928 
1236.371056  	0.135946 
1238.299872  	0.130529 
1240.228688  	0.124382 
1242.157504  	0.118164 
1244.086320  	0.112207 
1246.015136  	0.106087 
1247.943952  	0.099931 
1249.872768  	0.094027 
1251.801584  	0.088532 
1253.730400  	0.082912 
1255.659216  	0.077543 
1257.588032  	0.072564 
1259.516848  	0.067755 
1261.445664  	0.063141 
1263.374480  	0.059102 
1265.303296  	0.055746 
1267.232112  	0.052932 
1269.160928  	0.050861 
1271.089744  	0.049445 
1273.018560  	0.048872 
1274.947376  	0.049061 
1276.876192  	0.049590 
1278.805008  	0.050075 
1280.733824  	0.050119 
1282.662640  	0.049145 
1284.591456  	0.047597 
1286.520272  	0.046120 
1288.449088  	0.045269 
1290.377904  	0.045494 
1292.306720  	0.046378 
1294.235536  	0.047088 
1296.164352  	0.047037 
1298.093168  	0.045739 
1300.021984  	0.043618 
1301.950800  	0.041255 
1303.879616  	0.038784 
1305.808432  	0.036074 
1307.737248  	0.033205 
1309.666064  	0.030470 
1311.594880  	0.028414 
1313.523696  	0.026958 
1315.452512  	0.025880 
1317.381328  	0.025250 
1319.310144  	0.025221 
1321.238960  	0.025572 
1323.167776  	0.026206 
1325.096592  	0.026774 
1327.025408  	0.027155 
1328.954224  	0.027033 
1330.883040  	0.026370 
1332.811856  	0.025311 
1334.740672  	0.024248 
1336.669488  	0.023567 
1338.598304  	0.023418 
1340.527120  	0.023043 
1342.455936  	0.022480 
1344.384752  	0.022340 
1346.313568  	0.022574 
1348.242384  	0.023154 
1350.171200  	0.024278 
1352.100016  	0.025648 
1354.028832  	0.027180 
1355.957648  	0.028888 
1357.886464  	0.030336 
1359.815280  	0.031930 
1361.744096  	0.033997 
1363.672912  	0.036302 
1365.601728  	0.037857 
1367.530544  	0.039408 
1369.459360  	0.040981 
1371.388176  	0.041617 
1373.316992  	0.041258 
1375.245808  	0.040064 
1377.174624  	0.038384 
1379.103440  	0.036412 
1381.032256  	0.034206 
1382.961072  	0.032264 
1384.889888  	0.030662 
1386.818704  	0.029506 
1388.747520  	0.028135 
1390.676336  	0.026194 
1392.605152  	0.023876 
1394.533968  	0.022371 
1396.462784  	0.022596 
1398.391600  	0.022500 
1400.320416  	0.022793 
1402.249232  	0.022980 
1404.178048  	0.023369 
1406.106864  	0.024210 
1408.035680  	0.025261 
1409.964496  	0.026521 
1411.893312  	0.028386 
1413.822128  	0.030027 
1415.750944  	0.031521 
1417.679760  	0.032550 
1419.608576  	0.033673 
1421.537392  	0.033956 
1423.466208  	0.033413 
1425.395024  	0.032560 
1427.323840  	0.030866 
1429.252656  	0.028542 
1431.181472  	0.027231 
1433.110288  	0.026770 
1435.039104  	0.026278 
1436.967920  	0.027399 
1438.896736  	0.029011 
1440.825552  	0.029726 
1442.754368  	0.030303 
1444.683184  	0.030311 
1446.612000  	0.029929 
1448.540816  	0.029941 
1450.469632  	0.030209 
1452.398448  	0.030207 
1454.327264  	0.029683 
1456.256080  	0.028202 
1458.184896  	0.028564 
1460.113712  	0.029905 
1462.042528  	0.029922 
1463.971344  	0.029032 
1465.900160  	0.029951 
1467.828976  	0.031143 
1469.757792  	0.031787 
1471.686608  	0.032701 
1473.615424  	0.037535 
1475.544240  	0.042375 
1477.473056  	0.047149 
1479.401872  	0.050150 
1481.330688  	0.052915 
1483.259504  	0.055250 
1485.188320  	0.056592 
1487.117136  	0.056641 
1489.045952  	0.056769 
1490.974768  	0.056519 
1492.903584  	0.055286 
1494.832400  	0.051870 
1496.761216  	0.046846 
1498.690032  	0.042294 
1500.618848  	0.039019 
1502.547664  	0.035273 
1504.476480  	0.030575 
1506.405296  	0.025629 
1508.334112  	0.026835 
1510.262928  	0.026788 
1512.191744  	0.025939 
1514.120560  	0.025182 
1516.049376  	0.024574 
1517.978192  	0.025285 
1519.907008  	0.025780 
1521.835824  	0.028507 
1523.764640  	0.032760 
1525.693456  	0.035925 
1527.622272  	0.038534 
1529.551088  	0.039431 
1531.479904  	0.038215 
1533.408720  	0.035408 
1535.337536  	0.033663 
1537.266352  	0.030566 
1539.195168  	0.024485 
1541.123984  	0.021931 
1543.052800  	0.023986 
1544.981616  	0.024763 
1546.910432  	0.024503 
1548.839248  	0.023714 
1550.768064  	0.023708 
1552.696880  	0.022771 
1554.625696  	0.022111 
1556.554512  	0.020067 
1558.483328  	0.017880 
1560.412144  	0.025237 
1562.340960  	0.028037 
1564.269776  	0.029520 
1566.198592  	0.032362 
1568.127408  	0.033560 
1570.056224  	0.037736 
1571.985040  	0.042210 
1573.913856  	0.043649 
1575.842672  	0.044354 
1577.771488  	0.047833 
1579.700304  	0.048496 
1581.629120  	0.047982 
1583.557936  	0.047197 
1585.486752  	0.047305 
1587.415568  	0.048439 
1589.344384  	0.051144 
1591.273200  	0.054733 
1593.202016  	0.059286 
1595.130832  	0.064425 
1597.059648  	0.070405 
1598.988464  	0.075503 
1600.917280  	0.079990 
1602.846096  	0.083161 
1604.774912  	0.085685 
1606.703728  	0.086320 
1608.632544  	0.086029 
1610.561360  	0.084834 
1612.490176  	0.083436 
1614.418992  	0.080436 
1616.347808  	0.078619 
1618.276624  	0.080891 
1620.205440  	0.082740 
1622.134256  	0.083556 
1624.063072  	0.088542 
1625.991888  	0.093035 
1627.920704  	0.098735 
1629.849520  	0.106241 
1631.778336  	0.112161 
1633.707152  	0.115617 
1635.635968  	0.122389 
1637.564784  	0.132554 
1639.493600  	0.138457 
1641.422416  	0.142748 
1643.351232  	0.145481 
1645.280048  	0.145138 
1647.208864  	0.147261 
1649.137680  	0.150507 
1651.066496  	0.149383 
1652.995312  	0.146416 
1654.924128  	0.150899 
1656.852944  	0.150977 
1658.781760  	0.149804 
1660.710576  	0.146968 
1662.639392  	0.143793 
1664.568208  	0.141537 
1666.497024  	0.138491 
1668.425840  	0.133263 
1670.354656  	0.128518 
1672.283472  	0.125565 
1674.212288  	0.122279 
1676.141104  	0.119106 
1678.069920  	0.117187 
1679.998736  	0.115132 
1681.927552  	0.112741 
1683.856368  	0.109913 
1685.785184  	0.112502 
1687.714000  	0.113276 
1689.642816  	0.113619 
1691.571632  	0.113394 
1693.500448  	0.112406 
1695.429264  	0.110187 
1697.358080  	0.109543 
1699.286896  	0.108523 
1701.215712  	0.109799 
1703.144528  	0.109417 
1705.073344  	0.107402 
1707.002160  	0.105300 
1708.930976  	0.103347 
1710.859792  	0.099313 
1712.788608  	0.093822 
1714.717424  	0.086001 
1716.646240  	0.076700 
1718.575056  	0.066633 
1720.503872  	0.059559 
1722.432688  	0.052176 
1724.361504  	0.043414 
1726.290320  	0.035966 
1728.219136  	0.029348 
1730.147952  	0.023172 
1732.076768  	0.017571 
1734.005584  	0.013016 
1735.934400  	0.010710 
1737.863216  	0.008829 
1739.792032  	0.006141 
1741.720848  	0.005226 
1743.649664  	0.004305 
1745.578480  	0.002966 
1747.507296  	0.001201 
1749.436112  	0.000583 
1751.364928  	0.000875 
1753.293744  	0.000801 
1755.222560  	-0.000092 
1757.151376  	-0.000267 
1759.080192  	-0.000935 
1761.009008  	-0.001615 
1762.937824  	-0.001615 
1764.866640  	-0.001555 
1766.795456  	-0.002127 
1768.724272  	-0.002689 
1770.653088  	-0.004871 
1772.581904  	-0.005248 
1774.510720  	-0.003600 
1776.439536  	-0.002868 
1778.368352  	-0.003153 
1780.297168  	-0.003593 
1782.225984  	-0.003543 
1784.154800  	-0.003178 
1786.083616  	-0.003238 
1788.012432  	-0.003607 
1789.941248  	-0.004366 
1791.870064  	-0.004962 
1793.798880  	-0.004664 
1795.727696  	-0.004072 
1797.656512  	-0.004658 
1799.585328  	-0.005107 
1801.514144  	-0.004528 
1803.442960  	-0.004425 
1805.371776  	-0.004914 
1807.300592  	-0.004811 
1809.229408  	-0.005205 
1811.158224  	-0.005365 
1813.087040  	-0.005092 
1815.015856  	-0.004995 
1816.944672  	-0.005104 
1818.873488  	-0.004846 
1820.802304  	-0.005112 
1822.731120  	-0.005431 
1824.659936  	-0.005749 
1826.588752  	-0.005636 
1828.517568  	-0.006449 
1830.446384  	-0.006048 
1832.375200  	-0.005392 
1834.304016  	-0.005086 
1836.232832  	-0.005096 
1838.161648  	-0.005165 
1840.090464  	-0.005460 
1842.019280  	-0.005720 
1843.948096  	-0.005986 
1845.876912  	-0.005389 
1847.805728  	-0.004992 
1849.734544  	-0.004794 
1851.663360  	-0.005456 
1853.592176  	-0.005752 
1855.520992  	-0.005791 
1857.449808  	-0.005409 
1859.378624  	-0.005269 
1861.307440  	-0.005091 
1863.236256  	-0.005444 
1865.165072  	-0.005891 
1867.093888  	-0.006867 
1869.022704  	-0.006571 
1870.951520  	-0.005875 
1872.880336  	-0.005679 
1874.809152  	-0.005920 
1876.737968  	-0.005837 
1878.666784  	-0.005723 
1880.595600  	-0.005509 
1882.524416  	-0.005801 
1884.453232  	-0.005736 
1886.382048  	-0.005748 
1888.310864  	-0.005593 
1890.239680  	-0.005616 
1892.168496  	-0.005596 
1894.097312  	-0.006182 
1896.026128  	-0.006055 
1897.954944  	-0.005547 
1899.883760  	-0.005395 
1901.812576  	-0.005745 
1903.741392  	-0.005615 
1905.670208  	-0.005668 
1907.599024  	-0.005629 
1909.527840  	-0.005754 
1911.456656  	-0.005465 
1913.385472  	-0.005439 
1915.314288  	-0.005715 
1917.243104  	-0.006302 
1919.171920  	-0.005807 
1921.100736  	-0.005828 
1923.029552  	-0.005603 
1924.958368  	-0.006081 
1926.887184  	-0.006466 
1928.816000  	-0.006397 
1930.744816  	-0.006238 
1932.673632  	-0.006060 
1934.602448  	-0.005853 
1936.531264  	-0.006428 
1938.460080  	-0.006745 
1940.388896  	-0.006859 
1942.317712  	-0.006056 
1944.246528  	-0.005667 
1946.175344  	-0.005327 
1948.104160  	-0.005706 
1950.032976  	-0.006458 
1951.961792  	-0.006645 
1953.890608  	-0.005934 
1955.819424  	-0.006315 
1957.748240  	-0.006394 
1959.677056  	-0.007104 
1961.605872  	-0.007047 
1963.534688  	-0.007173 
1965.463504  	-0.006598 
1967.392320  	-0.007730 
1969.321136  	-0.007884 
1971.249952  	-0.007414 
1973.178768  	-0.007107 
1975.107584  	-0.007180 
1977.036400  	-0.005922 
1978.965216  	-0.004297 
1980.894032  	-0.004218 
1982.822848  	-0.005755 
1984.751664  	-0.005738 
1986.680480  	-0.005308 
1988.609296  	-0.004810 
1990.538112  	-0.005399 
1992.466928  	-0.005655 
1994.395744  	-0.006734 
1996.324560  	-0.006981 
1998.253376  	-0.006763 
2000.182192  	-0.006413 
2002.111008  	-0.006156 
2004.039824  	-0.005627 
2005.968640  	-0.006326 
2007.897456  	-0.006435 
2009.826272  	-0.006606 
2011.755088  	-0.006707 
2013.683904  	-0.006716 
2015.612720  	-0.006414 
2017.541536  	-0.005254 
2019.470352  	-0.003708 
2021.399168  	-0.004448 
2023.327984  	-0.004295 
2025.256800  	-0.004683 
2027.185616  	-0.005034 
2029.114432  	-0.005362 
2031.043248  	-0.005215 
2032.972064  	-0.004685 
2034.900880  	-0.003399 
2036.829696  	-0.003507 
2038.758512  	-0.003073 
2040.687328  	-0.002504 
2042.616144  	-0.002370 
2044.544960  	-0.003328 
2046.473776  	-0.004259 
2048.402592  	-0.004279 
2050.331408  	-0.003738 
2052.260224  	-0.004969 
2054.189040  	-0.005743 
2056.117856  	-0.005399 
2058.046672  	-0.004662 
2059.975488  	-0.004801 
2061.904304  	-0.005006 
2063.833120  	-0.005080 
2065.761936  	-0.004266 
2067.690752  	-0.004012 
2069.619568  	-0.004503 
2071.548384  	-0.005033 
2073.477200  	-0.004659 
2075.406016  	-0.004787 
2077.334832  	-0.004292 
2079.263648  	-0.004317 
2081.192464  	-0.004285 
2083.121280  	-0.004901 
2085.050096  	-0.004976 
2086.978912  	-0.005017 
2088.907728  	-0.004700 
2090.836544  	-0.005074 
2092.765360  	-0.005188 
2094.694176  	-0.005019 
2096.622992  	-0.004328 
2098.551808  	-0.004174 
2100.480624  	-0.004455 
2102.409440  	-0.004220 
2104.338256  	-0.003877 
2106.267072  	-0.003979 
2108.195888  	-0.003612 
2110.124704  	-0.003598 
2112.053520  	-0.003702 
2113.982336  	-0.003881 
2115.911152  	-0.004144 
2117.839968  	-0.004315 
2119.768784  	-0.004243 
2121.697600  	-0.004854 
2123.626416  	-0.005048 
2125.555232  	-0.005423 
2127.484048  	-0.005396 
2129.412864  	-0.005635 
2131.341680  	-0.006174 
2133.270496  	-0.006256 
2135.199312  	-0.004820 
2137.128128  	-0.004341 
2139.056944  	-0.004827 
2140.985760  	-0.004985 
2142.914576  	-0.004063 
2144.843392  	-0.004233 
2146.772208  	-0.004943 
2148.701024  	-0.004481 
2150.629840  	-0.003557 
2152.558656  	-0.004345 
2154.487472  	-0.004728 
2156.416288  	-0.004015 
2158.345104  	-0.000492 
2160.273920  	0.001811 
2162.202736  	0.001778 
2164.131552  	0.000965 
2166.060368  	0.000550 
2167.989184  	-0.000605 
2169.918000  	-0.001094 
2171.846816  	-0.001437 
2173.775632  	-0.001387 
2175.704448  	-0.001883 
2177.633264  	-0.002447 
2179.562080  	-0.003228 
2181.490896  	-0.003405 
2183.419712  	-0.003081 
2185.348528  	-0.002824 
2187.277344  	-0.002698 
2189.206160  	-0.002356 
2191.134976  	-0.001577 
2193.063792  	-0.000859 
2194.992608  	-0.002203 
2196.921424  	-0.002636 
2198.850240  	-0.002291 
2200.779056  	-0.002212 
2202.707872  	-0.002637 
2204.636688  	-0.002732 
2206.565504  	-0.002490 
2208.494320  	-0.001807 
2210.423136  	-0.002648 
2212.351952  	-0.003443 
2214.280768  	-0.003280 
2216.209584  	-0.002823 
2218.138400  	-0.003022 
2220.067216  	-0.002958 
2221.996032  	-0.002947 
2223.924848  	-0.002964 
2225.853664  	-0.003646 
2227.782480  	-0.003882 
2229.711296  	-0.003501 
2231.640112  	-0.003199 
2233.568928  	-0.004006 
2235.497744  	-0.004152 
2237.426560  	-0.003922 
2239.355376  	-0.003800 
2241.284192  	-0.003785 
2243.213008  	-0.003927 
2245.141824  	-0.003942 
2247.070640  	-0.003672 
2248.999456  	-0.004261 
2250.928272  	-0.004681 
2252.857088  	-0.004788 
2254.785904  	-0.004205 
2256.714720  	-0.004035 
2258.643536  	-0.004703 
2260.572352  	-0.004635 
2262.501168  	-0.004091 
2264.429984  	-0.004311 
2266.358800  	-0.004391 
2268.287616  	-0.004131 
2270.216432  	-0.004139 
2272.145248  	-0.004546 
2274.074064  	-0.004437 
2276.002880  	-0.004233 
2277.931696  	-0.004053 
2279.860512  	-0.003872 
2281.789328  	-0.003495 
2283.718144  	-0.003189 
2285.646960  	-0.002859 
2287.575776  	-0.003060 
2289.504592  	-0.003208 
2291.433408  	-0.003153 
2293.362224  	-0.002926 
2295.291040  	-0.002628 
2297.219856  	-0.002529 
2299.148672  	-0.002667 
2301.077488  	-0.002484 
2303.006304  	-0.002461 
2304.935120  	-0.002454 
2306.863936  	-0.002228 
2308.792752  	-0.002228 
2310.721568  	-0.002468 
2312.650384  	-0.002750 
2314.579200  	-0.003379 
2316.508016  	-0.003842 
2318.436832  	-0.004313 
2320.365648  	-0.004743 
2322.294464  	-0.005093 
2324.223280  	-0.005940 
2326.152096  	-0.008014 
2328.080912  	-0.009132 
2330.009728  	-0.009451 
2331.938544  	-0.010223 
2333.867360  	-0.011386 
2335.796176  	-0.011990 
2337.724992  	-0.012442 
2339.653808  	-0.012906 
2341.582624  	-0.012745 
2343.511440  	-0.011424 
2345.440256  	-0.009414 
2347.369072  	-0.007200 
2349.297888  	-0.006877 
2351.226704  	-0.008600 
2353.155520  	-0.011284 
2355.084336  	-0.013713 
2357.013152  	-0.015818 
2358.941968  	-0.016440 
2360.870784  	-0.015497 
2362.799600  	-0.014254 
2364.728416  	-0.013461 
2366.657232  	-0.011779 
2368.586048  	-0.009750 
2370.514864  	-0.008168 
2372.443680  	-0.006483 
2374.372496  	-0.004914 
2376.301312  	-0.003712 
2378.230128  	-0.002711 
2380.158944  	-0.002166 
2382.087760  	-0.002240 
2384.016576  	-0.002558 
2385.945392  	-0.002844 
2387.874208  	-0.003055 
2389.803024  	-0.003070 
2391.731840  	-0.003150 
2393.660656  	-0.003225 
2395.589472  	-0.003297 
2397.518288  	-0.003373 
2399.447104  	-0.003412 
2401.375920  	-0.003149 
2403.304736  	-0.002934 
2405.233552  	-0.002953 
2407.162368  	-0.002794 
2409.091184  	-0.002625 
2411.020000  	-0.002556 
2412.948816  	-0.002718 
2414.877632  	-0.002724 
2416.806448  	-0.002472 
2418.735264  	-0.002625 
2420.664080  	-0.002655 
2422.592896  	-0.002415 
2424.521712  	-0.002079 
2426.450528  	-0.001926 
2428.379344  	-0.001754 
2430.308160  	-0.001686 
2432.236976  	-0.001712 
2434.165792  	-0.001811 
2436.094608  	-0.001758 
2438.023424  	-0.001735 
2439.952240  	-0.001691 
2441.881056  	-0.001463 
2443.809872  	-0.001191 
2445.738688  	-0.001107 
2447.667504  	-0.001122 
2449.596320  	-0.001129 
2451.525136  	-0.000867 
2453.453952  	-0.000812 
2455.382768  	-0.000822 
2457.311584  	-0.000758 
2459.240400  	-0.000806 
2461.169216  	-0.000954 
2463.098032  	-0.000835 
2465.026848  	-0.000669 
2466.955664  	-0.000738 
2468.884480  	-0.000474 
2470.813296  	-0.000235 
2472.742112  	-0.000404 
2474.670928  	-0.000426 
2476.599744  	-0.000402 
2478.528560  	-0.000186 
2480.457376  	-0.000173 
2482.386192  	-0.000304 
2484.315008  	-0.000433 
2486.243824  	-0.000178 
2488.172640  	0.000247 
2490.101456  	0.000479 
2492.030272  	0.000361 
2493.959088  	0.000375 
2495.887904  	0.000621 
2497.816720  	0.000936 
2499.745536  	0.001032 
2501.674352  	0.001122 
2503.603168  	0.001234 
2505.531984  	0.001264 
2507.460800  	0.001296 
2509.389616  	0.001263 
2511.318432  	0.001168 
2513.247248  	0.001160 
2515.176064  	0.001191 
2517.104880  	0.001372 
2519.033696  	0.001761 
2520.962512  	0.001894 
2522.891328  	0.001901 
2524.820144  	0.002032 
2526.748960  	0.001925 
2528.677776  	0.002001 
2530.606592  	0.002284 
2532.535408  	0.002281 
2534.464224  	0.002060 
2536.393040  	0.002053 
2538.321856  	0.002187 
2540.250672  	0.002167 
2542.179488  	0.002226 
2544.108304  	0.002566 
2546.037120  	0.002828 
2547.965936  	0.002989 
2549.894752  	0.002921 
2551.823568  	0.002685 
2553.752384  	0.002637 
2555.681200  	0.002931 
2557.610016  	0.003208 
2559.538832  	0.003370 
2561.467648  	0.003541 
2563.396464  	0.003693 
2565.325280  	0.003738 
2567.254096  	0.003785 
2569.182912  	0.003891 
2571.111728  	0.004226 
2573.040544  	0.004331 
2574.969360  	0.004457 
2576.898176  	0.004622 
2578.826992  	0.004737 
2580.755808  	0.004658 
2582.684624  	0.004692 
2584.613440  	0.004693 
2586.542256  	0.004700 
2588.471072  	0.004790 
2590.399888  	0.004791 
2592.328704  	0.004897 
2594.257520  	0.005182 
2596.186336  	0.005267 
2598.115152  	0.005286 
2600.043968  	0.005277 
2601.972784  	0.005345 
2603.901600  	0.005537 
2605.830416  	0.005681 
2607.759232  	0.005677 
2609.688048  	0.005557 
2611.616864  	0.005564 
2613.545680  	0.005847 
2615.474496  	0.006126 
2617.403312  	0.006168 
2619.332128  	0.006193 
2621.260944  	0.006320 
2623.189760  	0.006425 
2625.118576  	0.006578 
2627.047392  	0.006729 
2628.976208  	0.006846 
2630.905024  	0.006905 
2632.833840  	0.007101 
2634.762656  	0.007265 
2636.691472  	0.007380 
2638.620288  	0.007547 
2640.549104  	0.007740 
2642.477920  	0.007859 
2644.406736  	0.007892 
2646.335552  	0.007980 
2648.264368  	0.008114 
2650.193184  	0.008323 
2652.122000  	0.008566 
2654.050816  	0.008663 
2655.979632  	0.008715 
2657.908448  	0.008868 
2659.837264  	0.009028 
2661.766080  	0.009199 
2663.694896  	0.009253 
2665.623712  	0.009207 
2667.552528  	0.009428 
2669.481344  	0.009705 
2671.410160  	0.009877 
2673.338976  	0.009929 
2675.267792  	0.009989 
2677.196608  	0.010118 
2679.125424  	0.010316 
2681.054240  	0.010528 
2682.983056  	0.010538 
2684.911872  	0.010600 
2686.840688  	0.010750 
2688.769504  	0.010840 
2690.698320  	0.011012 
2692.627136  	0.011209 
2694.555952  	0.011257 
2696.484768  	0.011302 
2698.413584  	0.011469 
2700.342400  	0.011544 
2702.271216  	0.011759 
2704.200032  	0.011956 
2706.128848  	0.012036 
2708.057664  	0.012115 
2709.986480  	0.012225 
2711.915296  	0.012404 
2713.844112  	0.012557 
2715.772928  	0.012719 
2717.701744  	0.012776 
2719.630560  	0.012879 
2721.559376  	0.013082 
2723.488192  	0.013141 
2725.417008  	0.013242 
2727.345824  	0.013392 
2729.274640  	0.013464 
2731.203456  	0.013565 
2733.132272  	0.013856 
2735.061088  	0.014182 
2736.989904  	0.014269 
2738.918720  	0.014314 
2740.847536  	0.014389 
2742.776352  	0.014519 
2744.705168  	0.014685 
2746.633984  	0.014776 
2748.562800  	0.014858 
2750.491616  	0.015049 
2752.420432  	0.015188 
2754.349248  	0.015176 
2756.278064  	0.015142 
2758.206880  	0.015190 
2760.135696  	0.015313 
2762.064512  	0.015362 
2763.993328  	0.015368 
2765.922144  	0.015339 
2767.850960  	0.015357 
2769.779776  	0.015363 
2771.708592  	0.015377 
2773.637408  	0.015276 
2775.566224  	0.015257 
2777.495040  	0.015336 
2779.423856  	0.015276 
2781.352672  	0.015283 
2783.281488  	0.015404 
2785.210304  	0.015521 
2787.139120  	0.015635 
2789.067936  	0.015552 
2790.996752  	0.015517 
2792.925568  	0.015500 
2794.854384  	0.015473 
2796.783200  	0.015375 
2798.712016  	0.015389 
2800.640832  	0.015563 
2802.569648  	0.015626 
2804.498464  	0.015692 
2806.427280  	0.015729 
2808.356096  	0.015606 
2810.284912  	0.015531 
2812.213728  	0.015500 
2814.142544  	0.015566 
2816.071360  	0.015638 
2818.000176  	0.015657 
2819.928992  	0.015682 
2821.857808  	0.015730 
2823.786624  	0.015665 
2825.715440  	0.015557 
2827.644256  	0.015498 
2829.573072  	0.015604 
2831.501888  	0.015629 
2833.430704  	0.015463 
2835.359520  	0.015394 
2837.288336  	0.015452 
2839.217152  	0.015394 
2841.145968  	0.015252 
2843.074784  	0.015225 
2845.003600  	0.015231 
2846.932416  	0.015322 
2848.861232  	0.015363 
2850.790048  	0.015287 
2852.718864  	0.015214 
2854.647680  	0.015152 
2856.576496  	0.015191 
2858.505312  	0.015312 
2860.434128  	0.015432 
2862.362944  	0.015509 
2864.291760  	0.015417 
2866.220576  	0.015355 
2868.149392  	0.015438 
2870.078208  	0.015554 
2872.007024  	0.015741 
2873.935840  	0.015945 
2875.864656  	0.016238 
2877.793472  	0.016520 
2879.722288  	0.016742 
2881.651104  	0.017028 
2883.579920  	0.017258 
2885.508736  	0.017334 
2887.437552  	0.017474 
2889.366368  	0.017452 
2891.295184  	0.017299 
2893.224000  	0.017096 
2895.152816  	0.017131 
2897.081632  	0.016940 
2899.010448  	0.016319 
2900.939264  	0.015958 
2902.868080  	0.016125 
2904.796896  	0.016283 
2906.725712  	0.016440 
2908.654528  	0.016639 
2910.583344  	0.016977 
2912.512160  	0.017370 
2914.440976  	0.017828 
2916.369792  	0.018210 
2918.298608  	0.018490 
2920.227424  	0.018846 
2922.156240  	0.019323 
2924.085056  	0.019712 
2926.013872  	0.020132 
2927.942688  	0.020662 
2929.871504  	0.021217 
2931.800320  	0.021668 
2933.729136  	0.022241 
2935.657952  	0.022807 
2937.586768  	0.023158 
2939.515584  	0.023463 
2941.444400  	0.023804 
2943.373216  	0.024021 
2945.302032  	0.024199 
2947.230848  	0.024295 
2949.159664  	0.024256 
2951.088480  	0.024048 
2953.017296  	0.023899 
2954.946112  	0.023665 
2956.874928  	0.023310 
2958.803744  	0.022861 
2960.732560  	0.022316 
2962.661376  	0.021668 
2964.590192  	0.021203 
2966.519008  	0.020546 
2968.447824  	0.019795 
2970.376640  	0.019108 
2972.305456  	0.018454 
2974.234272  	0.017840 
2976.163088  	0.017307 
2978.091904  	0.016765 
2980.020720  	0.016373 
2981.949536  	0.016354 
2983.878352  	0.016410 
2985.807168  	0.016328 
2987.735984  	0.016321 
2989.664800  	0.016714 
2991.593616  	0.017569 
2993.522432  	0.018170 
2995.451248  	0.018495 
2997.380064  	0.019098 
2999.308880  	0.019668 
3001.237696  	0.019978 
3003.166512  	0.020205 
3005.095328  	0.020314 
3007.024144  	0.020658 
3008.952960  	0.021286 
3010.881776  	0.021773 
3012.810592  	0.022040 
3014.739408  	0.022326 
3016.668224  	0.022669 
3018.597040  	0.023019 
3020.525856  	0.023308 
3022.454672  	0.023688 
3024.383488  	0.024045 
3026.312304  	0.024353 
3028.241120  	0.024604 
3030.169936  	0.024812 
3032.098752  	0.024923 
3034.027568  	0.025105 
3035.956384  	0.025566 
3037.885200  	0.025943 
3039.814016  	0.026175 
3041.742832  	0.026380 
3043.671648  	0.026608 
3045.600464  	0.027139 
3047.529280  	0.027569 
3049.458096  	0.027717 
3051.386912  	0.027889 
3053.315728  	0.028237 
3055.244544  	0.028359 
3057.173360  	0.028742 
3059.102176  	0.029164 
3061.030992  	0.029567 
3062.959808  	0.029908 
3064.888624  	0.030284 
3066.817440  	0.030868 
3068.746256  	0.031438 
3070.675072  	0.031814 
3072.603888  	0.032201 
3074.532704  	0.032638 
3076.461520  	0.032983 
3078.390336  	0.033441 
3080.319152  	0.034044 
3082.247968  	0.034572 
3084.176784  	0.034860 
3086.105600  	0.035180 
3088.034416  	0.035643 
3089.963232  	0.036128 
3091.892048  	0.036453 
3093.820864  	0.036819 
3095.749680  	0.037353 
3097.678496  	0.037772 
3099.607312  	0.038375 
3101.536128  	0.039056 
3103.464944  	0.039474 
3105.393760  	0.039892 
3107.322576  	0.040226 
3109.251392  	0.040627 
3111.180208  	0.040982 
3113.109024  	0.041107 
3115.037840  	0.041275 
3116.966656  	0.041806 
3118.895472  	0.042239 
3120.824288  	0.042331 
3122.753104  	0.042501 
3124.681920  	0.042662 
3126.610736  	0.043082 
3128.539552  	0.043524 
3130.468368  	0.043610 
3132.397184  	0.043645 
3134.326000  	0.043840 
3136.254816  	0.044217 
3138.183632  	0.044589 
3140.112448  	0.044867 
3142.041264  	0.044986 
3143.970080  	0.045140 
3145.898896  	0.045482 
3147.827712  	0.045892 
3149.756528  	0.046217 
3151.685344  	0.046501 
3153.614160  	0.046894 
3155.542976  	0.047115 
3157.471792  	0.047493 
3159.400608  	0.047848 
3161.329424  	0.048061 
3163.258240  	0.048206 
3165.187056  	0.048411 
3167.115872  	0.048723 
3169.044688  	0.049263 
3170.973504  	0.049629 
3172.902320  	0.049634 
3174.831136  	0.049628 
3176.759952  	0.049713 
3178.688768  	0.049995 
3180.617584  	0.050306 
3182.546400  	0.050219 
3184.475216  	0.050264 
3186.404032  	0.050375 
3188.332848  	0.050343 
3190.261664  	0.050260 
3192.190480  	0.050152 
3194.119296  	0.049937 
3196.048112  	0.049673 
3197.976928  	0.049447 
3199.905744  	0.049434 
3201.834560  	0.049239 
3203.763376  	0.048912 
3205.692192  	0.048626 
3207.621008  	0.048156 
3209.549824  	0.047909 
3211.478640  	0.047709 
3213.407456  	0.047364 
3215.336272  	0.047277 
3217.265088  	0.046765 
3219.193904  	0.046465 
3221.122720  	0.046578 
3223.051536  	0.046497 
3224.980352  	0.046150 
3226.909168  	0.045752 
3228.837984  	0.045334 
3230.766800  	0.045014 
3232.695616  	0.044864 
3234.624432  	0.044728 
3236.553248  	0.044513 
3238.482064  	0.044499 
3240.410880  	0.044695 
3242.339696  	0.044694 
3244.268512  	0.044707 
3246.197328  	0.045025 
3248.126144  	0.044962 
3250.054960  	0.045041 
3251.983776  	0.045098 
3253.912592  	0.045208 
3255.841408  	0.045408 
3257.770224  	0.045711 
3259.699040  	0.046018 
3261.627856  	0.046067 
3263.556672  	0.046081 
3265.485488  	0.046438 
3267.414304  	0.046665 
3269.343120  	0.046703 
3271.271936  	0.046688 
3273.200752  	0.046908 
3275.129568  	0.047208 
3277.058384  	0.047378 
3278.987200  	0.047587 
3280.916016  	0.047612 
3282.844832  	0.047673 
3284.773648  	0.047789 
3286.702464  	0.047758 
3288.631280  	0.047747 
3290.560096  	0.047883 
3292.488912  	0.048443 
3294.417728  	0.048875 
3296.346544  	0.049026 
3298.275360  	0.049440 
3300.204176  	0.049670 
3302.132992  	0.049837 
3304.061808  	0.050134 
3305.990624  	0.050426 
3307.919440  	0.050879 
3309.848256  	0.051239 
3311.777072  	0.051404 
3313.705888  	0.051596 
3315.634704  	0.051823 
3317.563520  	0.052187 
3319.492336  	0.052603 
3321.421152  	0.052735 
3323.349968  	0.052813 
3325.278784  	0.053108 
3327.207600  	0.053438 
3329.136416  	0.053466 
3331.065232  	0.053510 
3332.994048  	0.053684 
3334.922864  	0.053944 
3336.851680  	0.054264 
3338.780496  	0.054062 
3340.709312  	0.053542 
3342.638128  	0.053516 
3344.566944  	0.053597 
3346.495760  	0.053540 
3348.424576  	0.053197 
3350.353392  	0.053021 
3352.282208  	0.052923 
3354.211024  	0.052660 
3356.139840  	0.052565 
3358.068656  	0.052497 
3359.997472  	0.052214 
3361.926288  	0.051918 
3363.855104  	0.051652 
3365.783920  	0.051506 
3367.712736  	0.051169 
3369.641552  	0.050888 
3371.570368  	0.050794 
3373.499184  	0.050527 
3375.428000  	0.050077 
3377.356816  	0.049972 
3379.285632  	0.050120 
3381.214448  	0.050064 
3383.143264  	0.049611 
3385.072080  	0.049307 
3387.000896  	0.049072 
3388.929712  	0.048722 
3390.858528  	0.048223 
3392.787344  	0.048202 
3394.716160  	0.048057 
3396.644976  	0.047951 
3398.573792  	0.047767 
3400.502608  	0.047475 
3402.431424  	0.047442 
3404.360240  	0.047160 
3406.289056  	0.046746 
3408.217872  	0.046392 
3410.146688  	0.046132 
3412.075504  	0.045873 
3414.004320  	0.045626 
3415.933136  	0.045317 
3417.861952  	0.044761 
3419.790768  	0.044457 
3421.719584  	0.044390 
3423.648400  	0.044196 
3425.577216  	0.043748 
3427.506032  	0.043313 
3429.434848  	0.042904 
3431.363664  	0.042586 
3433.292480  	0.042402 
3435.221296  	0.042114 
3437.150112  	0.041746 
3439.078928  	0.041332 
3441.007744  	0.041094 
3442.936560  	0.040859 
3444.865376  	0.040261 
3446.794192  	0.040067 
3448.723008  	0.040205 
3450.651824  	0.039303 
3452.580640  	0.038414 
3454.509456  	0.038097 
3456.438272  	0.037733 
3458.367088  	0.037228 
3460.295904  	0.036789 
3462.224720  	0.036412 
3464.153536  	0.036003 
3466.082352  	0.035363 
3468.011168  	0.034782 
3469.939984  	0.034238 
3471.868800  	0.033439 
3473.797616  	0.032750 
3475.726432  	0.032447 
3477.655248  	0.031812 
3479.584064  	0.031132 
3481.512880  	0.030788 
3483.441696  	0.030523 
3485.370512  	0.029815 
3487.299328  	0.029019 
3489.228144  	0.028422 
3491.156960  	0.027819 
3493.085776  	0.027149 
3495.014592  	0.026508 
3496.943408  	0.026186 
3498.872224  	0.025627 
3500.801040  	0.024701 
3502.729856  	0.024523 
3504.658672  	0.024607 
3506.587488  	0.023753 
3508.516304  	0.022934 
3510.445120  	0.022858 
3512.373936  	0.022543 
3514.302752  	0.021739 
3516.231568  	0.020867 
3518.160384  	0.020311 
3520.089200  	0.019801 
3522.018016  	0.019141 
3523.946832  	0.019344 
3525.875648  	0.018810 
3527.804464  	0.018161 
3529.733280  	0.018132 
3531.662096  	0.017792 
3533.590912  	0.016868 
3535.519728  	0.016672 
3537.448544  	0.016808 
3539.377360  	0.015796 
3541.306176  	0.014923 
3543.234992  	0.014503 
3545.163808  	0.014883 
3547.092624  	0.015224 
3549.021440  	0.014214 
3550.950256  	0.012981 
3552.879072  	0.013122 
3554.807888  	0.012880 
3556.736704  	0.012007 
3558.665520  	0.011297 
3560.594336  	0.010895 
3562.523152  	0.009932 
3564.451968  	0.008710 
3566.380784  	0.009612 
3568.309600  	0.011533 
3570.238416  	0.010121 
3572.167232  	0.008411 
3574.096048  	0.007589 
3576.024864  	0.007075 
3577.953680  	0.006700 
3579.882496  	0.006439 
3581.811312  	0.005844 
3583.740128  	0.004375 
3585.668944  	0.003260 
3587.597760  	0.004687 
3589.526576  	0.004907 
3591.455392  	0.002596 
3593.384208  	0.001567 
3595.313024  	0.001786 
3597.241840  	0.001075 
3599.170656  	-0.000240 
3601.099472  	-0.000092 
3603.028288  	-0.000152 
3604.957104  	-0.001576 
3606.885920  	-0.002618 
3608.814736  	-0.002045 
3610.743552  	-0.003100 
3612.672368  	-0.004276 
3614.601184  	-0.004549 
3616.530000  	-0.006504 
3618.458816  	-0.007425 
3620.387632  	-0.005663 
3622.316448  	-0.005723 
3624.245264  	-0.007632 
3626.174080  	-0.010775 
3628.102896  	-0.011604 
3630.031712  	-0.007458 
3631.960528  	-0.008933 
3633.889344  	-0.009767 
3635.818160  	-0.009862 
3637.746976  	-0.010741 
3639.675792  	-0.011348 
3641.604608  	-0.012006 
3643.533424  	-0.013056 
3645.462240  	-0.015985 
3647.391056  	-0.018451 
3649.319872  	-0.017153 
3651.248688  	-0.013292 
3653.177504  	-0.014573 
3655.106320  	-0.016157 
3657.035136  	-0.014755 
3658.963952  	-0.014715 
3660.892768  	-0.015163 
3662.821584  	-0.015778 
3664.750400  	-0.016429 
3666.679216  	-0.018078 
3668.608032  	-0.020194 
3670.536848  	-0.018474 
3672.465664  	-0.019217 
3674.394480  	-0.021553 
3676.323296  	-0.017581 
3678.252112  	-0.017171 
3680.180928  	-0.016960 
3682.109744  	-0.016932 
3684.038560  	-0.017494 
3685.967376  	-0.019317 
3687.896192  	-0.020831 
3689.825008  	-0.019859 
3691.753824  	-0.017591 
3693.682640  	-0.016851 
3695.611456  	-0.016958 
3697.540272  	-0.016880 
3699.469088  	-0.017893 
3701.397904  	-0.017847 
3703.326720  	-0.016773 
3705.255536  	-0.017157 
3707.184352  	-0.018508 
3709.113168  	-0.020129 
3711.041984  	-0.019645 
3712.970800  	-0.016421 
3714.899616  	-0.015874 
3716.828432  	-0.016948 
3718.757248  	-0.017397 
3720.686064  	-0.018113 
3722.614880  	-0.018384 
3724.543696  	-0.018019 
3726.472512  	-0.017023 
3728.401328  	-0.017260 
3730.330144  	-0.019698 
3732.258960  	-0.020979 
3734.187776  	-0.020330 
3736.116592  	-0.017411 
3738.045408  	-0.016742 
3739.974224  	-0.017695 
3741.903040  	-0.019635 
3743.831856  	-0.019762 
3745.760672  	-0.017403 
3747.689488  	-0.020357 
3749.618304  	-0.021362 
3751.547120  	-0.018572 
3753.475936  	-0.016185 
3755.404752  	-0.017268 
3757.333568  	-0.017816 
3759.262384  	-0.017018 
3761.191200  	-0.015813 
3763.120016  	-0.016874 
3765.048832  	-0.016888 
3766.977648  	-0.016650 
3768.906464  	-0.017190 
3770.835280  	-0.015724 
3772.764096  	-0.015412 
3774.692912  	-0.016010 
3776.621728  	-0.016970 
3778.550544  	-0.017389 
3780.479360  	-0.015846 
3782.408176  	-0.016330 
3784.336992  	-0.016539 
3786.265808  	-0.015810 
3788.194624  	-0.015857 
3790.123440  	-0.015982 
3792.052256  	-0.016108 
3793.981072  	-0.017096 
3795.909888  	-0.017688 
3797.838704  	-0.017901 
3799.767520  	-0.019699 
3801.696336  	-0.018296 
3803.625152  	-0.017098 
3805.553968  	-0.018639 
3807.482784  	-0.016850 
3809.411600  	-0.015872 
3811.340416  	-0.016319 
3813.269232  	-0.017976 
3815.198048  	-0.019177 
3817.126864  	-0.017812 
3819.055680  	-0.019938 
3820.984496  	-0.019049 
3822.913312  	-0.016114 
3824.842128  	-0.017340 
3826.770944  	-0.017197 
3828.699760  	-0.017140 
3830.628576  	-0.017865 
3832.557392  	-0.017908 
3834.486208  	-0.018725 
3836.415024  	-0.019660 
3838.343840  	-0.018921 
3840.272656  	-0.017580 
3842.201472  	-0.017082 
3844.130288  	-0.016289 
3846.059104  	-0.016125 
3847.987920  	-0.017331 
3849.916736  	-0.019561 
3851.845552  	-0.021865 
3853.774368  	-0.017833 
3855.703184  	-0.015495 
3857.632000  	-0.015953 
3859.560816  	-0.016804 
3861.489632  	-0.017782 
3863.418448  	-0.018168 
3865.347264  	-0.016550 
3867.276080  	-0.017580 
3869.204896  	-0.018165 
3871.133712  	-0.015995 
3873.062528  	-0.016927 
3874.991344  	-0.015730 
3876.920160  	-0.016581 
3878.848976  	-0.017711 
3880.777792  	-0.016171 
3882.706608  	-0.016292 
3884.635424  	-0.016940 
3886.564240  	-0.014898 
3888.493056  	-0.016455 
3890.421872  	-0.017530 
3892.350688  	-0.016002 
3894.279504  	-0.015546 
3896.208320  	-0.016757 
3898.137136  	-0.017657 
3900.065952  	-0.017022 
3901.994768  	-0.016741 
3903.923584  	-0.015766 
3905.852400  	-0.014855 
3907.781216  	-0.015510 
3909.710032  	-0.016008 
3911.638848  	-0.015923 
3913.567664  	-0.016149 
3915.496480  	-0.016300 
3917.425296  	-0.015585 
3919.354112  	-0.015628 
3921.282928  	-0.015896 
3923.211744  	-0.016215 
3925.140560  	-0.015507 
3927.069376  	-0.015906 
3928.998192  	-0.016680 
3930.927008  	-0.016102 
3932.855824  	-0.015109 
3934.784640  	-0.015340 
3936.713456  	-0.015665 
3938.642272  	-0.015577 
3940.571088  	-0.016046 
3942.499904  	-0.015583 
3944.428720  	-0.015256 
3946.357536  	-0.015920 
3948.286352  	-0.015847 
3950.215168  	-0.015679 
3952.143984  	-0.015887 
3954.072800  	-0.016023 
3956.001616  	-0.016048 
3957.930432  	-0.016008 
3959.859248  	-0.015934 
3961.788064  	-0.015443 
3963.716880  	-0.015185 
3965.645696  	-0.015539 
3967.574512  	-0.015928 
3969.503328  	-0.016020 
3971.432144  	-0.015971 
3973.360960  	-0.015936 
3975.289776  	-0.015769 
3977.218592  	-0.015711 
3979.147408  	-0.015799 
3981.076224  	-0.015916 
3983.005040  	-0.015766 
3984.933856  	-0.015641 
3986.862672  	-0.015749 
3988.791488  	-0.015881 
3990.720304  	-0.015799 
3992.649120  	-0.015763 
3994.577936  	-0.015711 
3996.506752  	-0.015719 
3998.435568  	-0.015829 
4000.364384  	-0.015932 