##TITLE=No Description
##DATA TYPE=INFRARED SPECTRUM
##XUNITS=1/CM
##YUNITS=Abs
399.264912  	0.605559 
401.193728  	0.570035 
403.122544  	0.538490 
405.051360  	0.529202 
406.980176  	0.533804 
408.908992  	0.524160 
410.837808  	0.534279 
412.766624  	0.528460 
414.695440  	0.522499 
416.624256  	0.515170 
418.553072  	0.520414 
420.481888  	0.511079 
422.410704  	0.507678 
424.339520  	0.498170 
426.268336  	0.498133 
428.197152  	0.494180 
430.125968  	0.491304 
432.054784  	0.479771 
433.983600  	0.478240 
435.912416  	0.479923 
437.841232  	0.485134 
439.770048  	0.483568 
441.698864  	0.481765 
443.627680  	0.472279 
445.556496  	0.472212 
447.485312  	0.469574 
449.414128  	0.473527 
451.342944  	0.474872 
453.271760  	0.475590 
455.200576  	0.476697 
457.129392  	0.476406 
459.058208  	0.462419 
460.987024  	0.461570 
462.915840  	0.462655 
464.844656  	0.464840 
466.773472  	0.464329 
468.702288  	0.464026 
470.631104  	0.461598 
472.559920  	0.461595 
474.488736  	0.456986 
476.417552  	0.464004 
478.346368  	0.463334 
480.275184  	0.464932 
482.204000  	0.461694 
484.132816  	0.461291 
486.061632  	0.459555 
487.990448  	0.456989 
489.919264  	0.452769 
491.848080  	0.451896 
493.776896  	0.451135 
495.705712  	0.452724 
497.634528  	0.447824 
499.563344  	0.448931 
501.492160  	0.451415 
503.420976  	0.449116 
505.349792  	0.440533 
507.278608  	0.438932 
509.207424  	0.440044 
511.136240  	0.441414 
513.065056  	0.440331 
514.993872  	0.441714 
516.922688  	0.442185 
518.851504  	0.442784 
520.780320  	0.441874 
522.709136  	0.445410 
524.637952  	0.445665 
526.566768  	0.444973 
528.495584  	0.439372 
530.424400  	0.437373 
532.353216  	0.434373 
534.282032  	0.430558 
536.210848  	0.423426 
538.139664  	0.420583 
540.068480  	0.417684 
541.997296  	0.414513 
543.926112  	0.410524 
545.854928  	0.408817 
547.783744  	0.406241 
549.712560  	0.403954 
551.641376  	0.400371 
553.570192  	0.397661 
555.499008  	0.394014 
557.427824  	0.392417 
559.356640  	0.390500 
561.285456  	0.388850 
563.214272  	0.384579 
565.143088  	0.381094 
567.071904  	0.377808 
569.000720  	0.374630 
570.929536  	0.370151 
572.858352  	0.368079 
574.787168  	0.366197 
576.715984  	0.364507 
578.644800  	0.361189 
580.573616  	0.357537 
582.502432  	0.353224 
584.431248  	0.349889 
586.360064  	0.346086 
588.288880  	0.342746 
590.217696  	0.340681 
592.146512  	0.340250 
594.075328  	0.338232 
596.004144  	0.336110 
597.932960  	0.334236 
599.861776  	0.332537 
601.790592  	0.330494 
603.719408  	0.329566 
605.648224  	0.328224 
607.577040  	0.326898 
609.505856  	0.325041 
611.434672  	0.323773 
613.363488  	0.321358 
615.292304  	0.319288 
617.221120  	0.317238 
619.149936  	0.316281 
621.078752  	0.314626 
623.007568  	0.313879 
624.936384  	0.313202 
626.865200  	0.311913 
628.794016  	0.310105 
630.722832  	0.309407 
632.651648  	0.309331 
634.580464  	0.309172 
636.509280  	0.309157 
638.438096  	0.307905 
640.366912  	0.306229 
642.295728  	0.305250 
644.224544  	0.302758 
646.153360  	0.300244 
648.082176  	0.296695 
650.010992  	0.293674 
651.939808  	0.290186 
653.868624  	0.286980 
655.797440  	0.282993 
657.726256  	0.279933 
659.655072  	0.276888 
661.583888  	0.273828 
663.512704  	0.270250 
665.441520  	0.266515 
667.370336  	0.261526 
669.299152  	0.258281 
671.227968  	0.255735 
673.156784  	0.252699 
675.085600  	0.250231 
677.014416  	0.248074 
678.943232  	0.245338 
680.872048  	0.243370 
682.800864  	0.241876 
684.729680  	0.240665 
686.658496  	0.238663 
688.587312  	0.237359 
690.516128  	0.235571 
692.444944  	0.234373 
694.373760  	0.233518 
696.302576  	0.232594 
698.231392  	0.230300 
700.160208  	0.227831 
702.089024  	0.226064 
704.017840  	0.224179 
705.946656  	0.221441 
707.875472  	0.219492 
709.804288  	0.217417 
711.733104  	0.215168 
713.661920  	0.213413 
715.590736  	0.212459 
717.519552  	0.212153 
719.448368  	0.212062 
721.377184  	0.211798 
723.306000  	0.211664 
725.234816  	0.211530 
727.163632  	0.210316 
729.092448  	0.207963 
731.021264  	0.205468 
732.950080  	0.203084 
734.878896  	0.200530 
736.807712  	0.197682 
738.736528  	0.195344 
740.665344  	0.193112 
742.594160  	0.191862 
744.522976  	0.190747 
746.451792  	0.189573 
748.380608  	0.187832 
750.309424  	0.186854 
752.238240  	0.185950 
754.167056  	0.185287 
756.095872  	0.184475 
758.024688  	0.183408 
759.953504  	0.182491 
761.882320  	0.182269 
763.811136  	0.182563 
765.739952  	0.181069 
767.668768  	0.178225 
769.597584  	0.175742 
771.526400  	0.175034 
773.455216  	0.175926 
775.384032  	0.178075 
777.312848  	0.181706 
779.241664  	0.184001 
781.170480  	0.183245 
783.099296  	0.179240 
785.028112  	0.174692 
786.956928  	0.170089 
788.885744  	0.165972 
790.814560  	0.162863 
792.743376  	0.161335 
794.672192  	0.160504 
796.601008  	0.159127 
798.529824  	0.156197 
800.458640  	0.152667 
802.387456  	0.149657 
804.316272  	0.147936 
806.245088  	0.146771 
808.173904  	0.145739 
810.102720  	0.144899 
812.031536  	0.144432 
813.960352  	0.144470 
815.889168  	0.144662 
817.817984  	0.144788 
819.746800  	0.144734 
821.675616  	0.144893 
823.604432  	0.145211 
825.533248  	0.145505 
827.462064  	0.145415 
829.390880  	0.144469 
831.319696  	0.143835 
833.248512  	0.142737 
835.177328  	0.141235 
837.106144  	0.138750 
839.034960  	0.136330 
840.963776  	0.133756 
842.892592  	0.130828 
844.821408  	0.127360 
846.750224  	0.124335 
848.679040  	0.122314 
850.607856  	0.120865 
852.536672  	0.119795 
854.465488  	0.118422 
856.394304  	0.117313 
858.323120  	0.116375 
860.251936  	0.115121 
862.180752  	0.113484 
864.109568  	0.111791 
866.038384  	0.109858 
867.967200  	0.108007 
869.896016  	0.106533 
871.824832  	0.105172 
873.753648  	0.104200 
875.682464  	0.103833 
877.611280  	0.104420 
879.540096  	0.106170 
881.468912  	0.108881 
883.397728  	0.111461 
885.326544  	0.113626 
887.255360  	0.115071 
889.184176  	0.115607 
891.112992  	0.115311 
893.041808  	0.114416 
894.970624  	0.112689 
896.899440  	0.109802 
898.828256  	0.106517 
900.757072  	0.102992 
902.685888  	0.099587 
904.614704  	0.097551 
906.543520  	0.096923 
908.472336  	0.097457 
910.401152  	0.098949 
912.329968  	0.100850 
914.258784  	0.102763 
916.187600  	0.104509 
918.116416  	0.106078 
920.045232  	0.107431 
921.974048  	0.108297 
923.902864  	0.108937 
925.831680  	0.109455 
927.760496  	0.110029 
929.689312  	0.110774 
931.618128  	0.111633 
933.546944  	0.112079 
935.475760  	0.112268 
937.404576  	0.111941 
939.333392  	0.111176 
941.262208  	0.110878 
943.191024  	0.111243 
945.119840  	0.112860 
947.048656  	0.116336 
948.977472  	0.121695 
950.906288  	0.128388 
952.835104  	0.136629 
954.763920  	0.146193 
956.692736  	0.156170 
958.621552  	0.165550 
960.550368  	0.172883 
962.479184  	0.178169 
964.408000  	0.179975 
966.336816  	0.178027 
968.265632  	0.172228 
970.194448  	0.163807 
972.123264  	0.153173 
974.052080  	0.141329 
975.980896  	0.129448 
977.909712  	0.118298 
979.838528  	0.108349 
981.767344  	0.100092 
983.696160  	0.093904 
985.624976  	0.089919 
987.553792  	0.088542 
989.482608  	0.089356 
991.411424  	0.092289 
993.340240  	0.097062 
995.269056  	0.102427 
997.197872  	0.108104 
999.126688  	0.113860 
1001.055504  	0.119787 
1002.984320  	0.125540 
1004.913136  	0.131457 
1006.841952  	0.137162 
1008.770768  	0.142546 
1010.699584  	0.147187 
1012.628400  	0.150943 
1014.557216  	0.153688 
1016.486032  	0.155774 
1018.414848  	0.156847 
1020.343664  	0.157437 
1022.272480  	0.158025 
1024.201296  	0.158629 
1026.130112  	0.158358 
1028.058928  	0.158508 
1029.987744  	0.159842 
1031.916560  	0.161388 
1033.845376  	0.163024 
1035.774192  	0.165118 
1037.703008  	0.168141 
1039.631824  	0.173157 
1041.560640  	0.180706 
1043.489456  	0.192216 
1045.418272  	0.206852 
1047.347088  	0.223330 
1049.275904  	0.238372 
1051.204720  	0.249825 
1053.133536  	0.256467 
1055.062352  	0.259626 
1056.991168  	0.260313 
1058.919984  	0.260568 
1060.848800  	0.260429 
1062.777616  	0.260261 
1064.706432  	0.259216 
1066.635248  	0.257732 
1068.564064  	0.254712 
1070.492880  	0.249843 
1072.421696  	0.244322 
1074.350512  	0.240586 
1076.279328  	0.239376 
1078.208144  	0.241770 
1080.136960  	0.245817 
1082.065776  	0.249549 
1083.994592  	0.250508 
1085.923408  	0.247917 
1087.852224  	0.241712 
1089.781040  	0.233787 
1091.709856  	0.224064 
1093.638672  	0.212965 
1095.567488  	0.200209 
1097.496304  	0.187511 
1099.425120  	0.174594 
1101.353936  	0.162285 
1103.282752  	0.150627 
1105.211568  	0.139780 
1107.140384  	0.129743 
1109.069200  	0.120604 
1110.998016  	0.112274 
1112.926832  	0.104796 
1114.855648  	0.097972 
1116.784464  	0.091482 
1118.713280  	0.084957 
1120.642096  	0.078676 
1122.570912  	0.073110 
1124.499728  	0.067932 
1126.428544  	0.063430 
1128.357360  	0.059624 
1130.286176  	0.056272 
1132.214992  	0.053812 
1134.143808  	0.051786 
1136.072624  	0.049839 
1138.001440  	0.048310 
1139.930256  	0.047153 
1141.859072  	0.045762 
1143.787888  	0.044429 
1145.716704  	0.043391 
1147.645520  	0.042593 
1149.574336  	0.042050 
1151.503152  	0.041755 
1153.431968  	0.041869 
1155.360784  	0.042011 
1157.289600  	0.042420 
1159.218416  	0.043051 
1161.147232  	0.043774 
1163.076048  	0.044629 
1165.004864  	0.045728 
1166.933680  	0.046668 
1168.862496  	0.047668 
1170.791312  	0.049027 
1172.720128  	0.050489 
1174.648944  	0.052499 
1176.577760  	0.054653 
1178.506576  	0.056769 
1180.435392  	0.058895 
1182.364208  	0.061220 
1184.293024  	0.064063 
1186.221840  	0.067096 
1188.150656  	0.070649 
1190.079472  	0.074842 
1192.008288  	0.079708 
1193.937104  	0.085266 
1195.865920  	0.091788 
1197.794736  	0.098978 
1199.723552  	0.106493 
1201.652368  	0.114307 
1203.581184  	0.122061 
1205.510000  	0.129463 
1207.438816  	0.136451 
1209.367632  	0.142973 
1211.296448  	0.148110 
1213.225264  	0.152192 
1215.154080  	0.154891 
1217.082896  	0.156726 
1219.011712  	0.157305 
1220.940528  	0.157199 
1222.869344  	0.156328 
1224.798160  	0.154967 
1226.726976  	0.152702 
1228.655792  	0.149990 
1230.584608  	0.146762 
1232.513424  	0.142767 
1234.442240  	0.138279 
1236.371056  	0.133461 
1238.299872  	0.128007 
1240.228688  	0.121939 
1242.157504  	0.115984 
1244.086320  	0.110205 
1246.015136  	0.104269 
1247.943952  	0.098357 
1249.872768  	0.092673 
1251.801584  	0.087289 
1253.730400  	0.081762 
1255.659216  	0.076527 
1257.588032  	0.071541 
1259.516848  	0.066828 
1261.445664  	0.062408 
1263.374480  	0.058596 
1265.303296  	0.055348 
1267.232112  	0.052483 
1269.160928  	0.050323 
1271.089744  	0.049006 
1273.018560  	0.048385 
1274.947376  	0.048548 
1276.876192  	0.049251 
1278.805008  	0.049732 
1280.733824  	0.049609 
1282.662640  	0.048535 
1284.591456  	0.047075 
1286.520272  	0.045746 
1288.449088  	0.044925 
1290.377904  	0.044981 
1292.306720  	0.045834 
1294.235536  	0.046551 
1296.164352  	0.046479 
1298.093168  	0.045217 
1300.021984  	0.043065 
1301.950800  	0.040742 
1303.879616  	0.038410 
1305.808432  	0.035739 
1307.737248  	0.032877 
1309.666064  	0.030268 
1311.594880  	0.028291 
1313.523696  	0.026894 
1315.452512  	0.025783 
1317.381328  	0.025090 
1319.310144  	0.025072 
1321.238960  	0.025395 
1323.167776  	0.025978 
1325.096592  	0.026577 
1327.025408  	0.027033 
1328.954224  	0.026949 
1330.883040  	0.026281 
1332.811856  	0.025232 
1334.740672  	0.024219 
1336.669488  	0.023486 
1338.598304  	0.023358 
1340.527120  	0.023164 
1342.455936  	0.022533 
1344.384752  	0.022276 
1346.313568  	0.022467 
1348.242384  	0.023143 
1350.171200  	0.024247 
1352.100016  	0.025527 
1354.028832  	0.026991 
1355.957648  	0.028705 
1357.886464  	0.030196 
1359.815280  	0.031659 
1361.744096  	0.033642 
1363.672912  	0.036163 
1365.601728  	0.037703 
1367.530544  	0.039056 
1369.459360  	0.040559 
1371.388176  	0.041063 
1373.316992  	0.040633 
1375.245808  	0.039543 
1377.174624  	0.037866 
1379.103440  	0.036024 
1381.032256  	0.033847 
1382.961072  	0.031862 
1384.889888  	0.030127 
1386.818704  	0.029146 
1388.747520  	0.028022 
1390.676336  	0.026045 
1392.605152  	0.023546 
1394.533968  	0.022125 
1396.462784  	0.022591 
1398.391600  	0.022597 
1400.320416  	0.023022 
1402.249232  	0.022937 
1404.178048  	0.023292 
1406.106864  	0.024268 
1408.035680  	0.025199 
1409.964496  	0.026401 
1411.893312  	0.028198 
1413.822128  	0.029795 
1415.750944  	0.031192 
1417.679760  	0.031970 
1419.608576  	0.033565 
1421.537392  	0.033897 
1423.466208  	0.033245 
1425.395024  	0.032550 
1427.323840  	0.030650 
1429.252656  	0.028385 
1431.181472  	0.027259 
1433.110288  	0.026713 
1435.039104  	0.025956 
1436.967920  	0.027601 
1438.896736  	0.029184 
1440.825552  	0.029556 
1442.754368  	0.030100 
1444.683184  	0.030008 
1446.612000  	0.029493 
1448.540816  	0.029789 
1450.469632  	0.030025 
1452.398448  	0.029856 
1454.327264  	0.028860 
1456.256080  	0.027380 
1458.184896  	0.029146 
1460.113712  	0.030315 
1462.042528  	0.029720 
1463.971344  	0.028692 
1465.900160  	0.030033 
1467.828976  	0.030997 
1469.757792  	0.031251 
1471.686608  	0.032177 
1473.615424  	0.037732 
1475.544240  	0.042415 
1477.473056  	0.046989 
1479.401872  	0.049639 
1481.330688  	0.052464 
1483.259504  	0.054693 
1485.188320  	0.055547 
1487.117136  	0.055531 
1489.045952  	0.056013 
1490.974768  	0.056192 
1492.903584  	0.054581 
1494.832400  	0.050833 
1496.761216  	0.046213 
1498.690032  	0.041997 
1500.618848  	0.038746 
1502.547664  	0.034651 
1504.476480  	0.029280 
1506.405296  	0.024908 
1508.334112  	0.027505 
1510.262928  	0.026980 
1512.191744  	0.025829 
1514.120560  	0.024783 
1516.049376  	0.024030 
1517.978192  	0.024874 
1519.907008  	0.024902 
1521.835824  	0.028210 
1523.764640  	0.032647 
1525.693456  	0.035659 
1527.622272  	0.038400 
1529.551088  	0.039074 
1531.479904  	0.037374 
1533.408720  	0.034835 
1535.337536  	0.033345 
1537.266352  	0.029462 
1539.195168  	0.023353 
1541.123984  	0.021927 
1543.052800  	0.023992 
1544.981616  	0.024929 
1546.910432  	0.024502 
1548.839248  	0.023382 
1550.768064  	0.023514 
1552.696880  	0.022216 
1554.625696  	0.021506 
1556.554512  	0.019031 
1558.483328  	0.017251 
1560.412144  	0.026309 
1562.340960  	0.028090 
1564.269776  	0.029306 
1566.198592  	0.032183 
1568.127408  	0.033011 
1570.056224  	0.037665 
1571.985040  	0.042022 
1573.913856  	0.042663 
1575.842672  	0.043578 
1577.771488  	0.047845 
1579.700304  	0.048067 
1581.629120  	0.047312 
1583.557936  	0.046490 
1585.486752  	0.046636 
1587.415568  	0.047629 
1589.344384  	0.050275 
1591.273200  	0.053907 
1593.202016  	0.058461 
1595.130832  	0.063593 
1597.059648  	0.069332 
1598.988464  	0.074006 
1600.917280  	0.078300 
1602.846096  	0.081460 
1604.774912  	0.083855 
1606.703728  	0.084305 
1608.632544  	0.084151 
1610.561360  	0.083018 
1612.490176  	0.081460 
1614.418992  	0.077966 
1616.347808  	0.076627 
1618.276624  	0.079586 
1620.205440  	0.080760 
1622.134256  	0.081159 
1624.063072  	0.086689 
1625.991888  	0.090993 
1627.920704  	0.096773 
1629.849520  	0.104192 
1631.778336  	0.109413 
1633.707152  	0.111926 
1635.635968  	0.119095 
1637.564784  	0.130080 
1639.493600  	0.135108 
1641.422416  	0.138878 
1643.351232  	0.140736 
1645.280048  	0.139978 
1647.208864  	0.143641 
1649.137680  	0.146619 
1651.066496  	0.143492 
1652.995312  	0.141669 
1654.924128  	0.148230 
1656.852944  	0.146835 
1658.781760  	0.144962 
1660.710576  	0.141803 
1662.639392  	0.139099 
1664.568208  	0.137411 
1666.497024  	0.133637 
1668.425840  	0.128390 
1670.354656  	0.124924 
1672.283472  	0.121950 
1674.212288  	0.118035 
1676.141104  	0.116022 
1678.069920  	0.113910 
1679.998736  	0.111711 
1681.927552  	0.108599 
1683.856368  	0.106245 
1685.785184  	0.110657 
1687.714000  	0.110622 
1689.642816  	0.110911 
1691.571632  	0.110469 
1693.500448  	0.108413 
1695.429264  	0.106400 
1697.358080  	0.106456 
1699.286896  	0.104478 
1701.215712  	0.107452 
1703.144528  	0.106262 
1705.073344  	0.103885 
1707.002160  	0.102367 
1708.930976  	0.100115 
1710.859792  	0.095897 
1712.788608  	0.090174 
1714.717424  	0.082464 
1716.646240  	0.073861 
1718.575056  	0.064965 
1720.503872  	0.057846 
1722.432688  	0.050492 
1724.361504  	0.042304 
1726.290320  	0.035003 
1728.219136  	0.028382 
1730.147952  	0.022413 
1732.076768  	0.016848 
1734.005584  	0.013102 
1735.934400  	0.011250 
1737.863216  	0.008603 
1739.792032  	0.006105 
1741.720848  	0.005393 
1743.649664  	0.004533 
1745.578480  	0.003210 
1747.507296  	0.001407 
1749.436112  	0.000965 
1751.364928  	0.001494 
1753.293744  	0.001270 
1755.222560  	0.000156 
1757.151376  	0.000285 
1759.080192  	-0.000370 
1761.009008  	-0.001133 
1762.937824  	-0.000918 
1764.866640  	-0.001062 
1766.795456  	-0.001798 
1768.724272  	-0.002132 
1770.653088  	-0.004420 
1772.581904  	-0.004421 
1774.510720  	-0.002764 
1776.439536  	-0.002227 
1778.368352  	-0.002650 
1780.297168  	-0.003060 
1782.225984  	-0.002936 
1784.154800  	-0.002764 
1786.083616  	-0.002809 
1788.012432  	-0.003265 
1789.941248  	-0.004096 
1791.870064  	-0.004422 
1793.798880  	-0.003927 
1795.727696  	-0.003611 
1797.656512  	-0.004294 
1799.585328  	-0.004666 
1801.514144  	-0.003785 
1803.442960  	-0.003582 
1805.371776  	-0.004152 
1807.300592  	-0.004175 
1809.229408  	-0.004637 
1811.158224  	-0.004687 
1813.087040  	-0.004430 
1815.015856  	-0.004507 
1816.944672  	-0.004531 
1818.873488  	-0.004306 
1820.802304  	-0.004338 
1822.731120  	-0.004704 
1824.659936  	-0.005017 
1826.588752  	-0.004805 
1828.517568  	-0.005794 
1830.446384  	-0.005105 
1832.375200  	-0.004289 
1834.304016  	-0.004187 
1836.232832  	-0.004368 
1838.161648  	-0.004478 
1840.090464  	-0.004740 
1842.019280  	-0.005287 
1843.948096  	-0.005562 
1845.876912  	-0.004840 
1847.805728  	-0.004482 
1849.734544  	-0.004130 
1851.663360  	-0.004667 
1853.592176  	-0.004822 
1855.520992  	-0.004958 
1857.449808  	-0.004639 
1859.378624  	-0.004557 
1861.307440  	-0.004396 
1863.236256  	-0.004722 
1865.165072  	-0.005284 
1867.093888  	-0.005937 
1869.022704  	-0.005246 
1870.951520  	-0.004850 
1872.880336  	-0.005008 
1874.809152  	-0.005214 
1876.737968  	-0.005045 
1878.666784  	-0.004852 
1880.595600  	-0.004594 
1882.524416  	-0.004950 
1884.453232  	-0.005231 
1886.382048  	-0.005213 
1888.310864  	-0.005015 
1890.239680  	-0.004596 
1892.168496  	-0.004397 
1894.097312  	-0.005258 
1896.026128  	-0.005233 
1897.954944  	-0.004776 
1899.883760  	-0.004684 
1901.812576  	-0.004810 
1903.741392  	-0.004786 
1905.670208  	-0.005104 
1907.599024  	-0.005074 
1909.527840  	-0.005086 
1911.456656  	-0.004727 
1913.385472  	-0.004285 
1915.314288  	-0.004542 
1917.243104  	-0.005187 
1919.171920  	-0.004732 
1921.100736  	-0.004940 
1923.029552  	-0.004481 
1924.958368  	-0.005008 
1926.887184  	-0.005479 
1928.816000  	-0.005269 
1930.744816  	-0.004820 
1932.673632  	-0.004842 
1934.602448  	-0.005040 
1936.531264  	-0.005234 
1938.460080  	-0.005435 
1940.388896  	-0.005890 
1942.317712  	-0.005306 
1944.246528  	-0.005278 
1946.175344  	-0.005362 
1948.104160  	-0.005263 
1950.032976  	-0.005352 
1951.961792  	-0.005720 
1953.890608  	-0.005057 
1955.819424  	-0.005125 
1957.748240  	-0.005381 
1959.677056  	-0.006373 
1961.605872  	-0.006308 
1963.534688  	-0.006349 
1965.463504  	-0.005310 
1967.392320  	-0.005558 
1969.321136  	-0.006473 
1971.249952  	-0.006501 
1973.178768  	-0.006129 
1975.107584  	-0.006620 
1977.036400  	-0.005929 
1978.965216  	-0.004349 
1980.894032  	-0.003894 
1982.822848  	-0.005137 
1984.751664  	-0.005110 
1986.680480  	-0.005166 
1988.609296  	-0.005153 
1990.538112  	-0.005653 
1992.466928  	-0.005072 
1994.395744  	-0.005488 
1996.324560  	-0.005442 
1998.253376  	-0.005217 
2000.182192  	-0.005389 
2002.111008  	-0.006299 
2004.039824  	-0.006041 
2005.968640  	-0.005940 
2007.897456  	-0.005933 
2009.826272  	-0.005307 
2011.755088  	-0.004313 
2013.683904  	-0.004903 
2015.612720  	-0.005040 
2017.541536  	-0.004065 
2019.470352  	-0.003272 
2021.399168  	-0.002968 
2023.327984  	-0.002423 
2025.256800  	-0.003487 
2027.185616  	-0.004392 
2029.114432  	-0.004418 
2031.043248  	-0.004169 
2032.972064  	-0.004290 
2034.900880  	-0.003880 
2036.829696  	-0.003852 
2038.758512  	-0.002983 
2040.687328  	-0.002867 
2042.616144  	-0.002554 
2044.544960  	-0.003056 
2046.473776  	-0.003593 
2048.402592  	-0.003352 
2050.331408  	-0.002667 
2052.260224  	-0.004587 
2054.189040  	-0.005807 
2056.117856  	-0.004956 
2058.046672  	-0.003889 
2059.975488  	-0.003899 
2061.904304  	-0.003956 
2063.833120  	-0.004239 
2065.761936  	-0.004089 
2067.690752  	-0.004010 
2069.619568  	-0.004042 
2071.548384  	-0.004637 
2073.477200  	-0.004403 
2075.406016  	-0.004131 
2077.334832  	-0.003867 
2079.263648  	-0.003813 
2081.192464  	-0.003821 
2083.121280  	-0.004317 
2085.050096  	-0.004355 
2086.978912  	-0.004251 
2088.907728  	-0.003944 
2090.836544  	-0.004222 
2092.765360  	-0.004265 
2094.694176  	-0.004554 
2096.622992  	-0.004137 
2098.551808  	-0.003670 
2100.480624  	-0.003772 
2102.409440  	-0.003640 
2104.338256  	-0.003468 
2106.267072  	-0.003346 
2108.195888  	-0.003010 
2110.124704  	-0.003321 
2112.053520  	-0.003610 
2113.982336  	-0.003321 
2115.911152  	-0.002890 
2117.839968  	-0.003132 
2119.768784  	-0.003738 
2121.697600  	-0.004553 
2123.626416  	-0.004587 
2125.555232  	-0.004408 
2127.484048  	-0.004610 
2129.412864  	-0.005129 
2131.341680  	-0.005223 
2133.270496  	-0.005222 
2135.199312  	-0.004533 
2137.128128  	-0.004202 
2139.056944  	-0.004113 
2140.985760  	-0.004065 
2142.914576  	-0.003774 
2144.843392  	-0.003768 
2146.772208  	-0.003419 
2148.701024  	-0.003141 
2150.629840  	-0.002610 
2152.558656  	-0.003598 
2154.487472  	-0.004316 
2156.416288  	-0.004511 
2158.345104  	-0.001411 
2160.273920  	0.001407 
2162.202736  	0.001214 
2164.131552  	0.000677 
2166.060368  	0.000797 
2167.989184  	0.000095 
2169.918000  	-0.000492 
2171.846816  	-0.000946 
2173.775632  	-0.002009 
2175.704448  	-0.002598 
2177.633264  	-0.002310 
2179.562080  	-0.002921 
2181.490896  	-0.003057 
2183.419712  	-0.003199 
2185.348528  	-0.003488 
2187.277344  	-0.002788 
2189.206160  	-0.001824 
2191.134976  	-0.001096 
2193.063792  	-0.000990 
2194.992608  	-0.001989 
2196.921424  	-0.001710 
2198.850240  	-0.001293 
2200.779056  	-0.001422 
2202.707872  	-0.002478 
2204.636688  	-0.002669 
2206.565504  	-0.001529 
2208.494320  	-0.000982 
2210.423136  	-0.002513 
2212.351952  	-0.003491 
2214.280768  	-0.003017 
2216.209584  	-0.002201 
2218.138400  	-0.002638 
2220.067216  	-0.002637 
2221.996032  	-0.002500 
2223.924848  	-0.002781 
2225.853664  	-0.003217 
2227.782480  	-0.002870 
2229.711296  	-0.002379 
2231.640112  	-0.002954 
2233.568928  	-0.003685 
2235.497744  	-0.003383 
2237.426560  	-0.003478 
2239.355376  	-0.003965 
2241.284192  	-0.003883 
2243.213008  	-0.003500 
2245.141824  	-0.003369 
2247.070640  	-0.003098 
2248.999456  	-0.003616 
2250.928272  	-0.003652 
2252.857088  	-0.003708 
2254.785904  	-0.003578 
2256.714720  	-0.003587 
2258.643536  	-0.004446 
2260.572352  	-0.004772 
2262.501168  	-0.004252 
2264.429984  	-0.004032 
2266.358800  	-0.003905 
2268.287616  	-0.003966 
2270.216432  	-0.003691 
2272.145248  	-0.003427 
2274.074064  	-0.003436 
2276.002880  	-0.003474 
2277.931696  	-0.003130 
2279.860512  	-0.002932 
2281.789328  	-0.002832 
2283.718144  	-0.002641 
2285.646960  	-0.002260 
2287.575776  	-0.002473 
2289.504592  	-0.002608 
2291.433408  	-0.002545 
2293.362224  	-0.002462 
2295.291040  	-0.002206 
2297.219856  	-0.001995 
2299.148672  	-0.001982 
2301.077488  	-0.001813 
2303.006304  	-0.002042 
2304.935120  	-0.002258 
2306.863936  	-0.001876 
2308.792752  	-0.001557 
2310.721568  	-0.001825 
2312.650384  	-0.002312 
2314.579200  	-0.002953 
2316.508016  	-0.003404 
2318.436832  	-0.003807 
2320.365648  	-0.004127 
2322.294464  	-0.004345 
2324.223280  	-0.005249 
2326.152096  	-0.007565 
2328.080912  	-0.008883 
2330.009728  	-0.009127 
2331.938544  	-0.009367 
2333.867360  	-0.010261 
2335.796176  	-0.011236 
2337.724992  	-0.011779 
2339.653808  	-0.011875 
2341.582624  	-0.011806 
2343.511440  	-0.010330 
2345.440256  	-0.008114 
2347.369072  	-0.006324 
2349.297888  	-0.006603 
2351.226704  	-0.008695 
2353.155520  	-0.011177 
2355.084336  	-0.013065 
2357.013152  	-0.014278 
2358.941968  	-0.014748 
2360.870784  	-0.014479 
2362.799600  	-0.013764 
2364.728416  	-0.013017 
2366.657232  	-0.011441 
2368.586048  	-0.009546 
2370.514864  	-0.007681 
2372.443680  	-0.005992 
2374.372496  	-0.004559 
2376.301312  	-0.003167 
2378.230128  	-0.002013 
2380.158944  	-0.001381 
2382.087760  	-0.001317 
2384.016576  	-0.001724 
2385.945392  	-0.002111 
2387.874208  	-0.002434 
2389.803024  	-0.002527 
2391.731840  	-0.002536 
2393.660656  	-0.002648 
2395.589472  	-0.002633 
2397.518288  	-0.002562 
2399.447104  	-0.002585 
2401.375920  	-0.002459 
2403.304736  	-0.002313 
2405.233552  	-0.002146 
2407.162368  	-0.002153 
2409.091184  	-0.002091 
2411.020000  	-0.002025 
2412.948816  	-0.002122 
2414.877632  	-0.002183 
2416.806448  	-0.002033 
2418.735264  	-0.002202 
2420.664080  	-0.002298 
2422.592896  	-0.002006 
2424.521712  	-0.001537 
2426.450528  	-0.001243 
2428.379344  	-0.001222 
2430.308160  	-0.001334 
2432.236976  	-0.001334 
2434.165792  	-0.001155 
2436.094608  	-0.000904 
2438.023424  	-0.000937 
2439.952240  	-0.000913 
2441.881056  	-0.000805 
2443.809872  	-0.000602 
2445.738688  	-0.000659 
2447.667504  	-0.000719 
2449.596320  	-0.000450 
2451.525136  	-0.000308 
2453.453952  	-0.000347 
2455.382768  	-0.000150 
2457.311584  	0.000033 
2459.240400  	-0.000134 
2461.169216  	-0.000396 
2463.098032  	-0.000339 
2465.026848  	-0.000229 
2466.955664  	-0.000249 
2468.884480  	-0.000080 
2470.813296  	0.000179 
2472.742112  	0.000234 
2474.670928  	0.000227 
2476.599744  	0.000143 
2478.528560  	0.000273 
2480.457376  	0.000366 
2482.386192  	0.000286 
2484.315008  	0.000175 
2486.243824  	0.000430 
2488.172640  	0.000935 
2490.101456  	0.001136 
2492.030272  	0.000982 
2493.959088  	0.000911 
2495.887904  	0.001137 
2497.816720  	0.001556 
2499.745536  	0.001651 
2501.674352  	0.001802 
2503.603168  	0.001879 
2505.531984  	0.001720 
2507.460800  	0.001632 
2509.389616  	0.001734 
2511.318432  	0.001694 
2513.247248  	0.001678 
2515.176064  	0.001691 
2517.104880  	0.001902 
2519.033696  	0.002357 
2520.962512  	0.002549 
2522.891328  	0.002402 
2524.820144  	0.002380 
2526.748960  	0.002575 
2528.677776  	0.002782 
2530.606592  	0.002816 
2532.535408  	0.002744 
2534.464224  	0.002657 
2536.393040  	0.002600 
2538.321856  	0.002730 
2540.250672  	0.002763 
2542.179488  	0.002664 
2544.108304  	0.002778 
2546.037120  	0.003039 
2547.965936  	0.003206 
2549.894752  	0.003078 
2551.823568  	0.003148 
2553.752384  	0.003323 
2555.681200  	0.003423 
2557.610016  	0.003556 
2559.538832  	0.003724 
2561.467648  	0.003945 
2563.396464  	0.003840 
2565.325280  	0.003669 
2567.254096  	0.003953 
2569.182912  	0.004172 
2571.111728  	0.004331 
2573.040544  	0.004501 
2574.969360  	0.004704 
2576.898176  	0.004730 
2578.826992  	0.004752 
2580.755808  	0.004601 
2582.684624  	0.004660 
2584.613440  	0.004734 
2586.542256  	0.004760 
2588.471072  	0.004860 
2590.399888  	0.005010 
2592.328704  	0.005135 
2594.257520  	0.005143 
2596.186336  	0.005165 
2598.115152  	0.005251 
2600.043968  	0.005332 
2601.972784  	0.005419 
2603.901600  	0.005509 
2605.830416  	0.005580 
2607.759232  	0.005671 
2609.688048  	0.005727 
2611.616864  	0.005811 
2613.545680  	0.006033 
2615.474496  	0.006116 
2617.403312  	0.006188 
2619.332128  	0.006388 
2621.260944  	0.006500 
2623.189760  	0.006488 
2625.118576  	0.006578 
2627.047392  	0.006780 
2628.976208  	0.006987 
2630.905024  	0.007095 
2632.833840  	0.007228 
2634.762656  	0.007371 
2636.691472  	0.007423 
2638.620288  	0.007708 
2640.549104  	0.007928 
2642.477920  	0.008038 
2644.406736  	0.008168 
2646.335552  	0.008183 
2648.264368  	0.008207 
2650.193184  	0.008343 
2652.122000  	0.008534 
2654.050816  	0.008654 
2655.979632  	0.008706 
2657.908448  	0.008839 
2659.837264  	0.009026 
2661.766080  	0.009170 
2663.694896  	0.009168 
2665.623712  	0.009159 
2667.552528  	0.009344 
2669.481344  	0.009565 
2671.410160  	0.009824 
2673.338976  	0.009925 
2675.267792  	0.009943 
2677.196608  	0.009999 
2679.125424  	0.010152 
2681.054240  	0.010376 
2682.983056  	0.010502 
2684.911872  	0.010621 
2686.840688  	0.010719 
2688.769504  	0.010786 
2690.698320  	0.010915 
2692.627136  	0.011076 
2694.555952  	0.011186 
2696.484768  	0.011165 
2698.413584  	0.011304 
2700.342400  	0.011482 
2702.271216  	0.011586 
2704.200032  	0.011713 
2706.128848  	0.011866 
2708.057664  	0.011974 
2709.986480  	0.012049 
2711.915296  	0.012195 
2713.844112  	0.012294 
2715.772928  	0.012314 
2717.701744  	0.012383 
2719.630560  	0.012504 
2721.559376  	0.012709 
2723.488192  	0.012856 
2725.417008  	0.013002 
2727.345824  	0.013124 
2729.274640  	0.013205 
2731.203456  	0.013384 
2733.132272  	0.013664 
2735.061088  	0.013848 
2736.989904  	0.013880 
2738.918720  	0.014037 
2740.847536  	0.014185 
2742.776352  	0.014265 
2744.705168  	0.014363 
2746.633984  	0.014488 
2748.562800  	0.014597 
2750.491616  	0.014795 
2752.420432  	0.014954 
2754.349248  	0.014939 
2756.278064  	0.014954 
2758.206880  	0.014975 
2760.135696  	0.015044 
2762.064512  	0.015113 
2763.993328  	0.015097 
2765.922144  	0.015017 
2767.850960  	0.015049 
2769.779776  	0.015074 
2771.708592  	0.015016 
2773.637408  	0.015036 
2775.566224  	0.015057 
2777.495040  	0.015113 
2779.423856  	0.015146 
2781.352672  	0.015089 
2783.281488  	0.015121 
2785.210304  	0.015158 
2787.139120  	0.015234 
2789.067936  	0.015251 
2790.996752  	0.015193 
2792.925568  	0.015152 
2794.854384  	0.015110 
2796.783200  	0.015099 
2798.712016  	0.015171 
2800.640832  	0.015282 
2802.569648  	0.015285 
2804.498464  	0.015273 
2806.427280  	0.015248 
2808.356096  	0.015303 
2810.284912  	0.015317 
2812.213728  	0.015180 
2814.142544  	0.015164 
2816.071360  	0.015161 
2818.000176  	0.015194 
2819.928992  	0.015232 
2821.857808  	0.015308 
2823.786624  	0.015263 
2825.715440  	0.015277 
2827.644256  	0.015278 
2829.573072  	0.015305 
2831.501888  	0.015290 
2833.430704  	0.015112 
2835.359520  	0.015008 
2837.288336  	0.014983 
2839.217152  	0.014980 
2841.145968  	0.014902 
2843.074784  	0.014748 
2845.003600  	0.014698 
2846.932416  	0.014900 
2848.861232  	0.015024 
2850.790048  	0.014858 
2852.718864  	0.014867 
2854.647680  	0.014958 
2856.576496  	0.014909 
2858.505312  	0.014919 
2860.434128  	0.014946 
2862.362944  	0.015087 
2864.291760  	0.015023 
2866.220576  	0.014957 
2868.149392  	0.015087 
2870.078208  	0.015069 
2872.007024  	0.015187 
2873.935840  	0.015486 
2875.864656  	0.015821 
2877.793472  	0.016116 
2879.722288  	0.016347 
2881.651104  	0.016552 
2883.579920  	0.016565 
2885.508736  	0.016676 
2887.437552  	0.016896 
2889.366368  	0.016811 
2891.295184  	0.016680 
2893.224000  	0.016650 
2895.152816  	0.016612 
2897.081632  	0.016268 
2899.010448  	0.015615 
2900.939264  	0.015213 
2902.868080  	0.015485 
2904.796896  	0.015797 
2906.725712  	0.015926 
2908.654528  	0.015940 
2910.583344  	0.016122 
2912.512160  	0.016515 
2914.440976  	0.016980 
2916.369792  	0.017498 
2918.298608  	0.017938 
2920.227424  	0.018288 
2922.156240  	0.018629 
2924.085056  	0.018849 
2926.013872  	0.019264 
2927.942688  	0.019887 
2929.871504  	0.020443 
2931.800320  	0.020929 
2933.729136  	0.021527 
2935.657952  	0.021951 
2937.586768  	0.022231 
2939.515584  	0.022569 
2941.444400  	0.022920 
2943.373216  	0.023136 
2945.302032  	0.023224 
2947.230848  	0.023324 
2949.159664  	0.023468 
2951.088480  	0.023226 
2953.017296  	0.022851 
2954.946112  	0.022458 
2956.874928  	0.022074 
2958.803744  	0.021737 
2960.732560  	0.021256 
2962.661376  	0.020574 
2964.590192  	0.020203 
2966.519008  	0.019873 
2968.447824  	0.019177 
2970.376640  	0.018366 
2972.305456  	0.017634 
2974.234272  	0.017103 
2976.163088  	0.016489 
2978.091904  	0.015934 
2980.020720  	0.015664 
2981.949536  	0.015593 
2983.878352  	0.015557 
2985.807168  	0.015480 
2987.735984  	0.015600 
2989.664800  	0.015969 
2991.593616  	0.016678 
2993.522432  	0.017170 
2995.451248  	0.017457 
2997.380064  	0.018027 
2999.308880  	0.018587 
3001.237696  	0.018970 
3003.166512  	0.019225 
3005.095328  	0.019574 
3007.024144  	0.019904 
3008.952960  	0.020284 
3010.881776  	0.020646 
3012.810592  	0.020972 
3014.739408  	0.021339 
3016.668224  	0.021633 
3018.597040  	0.021888 
3020.525856  	0.022196 
3022.454672  	0.022653 
3024.383488  	0.023126 
3026.312304  	0.023370 
3028.241120  	0.023451 
3030.169936  	0.023691 
3032.098752  	0.024086 
3034.027568  	0.024265 
3035.956384  	0.024452 
3037.885200  	0.024672 
3039.814016  	0.024944 
3041.742832  	0.025174 
3043.671648  	0.025515 
3045.600464  	0.026033 
3047.529280  	0.026179 
3049.458096  	0.026250 
3051.386912  	0.026530 
3053.315728  	0.026770 
3055.244544  	0.026932 
3057.173360  	0.027580 
3059.102176  	0.028059 
3061.030992  	0.028285 
3062.959808  	0.028376 
3064.888624  	0.028700 
3066.817440  	0.029266 
3068.746256  	0.029871 
3070.675072  	0.030197 
3072.603888  	0.030429 
3074.532704  	0.030839 
3076.461520  	0.031192 
3078.390336  	0.031553 
3080.319152  	0.032079 
3082.247968  	0.032515 
3084.176784  	0.032904 
3086.105600  	0.033322 
3088.034416  	0.033750 
3089.963232  	0.034161 
3091.892048  	0.034549 
3093.820864  	0.034820 
3095.749680  	0.035116 
3097.678496  	0.035516 
3099.607312  	0.036103 
3101.536128  	0.036704 
3103.464944  	0.037206 
3105.393760  	0.037603 
3107.322576  	0.037864 
3109.251392  	0.038187 
3111.180208  	0.038544 
3113.109024  	0.038633 
3115.037840  	0.038705 
3116.966656  	0.038982 
3118.895472  	0.039473 
3120.824288  	0.039634 
3122.753104  	0.039787 
3124.681920  	0.039949 
3126.610736  	0.040211 
3128.539552  	0.040539 
3130.468368  	0.040670 
3132.397184  	0.040894 
3134.326000  	0.041015 
3136.254816  	0.041142 
3138.183632  	0.041351 
3140.112448  	0.041774 
3142.041264  	0.041987 
3143.970080  	0.042044 
3145.898896  	0.042360 
3147.827712  	0.042773 
3149.756528  	0.043074 
3151.685344  	0.043290 
3153.614160  	0.043498 
3155.542976  	0.043648 
3157.471792  	0.043979 
3159.400608  	0.044418 
3161.329424  	0.044604 
3163.258240  	0.044664 
3165.187056  	0.044914 
3167.115872  	0.045401 
3169.044688  	0.045770 
3170.973504  	0.045886 
3172.902320  	0.045841 
3174.831136  	0.045874 
3176.759952  	0.046110 
3178.688768  	0.046269 
3180.617584  	0.046386 
3182.546400  	0.046399 
3184.475216  	0.046311 
3186.404032  	0.046225 
3188.332848  	0.046365 
3190.261664  	0.046267 
3192.190480  	0.046043 
3194.119296  	0.045764 
3196.048112  	0.045356 
3197.976928  	0.045261 
3199.905744  	0.045348 
3201.834560  	0.045095 
3203.763376  	0.044724 
3205.692192  	0.044462 
3207.621008  	0.043946 
3209.549824  	0.043716 
3211.478640  	0.043553 
3213.407456  	0.043247 
3215.336272  	0.043322 
3217.265088  	0.043011 
3219.193904  	0.042757 
3221.122720  	0.042684 
3223.051536  	0.042394 
3224.980352  	0.041976 
3226.909168  	0.041564 
3228.837984  	0.041431 
3230.766800  	0.041309 
3232.695616  	0.041013 
3234.624432  	0.040781 
3236.553248  	0.040624 
3238.482064  	0.040423 
3240.410880  	0.040579 
3242.339696  	0.040683 
3244.268512  	0.040669 
3246.197328  	0.040916 
3248.126144  	0.040640 
3250.054960  	0.040682 
3251.983776  	0.040802 
3253.912592  	0.040931 
3255.841408  	0.041120 
3257.770224  	0.041428 
3259.699040  	0.041691 
3261.627856  	0.041776 
3263.556672  	0.041662 
3265.485488  	0.041988 
3267.414304  	0.042098 
3269.343120  	0.042133 
3271.271936  	0.042285 
3273.200752  	0.042442 
3275.129568  	0.042967 
3277.058384  	0.043243 
3278.987200  	0.043169 
3280.916016  	0.043175 
3282.844832  	0.043335 
3284.773648  	0.043330 
3286.702464  	0.043279 
3288.631280  	0.043379 
3290.560096  	0.043474 
3292.488912  	0.043896 
3294.417728  	0.044271 
3296.346544  	0.044434 
3298.275360  	0.044795 
3300.204176  	0.045008 
3302.132992  	0.045355 
3304.061808  	0.045613 
3305.990624  	0.045580 
3307.919440  	0.045805 
3309.848256  	0.046269 
3311.777072  	0.046600 
3313.705888  	0.046843 
3315.634704  	0.047064 
3317.563520  	0.047359 
3319.492336  	0.047611 
3321.421152  	0.047736 
3323.349968  	0.047926 
3325.278784  	0.048214 
3327.207600  	0.048658 
3329.136416  	0.048801 
3331.065232  	0.048778 
3332.994048  	0.048865 
3334.922864  	0.049018 
3336.851680  	0.049401 
3338.780496  	0.049374 
3340.709312  	0.048978 
3342.638128  	0.048762 
3344.566944  	0.048646 
3346.495760  	0.048471 
3348.424576  	0.048172 
3350.353392  	0.047994 
3352.282208  	0.047806 
3354.211024  	0.047629 
3356.139840  	0.047445 
3358.068656  	0.047345 
3359.997472  	0.047050 
3361.926288  	0.046880 
3363.855104  	0.046671 
3365.783920  	0.046640 
3367.712736  	0.046554 
3369.641552  	0.046167 
3371.570368  	0.045844 
3373.499184  	0.045643 
3375.428000  	0.045276 
3377.356816  	0.045177 
3379.285632  	0.045389 
3381.214448  	0.045124 
3383.143264  	0.044562 
3385.072080  	0.044445 
3387.000896  	0.044492 
3388.929712  	0.044214 
3390.858528  	0.043694 
3392.787344  	0.043705 
3394.716160  	0.043548 
3396.644976  	0.043454 
3398.573792  	0.043494 
3400.502608  	0.043182 
3402.431424  	0.042894 
3404.360240  	0.042627 
3406.289056  	0.042218 
3408.217872  	0.041975 
3410.146688  	0.041732 
3412.075504  	0.041376 
3414.004320  	0.041198 
3415.933136  	0.040880 
3417.861952  	0.040299 
3419.790768  	0.039890 
3421.719584  	0.040163 
3423.648400  	0.040072 
3425.577216  	0.039507 
3427.506032  	0.039074 
3429.434848  	0.038761 
3431.363664  	0.038524 
3433.292480  	0.038105 
3435.221296  	0.037803 
3437.150112  	0.037588 
3439.078928  	0.037180 
3441.007744  	0.036840 
3442.936560  	0.036678 
3444.865376  	0.036017 
3446.794192  	0.035957 
3448.723008  	0.036289 
3450.651824  	0.035330 
3452.580640  	0.034462 
3454.509456  	0.034219 
3456.438272  	0.033886 
3458.367088  	0.033377 
3460.295904  	0.033208 
3462.224720  	0.033229 
3464.153536  	0.032734 
3466.082352  	0.032098 
3468.011168  	0.031694 
3469.939984  	0.030900 
3471.868800  	0.029998 
3473.797616  	0.029468 
3475.726432  	0.029314 
3477.655248  	0.028757 
3479.584064  	0.027884 
3481.512880  	0.027514 
3483.441696  	0.027394 
3485.370512  	0.026548 
3487.299328  	0.025953 
3489.228144  	0.025738 
3491.156960  	0.025045 
3493.085776  	0.024043 
3495.014592  	0.023569 
3496.943408  	0.023526 
3498.872224  	0.023005 
3500.801040  	0.022003 
3502.729856  	0.021979 
3504.658672  	0.022262 
3506.587488  	0.021303 
3508.516304  	0.020524 
3510.445120  	0.020705 
3512.373936  	0.020276 
3514.302752  	0.019509 
3516.231568  	0.018711 
3518.160384  	0.018231 
3520.089200  	0.017555 
3522.018016  	0.017048 
3523.946832  	0.017319 
3525.875648  	0.016642 
3527.804464  	0.016163 
3529.733280  	0.016269 
3531.662096  	0.015955 
3533.590912  	0.014974 
3535.519728  	0.014803 
3537.448544  	0.015178 
3539.377360  	0.014145 
3541.306176  	0.013005 
3543.234992  	0.012345 
3545.163808  	0.013057 
3547.092624  	0.013831 
3549.021440  	0.012759 
3550.950256  	0.011296 
3552.879072  	0.011742 
3554.807888  	0.011569 
3556.736704  	0.010618 
3558.665520  	0.010100 
3560.594336  	0.009711 
3562.523152  	0.008614 
3564.451968  	0.007016 
3566.380784  	0.007879 
3568.309600  	0.010829 
3570.238416  	0.009369 
3572.167232  	0.007325 
3574.096048  	0.006626 
3576.024864  	0.006345 
3577.953680  	0.005855 
3579.882496  	0.005612 
3581.811312  	0.004938 
3583.740128  	0.003147 
3585.668944  	0.001901 
3587.597760  	0.004191 
3589.526576  	0.005084 
3591.455392  	0.002115 
3593.384208  	0.000643 
3595.313024  	0.001115 
3597.241840  	0.000574 
3599.170656  	-0.000607 
3601.099472  	-0.000296 
3603.028288  	-0.000428 
3604.957104  	-0.002306 
3606.885920  	-0.003338 
3608.814736  	-0.002156 
3610.743552  	-0.003367 
3612.672368  	-0.004581 
3614.601184  	-0.004482 
3616.530000  	-0.006789 
3618.458816  	-0.007237 
3620.387632  	-0.004926 
3622.316448  	-0.005583 
3624.245264  	-0.007783 
3626.174080  	-0.010915 
3628.102896  	-0.011648 
3630.031712  	-0.006705 
3631.960528  	-0.008423 
3633.889344  	-0.009177 
3635.818160  	-0.009444 
3637.746976  	-0.010525 
3639.675792  	-0.010891 
3641.604608  	-0.011410 
3643.533424  	-0.012716 
3645.462240  	-0.015979 
3647.391056  	-0.018008 
3649.319872  	-0.015981 
3651.248688  	-0.011882 
3653.177504  	-0.013720 
3655.106320  	-0.015845 
3657.035136  	-0.014131 
3658.963952  	-0.014040 
3660.892768  	-0.014487 
3662.821584  	-0.015041 
3664.750400  	-0.015863 
3666.679216  	-0.017950 
3668.608032  	-0.020127 
3670.536848  	-0.017324 
3672.465664  	-0.018479 
3674.394480  	-0.021422 
3676.323296  	-0.016123 
3678.252112  	-0.015776 
3680.180928  	-0.015716 
3682.109744  	-0.015923 
3684.038560  	-0.016844 
3685.967376  	-0.018859 
3687.896192  	-0.020238 
3689.825008  	-0.018484 
3691.753824  	-0.016205 
3693.682640  	-0.015749 
3695.611456  	-0.015940 
3697.540272  	-0.015903 
3699.469088  	-0.017077 
3701.397904  	-0.016783 
3703.326720  	-0.015487 
3705.255536  	-0.016217 
3707.184352  	-0.017844 
3709.113168  	-0.019585 
3711.041984  	-0.018735 
3712.970800  	-0.014900 
3714.899616  	-0.014513 
3716.828432  	-0.016019 
3718.757248  	-0.016486 
3720.686064  	-0.017209 
3722.614880  	-0.017215 
3724.543696  	-0.016802 
3726.472512  	-0.015819 
3728.401328  	-0.016236 
3730.330144  	-0.019210 
3732.258960  	-0.020495 
3734.187776  	-0.019407 
3736.116592  	-0.015828 
3738.045408  	-0.015297 
3739.974224  	-0.016826 
3741.903040  	-0.019326 
3743.831856  	-0.019065 
3745.760672  	-0.015628 
3747.689488  	-0.019434 
3749.618304  	-0.020604 
3751.547120  	-0.017064 
3753.475936  	-0.014516 
3755.404752  	-0.016297 
3757.333568  	-0.017162 
3759.262384  	-0.016114 
3761.191200  	-0.014497 
3763.120016  	-0.015724 
3765.048832  	-0.015908 
3766.977648  	-0.015754 
3768.906464  	-0.016491 
3770.835280  	-0.014538 
3772.764096  	-0.014151 
3774.692912  	-0.014904 
3776.621728  	-0.016222 
3778.550544  	-0.016865 
3780.479360  	-0.014941 
3782.408176  	-0.015244 
3784.336992  	-0.015462 
3786.265808  	-0.014590 
3788.194624  	-0.014580 
3790.123440  	-0.014950 
3792.052256  	-0.015217 
3793.981072  	-0.016401 
3795.909888  	-0.017072 
3797.838704  	-0.017093 
3799.767520  	-0.019227 
3801.696336  	-0.017347 
3803.625152  	-0.016022 
3805.553968  	-0.017876 
3807.482784  	-0.015370 
3809.411600  	-0.014604 
3811.340416  	-0.015482 
3813.269232  	-0.017435 
3815.198048  	-0.018476 
3817.126864  	-0.016523 
3819.055680  	-0.019147 
3820.984496  	-0.018009 
3822.913312  	-0.014646 
3824.842128  	-0.016357 
3826.770944  	-0.016284 
3828.699760  	-0.016236 
3830.628576  	-0.017080 
3832.557392  	-0.017077 
3834.486208  	-0.018128 
3836.415024  	-0.019148 
3838.343840  	-0.018151 
3840.272656  	-0.016565 
3842.201472  	-0.016133 
3844.130288  	-0.015226 
3846.059104  	-0.015080 
3847.987920  	-0.016586 
3849.916736  	-0.019231 
3851.845552  	-0.021834 
3853.774368  	-0.016094 
3855.703184  	-0.013480 
3857.632000  	-0.014587 
3859.560816  	-0.015945 
3861.489632  	-0.017215 
3863.418448  	-0.017368 
3865.347264  	-0.015475 
3867.276080  	-0.016732 
3869.204896  	-0.017542 
3871.133712  	-0.015047 
3873.062528  	-0.016161 
3874.991344  	-0.014576 
3876.920160  	-0.015646 
3878.848976  	-0.017166 
3880.777792  	-0.015201 
3882.706608  	-0.015291 
3884.635424  	-0.016290 
3886.564240  	-0.013796 
3888.493056  	-0.015568 
3890.421872  	-0.016697 
3892.350688  	-0.014765 
3894.279504  	-0.014494 
3896.208320  	-0.016042 
3898.137136  	-0.017009 
3900.065952  	-0.016491 
3901.994768  	-0.016051 
3903.923584  	-0.014559 
3905.852400  	-0.013408 
3907.781216  	-0.014363 
3909.710032  	-0.015016 
3911.638848  	-0.015042 
3913.567664  	-0.015371 
3915.496480  	-0.015611 
3917.425296  	-0.014701 
3919.354112  	-0.014660 
3921.282928  	-0.014991 
3923.211744  	-0.015320 
3925.140560  	-0.014271 
3927.069376  	-0.014713 
3928.998192  	-0.015616 
3930.927008  	-0.015026 
3932.855824  	-0.013943 
3934.784640  	-0.014281 
3936.713456  	-0.014925 
3938.642272  	-0.014968 
3940.571088  	-0.015386 
3942.499904  	-0.014627 
3944.428720  	-0.014234 
3946.357536  	-0.015089 
3948.286352  	-0.014884 
3950.215168  	-0.014517 
3952.143984  	-0.014846 
3954.072800  	-0.015064 
3956.001616  	-0.015004 
3957.930432  	-0.014983 
3959.859248  	-0.015112 
3961.788064  	-0.014762 
3963.716880  	-0.014333 
3965.645696  	-0.014657 
3967.574512  	-0.015036 
3969.503328  	-0.014979 
3971.432144  	-0.014940 
3973.360960  	-0.014890 
3975.289776  	-0.014676 
3977.218592  	-0.014659 
3979.147408  	-0.014849 
3981.076224  	-0.014976 
3983.005040  	-0.014781 
3984.933856  	-0.014770 
3986.862672  	-0.014946 
3988.791488  	-0.015016 
3990.720304  	-0.014942 
3992.649120  	-0.014805 
3994.577936  	-0.014708 
3996.506752  	-0.014895 
3998.435568  	-0.014959 
4000.364384  	-0.014935 