##TITLE=No Description
##DATA TYPE=INFRARED SPECTRUM
##XUNITS=1/CM
##YUNITS=Abs
399.264912  	0.582277 
401.193728  	0.561124 
403.122544  	0.553221 
405.051360  	0.558161 
406.980176  	0.565348 
408.908992  	0.533375 
410.837808  	0.525764 
412.766624  	0.528269 
414.695440  	0.535353 
416.624256  	0.543072 
418.553072  	0.563811 
420.481888  	0.542702 
422.410704  	0.541480 
424.339520  	0.525436 
426.268336  	0.516506 
428.197152  	0.504730 
430.125968  	0.503289 
432.054784  	0.501395 
433.983600  	0.506905 
435.912416  	0.496755 
437.841232  	0.493273 
439.770048  	0.492273 
441.698864  	0.493972 
443.627680  	0.489578 
445.556496  	0.484777 
447.485312  	0.481397 
449.414128  	0.485400 
451.342944  	0.483788 
453.271760  	0.479055 
455.200576  	0.472794 
457.129392  	0.473382 
459.058208  	0.472251 
460.987024  	0.476258 
462.915840  	0.476721 
464.844656  	0.478143 
466.773472  	0.472204 
468.702288  	0.473658 
470.631104  	0.474242 
472.559920  	0.477552 
474.488736  	0.476870 
476.417552  	0.479312 
478.346368  	0.469810 
480.275184  	0.468344 
482.204000  	0.469657 
484.132816  	0.470264 
486.061632  	0.466193 
487.990448  	0.468036 
489.919264  	0.467259 
491.848080  	0.462724 
493.776896  	0.453631 
495.705712  	0.453393 
497.634528  	0.455753 
499.563344  	0.455826 
501.492160  	0.453680 
503.420976  	0.451978 
505.349792  	0.447869 
507.278608  	0.450068 
509.207424  	0.450215 
511.136240  	0.452860 
513.065056  	0.453896 
514.993872  	0.454882 
516.922688  	0.453017 
518.851504  	0.457758 
520.780320  	0.457681 
522.709136  	0.456474 
524.637952  	0.454461 
526.566768  	0.453218 
528.495584  	0.448742 
530.424400  	0.446482 
532.353216  	0.442989 
534.282032  	0.439968 
536.210848  	0.435160 
538.139664  	0.430917 
540.068480  	0.425609 
541.997296  	0.421470 
543.926112  	0.417364 
545.854928  	0.416214 
547.783744  	0.414757 
549.712560  	0.412307 
551.641376  	0.408073 
553.570192  	0.405198 
555.499008  	0.401786 
557.427824  	0.399830 
559.356640  	0.397252 
561.285456  	0.395697 
563.214272  	0.392287 
565.143088  	0.389591 
567.071904  	0.385083 
569.000720  	0.382005 
570.929536  	0.378293 
572.858352  	0.375780 
574.787168  	0.373820 
576.715984  	0.372553 
578.644800  	0.369413 
580.573616  	0.366826 
582.502432  	0.362843 
584.431248  	0.358395 
586.360064  	0.353594 
588.288880  	0.350737 
590.217696  	0.348976 
592.146512  	0.347513 
594.075328  	0.345644 
596.004144  	0.343972 
597.932960  	0.341444 
599.861776  	0.340090 
601.790592  	0.338412 
603.719408  	0.337167 
605.648224  	0.335548 
607.577040  	0.334733 
609.505856  	0.332634 
611.434672  	0.331108 
613.363488  	0.329098 
615.292304  	0.327570 
617.221120  	0.324604 
619.149936  	0.322975 
621.078752  	0.321702 
623.007568  	0.321371 
624.936384  	0.319954 
626.865200  	0.318592 
628.794016  	0.317712 
630.722832  	0.316953 
632.651648  	0.316108 
634.580464  	0.315382 
636.509280  	0.315239 
638.438096  	0.314615 
640.366912  	0.313324 
642.295728  	0.311619 
644.224544  	0.308606 
646.153360  	0.306241 
648.082176  	0.302996 
650.010992  	0.300316 
651.939808  	0.296650 
653.868624  	0.293576 
655.797440  	0.289973 
657.726256  	0.287116 
659.655072  	0.283690 
661.583888  	0.280119 
663.512704  	0.276617 
665.441520  	0.272130 
667.370336  	0.267242 
669.299152  	0.265112 
671.227968  	0.261590 
673.156784  	0.257727 
675.085600  	0.255003 
677.014416  	0.253233 
678.943232  	0.251072 
680.872048  	0.249990 
682.800864  	0.248174 
684.729680  	0.246068 
686.658496  	0.244193 
688.587312  	0.243412 
690.516128  	0.241825 
692.444944  	0.240453 
694.373760  	0.239408 
696.302576  	0.238314 
698.231392  	0.235927 
700.160208  	0.233777 
702.089024  	0.231664 
704.017840  	0.230149 
705.946656  	0.227906 
707.875472  	0.225477 
709.804288  	0.222942 
711.733104  	0.221064 
713.661920  	0.219295 
715.590736  	0.217946 
717.519552  	0.217451 
719.448368  	0.217006 
721.377184  	0.216797 
723.306000  	0.217044 
725.234816  	0.216973 
727.163632  	0.215490 
729.092448  	0.213245 
731.021264  	0.210800 
732.950080  	0.208084 
734.878896  	0.205338 
736.807712  	0.202295 
738.736528  	0.200292 
740.665344  	0.198543 
742.594160  	0.197524 
744.522976  	0.195971 
746.451792  	0.194785 
748.380608  	0.193076 
750.309424  	0.191988 
752.238240  	0.191305 
754.167056  	0.190946 
756.095872  	0.189724 
758.024688  	0.188177 
759.953504  	0.187831 
761.882320  	0.187945 
763.811136  	0.187907 
765.739952  	0.186384 
767.668768  	0.183581 
769.597584  	0.180968 
771.526400  	0.180097 
773.455216  	0.181057 
775.384032  	0.183300 
777.312848  	0.187077 
779.241664  	0.189470 
781.170480  	0.188809 
783.099296  	0.184622 
785.028112  	0.179854 
786.956928  	0.175066 
788.885744  	0.171147 
790.814560  	0.168065 
792.743376  	0.166414 
794.672192  	0.165590 
796.601008  	0.164390 
798.529824  	0.161556 
800.458640  	0.157707 
802.387456  	0.154510 
804.316272  	0.152986 
806.245088  	0.151614 
808.173904  	0.150610 
810.102720  	0.150341 
812.031536  	0.150055 
813.960352  	0.149584 
815.889168  	0.149648 
817.817984  	0.149992 
819.746800  	0.150027 
821.675616  	0.150239 
823.604432  	0.150626 
825.533248  	0.150981 
827.462064  	0.150953 
829.390880  	0.149938 
831.319696  	0.149419 
833.248512  	0.148329 
835.177328  	0.146719 
837.106144  	0.144260 
839.034960  	0.141709 
840.963776  	0.138791 
842.892592  	0.135919 
844.821408  	0.132917 
846.750224  	0.130028 
848.679040  	0.127610 
850.607856  	0.125724 
852.536672  	0.124851 
854.465488  	0.123632 
856.394304  	0.122551 
858.323120  	0.121543 
860.251936  	0.120421 
862.180752  	0.118946 
864.109568  	0.117079 
866.038384  	0.115351 
867.967200  	0.113337 
869.896016  	0.111674 
871.824832  	0.110305 
873.753648  	0.109430 
875.682464  	0.109081 
877.611280  	0.109885 
879.540096  	0.111851 
881.468912  	0.114639 
883.397728  	0.117120 
885.326544  	0.119129 
887.255360  	0.120630 
889.184176  	0.121178 
891.112992  	0.120982 
893.041808  	0.119859 
894.970624  	0.117919 
896.899440  	0.115074 
898.828256  	0.111753 
900.757072  	0.108094 
902.685888  	0.104583 
904.614704  	0.102563 
906.543520  	0.101820 
908.472336  	0.102426 
910.401152  	0.103929 
912.329968  	0.105864 
914.258784  	0.107981 
916.187600  	0.109926 
918.116416  	0.111485 
920.045232  	0.112905 
921.974048  	0.113823 
923.902864  	0.114333 
925.831680  	0.114634 
927.760496  	0.115185 
929.689312  	0.115849 
931.618128  	0.116649 
933.546944  	0.117247 
935.475760  	0.117430 
937.404576  	0.117171 
939.333392  	0.116512 
941.262208  	0.116096 
943.191024  	0.116362 
945.119840  	0.118054 
947.048656  	0.121470 
948.977472  	0.126819 
950.906288  	0.133830 
952.835104  	0.142410 
954.763920  	0.152412 
956.692736  	0.162796 
958.621552  	0.172531 
960.550368  	0.180033 
962.479184  	0.185368 
964.408000  	0.187031 
966.336816  	0.184745 
968.265632  	0.178632 
970.194448  	0.169840 
972.123264  	0.158841 
974.052080  	0.146965 
975.980896  	0.134857 
977.909712  	0.123303 
979.838528  	0.113053 
981.767344  	0.104568 
983.696160  	0.098324 
985.624976  	0.094233 
987.553792  	0.092947 
989.482608  	0.094048 
991.411424  	0.097213 
993.340240  	0.102120 
995.269056  	0.107674 
997.197872  	0.113689 
999.126688  	0.119642 
1001.055504  	0.125900 
1002.984320  	0.132017 
1004.913136  	0.138257 
1006.841952  	0.144135 
1008.770768  	0.149616 
1010.699584  	0.154405 
1012.628400  	0.158342 
1014.557216  	0.161098 
1016.486032  	0.163171 
1018.414848  	0.164403 
1020.343664  	0.165028 
1022.272480  	0.165434 
1024.201296  	0.165691 
1026.130112  	0.165495 
1028.058928  	0.165859 
1029.987744  	0.167307 
1031.916560  	0.168878 
1033.845376  	0.170533 
1035.774192  	0.173032 
1037.703008  	0.176395 
1039.631824  	0.181707 
1041.560640  	0.189872 
1043.489456  	0.201736 
1045.418272  	0.216819 
1047.347088  	0.233930 
1049.275904  	0.249351 
1051.204720  	0.261450 
1053.133536  	0.268359 
1055.062352  	0.271381 
1056.991168  	0.271908 
1058.919984  	0.272207 
1060.848800  	0.272147 
1062.777616  	0.272201 
1064.706432  	0.270975 
1066.635248  	0.269035 
1068.564064  	0.265862 
1070.492880  	0.260733 
1072.421696  	0.254627 
1074.350512  	0.250584 
1076.279328  	0.249512 
1078.208144  	0.252152 
1080.136960  	0.256114 
1082.065776  	0.259731 
1083.994592  	0.260632 
1085.923408  	0.258213 
1087.852224  	0.251788 
1089.781040  	0.243440 
1091.709856  	0.232820 
1093.638672  	0.221120 
1095.567488  	0.208129 
1097.496304  	0.194999 
1099.425120  	0.181742 
1101.353936  	0.169036 
1103.282752  	0.157030 
1105.211568  	0.145895 
1107.140384  	0.135456 
1109.069200  	0.125995 
1110.998016  	0.117378 
1112.926832  	0.109575 
1114.855648  	0.102443 
1116.784464  	0.095724 
1118.713280  	0.089140 
1120.642096  	0.082831 
1122.570912  	0.077070 
1124.499728  	0.071840 
1126.428544  	0.067084 
1128.357360  	0.063199 
1130.286176  	0.059763 
1132.214992  	0.057076 
1134.143808  	0.054978 
1136.072624  	0.053248 
1138.001440  	0.051489 
1139.930256  	0.050023 
1141.859072  	0.048660 
1143.787888  	0.047490 
1145.716704  	0.046486 
1147.645520  	0.045587 
1149.574336  	0.044913 
1151.503152  	0.044775 
1153.431968  	0.045234 
1155.360784  	0.045518 
1157.289600  	0.045691 
1159.218416  	0.045992 
1161.147232  	0.046885 
1163.076048  	0.048039 
1165.004864  	0.049124 
1166.933680  	0.050074 
1168.862496  	0.051082 
1170.791312  	0.052490 
1172.720128  	0.054148 
1174.648944  	0.056308 
1176.577760  	0.058324 
1178.506576  	0.060458 
1180.435392  	0.062670 
1182.364208  	0.065138 
1184.293024  	0.067966 
1186.221840  	0.070986 
1188.150656  	0.074706 
1190.079472  	0.079077 
1192.008288  	0.084359 
1193.937104  	0.090301 
1195.865920  	0.096805 
1197.794736  	0.104207 
1199.723552  	0.112101 
1201.652368  	0.120164 
1203.581184  	0.128065 
1205.510000  	0.135846 
1207.438816  	0.143015 
1209.367632  	0.149439 
1211.296448  	0.154514 
1213.225264  	0.158865 
1215.154080  	0.161912 
1217.082896  	0.163990 
1219.011712  	0.164594 
1220.940528  	0.164554 
1222.869344  	0.163687 
1224.798160  	0.162252 
1226.726976  	0.159695 
1228.655792  	0.156948 
1230.584608  	0.153547 
1232.513424  	0.149572 
1234.442240  	0.144728 
1236.371056  	0.139602 
1238.299872  	0.134087 
1240.228688  	0.127798 
1242.157504  	0.121648 
1244.086320  	0.115755 
1246.015136  	0.109619 
1247.943952  	0.103378 
1249.872768  	0.097295 
1251.801584  	0.091588 
1253.730400  	0.086033 
1255.659216  	0.080788 
1257.588032  	0.075488 
1259.516848  	0.070642 
1261.445664  	0.066138 
1263.374480  	0.062030 
1265.303296  	0.058615 
1267.232112  	0.055860 
1269.160928  	0.053694 
1271.089744  	0.052308 
1273.018560  	0.051794 
1274.947376  	0.051971 
1276.876192  	0.052600 
1278.805008  	0.053060 
1280.733824  	0.052955 
1282.662640  	0.051848 
1284.591456  	0.050303 
1286.520272  	0.048870 
1288.449088  	0.047976 
1290.377904  	0.048021 
1292.306720  	0.048855 
1294.235536  	0.049600 
1296.164352  	0.049514 
1298.093168  	0.048184 
1300.021984  	0.045900 
1301.950800  	0.043573 
1303.879616  	0.041238 
1305.808432  	0.038455 
1307.737248  	0.035443 
1309.666064  	0.032732 
1311.594880  	0.030697 
1313.523696  	0.029231 
1315.452512  	0.028108 
1317.381328  	0.027530 
1319.310144  	0.027581 
1321.238960  	0.028001 
1323.167776  	0.028633 
1325.096592  	0.029238 
1327.025408  	0.029738 
1328.954224  	0.029656 
1330.883040  	0.028940 
1332.811856  	0.027826 
1334.740672  	0.026728 
1336.669488  	0.025963 
1338.598304  	0.025831 
1340.527120  	0.025789 
1342.455936  	0.025113 
1344.384752  	0.024759 
1346.313568  	0.024900 
1348.242384  	0.025557 
1350.171200  	0.026712 
1352.100016  	0.028173 
1354.028832  	0.029625 
1355.957648  	0.031331 
1357.886464  	0.032791 
1359.815280  	0.034211 
1361.744096  	0.036251 
1363.672912  	0.039147 
1365.601728  	0.040617 
1367.530544  	0.041895 
1369.459360  	0.043566 
1371.388176  	0.043972 
1373.316992  	0.043539 
1375.245808  	0.042716 
1377.174624  	0.040892 
1379.103440  	0.038836 
1381.032256  	0.036572 
1382.961072  	0.034570 
1384.889888  	0.032631 
1386.818704  	0.031686 
1388.747520  	0.030755 
1390.676336  	0.028543 
1392.605152  	0.025836 
1394.533968  	0.024678 
1396.462784  	0.025122 
1398.391600  	0.024957 
1400.320416  	0.025603 
1402.249232  	0.025343 
1404.178048  	0.025782 
1406.106864  	0.027085 
1408.035680  	0.027966 
1409.964496  	0.029073 
1411.893312  	0.030964 
1413.822128  	0.032460 
1415.750944  	0.033569 
1417.679760  	0.034374 
1419.608576  	0.036691 
1421.537392  	0.036797 
1423.466208  	0.035950 
1425.395024  	0.035277 
1427.323840  	0.033059 
1429.252656  	0.030845 
1431.181472  	0.029813 
1433.110288  	0.029087 
1435.039104  	0.028076 
1436.967920  	0.030418 
1438.896736  	0.032232 
1440.825552  	0.032384 
1442.754368  	0.032703 
1444.683184  	0.032436 
1446.612000  	0.032005 
1448.540816  	0.032633 
1450.469632  	0.032777 
1452.398448  	0.032347 
1454.327264  	0.030952 
1456.256080  	0.029433 
1458.184896  	0.032228 
1460.113712  	0.033243 
1462.042528  	0.032200 
1463.971344  	0.031158 
1465.900160  	0.033004 
1467.828976  	0.033822 
1469.757792  	0.033615 
1471.686608  	0.034479 
1473.615424  	0.040993 
1475.544240  	0.045965 
1477.473056  	0.050804 
1479.401872  	0.053365 
1481.330688  	0.056228 
1483.259504  	0.058357 
1485.188320  	0.059015 
1487.117136  	0.058861 
1489.045952  	0.059458 
1490.974768  	0.060144 
1492.903584  	0.058205 
1494.832400  	0.053885 
1496.761216  	0.049364 
1498.690032  	0.045462 
1500.618848  	0.042138 
1502.547664  	0.037426 
1504.476480  	0.031408 
1506.405296  	0.027458 
1508.334112  	0.031235 
1510.262928  	0.030086 
1512.191744  	0.028657 
1514.120560  	0.027232 
1516.049376  	0.026503 
1517.978192  	0.027746 
1519.907008  	0.027339 
1521.835824  	0.031479 
1523.764640  	0.035889 
1525.693456  	0.038679 
1527.622272  	0.041575 
1529.551088  	0.042144 
1531.479904  	0.040281 
1533.408720  	0.038272 
1535.337536  	0.036537 
1537.266352  	0.031713 
1539.195168  	0.025716 
1541.123984  	0.025321 
1543.052800  	0.027195 
1544.981616  	0.028180 
1546.910432  	0.027528 
1548.839248  	0.026136 
1550.768064  	0.026323 
1552.696880  	0.024744 
1554.625696  	0.024186 
1556.554512  	0.021229 
1558.483328  	0.019926 
1560.412144  	0.030841 
1562.340960  	0.031634 
1564.269776  	0.032519 
1566.198592  	0.035341 
1568.127408  	0.036039 
1570.056224  	0.041488 
1571.985040  	0.045854 
1573.913856  	0.046137 
1575.842672  	0.047580 
1577.771488  	0.052320 
1579.700304  	0.052111 
1581.629120  	0.051254 
1583.557936  	0.050375 
1585.486752  	0.050544 
1587.415568  	0.051562 
1589.344384  	0.054324 
1591.273200  	0.058089 
1593.202016  	0.062848 
1595.130832  	0.068226 
1597.059648  	0.074269 
1598.988464  	0.079106 
1600.917280  	0.083545 
1602.846096  	0.086932 
1604.774912  	0.089385 
1606.703728  	0.089631 
1608.632544  	0.089573 
1610.561360  	0.088507 
1612.490176  	0.086721 
1614.418992  	0.082920 
1616.347808  	0.081950 
1618.276624  	0.085353 
1620.205440  	0.086187 
1622.134256  	0.086548 
1624.063072  	0.092688 
1625.991888  	0.097072 
1627.920704  	0.103054 
1629.849520  	0.110847 
1631.778336  	0.116106 
1633.707152  	0.118625 
1635.635968  	0.126480 
1637.564784  	0.138143 
1639.493600  	0.143214 
1641.422416  	0.146967 
1643.351232  	0.148747 
1645.280048  	0.147954 
1647.208864  	0.151892 
1649.137680  	0.154832 
1651.066496  	0.151216 
1652.995312  	0.149680 
1654.924128  	0.156567 
1656.852944  	0.154735 
1658.781760  	0.152641 
1660.710576  	0.149413 
1662.639392  	0.146836 
1664.568208  	0.144686 
1666.497024  	0.140321 
1668.425840  	0.134874 
1670.354656  	0.131536 
1672.283472  	0.128390 
1674.212288  	0.124415 
1676.141104  	0.122683 
1678.069920  	0.120047 
1679.998736  	0.117495 
1681.927552  	0.114188 
1683.856368  	0.112308 
1685.785184  	0.117033 
1687.714000  	0.116507 
1689.642816  	0.116761 
1691.571632  	0.116238 
1693.500448  	0.113760 
1695.429264  	0.111699 
1697.358080  	0.111922 
1699.286896  	0.110099 
1701.215712  	0.113557 
1703.144528  	0.111489 
1705.073344  	0.108905 
1707.002160  	0.107465 
1708.930976  	0.104943 
1710.859792  	0.100359 
1712.788608  	0.094172 
1714.717424  	0.085986 
1716.646240  	0.077233 
1718.575056  	0.069198 
1720.503872  	0.061592 
1722.432688  	0.053536 
1724.361504  	0.045085 
1726.290320  	0.037386 
1728.219136  	0.030298 
1730.147952  	0.024226 
1732.076768  	0.018270 
1734.005584  	0.015226 
1735.934400  	0.013701 
1737.863216  	0.010399 
1739.792032  	0.008175 
1741.720848  	0.007274 
1743.649664  	0.006189 
1745.578480  	0.004511 
1747.507296  	0.002616 
1749.436112  	0.002455 
1751.364928  	0.003386 
1753.293744  	0.002967 
1755.222560  	0.001400 
1757.151376  	0.001737 
1759.080192  	0.000847 
1761.009008  	0.000035 
1762.937824  	0.000704 
1764.866640  	0.000325 
1766.795456  	-0.000586 
1768.724272  	-0.000865 
1770.653088  	-0.003419 
1772.581904  	-0.002858 
1774.510720  	-0.001142 
1776.439536  	-0.000838 
1778.368352  	-0.001408 
1780.297168  	-0.001618 
1782.225984  	-0.001442 
1784.154800  	-0.001300 
1786.083616  	-0.001216 
1788.012432  	-0.001942 
1789.941248  	-0.003111 
1791.870064  	-0.003076 
1793.798880  	-0.002142 
1795.727696  	-0.002228 
1797.656512  	-0.003136 
1799.585328  	-0.003605 
1801.514144  	-0.002462 
1803.442960  	-0.002277 
1805.371776  	-0.003007 
1807.300592  	-0.003201 
1809.229408  	-0.003615 
1811.158224  	-0.003350 
1813.087040  	-0.003077 
1815.015856  	-0.003492 
1816.944672  	-0.003505 
1818.873488  	-0.003146 
1820.802304  	-0.003344 
1822.731120  	-0.003805 
1824.659936  	-0.003927 
1826.588752  	-0.003909 
1828.517568  	-0.005260 
1830.446384  	-0.003993 
1832.375200  	-0.003087 
1834.304016  	-0.003142 
1836.232832  	-0.003275 
1838.161648  	-0.003411 
1840.090464  	-0.003838 
1842.019280  	-0.004723 
1843.948096  	-0.004565 
1845.876912  	-0.003269 
1847.805728  	-0.003180 
1849.734544  	-0.003277 
1851.663360  	-0.003735 
1853.592176  	-0.003595 
1855.520992  	-0.003874 
1857.449808  	-0.003733 
1859.378624  	-0.003735 
1861.307440  	-0.003492 
1863.236256  	-0.003949 
1865.165072  	-0.004722 
1867.093888  	-0.005481 
1869.022704  	-0.004325 
1870.951520  	-0.003392 
1872.880336  	-0.003804 
1874.809152  	-0.004363 
1876.737968  	-0.004320 
1878.666784  	-0.004095 
1880.595600  	-0.003747 
1882.524416  	-0.003901 
1884.453232  	-0.004178 
1886.382048  	-0.004566 
1888.310864  	-0.004531 
1890.239680  	-0.003956 
1892.168496  	-0.004036 
1894.097312  	-0.004493 
1896.026128  	-0.004024 
1897.954944  	-0.003905 
1899.883760  	-0.003768 
1901.812576  	-0.003920 
1903.741392  	-0.004050 
1905.670208  	-0.004336 
1907.599024  	-0.004233 
1909.527840  	-0.003945 
1911.456656  	-0.003743 
1913.385472  	-0.003728 
1915.314288  	-0.003907 
1917.243104  	-0.004497 
1919.171920  	-0.003798 
1921.100736  	-0.004183 
1923.029552  	-0.003843 
1924.958368  	-0.004717 
1926.887184  	-0.005361 
1928.816000  	-0.004568 
1930.744816  	-0.004152 
1932.673632  	-0.004583 
1934.602448  	-0.004848 
1936.531264  	-0.005250 
1938.460080  	-0.005025 
1940.388896  	-0.005254 
1942.317712  	-0.004759 
1944.246528  	-0.004568 
1946.175344  	-0.004712 
1948.104160  	-0.005057 
1950.032976  	-0.005097 
1951.961792  	-0.005380 
1953.890608  	-0.005364 
1955.819424  	-0.005763 
1957.748240  	-0.005754 
1959.677056  	-0.005284 
1961.605872  	-0.004982 
1963.534688  	-0.006128 
1965.463504  	-0.005557 
1967.392320  	-0.006160 
1969.321136  	-0.006574 
1971.249952  	-0.006196 
1973.178768  	-0.005652 
1975.107584  	-0.006390 
1977.036400  	-0.005888 
1978.965216  	-0.004393 
1980.894032  	-0.004156 
1982.822848  	-0.005120 
1984.751664  	-0.005461 
1986.680480  	-0.005116 
1988.609296  	-0.004281 
1990.538112  	-0.004930 
1992.466928  	-0.005233 
1994.395744  	-0.005401 
1996.324560  	-0.004748 
1998.253376  	-0.003860 
2000.182192  	-0.003575 
2002.111008  	-0.004934 
2004.039824  	-0.006179 
2005.968640  	-0.006546 
2007.897456  	-0.005636 
2009.826272  	-0.004767 
2011.755088  	-0.004988 
2013.683904  	-0.006216 
2015.612720  	-0.006369 
2017.541536  	-0.003940 
2019.470352  	-0.002314 
2021.399168  	-0.003505 
2023.327984  	-0.002902 
2025.256800  	-0.003499 
2027.185616  	-0.003947 
2029.114432  	-0.003619 
2031.043248  	-0.003715 
2032.972064  	-0.003243 
2034.900880  	-0.002151 
2036.829696  	-0.002410 
2038.758512  	-0.002167 
2040.687328  	-0.002160 
2042.616144  	-0.001577 
2044.544960  	-0.002358 
2046.473776  	-0.002774 
2048.402592  	-0.002160 
2050.331408  	-0.001893 
2052.260224  	-0.003218 
2054.189040  	-0.004174 
2056.117856  	-0.004018 
2058.046672  	-0.002715 
2059.975488  	-0.002262 
2061.904304  	-0.002482 
2063.833120  	-0.003217 
2065.761936  	-0.002782 
2067.690752  	-0.002754 
2069.619568  	-0.003031 
2071.548384  	-0.003340 
2073.477200  	-0.002976 
2075.406016  	-0.002662 
2077.334832  	-0.002043 
2079.263648  	-0.001908 
2081.192464  	-0.001894 
2083.121280  	-0.002578 
2085.050096  	-0.002849 
2086.978912  	-0.002616 
2088.907728  	-0.002276 
2090.836544  	-0.002869 
2092.765360  	-0.003152 
2094.694176  	-0.002980 
2096.622992  	-0.002615 
2098.551808  	-0.002167 
2100.480624  	-0.002059 
2102.409440  	-0.002238 
2104.338256  	-0.002229 
2106.267072  	-0.002050 
2108.195888  	-0.001687 
2110.124704  	-0.001850 
2112.053520  	-0.002020 
2113.982336  	-0.001899 
2115.911152  	-0.001830 
2117.839968  	-0.002072 
2119.768784  	-0.002456 
2121.697600  	-0.003266 
2123.626416  	-0.003283 
2125.555232  	-0.003299 
2127.484048  	-0.003284 
2129.412864  	-0.003364 
2131.341680  	-0.003352 
2133.270496  	-0.004011 
2135.199312  	-0.003663 
2137.128128  	-0.002759 
2139.056944  	-0.002733 
2140.985760  	-0.003215 
2142.914576  	-0.002909 
2144.843392  	-0.002618 
2146.772208  	-0.002412 
2148.701024  	-0.002684 
2150.629840  	-0.002445 
2152.558656  	-0.003171 
2154.487472  	-0.003601 
2156.416288  	-0.003114 
2158.345104  	-0.000699 
2160.273920  	0.001138 
2162.202736  	0.001034 
2164.131552  	0.001212 
2166.060368  	0.002209 
2167.989184  	0.000871 
2169.918000  	0.000631 
2171.846816  	0.000843 
2173.775632  	0.000030 
2175.704448  	-0.000698 
2177.633264  	-0.001320 
2179.562080  	-0.001509 
2181.490896  	-0.000408 
2183.419712  	0.000342 
2185.348528  	-0.000093 
2187.277344  	-0.000611 
2189.206160  	-0.000206 
2191.134976  	0.000381 
2193.063792  	0.000877 
2194.992608  	0.000029 
2196.921424  	-0.000455 
2198.850240  	-0.000702 
2200.779056  	-0.000265 
2202.707872  	-0.000574 
2204.636688  	-0.001429 
2206.565504  	-0.001248 
2208.494320  	-0.000593 
2210.423136  	-0.001146 
2212.351952  	-0.001863 
2214.280768  	-0.001564 
2216.209584  	-0.001068 
2218.138400  	-0.001417 
2220.067216  	-0.001280 
2221.996032  	-0.001157 
2223.924848  	-0.000896 
2225.853664  	-0.001436 
2227.782480  	-0.001714 
2229.711296  	-0.001041 
2231.640112  	-0.001406 
2233.568928  	-0.002210 
2235.497744  	-0.001939 
2237.426560  	-0.002010 
2239.355376  	-0.002132 
2241.284192  	-0.002236 
2243.213008  	-0.002460 
2245.141824  	-0.002097 
2247.070640  	-0.001097 
2248.999456  	-0.001433 
2250.928272  	-0.001992 
2252.857088  	-0.002240 
2254.785904  	-0.002104 
2256.714720  	-0.001947 
2258.643536  	-0.002374 
2260.572352  	-0.002497 
2262.501168  	-0.002413 
2264.429984  	-0.002365 
2266.358800  	-0.002214 
2268.287616  	-0.002361 
2270.216432  	-0.002344 
2272.145248  	-0.002159 
2274.074064  	-0.002045 
2276.002880  	-0.001996 
2277.931696  	-0.001707 
2279.860512  	-0.001380 
2281.789328  	-0.000853 
2283.718144  	-0.000806 
2285.646960  	-0.000782 
2287.575776  	-0.000756 
2289.504592  	-0.000868 
2291.433408  	-0.000897 
2293.362224  	-0.000701 
2295.291040  	-0.000623 
2297.219856  	-0.000549 
2299.148672  	-0.000376 
2301.077488  	-0.000155 
2303.006304  	-0.000201 
2304.935120  	-0.000308 
2306.863936  	-0.000251 
2308.792752  	-0.000087 
2310.721568  	-0.000212 
2312.650384  	-0.000512 
2314.579200  	-0.001149 
2316.508016  	-0.001741 
2318.436832  	-0.002200 
2320.365648  	-0.002311 
2322.294464  	-0.002446 
2324.223280  	-0.003399 
2326.152096  	-0.005658 
2328.080912  	-0.006798 
2330.009728  	-0.007051 
2331.938544  	-0.007583 
2333.867360  	-0.009052 
2335.796176  	-0.010168 
2337.724992  	-0.010422 
2339.653808  	-0.010441 
2341.582624  	-0.010138 
2343.511440  	-0.008437 
2345.440256  	-0.006003 
2347.369072  	-0.004473 
2349.297888  	-0.005438 
2351.226704  	-0.007725 
2353.155520  	-0.009788 
2355.084336  	-0.011610 
2357.013152  	-0.013030 
2358.941968  	-0.013684 
2360.870784  	-0.012917 
2362.799600  	-0.011636 
2364.728416  	-0.010713 
2366.657232  	-0.009252 
2368.586048  	-0.007380 
2370.514864  	-0.005379 
2372.443680  	-0.003694 
2374.372496  	-0.002435 
2376.301312  	-0.001235 
2378.230128  	0.000196 
2380.158944  	0.000756 
2382.087760  	0.000557 
2384.016576  	0.000035 
2385.945392  	-0.000465 
2387.874208  	-0.000764 
2389.803024  	-0.000773 
2391.731840  	-0.000694 
2393.660656  	-0.000722 
2395.589472  	-0.000910 
2397.518288  	-0.001023 
2399.447104  	-0.000876 
2401.375920  	-0.000575 
2403.304736  	-0.000320 
2405.233552  	-0.000319 
2407.162368  	-0.000342 
2409.091184  	-0.000159 
2411.020000  	-0.000138 
2412.948816  	-0.000218 
2414.877632  	-0.000154 
2416.806448  	0.000025 
2418.735264  	-0.000022 
2420.664080  	-0.000181 
2422.592896  	-0.000202 
2424.521712  	0.000065 
2426.450528  	0.000225 
2428.379344  	0.000234 
2430.308160  	0.000472 
2432.236976  	0.000634 
2434.165792  	0.000655 
2436.094608  	0.000773 
2438.023424  	0.000703 
2439.952240  	0.000580 
2441.881056  	0.000827 
2443.809872  	0.001134 
2445.738688  	0.001235 
2447.667504  	0.001515 
2449.596320  	0.001706 
2451.525136  	0.001726 
2453.453952  	0.001712 
2455.382768  	0.001797 
2457.311584  	0.001787 
2459.240400  	0.001547 
2461.169216  	0.001444 
2463.098032  	0.001548 
2465.026848  	0.001717 
2466.955664  	0.001846 
2468.884480  	0.001934 
2470.813296  	0.001988 
2472.742112  	0.001850 
2474.670928  	0.001934 
2476.599744  	0.002131 
2478.528560  	0.002238 
2480.457376  	0.002158 
2482.386192  	0.001995 
2484.315008  	0.002054 
2486.243824  	0.002346 
2488.172640  	0.002716 
2490.101456  	0.003001 
2492.030272  	0.002890 
2493.959088  	0.002718 
2495.887904  	0.002858 
2497.816720  	0.003112 
2499.745536  	0.003276 
2501.674352  	0.003467 
2503.603168  	0.003692 
2505.531984  	0.003737 
2507.460800  	0.003519 
2509.389616  	0.003396 
2511.318432  	0.003415 
2513.247248  	0.003617 
2515.176064  	0.003740 
2517.104880  	0.003823 
2519.033696  	0.004116 
2520.962512  	0.004321 
2522.891328  	0.004370 
2524.820144  	0.004450 
2526.748960  	0.004389 
2528.677776  	0.004417 
2530.606592  	0.004566 
2532.535408  	0.004669 
2534.464224  	0.004635 
2536.393040  	0.004529 
2538.321856  	0.004461 
2540.250672  	0.004518 
2542.179488  	0.004556 
2544.108304  	0.004805 
2546.037120  	0.004989 
2547.965936  	0.005007 
2549.894752  	0.005061 
2551.823568  	0.005150 
2553.752384  	0.005072 
2555.681200  	0.005188 
2557.610016  	0.005489 
2559.538832  	0.005696 
2561.467648  	0.005874 
2563.396464  	0.005811 
2565.325280  	0.005777 
2567.254096  	0.006027 
2569.182912  	0.006241 
2571.111728  	0.006333 
2573.040544  	0.006409 
2574.969360  	0.006624 
2576.898176  	0.006948 
2578.826992  	0.006874 
2580.755808  	0.006689 
2582.684624  	0.006924 
2584.613440  	0.007028 
2586.542256  	0.007065 
2588.471072  	0.007107 
2590.399888  	0.007052 
2592.328704  	0.007104 
2594.257520  	0.007372 
2596.186336  	0.007489 
2598.115152  	0.007546 
2600.043968  	0.007537 
2601.972784  	0.007513 
2603.901600  	0.007550 
2605.830416  	0.007610 
2607.759232  	0.007850 
2609.688048  	0.007985 
2611.616864  	0.008143 
2613.545680  	0.008338 
2615.474496  	0.008511 
2617.403312  	0.008570 
2619.332128  	0.008698 
2621.260944  	0.008797 
2623.189760  	0.008910 
2625.118576  	0.009083 
2627.047392  	0.009169 
2628.976208  	0.009300 
2630.905024  	0.009446 
2632.833840  	0.009617 
2634.762656  	0.009712 
2636.691472  	0.009804 
2638.620288  	0.010007 
2640.549104  	0.010123 
2642.477920  	0.010202 
2644.406736  	0.010341 
2646.335552  	0.010480 
2648.264368  	0.010642 
2650.193184  	0.010737 
2652.122000  	0.010813 
2654.050816  	0.010939 
2655.979632  	0.011085 
2657.908448  	0.011237 
2659.837264  	0.011368 
2661.766080  	0.011469 
2663.694896  	0.011422 
2665.623712  	0.011338 
2667.552528  	0.011542 
2669.481344  	0.011879 
2671.410160  	0.012137 
2673.338976  	0.012194 
2675.267792  	0.012299 
2677.196608  	0.012419 
2679.125424  	0.012513 
2681.054240  	0.012611 
2682.983056  	0.012690 
2684.911872  	0.012851 
2686.840688  	0.013051 
2688.769504  	0.013201 
2690.698320  	0.013278 
2692.627136  	0.013389 
2694.555952  	0.013459 
2696.484768  	0.013560 
2698.413584  	0.013685 
2700.342400  	0.013755 
2702.271216  	0.013814 
2704.200032  	0.014009 
2706.128848  	0.014196 
2708.057664  	0.014324 
2709.986480  	0.014431 
2711.915296  	0.014609 
2713.844112  	0.014768 
2715.772928  	0.014774 
2717.701744  	0.014849 
2719.630560  	0.015019 
2721.559376  	0.015170 
2723.488192  	0.015184 
2725.417008  	0.015397 
2727.345824  	0.015661 
2729.274640  	0.015692 
2731.203456  	0.015723 
2733.132272  	0.015978 
2735.061088  	0.016226 
2736.989904  	0.016394 
2738.918720  	0.016541 
2740.847536  	0.016623 
2742.776352  	0.016716 
2744.705168  	0.016855 
2746.633984  	0.016943 
2748.562800  	0.017091 
2750.491616  	0.017225 
2752.420432  	0.017390 
2754.349248  	0.017405 
2756.278064  	0.017341 
2758.206880  	0.017280 
2760.135696  	0.017322 
2762.064512  	0.017454 
2763.993328  	0.017545 
2765.922144  	0.017512 
2767.850960  	0.017531 
2769.779776  	0.017606 
2771.708592  	0.017615 
2773.637408  	0.017608 
2775.566224  	0.017622 
2777.495040  	0.017609 
2779.423856  	0.017660 
2781.352672  	0.017728 
2783.281488  	0.017802 
2785.210304  	0.017842 
2787.139120  	0.017875 
2789.067936  	0.017891 
2790.996752  	0.017786 
2792.925568  	0.017653 
2794.854384  	0.017588 
2796.783200  	0.017621 
2798.712016  	0.017828 
2800.640832  	0.017970 
2802.569648  	0.017915 
2804.498464  	0.017859 
2806.427280  	0.017806 
2808.356096  	0.017777 
2810.284912  	0.017858 
2812.213728  	0.017921 
2814.142544  	0.017936 
2816.071360  	0.017936 
2818.000176  	0.017920 
2819.928992  	0.017908 
2821.857808  	0.017952 
2823.786624  	0.017921 
2825.715440  	0.017883 
2827.644256  	0.017860 
2829.573072  	0.017786 
2831.501888  	0.017697 
2833.430704  	0.017704 
2835.359520  	0.017609 
2837.288336  	0.017514 
2839.217152  	0.017600 
2841.145968  	0.017500 
2843.074784  	0.017317 
2845.003600  	0.017317 
2846.932416  	0.017446 
2848.861232  	0.017581 
2850.790048  	0.017552 
2852.718864  	0.017520 
2854.647680  	0.017540 
2856.576496  	0.017587 
2858.505312  	0.017605 
2860.434128  	0.017583 
2862.362944  	0.017606 
2864.291760  	0.017623 
2866.220576  	0.017613 
2868.149392  	0.017682 
2870.078208  	0.017793 
2872.007024  	0.017995 
2873.935840  	0.018235 
2875.864656  	0.018476 
2877.793472  	0.018766 
2879.722288  	0.019111 
2881.651104  	0.019447 
2883.579920  	0.019521 
2885.508736  	0.019540 
2887.437552  	0.019749 
2889.366368  	0.019765 
2891.295184  	0.019572 
2893.224000  	0.019465 
2895.152816  	0.019488 
2897.081632  	0.019235 
2899.010448  	0.018652 
2900.939264  	0.018181 
2902.868080  	0.018363 
2904.796896  	0.018648 
2906.725712  	0.018818 
2908.654528  	0.018832 
2910.583344  	0.019122 
2912.512160  	0.019645 
2914.440976  	0.020044 
2916.369792  	0.020413 
2918.298608  	0.020783 
2920.227424  	0.021120 
2922.156240  	0.021530 
2924.085056  	0.021954 
2926.013872  	0.022430 
2927.942688  	0.022945 
2929.871504  	0.023558 
2931.800320  	0.023978 
2933.729136  	0.024482 
2935.657952  	0.025088 
2937.586768  	0.025581 
2939.515584  	0.025921 
2941.444400  	0.026199 
2943.373216  	0.026415 
2945.302032  	0.026438 
2947.230848  	0.026433 
2949.159664  	0.026562 
2951.088480  	0.026442 
2953.017296  	0.026105 
2954.946112  	0.025680 
2956.874928  	0.025302 
2958.803744  	0.024901 
2960.732560  	0.024494 
2962.661376  	0.023942 
2964.590192  	0.023503 
2966.519008  	0.023030 
2968.447824  	0.022238 
2970.376640  	0.021332 
2972.305456  	0.020601 
2974.234272  	0.020118 
2976.163088  	0.019598 
2978.091904  	0.019127 
2980.020720  	0.018855 
2981.949536  	0.018791 
2983.878352  	0.018810 
2985.807168  	0.018643 
2987.735984  	0.018612 
2989.664800  	0.019079 
2991.593616  	0.019906 
2993.522432  	0.020524 
2995.451248  	0.020929 
2997.380064  	0.021339 
2999.308880  	0.021776 
3001.237696  	0.022137 
3003.166512  	0.022443 
3005.095328  	0.022886 
3007.024144  	0.023220 
3008.952960  	0.023524 
3010.881776  	0.023895 
3012.810592  	0.024221 
3014.739408  	0.024494 
3016.668224  	0.024856 
3018.597040  	0.025374 
3020.525856  	0.025702 
3022.454672  	0.026006 
3024.383488  	0.026283 
3026.312304  	0.026643 
3028.241120  	0.026921 
3030.169936  	0.027118 
3032.098752  	0.027472 
3034.027568  	0.027856 
3035.956384  	0.028033 
3037.885200  	0.028135 
3039.814016  	0.028440 
3041.742832  	0.028698 
3043.671648  	0.028904 
3045.600464  	0.029425 
3047.529280  	0.029806 
3049.458096  	0.030058 
3051.386912  	0.030271 
3053.315728  	0.030454 
3055.244544  	0.030633 
3057.173360  	0.031070 
3059.102176  	0.031512 
3061.030992  	0.031949 
3062.959808  	0.032189 
3064.888624  	0.032567 
3066.817440  	0.033084 
3068.746256  	0.033584 
3070.675072  	0.034047 
3072.603888  	0.034380 
3074.532704  	0.034568 
3076.461520  	0.034935 
3078.390336  	0.035430 
3080.319152  	0.035987 
3082.247968  	0.036438 
3084.176784  	0.036904 
3086.105600  	0.037334 
3088.034416  	0.037764 
3089.963232  	0.038130 
3091.892048  	0.038508 
3093.820864  	0.038960 
3095.749680  	0.039465 
3097.678496  	0.039944 
3099.607312  	0.040394 
3101.536128  	0.040953 
3103.464944  	0.041433 
3105.393760  	0.041913 
3107.322576  	0.042285 
3109.251392  	0.042475 
3111.180208  	0.042701 
3113.109024  	0.042920 
3115.037840  	0.043171 
3116.966656  	0.043610 
3118.895472  	0.044089 
3120.824288  	0.044359 
3122.753104  	0.044520 
3124.681920  	0.044622 
3126.610736  	0.044896 
3128.539552  	0.045212 
3130.468368  	0.045444 
3132.397184  	0.045818 
3134.326000  	0.046023 
3136.254816  	0.046101 
3138.183632  	0.046347 
3140.112448  	0.046674 
3142.041264  	0.046865 
3143.970080  	0.046979 
3145.898896  	0.047311 
3147.827712  	0.047838 
3149.756528  	0.048118 
3151.685344  	0.048354 
3153.614160  	0.048614 
3155.542976  	0.048844 
3157.471792  	0.049212 
3159.400608  	0.049577 
3161.329424  	0.049718 
3163.258240  	0.049915 
3165.187056  	0.050191 
3167.115872  	0.050472 
3169.044688  	0.050895 
3170.973504  	0.051284 
3172.902320  	0.051261 
3174.831136  	0.051214 
3176.759952  	0.051403 
3178.688768  	0.051732 
3180.617584  	0.052011 
3182.546400  	0.051941 
3184.475216  	0.051759 
3186.404032  	0.051823 
3188.332848  	0.051868 
3190.261664  	0.051729 
3192.190480  	0.051483 
3194.119296  	0.051259 
3196.048112  	0.051047 
3197.976928  	0.050922 
3199.905744  	0.050939 
3201.834560  	0.050773 
3203.763376  	0.050461 
3205.692192  	0.050211 
3207.621008  	0.049832 
3209.549824  	0.049528 
3211.478640  	0.049312 
3213.407456  	0.048957 
3215.336272  	0.048834 
3217.265088  	0.048488 
3219.193904  	0.048344 
3221.122720  	0.048350 
3223.051536  	0.048161 
3224.980352  	0.047715 
3226.909168  	0.047220 
3228.837984  	0.046966 
3230.766800  	0.046831 
3232.695616  	0.046590 
3234.624432  	0.046362 
3236.553248  	0.046202 
3238.482064  	0.046081 
3240.410880  	0.046113 
3242.339696  	0.046071 
3244.268512  	0.046029 
3246.197328  	0.046379 
3248.126144  	0.046262 
3250.054960  	0.046243 
3251.983776  	0.046338 
3253.912592  	0.046628 
3255.841408  	0.046920 
3257.770224  	0.047045 
3259.699040  	0.047220 
3261.627856  	0.047437 
3263.556672  	0.047624 
3265.485488  	0.047973 
3267.414304  	0.048104 
3269.343120  	0.048069 
3271.271936  	0.047925 
3273.200752  	0.048073 
3275.129568  	0.048418 
3277.058384  	0.048748 
3278.987200  	0.048968 
3280.916016  	0.049060 
3282.844832  	0.049166 
3284.773648  	0.049110 
3286.702464  	0.049000 
3288.631280  	0.049103 
3290.560096  	0.049299 
3292.488912  	0.049860 
3294.417728  	0.050131 
3296.346544  	0.050315 
3298.275360  	0.050806 
3300.204176  	0.051085 
3302.132992  	0.051561 
3304.061808  	0.051791 
3305.990624  	0.051621 
3307.919440  	0.051869 
3309.848256  	0.052401 
3311.777072  	0.052760 
3313.705888  	0.053004 
3315.634704  	0.053113 
3317.563520  	0.053426 
3319.492336  	0.053989 
3321.421152  	0.054152 
3323.349968  	0.054154 
3325.278784  	0.054340 
3327.207600  	0.054560 
3329.136416  	0.054607 
3331.065232  	0.054691 
3332.994048  	0.054922 
3334.922864  	0.055248 
3336.851680  	0.055597 
3338.780496  	0.055504 
3340.709312  	0.055177 
3342.638128  	0.055012 
3344.566944  	0.054747 
3346.495760  	0.054516 
3348.424576  	0.054170 
3350.353392  	0.053973 
3352.282208  	0.053893 
3354.211024  	0.053726 
3356.139840  	0.053545 
3358.068656  	0.053346 
3359.997472  	0.053197 
3361.926288  	0.053124 
3363.855104  	0.052724 
3365.783920  	0.052501 
3367.712736  	0.052206 
3369.641552  	0.052043 
3371.570368  	0.052010 
3373.499184  	0.051602 
3375.428000  	0.051171 
3377.356816  	0.051291 
3379.285632  	0.051337 
3381.214448  	0.051110 
3383.143264  	0.050806 
3385.072080  	0.050768 
3387.000896  	0.050468 
3388.929712  	0.049961 
3390.858528  	0.049393 
3392.787344  	0.049446 
3394.716160  	0.049296 
3396.644976  	0.049152 
3398.573792  	0.049219 
3400.502608  	0.048842 
3402.431424  	0.048570 
3404.360240  	0.048247 
3406.289056  	0.047824 
3408.217872  	0.047658 
3410.146688  	0.047506 
3412.075504  	0.047143 
3414.004320  	0.046901 
3415.933136  	0.046456 
3417.861952  	0.045712 
3419.790768  	0.045435 
3421.719584  	0.045876 
3423.648400  	0.045645 
3425.577216  	0.045047 
3427.506032  	0.044703 
3429.434848  	0.044288 
3431.363664  	0.043911 
3433.292480  	0.043658 
3435.221296  	0.043241 
3437.150112  	0.042864 
3439.078928  	0.042665 
3441.007744  	0.042332 
3442.936560  	0.042078 
3444.865376  	0.041274 
3446.794192  	0.041386 
3448.723008  	0.041817 
3450.651824  	0.040793 
3452.580640  	0.040069 
3454.509456  	0.039664 
3456.438272  	0.039196 
3458.367088  	0.038632 
3460.295904  	0.038397 
3462.224720  	0.038327 
3464.153536  	0.037827 
3466.082352  	0.036934 
3468.011168  	0.036436 
3469.939984  	0.035853 
3471.868800  	0.034929 
3473.797616  	0.034245 
3475.726432  	0.034174 
3477.655248  	0.033497 
3479.584064  	0.032566 
3481.512880  	0.032581 
3483.441696  	0.032417 
3485.370512  	0.031228 
3487.299328  	0.030703 
3489.228144  	0.030515 
3491.156960  	0.029703 
3493.085776  	0.028728 
3495.014592  	0.028142 
3496.943408  	0.028002 
3498.872224  	0.027355 
3500.801040  	0.026223 
3502.729856  	0.026286 
3504.658672  	0.026659 
3506.587488  	0.025616 
3508.516304  	0.024725 
3510.445120  	0.024886 
3512.373936  	0.024352 
3514.302752  	0.023523 
3516.231568  	0.022795 
3518.160384  	0.022461 
3520.089200  	0.021725 
3522.018016  	0.020822 
3523.946832  	0.021176 
3525.875648  	0.020568 
3527.804464  	0.020371 
3529.733280  	0.020526 
3531.662096  	0.020061 
3533.590912  	0.018930 
3535.519728  	0.018770 
3537.448544  	0.019168 
3539.377360  	0.018034 
3541.306176  	0.016901 
3543.234992  	0.016202 
3545.163808  	0.017032 
3547.092624  	0.017879 
3549.021440  	0.016372 
3550.950256  	0.014733 
3552.879072  	0.015535 
3554.807888  	0.015449 
3556.736704  	0.014231 
3558.665520  	0.013508 
3560.594336  	0.013257 
3562.523152  	0.011930 
3564.451968  	0.009808 
3566.380784  	0.011644 
3568.309600  	0.015644 
3570.238416  	0.013315 
3572.167232  	0.010777 
3574.096048  	0.009784 
3576.024864  	0.009326 
3577.953680  	0.008979 
3579.882496  	0.008657 
3581.811312  	0.007983 
3583.740128  	0.005829 
3585.668944  	0.004229 
3587.597760  	0.007491 
3589.526576  	0.008424 
3591.455392  	0.004760 
3593.384208  	0.003552 
3595.313024  	0.004694 
3597.241840  	0.004054 
3599.170656  	0.002350 
3601.099472  	0.002705 
3603.028288  	0.002343 
3604.957104  	-0.000008 
3606.885920  	-0.001085 
3608.814736  	0.000716 
3610.743552  	-0.000573 
3612.672368  	-0.001613 
3614.601184  	-0.001226 
3616.530000  	-0.004134 
3618.458816  	-0.004243 
3620.387632  	-0.001216 
3622.316448  	-0.002552 
3624.245264  	-0.005706 
3626.174080  	-0.009790 
3628.102896  	-0.009764 
3630.031712  	-0.002039 
3631.960528  	-0.004939 
3633.889344  	-0.006343 
3635.818160  	-0.006893 
3637.746976  	-0.008083 
3639.675792  	-0.008538 
3641.604608  	-0.009174 
3643.533424  	-0.010761 
3645.462240  	-0.014913 
3647.391056  	-0.016752 
3649.319872  	-0.013265 
3651.248688  	-0.007836 
3653.177504  	-0.011038 
3655.106320  	-0.013814 
3657.035136  	-0.010969 
3658.963952  	-0.011241 
3660.892768  	-0.012087 
3662.821584  	-0.012825 
3664.750400  	-0.013929 
3666.679216  	-0.016593 
3668.608032  	-0.018899 
3670.536848  	-0.014417 
3672.465664  	-0.016590 
3674.394480  	-0.020086 
3676.323296  	-0.011973 
3678.252112  	-0.012601 
3680.180928  	-0.013012 
3682.109744  	-0.013660 
3684.038560  	-0.015056 
3685.967376  	-0.017875 
3687.896192  	-0.019003 
3689.825008  	-0.015736 
3691.753824  	-0.012806 
3693.682640  	-0.012925 
3695.611456  	-0.013711 
3697.540272  	-0.013783 
3699.469088  	-0.015379 
3701.397904  	-0.014651 
3703.326720  	-0.012871 
3705.255536  	-0.014143 
3707.184352  	-0.016456 
3709.113168  	-0.018122 
3711.041984  	-0.015861 
3712.970800  	-0.011127 
3714.899616  	-0.011835 
3716.828432  	-0.014311 
3718.757248  	-0.014807 
3720.686064  	-0.015366 
3722.614880  	-0.015061 
3724.543696  	-0.014699 
3726.472512  	-0.013280 
3728.401328  	-0.013941 
3730.330144  	-0.017857 
3732.258960  	-0.019102 
3734.187776  	-0.018001 
3736.116592  	-0.013239 
3738.045408  	-0.012899 
3739.974224  	-0.015180 
3741.903040  	-0.018511 
3743.831856  	-0.017739 
3745.760672  	-0.012459 
3747.689488  	-0.017959 
3749.618304  	-0.018701 
3751.547120  	-0.013629 
3753.475936  	-0.010999 
3755.404752  	-0.013786 
3757.333568  	-0.014868 
3759.262384  	-0.013463 
3761.191200  	-0.011640 
3763.120016  	-0.013917 
3765.048832  	-0.013914 
3766.977648  	-0.013654 
3768.906464  	-0.014300 
3770.835280  	-0.011520 
3772.764096  	-0.011775 
3774.692912  	-0.012987 
3776.621728  	-0.014366 
3778.550544  	-0.014480 
3780.479360  	-0.011847 
3782.408176  	-0.013007 
3784.336992  	-0.013299 
3786.265808  	-0.012122 
3788.194624  	-0.012212 
3790.123440  	-0.012612 
3792.052256  	-0.013071 
3793.981072  	-0.014826 
3795.909888  	-0.015061 
3797.838704  	-0.014926 
3799.767520  	-0.017997 
3801.696336  	-0.013988 
3803.625152  	-0.012661 
3805.553968  	-0.015903 
3807.482784  	-0.012302 
3809.411600  	-0.011889 
3811.340416  	-0.013489 
3813.269232  	-0.016188 
3815.198048  	-0.016917 
3817.126864  	-0.014019 
3819.055680  	-0.017807 
3820.984496  	-0.014942 
3822.913312  	-0.010892 
3824.842128  	-0.014013 
3826.770944  	-0.013621 
3828.699760  	-0.013871 
3830.628576  	-0.015181 
3832.557392  	-0.014995 
3834.486208  	-0.016502 
3836.415024  	-0.017727 
3838.343840  	-0.015651 
3840.272656  	-0.013214 
3842.201472  	-0.013055 
3844.130288  	-0.012013 
3846.059104  	-0.012368 
3847.987920  	-0.014849 
3849.916736  	-0.018358 
3851.845552  	-0.021145 
3853.774368  	-0.011756 
3855.703184  	-0.009097 
3857.632000  	-0.011716 
3859.560816  	-0.014036 
3861.489632  	-0.015284 
3863.418448  	-0.014933 
3865.347264  	-0.012347 
3867.276080  	-0.015092 
3869.204896  	-0.015710 
3871.133712  	-0.011492 
3873.062528  	-0.013497 
3874.991344  	-0.011463 
3876.920160  	-0.013296 
3878.848976  	-0.015356 
3880.777792  	-0.012570 
3882.706608  	-0.013083 
3884.635424  	-0.014153 
3886.564240  	-0.010216 
3888.493056  	-0.013349 
3890.421872  	-0.014606 
3892.350688  	-0.011492 
3894.279504  	-0.011760 
3896.208320  	-0.014261 
3898.137136  	-0.015493 
3900.065952  	-0.014096 
3901.994768  	-0.013440 
3903.923584  	-0.011463 
3905.852400  	-0.009998 
3907.781216  	-0.011527 
3909.710032  	-0.012657 
3911.638848  	-0.012683 
3913.567664  	-0.013153 
3915.496480  	-0.013553 
3917.425296  	-0.012065 
3919.354112  	-0.011887 
3921.282928  	-0.012672 
3923.211744  	-0.013280 
3925.140560  	-0.011673 
3927.069376  	-0.012246 
3928.998192  	-0.013613 
3930.927008  	-0.013063 
3932.855824  	-0.011390 
3934.784640  	-0.011608 
3936.713456  	-0.012362 
3938.642272  	-0.012549 
3940.571088  	-0.013411 
3942.499904  	-0.012220 
3944.428720  	-0.011588 
3946.357536  	-0.012916 
3948.286352  	-0.012585 
3950.215168  	-0.012002 
3952.143984  	-0.012424 
3954.072800  	-0.012796 
3956.001616  	-0.012817 
3957.930432  	-0.012706 
3959.859248  	-0.012630 
3961.788064  	-0.012129 
3963.716880  	-0.011874 
3965.645696  	-0.012362 
3967.574512  	-0.012568 
3969.503328  	-0.012494 
3971.432144  	-0.012697 
3973.360960  	-0.012729 
3975.289776  	-0.012343 
3977.218592  	-0.012142 
3979.147408  	-0.012323 
3981.076224  	-0.012407 
3983.005040  	-0.012301 
3984.933856  	-0.012336 
3986.862672  	-0.012570 
3988.791488  	-0.012727 
3990.720304  	-0.012387 
3992.649120  	-0.012379 
3994.577936  	-0.012422 
3996.506752  	-0.012445 
3998.435568  	-0.012476 
4000.364384  	-0.012509 