##TITLE=No Description
##DATA TYPE=INFRARED SPECTRUM
##XUNITS=1/CM
##YUNITS=Abs
399.264912  	0.545434 
401.193728  	0.545924 
403.122544  	0.555718 
405.051360  	0.555692 
406.980176  	0.543391 
408.908992  	0.524468 
410.837808  	0.516365 
412.766624  	0.519745 
414.695440  	0.529443 
416.624256  	0.522579 
418.553072  	0.512444 
420.481888  	0.504360 
422.410704  	0.521148 
424.339520  	0.508910 
426.268336  	0.493549 
428.197152  	0.493010 
430.125968  	0.494443 
432.054784  	0.493822 
433.983600  	0.495403 
435.912416  	0.489070 
437.841232  	0.490904 
439.770048  	0.481675 
441.698864  	0.475997 
443.627680  	0.476428 
445.556496  	0.479215 
447.485312  	0.475660 
449.414128  	0.474747 
451.342944  	0.474337 
453.271760  	0.473046 
455.200576  	0.464539 
457.129392  	0.460017 
459.058208  	0.460922 
460.987024  	0.467235 
462.915840  	0.465536 
464.844656  	0.465062 
466.773472  	0.463226 
468.702288  	0.467133 
470.631104  	0.463970 
472.559920  	0.465462 
474.488736  	0.461972 
476.417552  	0.460556 
478.346368  	0.454796 
480.275184  	0.454985 
482.204000  	0.456071 
484.132816  	0.458906 
486.061632  	0.455058 
487.990448  	0.454064 
489.919264  	0.452432 
491.848080  	0.454956 
493.776896  	0.452764 
495.705712  	0.448862 
497.634528  	0.443958 
499.563344  	0.447837 
501.492160  	0.446821 
503.420976  	0.444637 
505.349792  	0.441261 
507.278608  	0.440621 
509.207424  	0.440133 
511.136240  	0.440973 
513.065056  	0.441298 
514.993872  	0.443142 
516.922688  	0.441046 
518.851504  	0.443931 
520.780320  	0.442956 
522.709136  	0.441569 
524.637952  	0.438905 
526.566768  	0.439744 
528.495584  	0.438853 
530.424400  	0.436340 
532.353216  	0.431916 
534.282032  	0.429336 
536.210848  	0.423551 
538.139664  	0.419578 
540.068480  	0.416089 
541.997296  	0.412725 
543.926112  	0.408257 
545.854928  	0.406209 
547.783744  	0.403402 
549.712560  	0.402051 
551.641376  	0.398984 
553.570192  	0.396557 
555.499008  	0.392353 
557.427824  	0.390343 
559.356640  	0.388589 
561.285456  	0.386643 
563.214272  	0.382839 
565.143088  	0.378322 
567.071904  	0.373404 
569.000720  	0.370980 
570.929536  	0.368400 
572.858352  	0.366586 
574.787168  	0.365100 
576.715984  	0.364126 
578.644800  	0.360557 
580.573616  	0.356994 
582.502432  	0.352651 
584.431248  	0.348914 
586.360064  	0.345220 
588.288880  	0.342190 
590.217696  	0.340179 
592.146512  	0.338976 
594.075328  	0.336777 
596.004144  	0.334947 
597.932960  	0.332992 
599.861776  	0.331099 
601.790592  	0.328323 
603.719408  	0.327401 
605.648224  	0.326606 
607.577040  	0.325268 
609.505856  	0.323454 
611.434672  	0.322176 
613.363488  	0.320052 
615.292304  	0.318893 
617.221120  	0.316808 
619.149936  	0.315176 
621.078752  	0.313738 
623.007568  	0.312884 
624.936384  	0.311726 
626.865200  	0.310291 
628.794016  	0.309015 
630.722832  	0.308406 
632.651648  	0.307167 
634.580464  	0.306171 
636.509280  	0.306253 
638.438096  	0.305676 
640.366912  	0.304579 
642.295728  	0.302670 
644.224544  	0.299829 
646.153360  	0.297938 
648.082176  	0.294650 
650.010992  	0.291244 
651.939808  	0.287884 
653.868624  	0.284721 
655.797440  	0.281178 
657.726256  	0.278414 
659.655072  	0.274855 
661.583888  	0.271755 
663.512704  	0.268354 
665.441520  	0.264621 
667.370336  	0.260542 
669.299152  	0.257583 
671.227968  	0.254062 
673.156784  	0.250659 
675.085600  	0.248360 
677.014416  	0.246180 
678.943232  	0.243978 
680.872048  	0.242950 
682.800864  	0.241355 
684.729680  	0.239389 
686.658496  	0.237590 
688.587312  	0.236557 
690.516128  	0.234444 
692.444944  	0.232821 
694.373760  	0.231916 
696.302576  	0.231074 
698.231392  	0.228976 
700.160208  	0.226607 
702.089024  	0.224543 
704.017840  	0.222440 
705.946656  	0.219974 
707.875472  	0.217889 
709.804288  	0.215837 
711.733104  	0.213925 
713.661920  	0.212045 
715.590736  	0.210909 
717.519552  	0.210483 
719.448368  	0.210081 
721.377184  	0.209878 
723.306000  	0.209692 
725.234816  	0.209622 
727.163632  	0.208877 
729.092448  	0.206854 
731.021264  	0.204130 
732.950080  	0.201628 
734.878896  	0.199315 
736.807712  	0.196228 
738.736528  	0.193893 
740.665344  	0.192029 
742.594160  	0.190844 
744.522976  	0.189624 
746.451792  	0.188681 
748.380608  	0.187085 
750.309424  	0.185559 
752.238240  	0.184232 
754.167056  	0.183663 
756.095872  	0.182945 
758.024688  	0.181658 
759.953504  	0.180445 
761.882320  	0.180083 
763.811136  	0.180424 
765.739952  	0.179274 
767.668768  	0.176973 
769.597584  	0.174885 
771.526400  	0.173836 
773.455216  	0.174307 
775.384032  	0.176367 
777.312848  	0.179984 
779.241664  	0.182605 
781.170480  	0.181921 
783.099296  	0.177949 
785.028112  	0.173549 
786.956928  	0.169037 
788.885744  	0.165215 
790.814560  	0.161944 
792.743376  	0.160271 
794.672192  	0.159672 
796.601008  	0.158547 
798.529824  	0.155873 
800.458640  	0.152209 
802.387456  	0.149082 
804.316272  	0.147203 
806.245088  	0.145933 
808.173904  	0.145099 
810.102720  	0.144555 
812.031536  	0.144011 
813.960352  	0.143618 
815.889168  	0.143388 
817.817984  	0.143384 
819.746800  	0.143366 
821.675616  	0.143412 
823.604432  	0.143651 
825.533248  	0.143677 
827.462064  	0.143400 
829.390880  	0.142313 
831.319696  	0.141393 
833.248512  	0.140174 
835.177328  	0.138532 
837.106144  	0.136130 
839.034960  	0.133872 
840.963776  	0.131439 
842.892592  	0.128747 
844.821408  	0.125741 
846.750224  	0.122874 
848.679040  	0.120702 
850.607856  	0.118950 
852.536672  	0.117719 
854.465488  	0.116584 
856.394304  	0.115632 
858.323120  	0.114283 
860.251936  	0.112875 
862.180752  	0.111471 
864.109568  	0.109904 
866.038384  	0.108031 
867.967200  	0.106072 
869.896016  	0.104213 
871.824832  	0.102572 
873.753648  	0.101413 
875.682464  	0.100865 
877.611280  	0.101362 
879.540096  	0.102927 
881.468912  	0.105333 
883.397728  	0.107642 
885.326544  	0.109394 
887.255360  	0.110603 
889.184176  	0.110986 
891.112992  	0.110644 
893.041808  	0.109662 
894.970624  	0.107900 
896.899440  	0.105515 
898.828256  	0.102543 
900.757072  	0.099289 
902.685888  	0.096072 
904.614704  	0.094057 
906.543520  	0.093457 
908.472336  	0.094012 
910.401152  	0.095421 
912.329968  	0.097207 
914.258784  	0.099152 
916.187600  	0.101094 
918.116416  	0.102717 
920.045232  	0.104067 
921.974048  	0.105087 
923.902864  	0.105568 
925.831680  	0.105813 
927.760496  	0.106181 
929.689312  	0.106788 
931.618128  	0.107596 
933.546944  	0.108183 
935.475760  	0.108439 
937.404576  	0.108328 
939.333392  	0.107875 
941.262208  	0.107664 
943.191024  	0.108215 
945.119840  	0.110105 
947.048656  	0.113628 
948.977472  	0.118691 
950.906288  	0.124969 
952.835104  	0.132819 
954.763920  	0.141904 
956.692736  	0.151107 
958.621552  	0.159583 
960.550368  	0.166300 
962.479184  	0.171151 
964.408000  	0.172534 
966.336816  	0.170366 
968.265632  	0.164864 
970.194448  	0.156761 
972.123264  	0.146746 
974.052080  	0.135759 
975.980896  	0.124539 
977.909712  	0.113947 
979.838528  	0.104511 
981.767344  	0.096659 
983.696160  	0.090942 
985.624976  	0.087228 
987.553792  	0.085950 
989.482608  	0.086971 
991.411424  	0.089935 
993.340240  	0.094577 
995.269056  	0.099910 
997.197872  	0.105582 
999.126688  	0.111272 
1001.055504  	0.117242 
1002.984320  	0.122978 
1004.913136  	0.128622 
1006.841952  	0.134031 
1008.770768  	0.139120 
1010.699584  	0.143437 
1012.628400  	0.146855 
1014.557216  	0.149324 
1016.486032  	0.151237 
1018.414848  	0.152321 
1020.343664  	0.153021 
1022.272480  	0.153572 
1024.201296  	0.153997 
1026.130112  	0.153744 
1028.058928  	0.153949 
1029.987744  	0.155120 
1031.916560  	0.156541 
1033.845376  	0.157781 
1035.774192  	0.159596 
1037.703008  	0.162257 
1039.631824  	0.166512 
1041.560640  	0.173389 
1043.489456  	0.184005 
1045.418272  	0.197722 
1047.347088  	0.213379 
1049.275904  	0.228076 
1051.204720  	0.240093 
1053.133536  	0.247918 
1055.062352  	0.251986 
1056.991168  	0.253482 
1058.919984  	0.254471 
1060.848800  	0.254602 
1062.777616  	0.254430 
1064.706432  	0.253054 
1066.635248  	0.251075 
1068.564064  	0.247930 
1070.492880  	0.242963 
1072.421696  	0.237418 
1074.350512  	0.233576 
1076.279328  	0.232021 
1078.208144  	0.233799 
1080.136960  	0.237133 
1082.065776  	0.240157 
1083.994592  	0.240445 
1085.923408  	0.238170 
1087.852224  	0.232585 
1089.781040  	0.225318 
1091.709856  	0.216379 
1093.638672  	0.206017 
1095.567488  	0.194141 
1097.496304  	0.182235 
1099.425120  	0.170118 
1101.353936  	0.158413 
1103.282752  	0.147283 
1105.211568  	0.136728 
1107.140384  	0.126685 
1109.069200  	0.117567 
1110.998016  	0.109324 
1112.926832  	0.101722 
1114.855648  	0.094968 
1116.784464  	0.088801 
1118.713280  	0.082473 
1120.642096  	0.076303 
1122.570912  	0.070805 
1124.499728  	0.065741 
1126.428544  	0.061306 
1128.357360  	0.057523 
1130.286176  	0.054189 
1132.214992  	0.051480 
1134.143808  	0.049325 
1136.072624  	0.047513 
1138.001440  	0.046024 
1139.930256  	0.044536 
1141.859072  	0.043038 
1143.787888  	0.041770 
1145.716704  	0.040629 
1147.645520  	0.039738 
1149.574336  	0.039292 
1151.503152  	0.039070 
1153.431968  	0.039139 
1155.360784  	0.039234 
1157.289600  	0.039615 
1159.218416  	0.040211 
1161.147232  	0.040958 
1163.076048  	0.041747 
1165.004864  	0.042738 
1166.933680  	0.043641 
1168.862496  	0.044672 
1170.791312  	0.045840 
1172.720128  	0.047315 
1174.648944  	0.049258 
1176.577760  	0.051252 
1178.506576  	0.053354 
1180.435392  	0.055516 
1182.364208  	0.057728 
1184.293024  	0.060319 
1186.221840  	0.063106 
1188.150656  	0.066548 
1190.079472  	0.070537 
1192.008288  	0.075277 
1193.937104  	0.080862 
1195.865920  	0.087162 
1197.794736  	0.093927 
1199.723552  	0.101002 
1201.652368  	0.108496 
1203.581184  	0.116055 
1205.510000  	0.123232 
1207.438816  	0.130014 
1209.367632  	0.136101 
1211.296448  	0.141130 
1213.225264  	0.145372 
1215.154080  	0.148015 
1217.082896  	0.149745 
1219.011712  	0.150691 
1220.940528  	0.150908 
1222.869344  	0.150112 
1224.798160  	0.148801 
1226.726976  	0.146704 
1228.655792  	0.144238 
1230.584608  	0.141167 
1232.513424  	0.137585 
1234.442240  	0.133412 
1236.371056  	0.128800 
1238.299872  	0.123585 
1240.228688  	0.117792 
1242.157504  	0.112077 
1244.086320  	0.106553 
1246.015136  	0.100693 
1247.943952  	0.094722 
1249.872768  	0.089022 
1251.801584  	0.083742 
1253.730400  	0.078334 
1255.659216  	0.073145 
1257.588032  	0.068249 
1259.516848  	0.063571 
1261.445664  	0.059183 
1263.374480  	0.055200 
1265.303296  	0.051862 
1267.232112  	0.049129 
1269.160928  	0.047080 
1271.089744  	0.045691 
1273.018560  	0.045162 
1274.947376  	0.045359 
1276.876192  	0.045885 
1278.805008  	0.046282 
1280.733824  	0.046076 
1282.662640  	0.044968 
1284.591456  	0.043534 
1286.520272  	0.042161 
1288.449088  	0.041226 
1290.377904  	0.041300 
1292.306720  	0.041970 
1294.235536  	0.042419 
1296.164352  	0.042259 
1298.093168  	0.040898 
1300.021984  	0.038688 
1301.950800  	0.036455 
1303.879616  	0.034284 
1305.808432  	0.031827 
1307.737248  	0.029158 
1309.666064  	0.026729 
1311.594880  	0.024939 
1313.523696  	0.023590 
1315.452512  	0.022683 
1317.381328  	0.022149 
1319.310144  	0.022093 
1321.238960  	0.022411 
1323.167776  	0.023069 
1325.096592  	0.023625 
1327.025408  	0.023990 
1328.954224  	0.023910 
1330.883040  	0.023284 
1332.811856  	0.022222 
1334.740672  	0.021284 
1336.669488  	0.020712 
1338.598304  	0.020562 
1340.527120  	0.020089 
1342.455936  	0.019381 
1344.384752  	0.019141 
1346.313568  	0.019382 
1348.242384  	0.020083 
1350.171200  	0.021194 
1352.100016  	0.022609 
1354.028832  	0.024237 
1355.957648  	0.025902 
1357.886464  	0.027401 
1359.815280  	0.029066 
1361.744096  	0.031010 
1363.672912  	0.033077 
1365.601728  	0.034692 
1367.530544  	0.036085 
1369.459360  	0.037345 
1371.388176  	0.037825 
1373.316992  	0.037188 
1375.245808  	0.035658 
1377.174624  	0.034191 
1379.103440  	0.032364 
1381.032256  	0.030107 
1382.961072  	0.028113 
1384.889888  	0.026635 
1386.818704  	0.025486 
1388.747520  	0.024075 
1390.676336  	0.022354 
1392.605152  	0.020424 
1394.533968  	0.018928 
1396.462784  	0.019094 
1398.391600  	0.019079 
1400.320416  	0.019335 
1402.249232  	0.019652 
1404.178048  	0.020084 
1406.106864  	0.020939 
1408.035680  	0.022054 
1409.964496  	0.023395 
1411.893312  	0.025206 
1413.822128  	0.026861 
1415.750944  	0.028433 
1417.679760  	0.029309 
1419.608576  	0.029864 
1421.537392  	0.030189 
1423.466208  	0.029754 
1425.395024  	0.028783 
1427.323840  	0.027239 
1429.252656  	0.025028 
1431.181472  	0.023791 
1433.110288  	0.023467 
1435.039104  	0.023064 
1436.967920  	0.023631 
1438.896736  	0.025018 
1440.825552  	0.025724 
1442.754368  	0.026088 
1444.683184  	0.025953 
1446.612000  	0.025592 
1448.540816  	0.025534 
1450.469632  	0.025865 
1452.398448  	0.025840 
1454.327264  	0.025353 
1456.256080  	0.023634 
1458.184896  	0.023533 
1460.113712  	0.025365 
1462.042528  	0.025844 
1463.971344  	0.025144 
1465.900160  	0.026191 
1467.828976  	0.027742 
1469.757792  	0.028811 
1471.686608  	0.029803 
1473.615424  	0.034350 
1475.544240  	0.039295 
1477.473056  	0.044004 
1479.401872  	0.046829 
1481.330688  	0.049360 
1483.259504  	0.051285 
1485.188320  	0.052194 
1487.117136  	0.051908 
1489.045952  	0.051618 
1490.974768  	0.050872 
1492.903584  	0.049648 
1494.832400  	0.046441 
1496.761216  	0.041399 
1498.690032  	0.037188 
1500.618848  	0.034517 
1502.547664  	0.031191 
1504.476480  	0.026623 
1506.405296  	0.021193 
1508.334112  	0.022530 
1510.262928  	0.022974 
1512.191744  	0.022210 
1514.120560  	0.021574 
1516.049376  	0.020795 
1517.978192  	0.021146 
1519.907008  	0.021805 
1521.835824  	0.023896 
1523.764640  	0.028229 
1525.693456  	0.031475 
1527.622272  	0.033943 
1529.551088  	0.034915 
1531.479904  	0.033962 
1533.408720  	0.031258 
1535.337536  	0.029856 
1537.266352  	0.027149 
1539.195168  	0.020830 
1541.123984  	0.017507 
1543.052800  	0.019809 
1544.981616  	0.020724 
1546.910432  	0.020792 
1548.839248  	0.020223 
1550.768064  	0.020030 
1552.696880  	0.019183 
1554.625696  	0.018565 
1556.554512  	0.016780 
1558.483328  	0.013880 
1560.412144  	0.020595 
1562.340960  	0.024129 
1564.269776  	0.025807 
1566.198592  	0.028833 
1568.127408  	0.030139 
1570.056224  	0.033988 
1571.985040  	0.038571 
1573.913856  	0.039995 
1575.842672  	0.040242 
1577.771488  	0.043541 
1579.700304  	0.044331 
1581.629120  	0.043820 
1583.557936  	0.043115 
1585.486752  	0.043278 
1587.415568  	0.044414 
1589.344384  	0.047063 
1591.273200  	0.050656 
1593.202016  	0.055043 
1595.130832  	0.059943 
1597.059648  	0.065597 
1598.988464  	0.070296 
1600.917280  	0.074354 
1602.846096  	0.077200 
1604.774912  	0.079362 
1606.703728  	0.079569 
1608.632544  	0.078915 
1610.561360  	0.077658 
1612.490176  	0.076345 
1614.418992  	0.073429 
1616.347808  	0.071612 
1618.276624  	0.074274 
1620.205440  	0.076272 
1622.134256  	0.076978 
1624.063072  	0.082128 
1625.991888  	0.086641 
1627.920704  	0.092208 
1629.849520  	0.099617 
1631.778336  	0.105314 
1633.707152  	0.108227 
1635.635968  	0.114380 
1637.564784  	0.124796 
1639.493600  	0.130503 
1641.422416  	0.134613 
1643.351232  	0.136941 
1645.280048  	0.136233 
1647.208864  	0.138781 
1649.137680  	0.141858 
1651.066496  	0.139592 
1652.995312  	0.136244 
1654.924128  	0.141785 
1656.852944  	0.141269 
1658.781760  	0.139729 
1660.710576  	0.136572 
1662.639392  	0.133259 
1664.568208  	0.131589 
1666.497024  	0.128532 
1668.425840  	0.123172 
1670.354656  	0.119201 
1672.283472  	0.116900 
1674.212288  	0.113566 
1676.141104  	0.111451 
1678.069920  	0.110033 
1679.998736  	0.108230 
1681.927552  	0.105727 
1683.856368  	0.102389 
1685.785184  	0.105782 
1687.714000  	0.106668 
1689.642816  	0.106941 
1691.571632  	0.106660 
1693.500448  	0.105130 
1695.429264  	0.102231 
1697.358080  	0.101648 
1699.286896  	0.099754 
1701.215712  	0.100775 
1703.144528  	0.100132 
1705.073344  	0.097343 
1707.002160  	0.095113 
1708.930976  	0.092911 
1710.859792  	0.088775 
1712.788608  	0.083413 
1714.717424  	0.075816 
1716.646240  	0.066736 
1718.575056  	0.057565 
1720.503872  	0.051524 
1722.432688  	0.044847 
1724.361504  	0.037020 
1726.290320  	0.030481 
1728.219136  	0.024558 
1730.147952  	0.018995 
1732.076768  	0.013976 
1734.005584  	0.009158 
1735.934400  	0.007147 
1737.863216  	0.005800 
1739.792032  	0.002922 
1741.720848  	0.002112 
1743.649664  	0.001417 
1745.578480  	0.000211 
1747.507296  	-0.001517 
1749.436112  	-0.002245 
1751.364928  	-0.002092 
1753.293744  	-0.001858 
1755.222560  	-0.002456 
1757.151376  	-0.002794 
1759.080192  	-0.003212 
1761.009008  	-0.003841 
1762.937824  	-0.004119 
1764.866640  	-0.003857 
1766.795456  	-0.004269 
1768.724272  	-0.004843 
1770.653088  	-0.006962 
1772.581904  	-0.007894 
1774.510720  	-0.006269 
1776.439536  	-0.005215 
1778.368352  	-0.005239 
1780.297168  	-0.005835 
1782.225984  	-0.005845 
1784.154800  	-0.005457 
1786.083616  	-0.005706 
1788.012432  	-0.005953 
1789.941248  	-0.006457 
1791.870064  	-0.007235 
1793.798880  	-0.007228 
1795.727696  	-0.006429 
1797.656512  	-0.006880 
1799.585328  	-0.007346 
1801.514144  	-0.006775 
1803.442960  	-0.006463 
1805.371776  	-0.006933 
1807.300592  	-0.006888 
1809.229408  	-0.007282 
1811.158224  	-0.007360 
1813.087040  	-0.007028 
1815.015856  	-0.006887 
1816.944672  	-0.006994 
1818.873488  	-0.006932 
1820.802304  	-0.007055 
1822.731120  	-0.007143 
1824.659936  	-0.007664 
1826.588752  	-0.007785 
1828.517568  	-0.008692 
1830.446384  	-0.008641 
1832.375200  	-0.007642 
1834.304016  	-0.007186 
1836.232832  	-0.007316 
1838.161648  	-0.007313 
1840.090464  	-0.007514 
1842.019280  	-0.007664 
1843.948096  	-0.008438 
1845.876912  	-0.007852 
1847.805728  	-0.007241 
1849.734544  	-0.007074 
1851.663360  	-0.007309 
1853.592176  	-0.007355 
1855.520992  	-0.007571 
1857.449808  	-0.007644 
1859.378624  	-0.007644 
1861.307440  	-0.007230 
1863.236256  	-0.007444 
1865.165072  	-0.007948 
1867.093888  	-0.008713 
1869.022704  	-0.008748 
1870.951520  	-0.008403 
1872.880336  	-0.007874 
1874.809152  	-0.007949 
1876.737968  	-0.007916 
1878.666784  	-0.007798 
1880.595600  	-0.007478 
1882.524416  	-0.007761 
1884.453232  	-0.007907 
1886.382048  	-0.008100 
1888.310864  	-0.008066 
1890.239680  	-0.008136 
1892.168496  	-0.007933 
1894.097312  	-0.008052 
1896.026128  	-0.007849 
1897.954944  	-0.007601 
1899.883760  	-0.007449 
1901.812576  	-0.007706 
1903.741392  	-0.007819 
1905.670208  	-0.008055 
1907.599024  	-0.007718 
1909.527840  	-0.007715 
1911.456656  	-0.007576 
1913.385472  	-0.007328 
1915.314288  	-0.007490 
1917.243104  	-0.008181 
1919.171920  	-0.007636 
1921.100736  	-0.007513 
1923.029552  	-0.007423 
1924.958368  	-0.008333 
1926.887184  	-0.008415 
1928.816000  	-0.007474 
1930.744816  	-0.007367 
1932.673632  	-0.008204 
1934.602448  	-0.008381 
1936.531264  	-0.008418 
1938.460080  	-0.008516 
1940.388896  	-0.008569 
1942.317712  	-0.008067 
1944.246528  	-0.008469 
1946.175344  	-0.008268 
1948.104160  	-0.008574 
1950.032976  	-0.009025 
1951.961792  	-0.008669 
1953.890608  	-0.007852 
1955.819424  	-0.007943 
1957.748240  	-0.008682 
1959.677056  	-0.009043 
1961.605872  	-0.008153 
1963.534688  	-0.009350 
1965.463504  	-0.009112 
1967.392320  	-0.010050 
1969.321136  	-0.009972 
1971.249952  	-0.009977 
1973.178768  	-0.010268 
1975.107584  	-0.009769 
1977.036400  	-0.008458 
1978.965216  	-0.007046 
1980.894032  	-0.007534 
1982.822848  	-0.008496 
1984.751664  	-0.008003 
1986.680480  	-0.007451 
1988.609296  	-0.007166 
1990.538112  	-0.008073 
1992.466928  	-0.008114 
1994.395744  	-0.008676 
1996.324560  	-0.008719 
1998.253376  	-0.008830 
2000.182192  	-0.008308 
2002.111008  	-0.008149 
2004.039824  	-0.008094 
2005.968640  	-0.008748 
2007.897456  	-0.008546 
2009.826272  	-0.007941 
2011.755088  	-0.007149 
2013.683904  	-0.008082 
2015.612720  	-0.008339 
2017.541536  	-0.007191 
2019.470352  	-0.006206 
2021.399168  	-0.006986 
2023.327984  	-0.006990 
2025.256800  	-0.008006 
2027.185616  	-0.008064 
2029.114432  	-0.007615 
2031.043248  	-0.006893 
2032.972064  	-0.006261 
2034.900880  	-0.005412 
2036.829696  	-0.005938 
2038.758512  	-0.005548 
2040.687328  	-0.005765 
2042.616144  	-0.005373 
2044.544960  	-0.005756 
2046.473776  	-0.006149 
2048.402592  	-0.006125 
2050.331408  	-0.005906 
2052.260224  	-0.007037 
2054.189040  	-0.007520 
2056.117856  	-0.007210 
2058.046672  	-0.006636 
2059.975488  	-0.006639 
2061.904304  	-0.006807 
2063.833120  	-0.007202 
2065.761936  	-0.006779 
2067.690752  	-0.006188 
2069.619568  	-0.006051 
2071.548384  	-0.006611 
2073.477200  	-0.006282 
2075.406016  	-0.006255 
2077.334832  	-0.006295 
2079.263648  	-0.006124 
2081.192464  	-0.005786 
2083.121280  	-0.006453 
2085.050096  	-0.006899 
2086.978912  	-0.006855 
2088.907728  	-0.006266 
2090.836544  	-0.006409 
2092.765360  	-0.006886 
2094.694176  	-0.007138 
2096.622992  	-0.006546 
2098.551808  	-0.006226 
2100.480624  	-0.006277 
2102.409440  	-0.006591 
2104.338256  	-0.006570 
2106.267072  	-0.006071 
2108.195888  	-0.005683 
2110.124704  	-0.006136 
2112.053520  	-0.006303 
2113.982336  	-0.006137 
2115.911152  	-0.005944 
2117.839968  	-0.006141 
2119.768784  	-0.006579 
2121.697600  	-0.007204 
2123.626416  	-0.006960 
2125.555232  	-0.007224 
2127.484048  	-0.007432 
2129.412864  	-0.007860 
2131.341680  	-0.007978 
2133.270496  	-0.007872 
2135.199312  	-0.006713 
2137.128128  	-0.006619 
2139.056944  	-0.007175 
2140.985760  	-0.006959 
2142.914576  	-0.006162 
2144.843392  	-0.005969 
2146.772208  	-0.006037 
2148.701024  	-0.006226 
2150.629840  	-0.005953 
2152.558656  	-0.006642 
2154.487472  	-0.006517 
2156.416288  	-0.005963 
2158.345104  	-0.003305 
2160.273920  	-0.001793 
2162.202736  	-0.002283 
2164.131552  	-0.002871 
2166.060368  	-0.003541 
2167.989184  	-0.004052 
2169.918000  	-0.003756 
2171.846816  	-0.003637 
2173.775632  	-0.003823 
2175.704448  	-0.004458 
2177.633264  	-0.004702 
2179.562080  	-0.005450 
2181.490896  	-0.005486 
2183.419712  	-0.005257 
2185.348528  	-0.005520 
2187.277344  	-0.004868 
2189.206160  	-0.003831 
2191.134976  	-0.003336 
2193.063792  	-0.003480 
2194.992608  	-0.004860 
2196.921424  	-0.005322 
2198.850240  	-0.005176 
2200.779056  	-0.004593 
2202.707872  	-0.005102 
2204.636688  	-0.005796 
2206.565504  	-0.005246 
2208.494320  	-0.004567 
2210.423136  	-0.005090 
2212.351952  	-0.005106 
2214.280768  	-0.005165 
2216.209584  	-0.005102 
2218.138400  	-0.005548 
2220.067216  	-0.005837 
2221.996032  	-0.006009 
2223.924848  	-0.005459 
2225.853664  	-0.005940 
2227.782480  	-0.005983 
2229.711296  	-0.005622 
2231.640112  	-0.006266 
2233.568928  	-0.006519 
2235.497744  	-0.006110 
2237.426560  	-0.006418 
2239.355376  	-0.006764 
2241.284192  	-0.006788 
2243.213008  	-0.006731 
2245.141824  	-0.006940 
2247.070640  	-0.006370 
2248.999456  	-0.006440 
2250.928272  	-0.006559 
2252.857088  	-0.006505 
2254.785904  	-0.006131 
2256.714720  	-0.005832 
2258.643536  	-0.006426 
2260.572352  	-0.006788 
2262.501168  	-0.006624 
2264.429984  	-0.006527 
2266.358800  	-0.006220 
2268.287616  	-0.006116 
2270.216432  	-0.006346 
2272.145248  	-0.006682 
2274.074064  	-0.006504 
2276.002880  	-0.006475 
2277.931696  	-0.006147 
2279.860512  	-0.005826 
2281.789328  	-0.005565 
2283.718144  	-0.005473 
2285.646960  	-0.005460 
2287.575776  	-0.005533 
2289.504592  	-0.005458 
2291.433408  	-0.005499 
2293.362224  	-0.005547 
2295.291040  	-0.005442 
2297.219856  	-0.005322 
2299.148672  	-0.005108 
2301.077488  	-0.004828 
2303.006304  	-0.004867 
2304.935120  	-0.004833 
2306.863936  	-0.004750 
2308.792752  	-0.004714 
2310.721568  	-0.004747 
2312.650384  	-0.004967 
2314.579200  	-0.005526 
2316.508016  	-0.005787 
2318.436832  	-0.006115 
2320.365648  	-0.006567 
2322.294464  	-0.007207 
2324.223280  	-0.008210 
2326.152096  	-0.010163 
2328.080912  	-0.011299 
2330.009728  	-0.011863 
2331.938544  	-0.012676 
2333.867360  	-0.013577 
2335.796176  	-0.014237 
2337.724992  	-0.014734 
2339.653808  	-0.015223 
2341.582624  	-0.015115 
2343.511440  	-0.013741 
2345.440256  	-0.011692 
2347.369072  	-0.009544 
2349.297888  	-0.009053 
2351.226704  	-0.010798 
2353.155520  	-0.013595 
2355.084336  	-0.015741 
2357.013152  	-0.017127 
2358.941968  	-0.017827 
2360.870784  	-0.017739 
2362.799600  	-0.016914 
2364.728416  	-0.016227 
2366.657232  	-0.014664 
2368.586048  	-0.012561 
2370.514864  	-0.010772 
2372.443680  	-0.009189 
2374.372496  	-0.007626 
2376.301312  	-0.006291 
2378.230128  	-0.005416 
2380.158944  	-0.004860 
2382.087760  	-0.004699 
2384.016576  	-0.004957 
2385.945392  	-0.005317 
2387.874208  	-0.005434 
2389.803024  	-0.005388 
2391.731840  	-0.005579 
2393.660656  	-0.005802 
2395.589472  	-0.005852 
2397.518288  	-0.005774 
2399.447104  	-0.005825 
2401.375920  	-0.005495 
2403.304736  	-0.005147 
2405.233552  	-0.005144 
2407.162368  	-0.005217 
2409.091184  	-0.005075 
2411.020000  	-0.005171 
2412.948816  	-0.005340 
2414.877632  	-0.005210 
2416.806448  	-0.004946 
2418.735264  	-0.005068 
2420.664080  	-0.005117 
2422.592896  	-0.005065 
2424.521712  	-0.004893 
2426.450528  	-0.004687 
2428.379344  	-0.004431 
2430.308160  	-0.004282 
2432.236976  	-0.004324 
2434.165792  	-0.004334 
2436.094608  	-0.004226 
2438.023424  	-0.004277 
2439.952240  	-0.004322 
2441.881056  	-0.004157 
2443.809872  	-0.003911 
2445.738688  	-0.003745 
2447.667504  	-0.003546 
2449.596320  	-0.003399 
2451.525136  	-0.003406 
2453.453952  	-0.003516 
2455.382768  	-0.003580 
2457.311584  	-0.003410 
2459.240400  	-0.003414 
2461.169216  	-0.003492 
2463.098032  	-0.003462 
2465.026848  	-0.003443 
2466.955664  	-0.003447 
2468.884480  	-0.003336 
2470.813296  	-0.003262 
2472.742112  	-0.003217 
2474.670928  	-0.003014 
2476.599744  	-0.002932 
2478.528560  	-0.002597 
2480.457376  	-0.002610 
2482.386192  	-0.002878 
2484.315008  	-0.002908 
2486.243824  	-0.002711 
2488.172640  	-0.002479 
2490.101456  	-0.002182 
2492.030272  	-0.002045 
2493.959088  	-0.002283 
2495.887904  	-0.002387 
2497.816720  	-0.002095 
2499.745536  	-0.001781 
2501.674352  	-0.001635 
2503.603168  	-0.001618 
2505.531984  	-0.001626 
2507.460800  	-0.001702 
2509.389616  	-0.001772 
2511.318432  	-0.001905 
2513.247248  	-0.001634 
2515.176064  	-0.001708 
2517.104880  	-0.001558 
2519.033696  	-0.001005 
2520.962512  	-0.000816 
2522.891328  	-0.000891 
2524.820144  	-0.000971 
2526.748960  	-0.001222 
2528.677776  	-0.001178 
2530.606592  	-0.001036 
2532.535408  	-0.000920 
2534.464224  	-0.001037 
2536.393040  	-0.000967 
2538.321856  	-0.000688 
2540.250672  	-0.000842 
2542.179488  	-0.001002 
2544.108304  	-0.000664 
2546.037120  	-0.000218 
2547.965936  	-0.000169 
2549.894752  	-0.000440 
2551.823568  	-0.000408 
2553.752384  	-0.000391 
2555.681200  	-0.000318 
2557.610016  	-0.000101 
2559.538832  	0.000062 
2561.467648  	0.000213 
2563.396464  	0.000334 
2565.325280  	0.000167 
2567.254096  	0.000242 
2569.182912  	0.000319 
2571.111728  	0.000379 
2573.040544  	0.000660 
2574.969360  	0.001008 
2576.898176  	0.001059 
2578.826992  	0.000967 
2580.755808  	0.000915 
2582.684624  	0.001052 
2584.613440  	0.001162 
2586.542256  	0.001159 
2588.471072  	0.001179 
2590.399888  	0.001402 
2592.328704  	0.001401 
2594.257520  	0.001403 
2596.186336  	0.001530 
2598.115152  	0.001540 
2600.043968  	0.001559 
2601.972784  	0.001613 
2603.901600  	0.001619 
2605.830416  	0.001752 
2607.759232  	0.001887 
2609.688048  	0.001930 
2611.616864  	0.001957 
2613.545680  	0.002150 
2615.474496  	0.002369 
2617.403312  	0.002413 
2619.332128  	0.002427 
2621.260944  	0.002397 
2623.189760  	0.002416 
2625.118576  	0.002610 
2627.047392  	0.002859 
2628.976208  	0.002945 
2630.905024  	0.002988 
2632.833840  	0.003192 
2634.762656  	0.003314 
2636.691472  	0.003435 
2638.620288  	0.003653 
2640.549104  	0.003795 
2642.477920  	0.003880 
2644.406736  	0.003910 
2646.335552  	0.003974 
2648.264368  	0.004056 
2650.193184  	0.004165 
2652.122000  	0.004375 
2654.050816  	0.004553 
2655.979632  	0.004580 
2657.908448  	0.004703 
2659.837264  	0.004887 
2661.766080  	0.005051 
2663.694896  	0.005125 
2665.623712  	0.005100 
2667.552528  	0.005298 
2669.481344  	0.005557 
2671.410160  	0.005703 
2673.338976  	0.005694 
2675.267792  	0.005755 
2677.196608  	0.005923 
2679.125424  	0.006053 
2681.054240  	0.006211 
2682.983056  	0.006288 
2684.911872  	0.006290 
2686.840688  	0.006463 
2688.769504  	0.006627 
2690.698320  	0.006742 
2692.627136  	0.006870 
2694.555952  	0.006885 
2696.484768  	0.006904 
2698.413584  	0.007103 
2700.342400  	0.007192 
2702.271216  	0.007274 
2704.200032  	0.007405 
2706.128848  	0.007546 
2708.057664  	0.007679 
2709.986480  	0.007856 
2711.915296  	0.007999 
2713.844112  	0.008054 
2715.772928  	0.008085 
2717.701744  	0.008118 
2719.630560  	0.008238 
2721.559376  	0.008377 
2723.488192  	0.008492 
2725.417008  	0.008688 
2727.345824  	0.008891 
2729.274640  	0.008953 
2731.203456  	0.009011 
2733.132272  	0.009309 
2735.061088  	0.009563 
2736.989904  	0.009640 
2738.918720  	0.009733 
2740.847536  	0.009834 
2742.776352  	0.009891 
2744.705168  	0.009966 
2746.633984  	0.010056 
2748.562800  	0.010164 
2750.491616  	0.010304 
2752.420432  	0.010418 
2754.349248  	0.010401 
2756.278064  	0.010388 
2758.206880  	0.010370 
2760.135696  	0.010462 
2762.064512  	0.010576 
2763.993328  	0.010671 
2765.922144  	0.010651 
2767.850960  	0.010614 
2769.779776  	0.010655 
2771.708592  	0.010678 
2773.637408  	0.010665 
2775.566224  	0.010733 
2777.495040  	0.010777 
2779.423856  	0.010726 
2781.352672  	0.010772 
2783.281488  	0.010841 
2785.210304  	0.010824 
2787.139120  	0.010811 
2789.067936  	0.010879 
2790.996752  	0.010911 
2792.925568  	0.010863 
2794.854384  	0.010872 
2796.783200  	0.010844 
2798.712016  	0.010894 
2800.640832  	0.011086 
2802.569648  	0.011201 
2804.498464  	0.011075 
2806.427280  	0.011030 
2808.356096  	0.011109 
2810.284912  	0.011143 
2812.213728  	0.011077 
2814.142544  	0.011073 
2816.071360  	0.011121 
2818.000176  	0.011246 
2819.928992  	0.011300 
2821.857808  	0.011274 
2823.786624  	0.011214 
2825.715440  	0.011158 
2827.644256  	0.011127 
2829.573072  	0.011105 
2831.501888  	0.011088 
2833.430704  	0.010947 
2835.359520  	0.010756 
2837.288336  	0.010788 
2839.217152  	0.010818 
2841.145968  	0.010672 
2843.074784  	0.010576 
2845.003600  	0.010586 
2846.932416  	0.010621 
2848.861232  	0.010641 
2850.790048  	0.010632 
2852.718864  	0.010594 
2854.647680  	0.010594 
2856.576496  	0.010640 
2858.505312  	0.010611 
2860.434128  	0.010594 
2862.362944  	0.010661 
2864.291760  	0.010647 
2866.220576  	0.010576 
2868.149392  	0.010642 
2870.078208  	0.010678 
2872.007024  	0.010858 
2873.935840  	0.011177 
2875.864656  	0.011432 
2877.793472  	0.011675 
2879.722288  	0.011922 
2881.651104  	0.012186 
2883.579920  	0.012306 
2885.508736  	0.012318 
2887.437552  	0.012373 
2889.366368  	0.012390 
2891.295184  	0.012275 
2893.224000  	0.012159 
2895.152816  	0.012124 
2897.081632  	0.011915 
2899.010448  	0.011341 
2900.939264  	0.010898 
2902.868080  	0.011109 
2904.796896  	0.011279 
2906.725712  	0.011379 
2908.654528  	0.011549 
2910.583344  	0.011778 
2912.512160  	0.012188 
2914.440976  	0.012795 
2916.369792  	0.013270 
2918.298608  	0.013662 
2920.227424  	0.013910 
2922.156240  	0.014181 
2924.085056  	0.014552 
2926.013872  	0.014916 
2927.942688  	0.015428 
2929.871504  	0.016081 
2931.800320  	0.016462 
2933.729136  	0.016893 
2935.657952  	0.017421 
2937.586768  	0.017822 
2939.515584  	0.018066 
2941.444400  	0.018305 
2943.373216  	0.018476 
2945.302032  	0.018449 
2947.230848  	0.018424 
2949.159664  	0.018494 
2951.088480  	0.018345 
2953.017296  	0.017989 
2954.946112  	0.017523 
2956.874928  	0.017243 
2958.803744  	0.016977 
2960.732560  	0.016434 
2962.661376  	0.015704 
2964.590192  	0.015219 
2966.519008  	0.014759 
2968.447824  	0.013943 
2970.376640  	0.013089 
2972.305456  	0.012511 
2974.234272  	0.011996 
2976.163088  	0.011474 
2978.091904  	0.011035 
2980.020720  	0.010567 
2981.949536  	0.010410 
2983.878352  	0.010470 
2985.807168  	0.010401 
2987.735984  	0.010445 
2989.664800  	0.010819 
2991.593616  	0.011601 
2993.522432  	0.012207 
2995.451248  	0.012575 
2997.380064  	0.013028 
2999.308880  	0.013510 
3001.237696  	0.013866 
3003.166512  	0.014158 
3005.095328  	0.014406 
3007.024144  	0.014713 
3008.952960  	0.015130 
3010.881776  	0.015453 
3012.810592  	0.015764 
3014.739408  	0.016163 
3016.668224  	0.016518 
3018.597040  	0.016787 
3020.525856  	0.016965 
3022.454672  	0.017253 
3024.383488  	0.017612 
3026.312304  	0.017962 
3028.241120  	0.018147 
3030.169936  	0.018376 
3032.098752  	0.018632 
3034.027568  	0.018736 
3035.956384  	0.018951 
3037.885200  	0.019075 
3039.814016  	0.019229 
3041.742832  	0.019469 
3043.671648  	0.019829 
3045.600464  	0.020317 
3047.529280  	0.020422 
3049.458096  	0.020529 
3051.386912  	0.020752 
3053.315728  	0.020885 
3055.244544  	0.021115 
3057.173360  	0.021468 
3059.102176  	0.021797 
3061.030992  	0.022042 
3062.959808  	0.022248 
3064.888624  	0.022641 
3066.817440  	0.023050 
3068.746256  	0.023517 
3070.675072  	0.023809 
3072.603888  	0.024106 
3074.532704  	0.024459 
3076.461520  	0.024774 
3078.390336  	0.025094 
3080.319152  	0.025473 
3082.247968  	0.025854 
3084.176784  	0.026132 
3086.105600  	0.026437 
3088.034416  	0.026807 
3089.963232  	0.027189 
3091.892048  	0.027441 
3093.820864  	0.027647 
3095.749680  	0.028014 
3097.678496  	0.028492 
3099.607312  	0.028896 
3101.536128  	0.029268 
3103.464944  	0.029668 
3105.393760  	0.029974 
3107.322576  	0.030122 
3109.251392  	0.030482 
3111.180208  	0.030918 
3113.109024  	0.030944 
3115.037840  	0.030896 
3116.966656  	0.031178 
3118.895472  	0.031566 
3120.824288  	0.031684 
3122.753104  	0.031847 
3124.681920  	0.031995 
3126.610736  	0.032278 
3128.539552  	0.032575 
3130.468368  	0.032588 
3132.397184  	0.032714 
3134.326000  	0.032898 
3136.254816  	0.032996 
3138.183632  	0.033190 
3140.112448  	0.033478 
3142.041264  	0.033605 
3143.970080  	0.033698 
3145.898896  	0.033864 
3147.827712  	0.034101 
3149.756528  	0.034398 
3151.685344  	0.034693 
3153.614160  	0.034936 
3155.542976  	0.035184 
3157.471792  	0.035349 
3159.400608  	0.035549 
3161.329424  	0.035750 
3163.258240  	0.035887 
3165.187056  	0.036057 
3167.115872  	0.036372 
3169.044688  	0.036638 
3170.973504  	0.036916 
3172.902320  	0.036987 
3174.831136  	0.036853 
3176.759952  	0.036871 
3178.688768  	0.037145 
3180.617584  	0.037351 
3182.546400  	0.037222 
3184.475216  	0.037178 
3186.404032  	0.037334 
3188.332848  	0.037354 
3190.261664  	0.037201 
3192.190480  	0.036937 
3194.119296  	0.036646 
3196.048112  	0.036481 
3197.976928  	0.036376 
3199.905744  	0.036427 
3201.834560  	0.036137 
3203.763376  	0.035833 
3205.692192  	0.035581 
3207.621008  	0.035180 
3209.549824  	0.035076 
3211.478640  	0.034901 
3213.407456  	0.034517 
3215.336272  	0.034329 
3217.265088  	0.033998 
3219.193904  	0.033779 
3221.122720  	0.033784 
3223.051536  	0.033595 
3224.980352  	0.033057 
3226.909168  	0.032747 
3228.837984  	0.032502 
3230.766800  	0.032322 
3232.695616  	0.032153 
3234.624432  	0.031886 
3236.553248  	0.031569 
3238.482064  	0.031488 
3240.410880  	0.031698 
3242.339696  	0.031633 
3244.268512  	0.031442 
3246.197328  	0.031823 
3248.126144  	0.031824 
3250.054960  	0.031793 
3251.983776  	0.031742 
3253.912592  	0.031917 
3255.841408  	0.032234 
3257.770224  	0.032307 
3259.699040  	0.032292 
3261.627856  	0.032449 
3263.556672  	0.032618 
3265.485488  	0.032957 
3267.414304  	0.033090 
3269.343120  	0.033179 
3271.271936  	0.033196 
3273.200752  	0.033250 
3275.129568  	0.033748 
3277.058384  	0.034028 
3278.987200  	0.033844 
3280.916016  	0.033837 
3282.844832  	0.034126 
3284.773648  	0.034212 
3286.702464  	0.034197 
3288.631280  	0.034273 
3290.560096  	0.034291 
3292.488912  	0.034730 
3294.417728  	0.035160 
3296.346544  	0.035259 
3298.275360  	0.035429 
3300.204176  	0.035735 
3302.132992  	0.036193 
3304.061808  	0.036436 
3305.990624  	0.036429 
3307.919440  	0.036707 
3309.848256  	0.037197 
3311.777072  	0.037467 
3313.705888  	0.037594 
3315.634704  	0.037837 
3317.563520  	0.038126 
3319.492336  	0.038477 
3321.421152  	0.038737 
3323.349968  	0.038886 
3325.278784  	0.039034 
3327.207600  	0.039294 
3329.136416  	0.039521 
3331.065232  	0.039567 
3332.994048  	0.039618 
3334.922864  	0.039947 
3336.851680  	0.040384 
3338.780496  	0.040247 
3340.709312  	0.039718 
3342.638128  	0.039721 
3344.566944  	0.039587 
3346.495760  	0.039313 
3348.424576  	0.039122 
3350.353392  	0.039097 
3352.282208  	0.039055 
3354.211024  	0.038881 
3356.139840  	0.038841 
3358.068656  	0.038604 
3359.997472  	0.038242 
3361.926288  	0.037948 
3363.855104  	0.037689 
3365.783920  	0.037634 
3367.712736  	0.037327 
3369.641552  	0.037043 
3371.570368  	0.037125 
3373.499184  	0.036860 
3375.428000  	0.036338 
3377.356816  	0.036337 
3379.285632  	0.036541 
3381.214448  	0.036234 
3383.143264  	0.035699 
3385.072080  	0.035573 
3387.000896  	0.035635 
3388.929712  	0.035441 
3390.858528  	0.035039 
3392.787344  	0.034882 
3394.716160  	0.034563 
3396.644976  	0.034469 
3398.573792  	0.034607 
3400.502608  	0.034378 
3402.431424  	0.034146 
3404.360240  	0.033907 
3406.289056  	0.033540 
3408.217872  	0.033262 
3410.146688  	0.033099 
3412.075504  	0.032878 
3414.004320  	0.032804 
3415.933136  	0.032477 
3417.861952  	0.031889 
3419.790768  	0.031594 
3421.719584  	0.031563 
3423.648400  	0.031370 
3425.577216  	0.031036 
3427.506032  	0.030813 
3429.434848  	0.030637 
3431.363664  	0.030345 
3433.292480  	0.030084 
3435.221296  	0.029843 
3437.150112  	0.029486 
3439.078928  	0.029080 
3441.007744  	0.028681 
3442.936560  	0.028585 
3444.865376  	0.028188 
3446.794192  	0.028069 
3448.723008  	0.028388 
3450.651824  	0.027541 
3452.580640  	0.026821 
3454.509456  	0.026496 
3456.438272  	0.026236 
3458.367088  	0.025855 
3460.295904  	0.025476 
3462.224720  	0.025188 
3464.153536  	0.024784 
3466.082352  	0.024294 
3468.011168  	0.023906 
3469.939984  	0.023167 
3471.868800  	0.022238 
3473.797616  	0.021769 
3475.726432  	0.021652 
3477.655248  	0.021221 
3479.584064  	0.020747 
3481.512880  	0.020513 
3483.441696  	0.020165 
3485.370512  	0.019277 
3487.299328  	0.018764 
3489.228144  	0.018649 
3491.156960  	0.018160 
3493.085776  	0.017275 
3495.014592  	0.016609 
3496.943408  	0.016322 
3498.872224  	0.015862 
3500.801040  	0.015107 
3502.729856  	0.015017 
3504.658672  	0.015144 
3506.587488  	0.014503 
3508.516304  	0.013859 
3510.445120  	0.013976 
3512.373936  	0.013607 
3514.302752  	0.012931 
3516.231568  	0.012397 
3518.160384  	0.011972 
3520.089200  	0.011267 
3522.018016  	0.010668 
3523.946832  	0.010981 
3525.875648  	0.010476 
3527.804464  	0.009858 
3529.733280  	0.010082 
3531.662096  	0.009897 
3533.590912  	0.008984 
3535.519728  	0.008600 
3537.448544  	0.008846 
3539.377360  	0.008177 
3541.306176  	0.007449 
3543.234992  	0.006871 
3545.163808  	0.007267 
3547.092624  	0.007686 
3549.021440  	0.006670 
3550.950256  	0.005383 
3552.879072  	0.005676 
3554.807888  	0.005682 
3556.736704  	0.004978 
3558.665520  	0.004509 
3560.594336  	0.004277 
3562.523152  	0.003338 
3564.451968  	0.001989 
3566.380784  	0.002471 
3568.309600  	0.004568 
3570.238416  	0.003624 
3572.167232  	0.002047 
3574.096048  	0.001335 
3576.024864  	0.000853 
3577.953680  	0.000426 
3579.882496  	0.000180 
3581.811312  	-0.000190 
3583.740128  	-0.001458 
3585.668944  	-0.002434 
3587.597760  	-0.000964 
3589.526576  	-0.000648 
3591.455392  	-0.002753 
3593.384208  	-0.003813 
3595.313024  	-0.003750 
3597.241840  	-0.004258 
3599.170656  	-0.005424 
3601.099472  	-0.005671 
3603.028288  	-0.005695 
3604.957104  	-0.006925 
3606.885920  	-0.007804 
3608.814736  	-0.007126 
3610.743552  	-0.007859 
3612.672368  	-0.009033 
3614.601184  	-0.009203 
3616.530000  	-0.010876 
3618.458816  	-0.011953 
3620.387632  	-0.010651 
3622.316448  	-0.010623 
3624.245264  	-0.012009 
3626.174080  	-0.014660 
3628.102896  	-0.016230 
3630.031712  	-0.012815 
3631.960528  	-0.013196 
3633.889344  	-0.013865 
3635.818160  	-0.014000 
3637.746976  	-0.014768 
3639.675792  	-0.015050 
3641.604608  	-0.015399 
3643.533424  	-0.016211 
3645.462240  	-0.018585 
3647.391056  	-0.021126 
3649.319872  	-0.020970 
3651.248688  	-0.017625 
3653.177504  	-0.017825 
3655.106320  	-0.019446 
3657.035136  	-0.018771 
3658.963952  	-0.018300 
3660.892768  	-0.018309 
3662.821584  	-0.018694 
3664.750400  	-0.019183 
3666.679216  	-0.020485 
3668.608032  	-0.022855 
3670.536848  	-0.022192 
3672.465664  	-0.022314 
3674.394480  	-0.024515 
3676.323296  	-0.022235 
3678.252112  	-0.021092 
3680.180928  	-0.020319 
3682.109744  	-0.019704 
3684.038560  	-0.020098 
3685.967376  	-0.021629 
3687.896192  	-0.023488 
3689.825008  	-0.023537 
3691.753824  	-0.021419 
3693.682640  	-0.019997 
3695.611456  	-0.019625 
3697.540272  	-0.019518 
3699.469088  	-0.020459 
3701.397904  	-0.020849 
3703.326720  	-0.019838 
3705.255536  	-0.019723 
3707.184352  	-0.020864 
3709.113168  	-0.022480 
3711.041984  	-0.022695 
3712.970800  	-0.019906 
3714.899616  	-0.018582 
3716.828432  	-0.019350 
3718.757248  	-0.019746 
3720.686064  	-0.020322 
3722.614880  	-0.020647 
3724.543696  	-0.020207 
3726.472512  	-0.019476 
3728.401328  	-0.019600 
3730.330144  	-0.021531 
3732.258960  	-0.022825 
3734.187776  	-0.022161 
3736.116592  	-0.020431 
3738.045408  	-0.019975 
3739.974224  	-0.020250 
3741.903040  	-0.021691 
3743.831856  	-0.022691 
3745.760672  	-0.020769 
3747.689488  	-0.022366 
3749.618304  	-0.023818 
3751.547120  	-0.022151 
3753.475936  	-0.019456 
3755.404752  	-0.019477 
3757.333568  	-0.020004 
3759.262384  	-0.019944 
3761.191200  	-0.018849 
3763.120016  	-0.019077 
3765.048832  	-0.019202 
3766.977648  	-0.019129 
3768.906464  	-0.019775 
3770.835280  	-0.018877 
3772.764096  	-0.018393 
3774.692912  	-0.018560 
3776.621728  	-0.019275 
3778.550544  	-0.020091 
3780.479360  	-0.019083 
3782.408176  	-0.018962 
3784.336992  	-0.019256 
3786.265808  	-0.018474 
3788.194624  	-0.018260 
3790.123440  	-0.018466 
3792.052256  	-0.018599 
3793.981072  	-0.019394 
3795.909888  	-0.020299 
3797.838704  	-0.020295 
3799.767520  	-0.021777 
3801.696336  	-0.021746 
3803.625152  	-0.020195 
3805.553968  	-0.020990 
3807.482784  	-0.019954 
3809.411600  	-0.018828 
3811.340416  	-0.018752 
3813.269232  	-0.019766 
3815.198048  	-0.021277 
3817.126864  	-0.020655 
3819.055680  	-0.022235 
3820.984496  	-0.022424 
3822.913312  	-0.019498 
3824.842128  	-0.019787 
3826.770944  	-0.019891 
3828.699760  	-0.019508 
3830.628576  	-0.020068 
3832.557392  	-0.020521 
3834.486208  	-0.021088 
3836.415024  	-0.022025 
3838.343840  	-0.022011 
3840.272656  	-0.021015 
3842.201472  	-0.020189 
3844.130288  	-0.019323 
3846.059104  	-0.018800 
3847.987920  	-0.019558 
3849.916736  	-0.021335 
3851.845552  	-0.023764 
3853.774368  	-0.022098 
3855.703184  	-0.019324 
3857.632000  	-0.018795 
3859.560816  	-0.019038 
3861.489632  	-0.019771 
3863.418448  	-0.020205 
3865.347264  	-0.019036 
3867.276080  	-0.019656 
3869.204896  	-0.020947 
3871.133712  	-0.019675 
3873.062528  	-0.020008 
3874.991344  	-0.019078 
3876.920160  	-0.019018 
3878.848976  	-0.019800 
3880.777792  	-0.019031 
3882.706608  	-0.018892 
3884.635424  	-0.019573 
3886.564240  	-0.018212 
3888.493056  	-0.019005 
3890.421872  	-0.019833 
3892.350688  	-0.018954 
3894.279504  	-0.018564 
3896.208320  	-0.019172 
3898.137136  	-0.019696 
3900.065952  	-0.019589 
3901.994768  	-0.019547 
3903.923584  	-0.018964 
3905.852400  	-0.018176 
3907.781216  	-0.018448 
3909.710032  	-0.018752 
3911.638848  	-0.018618 
3913.567664  	-0.018678 
3915.496480  	-0.018787 
3917.425296  	-0.018209 
3919.354112  	-0.018238 
3921.282928  	-0.018512 
3923.211744  	-0.018681 
3925.140560  	-0.018255 
3927.069376  	-0.018624 
3928.998192  	-0.019110 
3930.927008  	-0.018658 
3932.855824  	-0.017927 
3934.784640  	-0.018135 
3936.713456  	-0.018457 
3938.642272  	-0.018350 
3940.571088  	-0.018661 
3942.499904  	-0.018153 
3944.428720  	-0.017929 
3946.357536  	-0.018516 
3948.286352  	-0.018513 
3950.215168  	-0.018367 
3952.143984  	-0.018654 
3954.072800  	-0.018810 
3956.001616  	-0.018767 
3957.930432  	-0.018753 
3959.859248  	-0.018768 
3961.788064  	-0.018393 
3963.716880  	-0.018065 
3965.645696  	-0.018363 
3967.574512  	-0.018665 
3969.503328  	-0.018602 
3971.432144  	-0.018590 
3973.360960  	-0.018508 
3975.289776  	-0.018371 
3977.218592  	-0.018481 
3979.147408  	-0.018658 
3981.076224  	-0.018497 
3983.005040  	-0.018187 
3984.933856  	-0.018241 
3986.862672  	-0.018547 
3988.791488  	-0.018530 
3990.720304  	-0.018443 
3992.649120  	-0.018464 
3994.577936  	-0.018448 
3996.506752  	-0.018527 
3998.435568  	-0.018635 
4000.364384  	-0.018674 