##TITLE=No Description
##DATA TYPE=INFRARED SPECTRUM
##XUNITS=1/CM
##YUNITS=Abs
399.264912  	0.554133 
401.193728  	0.560503 
403.122544  	0.576457 
405.051360  	0.547896 
406.980176  	0.529384 
408.908992  	0.524069 
410.837808  	0.548202 
412.766624  	0.559087 
414.695440  	0.550817 
416.624256  	0.539340 
418.553072  	0.528926 
420.481888  	0.506603 
422.410704  	0.510317 
424.339520  	0.518538 
426.268336  	0.532243 
428.197152  	0.523122 
430.125968  	0.508963 
432.054784  	0.500662 
433.983600  	0.502492 
435.912416  	0.502893 
437.841232  	0.503853 
439.770048  	0.495876 
441.698864  	0.492114 
443.627680  	0.489778 
445.556496  	0.490443 
447.485312  	0.485614 
449.414128  	0.488451 
451.342944  	0.491351 
453.271760  	0.489990 
455.200576  	0.480349 
457.129392  	0.482453 
459.058208  	0.476974 
460.987024  	0.476817 
462.915840  	0.478395 
464.844656  	0.484544 
466.773472  	0.480125 
468.702288  	0.476446 
470.631104  	0.470691 
472.559920  	0.473154 
474.488736  	0.471843 
476.417552  	0.471887 
478.346368  	0.466711 
480.275184  	0.470024 
482.204000  	0.473043 
484.132816  	0.475756 
486.061632  	0.476863 
487.990448  	0.474944 
489.919264  	0.468901 
491.848080  	0.467546 
493.776896  	0.461624 
495.705712  	0.459402 
497.634528  	0.455922 
499.563344  	0.457419 
501.492160  	0.457993 
503.420976  	0.458722 
505.349792  	0.457188 
507.278608  	0.455997 
509.207424  	0.452621 
511.136240  	0.456529 
513.065056  	0.456659 
514.993872  	0.457957 
516.922688  	0.458403 
518.851504  	0.459274 
520.780320  	0.455842 
522.709136  	0.455244 
524.637952  	0.454866 
526.566768  	0.454635 
528.495584  	0.452913 
530.424400  	0.450995 
532.353216  	0.445834 
534.282032  	0.442380 
536.210848  	0.437553 
538.139664  	0.434396 
540.068480  	0.431247 
541.997296  	0.426712 
543.926112  	0.420326 
545.854928  	0.419553 
547.783744  	0.418484 
549.712560  	0.415241 
551.641376  	0.411503 
553.570192  	0.409161 
555.499008  	0.406199 
557.427824  	0.404205 
559.356640  	0.400418 
561.285456  	0.398104 
563.214272  	0.395446 
565.143088  	0.393719 
567.071904  	0.389257 
569.000720  	0.385873 
570.929536  	0.382194 
572.858352  	0.380280 
574.787168  	0.378588 
576.715984  	0.377053 
578.644800  	0.373496 
580.573616  	0.370788 
582.502432  	0.367546 
584.431248  	0.364080 
586.360064  	0.359606 
588.288880  	0.356451 
590.217696  	0.354498 
592.146512  	0.353130 
594.075328  	0.350949 
596.004144  	0.348411 
597.932960  	0.346629 
599.861776  	0.345291 
601.790592  	0.342663 
603.719408  	0.341175 
605.648224  	0.339689 
607.577040  	0.338401 
609.505856  	0.336954 
611.434672  	0.336050 
613.363488  	0.333314 
615.292304  	0.331438 
617.221120  	0.329265 
619.149936  	0.327864 
621.078752  	0.326285 
623.007568  	0.325760 
624.936384  	0.324492 
626.865200  	0.322825 
628.794016  	0.321009 
630.722832  	0.320025 
632.651648  	0.319626 
634.580464  	0.319851 
636.509280  	0.319382 
638.438096  	0.318410 
640.366912  	0.317198 
642.295728  	0.315865 
644.224544  	0.313318 
646.153360  	0.310516 
648.082176  	0.306820 
650.010992  	0.304228 
651.939808  	0.300348 
653.868624  	0.296814 
655.797440  	0.293193 
657.726256  	0.290881 
659.655072  	0.287626 
661.583888  	0.283973 
663.512704  	0.280675 
665.441520  	0.276913 
667.370336  	0.271333 
669.299152  	0.268973 
671.227968  	0.266304 
673.156784  	0.263225 
675.085600  	0.260070 
677.014416  	0.257917 
678.943232  	0.255381 
680.872048  	0.253821 
682.800864  	0.252200 
684.729680  	0.250358 
686.658496  	0.248461 
688.587312  	0.247392 
690.516128  	0.245563 
692.444944  	0.244452 
694.373760  	0.242999 
696.302576  	0.241419 
698.231392  	0.239099 
700.160208  	0.237092 
702.089024  	0.235125 
704.017840  	0.233223 
705.946656  	0.230972 
707.875472  	0.229064 
709.804288  	0.227175 
711.733104  	0.225143 
713.661920  	0.222787 
715.590736  	0.221737 
717.519552  	0.221147 
719.448368  	0.220674 
721.377184  	0.220638 
723.306000  	0.220565 
725.234816  	0.219951 
727.163632  	0.218861 
729.092448  	0.216735 
731.021264  	0.213617 
732.950080  	0.210577 
734.878896  	0.208031 
736.807712  	0.205303 
738.736528  	0.203038 
740.665344  	0.200884 
742.594160  	0.199718 
744.522976  	0.198534 
746.451792  	0.197882 
748.380608  	0.196316 
750.309424  	0.194991 
752.238240  	0.193650 
754.167056  	0.193189 
756.095872  	0.192473 
758.024688  	0.190732 
759.953504  	0.189914 
761.882320  	0.189984 
763.811136  	0.190114 
765.739952  	0.188726 
767.668768  	0.185929 
769.597584  	0.183614 
771.526400  	0.182778 
773.455216  	0.183139 
775.384032  	0.184882 
777.312848  	0.188419 
779.241664  	0.190747 
781.170480  	0.190197 
783.099296  	0.186479 
785.028112  	0.181794 
786.956928  	0.176986 
788.885744  	0.173068 
790.814560  	0.169784 
792.743376  	0.167715 
794.672192  	0.166685 
796.601008  	0.165438 
798.529824  	0.162593 
800.458640  	0.159149 
802.387456  	0.156262 
804.316272  	0.154423 
806.245088  	0.153248 
808.173904  	0.152365 
810.102720  	0.151663 
812.031536  	0.151157 
813.960352  	0.150888 
815.889168  	0.150749 
817.817984  	0.150948 
819.746800  	0.150616 
821.675616  	0.150252 
823.604432  	0.150422 
825.533248  	0.150768 
827.462064  	0.150659 
829.390880  	0.149612 
831.319696  	0.148932 
833.248512  	0.147712 
835.177328  	0.146234 
837.106144  	0.144066 
839.034960  	0.141928 
840.963776  	0.138920 
842.892592  	0.135854 
844.821408  	0.133037 
846.750224  	0.130406 
848.679040  	0.128325 
850.607856  	0.126288 
852.536672  	0.124955 
854.465488  	0.123700 
856.394304  	0.122867 
858.323120  	0.121904 
860.251936  	0.120699 
862.180752  	0.119214 
864.109568  	0.117511 
866.038384  	0.115724 
867.967200  	0.113727 
869.896016  	0.112041 
871.824832  	0.110528 
873.753648  	0.109714 
875.682464  	0.109276 
877.611280  	0.110012 
879.540096  	0.111610 
881.468912  	0.114122 
883.397728  	0.116727 
885.326544  	0.118682 
887.255360  	0.120118 
889.184176  	0.120384 
891.112992  	0.120067 
893.041808  	0.119126 
894.970624  	0.117352 
896.899440  	0.114653 
898.828256  	0.111343 
900.757072  	0.107963 
902.685888  	0.104747 
904.614704  	0.102616 
906.543520  	0.101710 
908.472336  	0.102188 
910.401152  	0.103552 
912.329968  	0.105453 
914.258784  	0.107502 
916.187600  	0.109347 
918.116416  	0.110833 
920.045232  	0.111982 
921.974048  	0.112627 
923.902864  	0.113191 
925.831680  	0.113506 
927.760496  	0.113908 
929.689312  	0.114431 
931.618128  	0.115088 
933.546944  	0.115503 
935.475760  	0.115689 
937.404576  	0.115348 
939.333392  	0.114510 
941.262208  	0.114039 
943.191024  	0.114262 
945.119840  	0.115884 
947.048656  	0.119016 
948.977472  	0.123839 
950.906288  	0.130158 
952.835104  	0.137882 
954.763920  	0.146777 
956.692736  	0.156130 
958.621552  	0.165034 
960.550368  	0.171868 
962.479184  	0.176985 
964.408000  	0.178511 
966.336816  	0.176313 
968.265632  	0.170599 
970.194448  	0.162417 
972.123264  	0.152102 
974.052080  	0.140903 
975.980896  	0.129801 
977.909712  	0.119005 
979.838528  	0.109290 
981.767344  	0.101326 
983.696160  	0.095550 
985.624976  	0.091768 
987.553792  	0.090422 
989.482608  	0.091260 
991.411424  	0.094185 
993.340240  	0.098995 
995.269056  	0.104386 
997.197872  	0.109965 
999.126688  	0.115442 
1001.055504  	0.121438 
1002.984320  	0.127209 
1004.913136  	0.133086 
1006.841952  	0.138563 
1008.770768  	0.143822 
1010.699584  	0.148294 
1012.628400  	0.151733 
1014.557216  	0.154316 
1016.486032  	0.156423 
1018.414848  	0.157765 
1020.343664  	0.158292 
1022.272480  	0.158689 
1024.201296  	0.159031 
1026.130112  	0.158757 
1028.058928  	0.159134 
1029.987744  	0.160502 
1031.916560  	0.161921 
1033.845376  	0.163281 
1035.774192  	0.165142 
1037.703008  	0.167867 
1039.631824  	0.172549 
1041.560640  	0.179691 
1043.489456  	0.190631 
1045.418272  	0.204651 
1047.347088  	0.220512 
1049.275904  	0.235318 
1051.204720  	0.247349 
1053.133536  	0.254844 
1055.062352  	0.258562 
1056.991168  	0.260095 
1058.919984  	0.261113 
1060.848800  	0.261199 
1062.777616  	0.261148 
1064.706432  	0.259852 
1066.635248  	0.257958 
1068.564064  	0.254827 
1070.492880  	0.250445 
1072.421696  	0.245303 
1074.350512  	0.241485 
1076.279328  	0.239846 
1078.208144  	0.241787 
1080.136960  	0.245436 
1082.065776  	0.248776 
1083.994592  	0.249896 
1085.923408  	0.248009 
1087.852224  	0.242216 
1089.781040  	0.234617 
1091.709856  	0.224945 
1093.638672  	0.214170 
1095.567488  	0.202132 
1097.496304  	0.189595 
1099.425120  	0.176811 
1101.353936  	0.164826 
1103.282752  	0.153354 
1105.211568  	0.142818 
1107.140384  	0.132843 
1109.069200  	0.123790 
1110.998016  	0.115449 
1112.926832  	0.107567 
1114.855648  	0.100487 
1116.784464  	0.094068 
1118.713280  	0.087792 
1120.642096  	0.081717 
1122.570912  	0.076068 
1124.499728  	0.070885 
1126.428544  	0.066365 
1128.357360  	0.062655 
1130.286176  	0.059146 
1132.214992  	0.056488 
1134.143808  	0.054318 
1136.072624  	0.052550 
1138.001440  	0.050874 
1139.930256  	0.049424 
1141.859072  	0.047934 
1143.787888  	0.046791 
1145.716704  	0.045674 
1147.645520  	0.044938 
1149.574336  	0.044455 
1151.503152  	0.044162 
1153.431968  	0.044504 
1155.360784  	0.044667 
1157.289600  	0.044895 
1159.218416  	0.045407 
1161.147232  	0.046303 
1163.076048  	0.047210 
1165.004864  	0.048093 
1166.933680  	0.048976 
1168.862496  	0.050075 
1170.791312  	0.051441 
1172.720128  	0.052742 
1174.648944  	0.054595 
1176.577760  	0.056513 
1178.506576  	0.058649 
1180.435392  	0.060811 
1182.364208  	0.063037 
1184.293024  	0.065753 
1186.221840  	0.068713 
1188.150656  	0.072134 
1190.079472  	0.076035 
1192.008288  	0.080775 
1193.937104  	0.086522 
1195.865920  	0.092829 
1197.794736  	0.099723 
1199.723552  	0.107126 
1201.652368  	0.114925 
1203.581184  	0.122668 
1205.510000  	0.129942 
1207.438816  	0.136770 
1209.367632  	0.143199 
1211.296448  	0.148295 
1213.225264  	0.152640 
1215.154080  	0.155522 
1217.082896  	0.157303 
1219.011712  	0.157997 
1220.940528  	0.158547 
1222.869344  	0.157985 
1224.798160  	0.156602 
1226.726976  	0.154278 
1228.655792  	0.151611 
1230.584608  	0.148368 
1232.513424  	0.144674 
1234.442240  	0.140340 
1236.371056  	0.135587 
1238.299872  	0.130278 
1240.228688  	0.124275 
1242.157504  	0.118345 
1244.086320  	0.112658 
1246.015136  	0.106657 
1247.943952  	0.100667 
1249.872768  	0.094911 
1251.801584  	0.089564 
1253.730400  	0.084022 
1255.659216  	0.078746 
1257.588032  	0.073647 
1259.516848  	0.069001 
1261.445664  	0.064574 
1263.374480  	0.060577 
1265.303296  	0.057219 
1267.232112  	0.054500 
1269.160928  	0.052422 
1271.089744  	0.051055 
1273.018560  	0.050528 
1274.947376  	0.050708 
1276.876192  	0.051208 
1278.805008  	0.051496 
1280.733824  	0.051357 
1282.662640  	0.050338 
1284.591456  	0.048832 
1286.520272  	0.047392 
1288.449088  	0.046601 
1290.377904  	0.046674 
1292.306720  	0.047336 
1294.235536  	0.047905 
1296.164352  	0.047693 
1298.093168  	0.046434 
1300.021984  	0.044309 
1301.950800  	0.041975 
1303.879616  	0.039548 
1305.808432  	0.036932 
1307.737248  	0.034227 
1309.666064  	0.031725 
1311.594880  	0.029755 
1313.523696  	0.028424 
1315.452512  	0.027349 
1317.381328  	0.026751 
1319.310144  	0.026819 
1321.238960  	0.027209 
1323.167776  	0.027852 
1325.096592  	0.028470 
1327.025408  	0.028850 
1328.954224  	0.028684 
1330.883040  	0.028026 
1332.811856  	0.027010 
1334.740672  	0.025899 
1336.669488  	0.025115 
1338.598304  	0.025082 
1340.527120  	0.025080 
1342.455936  	0.024302 
1344.384752  	0.023919 
1346.313568  	0.024070 
1348.242384  	0.024694 
1350.171200  	0.025814 
1352.100016  	0.027227 
1354.028832  	0.028754 
1355.957648  	0.030489 
1357.886464  	0.031835 
1359.815280  	0.033143 
1361.744096  	0.035290 
1363.672912  	0.038256 
1365.601728  	0.039507 
1367.530544  	0.040626 
1369.459360  	0.042275 
1371.388176  	0.042527 
1373.316992  	0.042014 
1375.245808  	0.041384 
1377.174624  	0.039610 
1379.103440  	0.037627 
1381.032256  	0.035327 
1382.961072  	0.033388 
1384.889888  	0.031441 
1386.818704  	0.030578 
1388.747520  	0.029804 
1390.676336  	0.027624 
1392.605152  	0.024785 
1394.533968  	0.023572 
1396.462784  	0.024172 
1398.391600  	0.024059 
1400.320416  	0.024829 
1402.249232  	0.024393 
1404.178048  	0.024776 
1406.106864  	0.026151 
1408.035680  	0.027004 
1409.964496  	0.028116 
1411.893312  	0.030067 
1413.822128  	0.031449 
1415.750944  	0.032481 
1417.679760  	0.033270 
1419.608576  	0.035676 
1421.537392  	0.035694 
1423.466208  	0.034734 
1425.395024  	0.034188 
1427.323840  	0.031956 
1429.252656  	0.029908 
1431.181472  	0.028989 
1433.110288  	0.028126 
1435.039104  	0.026980 
1436.967920  	0.029435 
1438.896736  	0.031053 
1440.825552  	0.031040 
1442.754368  	0.031374 
1444.683184  	0.031054 
1446.612000  	0.030607 
1448.540816  	0.031394 
1450.469632  	0.031501 
1452.398448  	0.030926 
1454.327264  	0.029323 
1456.256080  	0.027957 
1458.184896  	0.031513 
1460.113712  	0.032334 
1462.042528  	0.030939 
1463.971344  	0.029843 
1465.900160  	0.032050 
1467.828976  	0.032872 
1469.757792  	0.032521 
1471.686608  	0.033464 
1473.615424  	0.040100 
1475.544240  	0.044856 
1477.473056  	0.049587 
1479.401872  	0.051925 
1481.330688  	0.054764 
1483.259504  	0.056816 
1485.188320  	0.057190 
1487.117136  	0.056786 
1489.045952  	0.057408 
1490.974768  	0.058451 
1492.903584  	0.056190 
1494.832400  	0.051606 
1496.761216  	0.047479 
1498.690032  	0.043907 
1500.618848  	0.040753 
1502.547664  	0.036056 
1504.476480  	0.029660 
1506.405296  	0.025782 
1508.334112  	0.030773 
1510.262928  	0.029426 
1512.191744  	0.027879 
1514.120560  	0.026224 
1516.049376  	0.025298 
1517.978192  	0.026602 
1519.907008  	0.025943 
1521.835824  	0.030224 
1523.764640  	0.034491 
1525.693456  	0.037201 
1527.622272  	0.040339 
1529.551088  	0.040755 
1531.479904  	0.038548 
1533.408720  	0.037002 
1535.337536  	0.035723 
1537.266352  	0.030317 
1539.195168  	0.023951 
1541.123984  	0.024389 
1543.052800  	0.026432 
1544.981616  	0.027458 
1546.910432  	0.026667 
1548.839248  	0.025185 
1550.768064  	0.025663 
1552.696880  	0.023857 
1554.625696  	0.023166 
1556.554512  	0.019841 
1558.483328  	0.018370 
1560.412144  	0.030372 
1562.340960  	0.030576 
1564.269776  	0.031219 
1566.198592  	0.034081 
1568.127408  	0.034646 
1570.056224  	0.040372 
1571.985040  	0.044611 
1573.913856  	0.044368 
1575.842672  	0.045730 
1577.771488  	0.051012 
1579.700304  	0.050728 
1581.629120  	0.049844 
1583.557936  	0.048881 
1585.486752  	0.048966 
1587.415568  	0.049966 
1589.344384  	0.052671 
1591.273200  	0.056257 
1593.202016  	0.060759 
1595.130832  	0.065996 
1597.059648  	0.072028 
1598.988464  	0.076594 
1600.917280  	0.080700 
1602.846096  	0.083904 
1604.774912  	0.086215 
1606.703728  	0.086395 
1608.632544  	0.086266 
1610.561360  	0.085201 
1612.490176  	0.083464 
1614.418992  	0.079379 
1616.347808  	0.078592 
1618.276624  	0.082618 
1620.205440  	0.083123 
1622.134256  	0.083328 
1624.063072  	0.089646 
1625.991888  	0.093826 
1627.920704  	0.099786 
1629.849520  	0.107451 
1631.778336  	0.112202 
1633.707152  	0.114149 
1635.635968  	0.122247 
1637.564784  	0.134528 
1639.493600  	0.139289 
1641.422416  	0.142992 
1643.351232  	0.144589 
1645.280048  	0.143582 
1647.208864  	0.148405 
1649.137680  	0.151210 
1651.066496  	0.146447 
1652.995312  	0.145480 
1654.924128  	0.154097 
1656.852944  	0.151541 
1658.781760  	0.149082 
1660.710576  	0.145800 
1662.639392  	0.143692 
1664.568208  	0.142094 
1666.497024  	0.137456 
1668.425840  	0.131983 
1670.354656  	0.129151 
1672.283472  	0.126039 
1674.212288  	0.121863 
1676.141104  	0.120880 
1678.069920  	0.118322 
1679.998736  	0.115797 
1681.927552  	0.112058 
1683.856368  	0.110160 
1685.785184  	0.115736 
1687.714000  	0.114899 
1689.642816  	0.115306 
1691.571632  	0.114884 
1693.500448  	0.111901 
1695.429264  	0.109486 
1697.358080  	0.109814 
1699.286896  	0.107701 
1701.215712  	0.111804 
1703.144528  	0.109280 
1705.073344  	0.106340 
1707.002160  	0.105084 
1708.930976  	0.102466 
1710.859792  	0.097862 
1712.788608  	0.091661 
1714.717424  	0.083472 
1716.646240  	0.074860 
1718.575056  	0.067694 
1720.503872  	0.060304 
1722.432688  	0.052209 
1724.361504  	0.044079 
1726.290320  	0.036754 
1728.219136  	0.029932 
1730.147952  	0.024044 
1732.076768  	0.017804 
1734.005584  	0.014920 
1735.934400  	0.013883 
1737.863216  	0.010181 
1739.792032  	0.007968 
1741.720848  	0.007287 
1743.649664  	0.006337 
1745.578480  	0.004608 
1747.507296  	0.002568 
1749.436112  	0.002275 
1751.364928  	0.003373 
1753.293744  	0.003161 
1755.222560  	0.001401 
1757.151376  	0.001795 
1759.080192  	0.001004 
1761.009008  	0.000187 
1762.937824  	0.000913 
1764.866640  	0.000363 
1766.795456  	-0.000660 
1768.724272  	-0.001011 
1770.653088  	-0.003742 
1772.581904  	-0.002778 
1774.510720  	-0.000877 
1776.439536  	-0.000709 
1778.368352  	-0.001392 
1780.297168  	-0.001598 
1782.225984  	-0.001358 
1784.154800  	-0.001199 
1786.083616  	-0.000978 
1788.012432  	-0.001934 
1789.941248  	-0.003337 
1791.870064  	-0.003262 
1793.798880  	-0.002058 
1795.727696  	-0.002040 
1797.656512  	-0.002973 
1799.585328  	-0.003563 
1801.514144  	-0.002187 
1803.442960  	-0.001995 
1805.371776  	-0.002785 
1807.300592  	-0.003011 
1809.229408  	-0.003476 
1811.158224  	-0.003193 
1813.087040  	-0.002857 
1815.015856  	-0.003281 
1816.944672  	-0.003287 
1818.873488  	-0.002993 
1820.802304  	-0.003166 
1822.731120  	-0.003741 
1824.659936  	-0.003942 
1826.588752  	-0.003895 
1828.517568  	-0.005263 
1830.446384  	-0.003923 
1832.375200  	-0.003244 
1834.304016  	-0.003294 
1836.232832  	-0.003308 
1838.161648  	-0.003356 
1840.090464  	-0.003780 
1842.019280  	-0.004804 
1843.948096  	-0.004626 
1845.876912  	-0.003335 
1847.805728  	-0.003047 
1849.734544  	-0.002892 
1851.663360  	-0.003736 
1853.592176  	-0.003852 
1855.520992  	-0.004037 
1857.449808  	-0.003738 
1859.378624  	-0.003405 
1861.307440  	-0.003139 
1863.236256  	-0.003751 
1865.165072  	-0.004748 
1867.093888  	-0.005614 
1869.022704  	-0.004376 
1870.951520  	-0.003514 
1872.880336  	-0.003908 
1874.809152  	-0.004156 
1876.737968  	-0.004236 
1878.666784  	-0.004136 
1880.595600  	-0.003958 
1882.524416  	-0.004253 
1884.453232  	-0.004343 
1886.382048  	-0.004611 
1888.310864  	-0.004685 
1890.239680  	-0.003802 
1892.168496  	-0.003868 
1894.097312  	-0.004655 
1896.026128  	-0.004197 
1897.954944  	-0.003705 
1899.883760  	-0.003852 
1901.812576  	-0.004061 
1903.741392  	-0.003896 
1905.670208  	-0.004204 
1907.599024  	-0.004243 
1909.527840  	-0.003792 
1911.456656  	-0.003400 
1913.385472  	-0.003595 
1915.314288  	-0.004493 
1917.243104  	-0.005365 
1919.171920  	-0.004160 
1921.100736  	-0.004232 
1923.029552  	-0.003727 
1924.958368  	-0.004554 
1926.887184  	-0.005442 
1928.816000  	-0.004994 
1930.744816  	-0.004424 
1932.673632  	-0.004944 
1934.602448  	-0.005517 
1936.531264  	-0.005818 
1938.460080  	-0.005614 
1940.388896  	-0.006067 
1942.317712  	-0.005066 
1944.246528  	-0.004893 
1946.175344  	-0.005324 
1948.104160  	-0.004924 
1950.032976  	-0.005194 
1951.961792  	-0.005872 
1953.890608  	-0.005094 
1955.819424  	-0.004950 
1957.748240  	-0.005616 
1959.677056  	-0.006517 
1961.605872  	-0.005891 
1963.534688  	-0.007018 
1965.463504  	-0.007642 
1967.392320  	-0.007470 
1969.321136  	-0.007112 
1971.249952  	-0.007296 
1973.178768  	-0.007668 
1975.107584  	-0.007737 
1977.036400  	-0.006726 
1978.965216  	-0.005360 
1980.894032  	-0.004227 
1982.822848  	-0.004560 
1984.751664  	-0.004282 
1986.680480  	-0.004495 
1988.609296  	-0.004892 
1990.538112  	-0.005793 
1992.466928  	-0.004797 
1994.395744  	-0.004875 
1996.324560  	-0.005592 
1998.253376  	-0.005758 
2000.182192  	-0.005220 
2002.111008  	-0.005482 
2004.039824  	-0.006092 
2005.968640  	-0.006506 
2007.897456  	-0.006311 
2009.826272  	-0.005884 
2011.755088  	-0.005564 
2013.683904  	-0.005687 
2015.612720  	-0.005398 
2017.541536  	-0.004197 
2019.470352  	-0.003016 
2021.399168  	-0.003465 
2023.327984  	-0.003243 
2025.256800  	-0.003704 
2027.185616  	-0.004127 
2029.114432  	-0.004603 
2031.043248  	-0.005159 
2032.972064  	-0.004372 
2034.900880  	-0.002953 
2036.829696  	-0.002800 
2038.758512  	-0.002136 
2040.687328  	-0.002382 
2042.616144  	-0.002416 
2044.544960  	-0.003219 
2046.473776  	-0.003695 
2048.402592  	-0.003312 
2050.331408  	-0.002655 
2052.260224  	-0.003139 
2054.189040  	-0.003519 
2056.117856  	-0.003252 
2058.046672  	-0.002585 
2059.975488  	-0.002715 
2061.904304  	-0.003148 
2063.833120  	-0.003282 
2065.761936  	-0.002773 
2067.690752  	-0.003200 
2069.619568  	-0.003467 
2071.548384  	-0.003557 
2073.477200  	-0.002826 
2075.406016  	-0.002259 
2077.334832  	-0.001975 
2079.263648  	-0.001771 
2081.192464  	-0.001542 
2083.121280  	-0.001984 
2085.050096  	-0.002620 
2086.978912  	-0.002886 
2088.907728  	-0.002711 
2090.836544  	-0.002724 
2092.765360  	-0.002874 
2094.694176  	-0.002919 
2096.622992  	-0.002538 
2098.551808  	-0.002423 
2100.480624  	-0.002711 
2102.409440  	-0.002793 
2104.338256  	-0.002601 
2106.267072  	-0.002009 
2108.195888  	-0.001657 
2110.124704  	-0.001910 
2112.053520  	-0.002017 
2113.982336  	-0.002140 
2115.911152  	-0.002007 
2117.839968  	-0.001706 
2119.768784  	-0.001772 
2121.697600  	-0.002638 
2123.626416  	-0.002679 
2125.555232  	-0.002950 
2127.484048  	-0.003503 
2129.412864  	-0.003737 
2131.341680  	-0.003646 
2133.270496  	-0.004500 
2135.199312  	-0.003976 
2137.128128  	-0.003388 
2139.056944  	-0.003427 
2140.985760  	-0.003421 
2142.914576  	-0.003196 
2144.843392  	-0.003018 
2146.772208  	-0.003159 
2148.701024  	-0.003539 
2150.629840  	-0.002334 
2152.558656  	-0.002340 
2154.487472  	-0.003232 
2156.416288  	-0.003450 
2158.345104  	-0.001445 
2160.273920  	0.000600 
2162.202736  	0.001614 
2164.131552  	0.000731 
2166.060368  	0.000154 
2167.989184  	-0.000731 
2169.918000  	-0.000625 
2171.846816  	0.000116 
2173.775632  	-0.000579 
2175.704448  	-0.000914 
2177.633264  	-0.000750 
2179.562080  	-0.001832 
2181.490896  	-0.001671 
2183.419712  	-0.000636 
2185.348528  	-0.000974 
2187.277344  	-0.001008 
2189.206160  	-0.000138 
2191.134976  	0.000246 
2193.063792  	0.000183 
2194.992608  	-0.000447 
2196.921424  	-0.000594 
2198.850240  	-0.000107 
2200.779056  	-0.000051 
2202.707872  	-0.000735 
2204.636688  	-0.000948 
2206.565504  	-0.001127 
2208.494320  	-0.000780 
2210.423136  	-0.001267 
2212.351952  	-0.001766 
2214.280768  	-0.001045 
2216.209584  	-0.000540 
2218.138400  	-0.001038 
2220.067216  	-0.001361 
2221.996032  	-0.001643 
2223.924848  	-0.001325 
2225.853664  	-0.001589 
2227.782480  	-0.001659 
2229.711296  	-0.001377 
2231.640112  	-0.001757 
2233.568928  	-0.002263 
2235.497744  	-0.002053 
2237.426560  	-0.001976 
2239.355376  	-0.002150 
2241.284192  	-0.002235 
2243.213008  	-0.002324 
2245.141824  	-0.002410 
2247.070640  	-0.001759 
2248.999456  	-0.001779 
2250.928272  	-0.002099 
2252.857088  	-0.002347 
2254.785904  	-0.002024 
2256.714720  	-0.001821 
2258.643536  	-0.002111 
2260.572352  	-0.002235 
2262.501168  	-0.002090 
2264.429984  	-0.001884 
2266.358800  	-0.001816 
2268.287616  	-0.001553 
2270.216432  	-0.001347 
2272.145248  	-0.001314 
2274.074064  	-0.001244 
2276.002880  	-0.001377 
2277.931696  	-0.001246 
2279.860512  	-0.000863 
2281.789328  	-0.000330 
2283.718144  	-0.000256 
2285.646960  	-0.000229 
2287.575776  	-0.000374 
2289.504592  	-0.000304 
2291.433408  	-0.000281 
2293.362224  	-0.000190 
2295.291040  	0.000048 
2297.219856  	0.000206 
2299.148672  	0.000358 
2301.077488  	0.000348 
2303.006304  	0.000364 
2304.935120  	0.000503 
2306.863936  	0.000834 
2308.792752  	0.000856 
2310.721568  	0.000710 
2312.650384  	0.000497 
2314.579200  	-0.000198 
2316.508016  	-0.000778 
2318.436832  	-0.001351 
2320.365648  	-0.001591 
2322.294464  	-0.001372 
2324.223280  	-0.002143 
2326.152096  	-0.004551 
2328.080912  	-0.005804 
2330.009728  	-0.006076 
2331.938544  	-0.006537 
2333.867360  	-0.007875 
2335.796176  	-0.008629 
2337.724992  	-0.008739 
2339.653808  	-0.008801 
2341.582624  	-0.008459 
2343.511440  	-0.006890 
2345.440256  	-0.004266 
2347.369072  	-0.002672 
2349.297888  	-0.003897 
2351.226704  	-0.006206 
2353.155520  	-0.008392 
2355.084336  	-0.010200 
2357.013152  	-0.011297 
2358.941968  	-0.011553 
2360.870784  	-0.010936 
2362.799600  	-0.009687 
2364.728416  	-0.008831 
2366.657232  	-0.007799 
2368.586048  	-0.006004 
2370.514864  	-0.004092 
2372.443680  	-0.002560 
2374.372496  	-0.001270 
2376.301312  	0.000009 
2378.230128  	0.001091 
2380.158944  	0.001406 
2382.087760  	0.001161 
2384.016576  	0.000703 
2385.945392  	0.000004 
2387.874208  	-0.000397 
2389.803024  	-0.000465 
2391.731840  	-0.000523 
2393.660656  	-0.000681 
2395.589472  	-0.000640 
2397.518288  	-0.000660 
2399.447104  	-0.000695 
2401.375920  	-0.000422 
2403.304736  	-0.000295 
2405.233552  	-0.000313 
2407.162368  	-0.000006 
2409.091184  	0.000241 
2411.020000  	-0.000022 
2412.948816  	-0.000314 
2414.877632  	-0.000107 
2416.806448  	0.000118 
2418.735264  	-0.000033 
2420.664080  	-0.000004 
2422.592896  	0.000015 
2424.521712  	0.000084 
2426.450528  	0.000329 
2428.379344  	0.000587 
2430.308160  	0.000613 
2432.236976  	0.000527 
2434.165792  	0.000568 
2436.094608  	0.000870 
2438.023424  	0.000977 
2439.952240  	0.000910 
2441.881056  	0.000946 
2443.809872  	0.001025 
2445.738688  	0.001113 
2447.667504  	0.001404 
2449.596320  	0.001610 
2451.525136  	0.001674 
2453.453952  	0.001537 
2455.382768  	0.001639 
2457.311584  	0.001875 
2459.240400  	0.001796 
2461.169216  	0.001780 
2463.098032  	0.001862 
2465.026848  	0.001876 
2466.955664  	0.001892 
2468.884480  	0.002095 
2470.813296  	0.002236 
2472.742112  	0.002253 
2474.670928  	0.002274 
2476.599744  	0.002265 
2478.528560  	0.002573 
2480.457376  	0.002584 
2482.386192  	0.002336 
2484.315008  	0.002427 
2486.243824  	0.002533 
2488.172640  	0.002747 
2490.101456  	0.003157 
2492.030272  	0.003108 
2493.959088  	0.002889 
2495.887904  	0.003081 
2497.816720  	0.003472 
2499.745536  	0.003554 
2501.674352  	0.003660 
2503.603168  	0.003739 
2505.531984  	0.003869 
2507.460800  	0.004049 
2509.389616  	0.003998 
2511.318432  	0.003766 
2513.247248  	0.003761 
2515.176064  	0.003713 
2517.104880  	0.003808 
2519.033696  	0.004232 
2520.962512  	0.004320 
2522.891328  	0.004451 
2524.820144  	0.004788 
2526.748960  	0.004742 
2528.677776  	0.004622 
2530.606592  	0.004806 
2532.535408  	0.004818 
2534.464224  	0.004598 
2536.393040  	0.004488 
2538.321856  	0.004538 
2540.250672  	0.004644 
2542.179488  	0.004911 
2544.108304  	0.005170 
2546.037120  	0.005185 
2547.965936  	0.005221 
2549.894752  	0.005094 
2551.823568  	0.005017 
2553.752384  	0.004958 
2555.681200  	0.005057 
2557.610016  	0.005283 
2559.538832  	0.005477 
2561.467648  	0.005645 
2563.396464  	0.005691 
2565.325280  	0.005715 
2567.254096  	0.005892 
2569.182912  	0.005998 
2571.111728  	0.006214 
2573.040544  	0.006448 
2574.969360  	0.006696 
2576.898176  	0.006986 
2578.826992  	0.007128 
2580.755808  	0.006952 
2582.684624  	0.006875 
2584.613440  	0.006916 
2586.542256  	0.006932 
2588.471072  	0.006842 
2590.399888  	0.006959 
2592.328704  	0.007130 
2594.257520  	0.007276 
2596.186336  	0.007278 
2598.115152  	0.007229 
2600.043968  	0.007391 
2601.972784  	0.007562 
2603.901600  	0.007620 
2605.830416  	0.007644 
2607.759232  	0.007728 
2609.688048  	0.007793 
2611.616864  	0.007869 
2613.545680  	0.008078 
2615.474496  	0.008354 
2617.403312  	0.008493 
2619.332128  	0.008537 
2621.260944  	0.008659 
2623.189760  	0.008861 
2625.118576  	0.008946 
2627.047392  	0.009017 
2628.976208  	0.009173 
2630.905024  	0.009213 
2632.833840  	0.009435 
2634.762656  	0.009688 
2636.691472  	0.009751 
2638.620288  	0.009979 
2640.549104  	0.010284 
2642.477920  	0.010379 
2644.406736  	0.010327 
2646.335552  	0.010388 
2648.264368  	0.010609 
2650.193184  	0.010712 
2652.122000  	0.010854 
2654.050816  	0.010992 
2655.979632  	0.011033 
2657.908448  	0.011158 
2659.837264  	0.011218 
2661.766080  	0.011323 
2663.694896  	0.011392 
2665.623712  	0.011295 
2667.552528  	0.011480 
2669.481344  	0.011730 
2671.410160  	0.011886 
2673.338976  	0.011977 
2675.267792  	0.012035 
2677.196608  	0.012194 
2679.125424  	0.012344 
2681.054240  	0.012491 
2682.983056  	0.012612 
2684.911872  	0.012666 
2686.840688  	0.012731 
2688.769504  	0.012909 
2690.698320  	0.013081 
2692.627136  	0.013216 
2694.555952  	0.013329 
2696.484768  	0.013433 
2698.413584  	0.013537 
2700.342400  	0.013586 
2702.271216  	0.013721 
2704.200032  	0.013934 
2706.128848  	0.014042 
2708.057664  	0.014126 
2709.986480  	0.014247 
2711.915296  	0.014337 
2713.844112  	0.014483 
2715.772928  	0.014599 
2717.701744  	0.014637 
2719.630560  	0.014668 
2721.559376  	0.014876 
2723.488192  	0.015085 
2725.417008  	0.015282 
2727.345824  	0.015478 
2729.274640  	0.015551 
2731.203456  	0.015665 
2733.132272  	0.015915 
2735.061088  	0.016147 
2736.989904  	0.016212 
2738.918720  	0.016291 
2740.847536  	0.016375 
2742.776352  	0.016453 
2744.705168  	0.016546 
2746.633984  	0.016660 
2748.562800  	0.016768 
2750.491616  	0.016971 
2752.420432  	0.017121 
2754.349248  	0.017083 
2756.278064  	0.016998 
2758.206880  	0.017005 
2760.135696  	0.017085 
2762.064512  	0.017197 
2763.993328  	0.017211 
2765.922144  	0.017149 
2767.850960  	0.017221 
2769.779776  	0.017345 
2771.708592  	0.017345 
2773.637408  	0.017248 
2775.566224  	0.017221 
2777.495040  	0.017266 
2779.423856  	0.017310 
2781.352672  	0.017357 
2783.281488  	0.017358 
2785.210304  	0.017440 
2787.139120  	0.017559 
2789.067936  	0.017518 
2790.996752  	0.017426 
2792.925568  	0.017451 
2794.854384  	0.017422 
2796.783200  	0.017391 
2798.712016  	0.017505 
2800.640832  	0.017724 
2802.569648  	0.017724 
2804.498464  	0.017605 
2806.427280  	0.017615 
2808.356096  	0.017643 
2810.284912  	0.017715 
2812.213728  	0.017717 
2814.142544  	0.017722 
2816.071360  	0.017746 
2818.000176  	0.017824 
2819.928992  	0.017785 
2821.857808  	0.017804 
2823.786624  	0.017915 
2825.715440  	0.017898 
2827.644256  	0.017737 
2829.573072  	0.017656 
2831.501888  	0.017658 
2833.430704  	0.017616 
2835.359520  	0.017505 
2837.288336  	0.017522 
2839.217152  	0.017543 
2841.145968  	0.017341 
2843.074784  	0.017260 
2845.003600  	0.017335 
2846.932416  	0.017485 
2848.861232  	0.017533 
2850.790048  	0.017386 
2852.718864  	0.017365 
2854.647680  	0.017510 
2856.576496  	0.017518 
2858.505312  	0.017441 
2860.434128  	0.017480 
2862.362944  	0.017536 
2864.291760  	0.017460 
2866.220576  	0.017384 
2868.149392  	0.017484 
2870.078208  	0.017583 
2872.007024  	0.017727 
2873.935840  	0.018068 
2875.864656  	0.018419 
2877.793472  	0.018681 
2879.722288  	0.018897 
2881.651104  	0.019182 
2883.579920  	0.019281 
2885.508736  	0.019369 
2887.437552  	0.019463 
2889.366368  	0.019365 
2891.295184  	0.019327 
2893.224000  	0.019331 
2895.152816  	0.019344 
2897.081632  	0.019021 
2899.010448  	0.018377 
2900.939264  	0.017915 
2902.868080  	0.018095 
2904.796896  	0.018375 
2906.725712  	0.018570 
2908.654528  	0.018711 
2910.583344  	0.018920 
2912.512160  	0.019457 
2914.440976  	0.019912 
2916.369792  	0.020225 
2918.298608  	0.020644 
2920.227424  	0.021094 
2922.156240  	0.021406 
2924.085056  	0.021718 
2926.013872  	0.022265 
2927.942688  	0.022856 
2929.871504  	0.023436 
2931.800320  	0.023856 
2933.729136  	0.024333 
2935.657952  	0.024800 
2937.586768  	0.025159 
2939.515584  	0.025465 
2941.444400  	0.025813 
2943.373216  	0.026116 
2945.302032  	0.026173 
2947.230848  	0.026093 
2949.159664  	0.026060 
2951.088480  	0.025904 
2953.017296  	0.025635 
2954.946112  	0.025372 
2956.874928  	0.025165 
2958.803744  	0.024664 
2960.732560  	0.024012 
2962.661376  	0.023440 
2964.590192  	0.023048 
2966.519008  	0.022508 
2968.447824  	0.021720 
2970.376640  	0.020895 
2972.305456  	0.020249 
2974.234272  	0.019738 
2976.163088  	0.019104 
2978.091904  	0.018522 
2980.020720  	0.018304 
2981.949536  	0.018392 
2983.878352  	0.018401 
2985.807168  	0.018216 
2987.735984  	0.018303 
2989.664800  	0.018683 
2991.593616  	0.019461 
2993.522432  	0.019954 
2995.451248  	0.020234 
2997.380064  	0.020738 
2999.308880  	0.021266 
3001.237696  	0.021713 
3003.166512  	0.022039 
3005.095328  	0.022382 
3007.024144  	0.022792 
3008.952960  	0.023221 
3010.881776  	0.023491 
3012.810592  	0.023803 
3014.739408  	0.024202 
3016.668224  	0.024430 
3018.597040  	0.024673 
3020.525856  	0.024988 
3022.454672  	0.025366 
3024.383488  	0.025702 
3026.312304  	0.025939 
3028.241120  	0.026152 
3030.169936  	0.026491 
3032.098752  	0.026970 
3034.027568  	0.027173 
3035.956384  	0.027351 
3037.885200  	0.027527 
3039.814016  	0.027807 
3041.742832  	0.028002 
3043.671648  	0.028199 
3045.600464  	0.028735 
3047.529280  	0.029087 
3049.458096  	0.029247 
3051.386912  	0.029372 
3053.315728  	0.029557 
3055.244544  	0.029726 
3057.173360  	0.030325 
3059.102176  	0.030772 
3061.030992  	0.031000 
3062.959808  	0.031260 
3064.888624  	0.031677 
3066.817440  	0.032166 
3068.746256  	0.032551 
3070.675072  	0.032926 
3072.603888  	0.033421 
3074.532704  	0.033774 
3076.461520  	0.033968 
3078.390336  	0.034342 
3080.319152  	0.034848 
3082.247968  	0.035324 
3084.176784  	0.035704 
3086.105600  	0.036065 
3088.034416  	0.036531 
3089.963232  	0.036939 
3091.892048  	0.037259 
3093.820864  	0.037577 
3095.749680  	0.038046 
3097.678496  	0.038501 
3099.607312  	0.038931 
3101.536128  	0.039478 
3103.464944  	0.039844 
3105.393760  	0.040289 
3107.322576  	0.040719 
3109.251392  	0.041115 
3111.180208  	0.041444 
3113.109024  	0.041470 
3115.037840  	0.041518 
3116.966656  	0.041977 
3118.895472  	0.042376 
3120.824288  	0.042480 
3122.753104  	0.042735 
3124.681920  	0.042909 
3126.610736  	0.043244 
3128.539552  	0.043616 
3130.468368  	0.043676 
3132.397184  	0.043857 
3134.326000  	0.044060 
3136.254816  	0.044113 
3138.183632  	0.044364 
3140.112448  	0.044785 
3142.041264  	0.045120 
3143.970080  	0.045354 
3145.898896  	0.045569 
3147.827712  	0.045711 
3149.756528  	0.046016 
3151.685344  	0.046287 
3153.614160  	0.046581 
3155.542976  	0.046851 
3157.471792  	0.047189 
3159.400608  	0.047623 
3161.329424  	0.047851 
3163.258240  	0.048121 
3165.187056  	0.048383 
3167.115872  	0.048476 
3169.044688  	0.048851 
3170.973504  	0.049234 
3172.902320  	0.049130 
3174.831136  	0.049019 
3176.759952  	0.049252 
3178.688768  	0.049621 
3180.617584  	0.049825 
3182.546400  	0.049636 
3184.475216  	0.049635 
3186.404032  	0.049794 
3188.332848  	0.049788 
3190.261664  	0.049610 
3192.190480  	0.049376 
3194.119296  	0.049155 
3196.048112  	0.049112 
3197.976928  	0.049264 
3199.905744  	0.049221 
3201.834560  	0.048830 
3203.763376  	0.048643 
3205.692192  	0.048491 
3207.621008  	0.047908 
3209.549824  	0.047589 
3211.478640  	0.047410 
3213.407456  	0.047252 
3215.336272  	0.047290 
3217.265088  	0.046836 
3219.193904  	0.046530 
3221.122720  	0.046493 
3223.051536  	0.046291 
3224.980352  	0.045946 
3226.909168  	0.045558 
3228.837984  	0.045269 
3230.766800  	0.045043 
3232.695616  	0.044700 
3234.624432  	0.044477 
3236.553248  	0.044434 
3238.482064  	0.044435 
3240.410880  	0.044482 
3242.339696  	0.044306 
3244.268512  	0.044161 
3246.197328  	0.044574 
3248.126144  	0.044563 
3250.054960  	0.044486 
3251.983776  	0.044404 
3253.912592  	0.044784 
3255.841408  	0.045211 
3257.770224  	0.045446 
3259.699040  	0.045622 
3261.627856  	0.045883 
3263.556672  	0.045887 
3265.485488  	0.045976 
3267.414304  	0.046038 
3269.343120  	0.046091 
3271.271936  	0.046240 
3273.200752  	0.046472 
3275.129568  	0.046832 
3277.058384  	0.047141 
3278.987200  	0.047174 
3280.916016  	0.047306 
3282.844832  	0.047564 
3284.773648  	0.047450 
3286.702464  	0.047242 
3288.631280  	0.047318 
3290.560096  	0.047553 
3292.488912  	0.048125 
3294.417728  	0.048460 
3296.346544  	0.048479 
3298.275360  	0.049001 
3300.204176  	0.049176 
3302.132992  	0.049484 
3304.061808  	0.049874 
3305.990624  	0.049912 
3307.919440  	0.050251 
3309.848256  	0.050712 
3311.777072  	0.050930 
3313.705888  	0.051050 
3315.634704  	0.051221 
3317.563520  	0.051726 
3319.492336  	0.052214 
3321.421152  	0.052341 
3323.349968  	0.052577 
3325.278784  	0.052880 
3327.207600  	0.053119 
3329.136416  	0.053117 
3331.065232  	0.053072 
3332.994048  	0.053185 
3334.922864  	0.053464 
3336.851680  	0.053872 
3338.780496  	0.053858 
3340.709312  	0.053634 
3342.638128  	0.053630 
3344.566944  	0.053491 
3346.495760  	0.053293 
3348.424576  	0.052987 
3350.353392  	0.052916 
3352.282208  	0.052792 
3354.211024  	0.052592 
3356.139840  	0.052339 
3358.068656  	0.052056 
3359.997472  	0.051734 
3361.926288  	0.051577 
3363.855104  	0.051286 
3365.783920  	0.051294 
3367.712736  	0.051125 
3369.641552  	0.050746 
3371.570368  	0.050573 
3373.499184  	0.050333 
3375.428000  	0.049993 
3377.356816  	0.049954 
3379.285632  	0.050099 
3381.214448  	0.049918 
3383.143264  	0.049454 
3385.072080  	0.049364 
3387.000896  	0.049059 
3388.929712  	0.048585 
3390.858528  	0.048030 
3392.787344  	0.048186 
3394.716160  	0.048053 
3396.644976  	0.047864 
3398.573792  	0.047809 
3400.502608  	0.047451 
3402.431424  	0.047334 
3404.360240  	0.047138 
3406.289056  	0.046800 
3408.217872  	0.046399 
3410.146688  	0.046023 
3412.075504  	0.045885 
3414.004320  	0.045834 
3415.933136  	0.045404 
3417.861952  	0.044828 
3419.790768  	0.044670 
3421.719584  	0.044721 
3423.648400  	0.044248 
3425.577216  	0.043812 
3427.506032  	0.043453 
3429.434848  	0.043121 
3431.363664  	0.043058 
3433.292480  	0.042758 
3435.221296  	0.042142 
3437.150112  	0.041743 
3439.078928  	0.041533 
3441.007744  	0.041258 
3442.936560  	0.041126 
3444.865376  	0.040250 
3446.794192  	0.040367 
3448.723008  	0.040934 
3450.651824  	0.039777 
3452.580640  	0.038971 
3454.509456  	0.038751 
3456.438272  	0.038528 
3458.367088  	0.037915 
3460.295904  	0.037468 
3462.224720  	0.037279 
3464.153536  	0.036705 
3466.082352  	0.035883 
3468.011168  	0.035442 
3469.939984  	0.034802 
3471.868800  	0.034120 
3473.797616  	0.033719 
3475.726432  	0.033474 
3477.655248  	0.032635 
3479.584064  	0.031682 
3481.512880  	0.031545 
3483.441696  	0.031538 
3485.370512  	0.030711 
3487.299328  	0.030117 
3489.228144  	0.029622 
3491.156960  	0.028829 
3493.085776  	0.028015 
3495.014592  	0.027290 
3496.943408  	0.027203 
3498.872224  	0.026414 
3500.801040  	0.025172 
3502.729856  	0.025664 
3504.658672  	0.026412 
3506.587488  	0.025232 
3508.516304  	0.024423 
3510.445120  	0.024852 
3512.373936  	0.024322 
3514.302752  	0.023311 
3516.231568  	0.022343 
3518.160384  	0.021872 
3520.089200  	0.020967 
3522.018016  	0.020323 
3523.946832  	0.021072 
3525.875648  	0.020410 
3527.804464  	0.020153 
3529.733280  	0.020484 
3531.662096  	0.019953 
3533.590912  	0.018648 
3535.519728  	0.018215 
3537.448544  	0.018652 
3539.377360  	0.017661 
3541.306176  	0.016572 
3543.234992  	0.015776 
3545.163808  	0.016735 
3547.092624  	0.017816 
3549.021440  	0.016150 
3550.950256  	0.014340 
3552.879072  	0.015263 
3554.807888  	0.015107 
3556.736704  	0.013901 
3558.665520  	0.013308 
3560.594336  	0.013102 
3562.523152  	0.011706 
3564.451968  	0.009653 
3566.380784  	0.011250 
3568.309600  	0.015447 
3570.238416  	0.013415 
3572.167232  	0.010770 
3574.096048  	0.009704 
3576.024864  	0.009328 
3577.953680  	0.008976 
3579.882496  	0.008848 
3581.811312  	0.008146 
3583.740128  	0.005730 
3585.668944  	0.003919 
3587.597760  	0.007732 
3589.526576  	0.008874 
3591.455392  	0.004934 
3593.384208  	0.003405 
3595.313024  	0.004439 
3597.241840  	0.003946 
3599.170656  	0.002537 
3601.099472  	0.003169 
3603.028288  	0.002685 
3604.957104  	0.000099 
3606.885920  	-0.000966 
3608.814736  	0.000781 
3610.743552  	-0.000778 
3612.672368  	-0.001848 
3614.601184  	-0.001342 
3616.530000  	-0.004422 
3618.458816  	-0.004446 
3620.387632  	-0.001001 
3622.316448  	-0.002252 
3624.245264  	-0.005547 
3626.174080  	-0.009953 
3628.102896  	-0.010117 
3630.031712  	-0.001724 
3631.960528  	-0.004726 
3633.889344  	-0.005952 
3635.818160  	-0.006408 
3637.746976  	-0.007799 
3639.675792  	-0.008427 
3641.604608  	-0.009239 
3643.533424  	-0.010722 
3645.462240  	-0.014926 
3647.391056  	-0.016814 
3649.319872  	-0.012556 
3651.248688  	-0.006295 
3653.177504  	-0.010396 
3655.106320  	-0.013553 
3657.035136  	-0.010485 
3658.963952  	-0.010883 
3660.892768  	-0.011792 
3662.821584  	-0.012539 
3664.750400  	-0.013741 
3666.679216  	-0.016859 
3668.608032  	-0.019280 
3670.536848  	-0.014067 
3672.465664  	-0.016269 
3674.394480  	-0.019818 
3676.323296  	-0.011044 
3678.252112  	-0.012266 
3680.180928  	-0.012635 
3682.109744  	-0.013105 
3684.038560  	-0.014486 
3685.967376  	-0.017635 
3687.896192  	-0.018877 
3689.825008  	-0.014883 
3691.753824  	-0.012142 
3693.682640  	-0.012574 
3695.611456  	-0.013400 
3697.540272  	-0.013586 
3699.469088  	-0.015342 
3701.397904  	-0.014480 
3703.326720  	-0.012518 
3705.255536  	-0.013959 
3707.184352  	-0.016457 
3709.113168  	-0.018371 
3711.041984  	-0.015648 
3712.970800  	-0.010428 
3714.899616  	-0.011319 
3716.828432  	-0.013817 
3718.757248  	-0.014377 
3720.686064  	-0.015036 
3722.614880  	-0.014632 
3724.543696  	-0.014312 
3726.472512  	-0.013064 
3728.401328  	-0.013872 
3730.330144  	-0.018025 
3732.258960  	-0.019125 
3734.187776  	-0.017507 
3736.116592  	-0.011604 
3738.045408  	-0.011458 
3739.974224  	-0.014637 
3741.903040  	-0.018711 
3743.831856  	-0.018077 
3745.760672  	-0.012239 
3747.689488  	-0.018130 
3749.618304  	-0.019116 
3751.547120  	-0.013245 
3753.475936  	-0.010173 
3755.404752  	-0.013657 
3757.333568  	-0.014879 
3759.262384  	-0.012947 
3761.191200  	-0.011038 
3763.120016  	-0.013627 
3765.048832  	-0.013308 
3766.977648  	-0.012879 
3768.906464  	-0.013643 
3770.835280  	-0.010683 
3772.764096  	-0.010977 
3774.692912  	-0.012335 
3776.621728  	-0.014043 
3778.550544  	-0.014241 
3780.479360  	-0.011181 
3782.408176  	-0.012491 
3784.336992  	-0.012743 
3786.265808  	-0.011405 
3788.194624  	-0.011662 
3790.123440  	-0.012307 
3792.052256  	-0.012848 
3793.981072  	-0.014689 
3795.909888  	-0.014790 
3797.838704  	-0.014544 
3799.767520  	-0.017834 
3801.696336  	-0.013399 
3803.625152  	-0.012206 
3805.553968  	-0.015856 
3807.482784  	-0.011684 
3809.411600  	-0.010972 
3811.340416  	-0.012853 
3813.269232  	-0.016039 
3815.198048  	-0.016734 
3817.126864  	-0.013276 
3819.055680  	-0.017658 
3820.984496  	-0.014803 
3822.913312  	-0.010435 
3824.842128  	-0.013823 
3826.770944  	-0.013337 
3828.699760  	-0.013697 
3830.628576  	-0.015162 
3832.557392  	-0.014860 
3834.486208  	-0.016229 
3836.415024  	-0.017258 
3838.343840  	-0.014966 
3840.272656  	-0.012682 
3842.201472  	-0.012932 
3844.130288  	-0.011880 
3846.059104  	-0.012157 
3847.987920  	-0.014771 
3849.916736  	-0.018493 
3851.845552  	-0.021486 
3853.774368  	-0.011254 
3855.703184  	-0.008418 
3857.632000  	-0.011410 
3859.560816  	-0.014035 
3861.489632  	-0.015260 
3863.418448  	-0.014503 
3865.347264  	-0.011777 
3867.276080  	-0.014968 
3869.204896  	-0.015773 
3871.133712  	-0.011509 
3873.062528  	-0.013446 
3874.991344  	-0.010895 
3876.920160  	-0.013077 
3878.848976  	-0.015434 
3880.777792  	-0.012216 
3882.706608  	-0.012784 
3884.635424  	-0.013998 
3886.564240  	-0.009769 
3888.493056  	-0.013176 
3890.421872  	-0.014597 
3892.350688  	-0.010961 
3894.279504  	-0.011131 
3896.208320  	-0.014039 
3898.137136  	-0.015433 
3900.065952  	-0.013956 
3901.994768  	-0.013120 
3903.923584  	-0.011026 
3905.852400  	-0.009428 
3907.781216  	-0.011112 
3909.710032  	-0.012354 
3911.638848  	-0.012406 
3913.567664  	-0.012978 
3915.496480  	-0.013457 
3917.425296  	-0.011787 
3919.354112  	-0.011561 
3921.282928  	-0.012362 
3923.211744  	-0.013023 
3925.140560  	-0.011313 
3927.069376  	-0.011937 
3928.998192  	-0.013422 
3930.927008  	-0.012665 
3932.855824  	-0.010695 
3934.784640  	-0.011092 
3936.713456  	-0.012085 
3938.642272  	-0.012176 
3940.571088  	-0.012975 
3942.499904  	-0.011834 
3944.428720  	-0.011271 
3946.357536  	-0.012627 
3948.286352  	-0.012147 
3950.215168  	-0.011555 
3952.143984  	-0.012086 
3954.072800  	-0.012439 
3956.001616  	-0.012269 
3957.930432  	-0.012152 
3959.859248  	-0.012335 
3961.788064  	-0.012017 
3963.716880  	-0.011646 
3965.645696  	-0.012095 
3967.574512  	-0.012393 
3969.503328  	-0.012196 
3971.432144  	-0.012271 
3973.360960  	-0.012302 
3975.289776  	-0.011819 
3977.218592  	-0.011705 
3979.147408  	-0.012104 
3981.076224  	-0.012314 
3983.005040  	-0.012186 
3984.933856  	-0.012176 
3986.862672  	-0.012322 
3988.791488  	-0.012392 
3990.720304  	-0.012147 
3992.649120  	-0.012164 
3994.577936  	-0.012097 
3996.506752  	-0.012074 
3998.435568  	-0.012108 
4000.364384  	-0.012285 