##TITLE=No Description
##DATA TYPE=INFRARED SPECTRUM
##XUNITS=1/CM
##YUNITS=Abs
399.264912  	0.548224 
401.193728  	0.542952 
403.122544  	0.534662 
405.051360  	0.534557 
406.980176  	0.533638 
408.908992  	0.503692 
410.837808  	0.503274 
412.766624  	0.513520 
414.695440  	0.522693 
416.624256  	0.543093 
418.553072  	0.558598 
420.481888  	0.521328 
422.410704  	0.509125 
424.339520  	0.509983 
426.268336  	0.515267 
428.197152  	0.504545 
430.125968  	0.493597 
432.054784  	0.480840 
433.983600  	0.482368 
435.912416  	0.484239 
437.841232  	0.488690 
439.770048  	0.484387 
441.698864  	0.475899 
443.627680  	0.466686 
445.556496  	0.470564 
447.485312  	0.472650 
449.414128  	0.476484 
451.342944  	0.474549 
453.271760  	0.470485 
455.200576  	0.464377 
457.129392  	0.467208 
459.058208  	0.469454 
460.987024  	0.471721 
462.915840  	0.473369 
464.844656  	0.481933 
466.773472  	0.476120 
468.702288  	0.467048 
470.631104  	0.465530 
472.559920  	0.467175 
474.488736  	0.465077 
476.417552  	0.468659 
478.346368  	0.466736 
480.275184  	0.465052 
482.204000  	0.462532 
484.132816  	0.460835 
486.061632  	0.461909 
487.990448  	0.464714 
489.919264  	0.459887 
491.848080  	0.460275 
493.776896  	0.459703 
495.705712  	0.456006 
497.634528  	0.453994 
499.563344  	0.456146 
501.492160  	0.454673 
503.420976  	0.451476 
505.349792  	0.447303 
507.278608  	0.448737 
509.207424  	0.450242 
511.136240  	0.453009 
513.065056  	0.453635 
514.993872  	0.453696 
516.922688  	0.451647 
518.851504  	0.453176 
520.780320  	0.452580 
522.709136  	0.454773 
524.637952  	0.455161 
526.566768  	0.455295 
528.495584  	0.451867 
530.424400  	0.449145 
532.353216  	0.446149 
534.282032  	0.441987 
536.210848  	0.435360 
538.139664  	0.430204 
540.068480  	0.424960 
541.997296  	0.420670 
543.926112  	0.416519 
545.854928  	0.414293 
547.783744  	0.410064 
549.712560  	0.408197 
551.641376  	0.406748 
553.570192  	0.404340 
555.499008  	0.400748 
557.427824  	0.398277 
559.356640  	0.394924 
561.285456  	0.392400 
563.214272  	0.388475 
565.143088  	0.384243 
567.071904  	0.380257 
569.000720  	0.378331 
570.929536  	0.374605 
572.858352  	0.371759 
574.787168  	0.368504 
576.715984  	0.366932 
578.644800  	0.364540 
580.573616  	0.361248 
582.502432  	0.356424 
584.431248  	0.351035 
586.360064  	0.346085 
588.288880  	0.343028 
590.217696  	0.340582 
592.146512  	0.338897 
594.075328  	0.337610 
596.004144  	0.336875 
597.932960  	0.334906 
599.861776  	0.333067 
601.790592  	0.331359 
603.719408  	0.330469 
605.648224  	0.328961 
607.577040  	0.327409 
609.505856  	0.325394 
611.434672  	0.324382 
613.363488  	0.323028 
615.292304  	0.322207 
617.221120  	0.320536 
619.149936  	0.319027 
621.078752  	0.317282 
623.007568  	0.317330 
624.936384  	0.316938 
626.865200  	0.316070 
628.794016  	0.314719 
630.722832  	0.313993 
632.651648  	0.314091 
634.580464  	0.314256 
636.509280  	0.313910 
638.438096  	0.313120 
640.366912  	0.313125 
642.295728  	0.312213 
644.224544  	0.309181 
646.153360  	0.305799 
648.082176  	0.301942 
650.010992  	0.299101 
651.939808  	0.295258 
653.868624  	0.291723 
655.797440  	0.288155 
657.726256  	0.285122 
659.655072  	0.281032 
661.583888  	0.277473 
663.512704  	0.274018 
665.441520  	0.269525 
667.370336  	0.262880 
669.299152  	0.258476 
671.227968  	0.256275 
673.156784  	0.253171 
675.085600  	0.250752 
677.014416  	0.248506 
678.943232  	0.245888 
680.872048  	0.244487 
682.800864  	0.243321 
684.729680  	0.241752 
686.658496  	0.240491 
688.587312  	0.240079 
690.516128  	0.238287 
692.444944  	0.236771 
694.373760  	0.235965 
696.302576  	0.234985 
698.231392  	0.232763 
700.160208  	0.230592 
702.089024  	0.228634 
704.017840  	0.226525 
705.946656  	0.224340 
707.875472  	0.222385 
709.804288  	0.220195 
711.733104  	0.218377 
713.661920  	0.216932 
715.590736  	0.216072 
717.519552  	0.215686 
719.448368  	0.215845 
721.377184  	0.216823 
723.306000  	0.217533 
725.234816  	0.217497 
727.163632  	0.216690 
729.092448  	0.214633 
731.021264  	0.211577 
732.950080  	0.208085 
734.878896  	0.204896 
736.807712  	0.201529 
738.736528  	0.199270 
740.665344  	0.197473 
742.594160  	0.196390 
744.522976  	0.195215 
746.451792  	0.194238 
748.380608  	0.193050 
750.309424  	0.191822 
752.238240  	0.190805 
754.167056  	0.190423 
756.095872  	0.189595 
758.024688  	0.188196 
759.953504  	0.188019 
761.882320  	0.189098 
763.811136  	0.189983 
765.739952  	0.188425 
767.668768  	0.185630 
769.597584  	0.183349 
771.526400  	0.182747 
773.455216  	0.184094 
775.384032  	0.187738 
777.312848  	0.193525 
779.241664  	0.197229 
781.170480  	0.196298 
783.099296  	0.191340 
785.028112  	0.185839 
786.956928  	0.180499 
788.885744  	0.176117 
790.814560  	0.172573 
792.743376  	0.170437 
794.672192  	0.169726 
796.601008  	0.168832 
798.529824  	0.165741 
800.458640  	0.161733 
802.387456  	0.158399 
804.316272  	0.156509 
806.245088  	0.155507 
808.173904  	0.155069 
810.102720  	0.154961 
812.031536  	0.155001 
813.960352  	0.155399 
815.889168  	0.156193 
817.817984  	0.157198 
819.746800  	0.157746 
821.675616  	0.158511 
823.604432  	0.159847 
825.533248  	0.161041 
827.462064  	0.161551 
829.390880  	0.161486 
831.319696  	0.161205 
833.248512  	0.160013 
835.177328  	0.158410 
837.106144  	0.155686 
839.034960  	0.152812 
840.963776  	0.149611 
842.892592  	0.146005 
844.821408  	0.142066 
846.750224  	0.138402 
848.679040  	0.135686 
850.607856  	0.133807 
852.536672  	0.132597 
854.465488  	0.131641 
856.394304  	0.130860 
858.323120  	0.129744 
860.251936  	0.128221 
862.180752  	0.126711 
864.109568  	0.125090 
866.038384  	0.123176 
867.967200  	0.121229 
869.896016  	0.119412 
871.824832  	0.117988 
873.753648  	0.117586 
875.682464  	0.117865 
877.611280  	0.119311 
879.540096  	0.122179 
881.468912  	0.125897 
883.397728  	0.129402 
885.326544  	0.132153 
887.255360  	0.134281 
889.184176  	0.135400 
891.112992  	0.135106 
893.041808  	0.133854 
894.970624  	0.131593 
896.899440  	0.128078 
898.828256  	0.123570 
900.757072  	0.118969 
902.685888  	0.114690 
904.614704  	0.112226 
906.543520  	0.111902 
908.472336  	0.113185 
910.401152  	0.115412 
912.329968  	0.118276 
914.258784  	0.121375 
916.187600  	0.124070 
918.116416  	0.126264 
920.045232  	0.128234 
921.974048  	0.129661 
923.902864  	0.130886 
925.831680  	0.131889 
927.760496  	0.133114 
929.689312  	0.134438 
931.618128  	0.135863 
933.546944  	0.136987 
935.475760  	0.137872 
937.404576  	0.137766 
939.333392  	0.136976 
941.262208  	0.136602 
943.191024  	0.137338 
945.119840  	0.140106 
947.048656  	0.145427 
948.977472  	0.153395 
950.906288  	0.163879 
952.835104  	0.176669 
954.763920  	0.191272 
956.692736  	0.206316 
958.621552  	0.220196 
960.550368  	0.230641 
962.479184  	0.237597 
964.408000  	0.239232 
966.336816  	0.235466 
968.265632  	0.226548 
970.194448  	0.214300 
972.123264  	0.199499 
974.052080  	0.183478 
975.980896  	0.167532 
977.909712  	0.152745 
979.838528  	0.139545 
981.767344  	0.128622 
983.696160  	0.120803 
985.624976  	0.115893 
987.553792  	0.114326 
989.482608  	0.116024 
991.411424  	0.120483 
993.340240  	0.127142 
995.269056  	0.134974 
997.197872  	0.143296 
999.126688  	0.151423 
1001.055504  	0.159853 
1002.984320  	0.168291 
1004.913136  	0.176782 
1006.841952  	0.184701 
1008.770768  	0.192376 
1010.699584  	0.198948 
1012.628400  	0.204113 
1014.557216  	0.207680 
1016.486032  	0.210088 
1018.414848  	0.211361 
1020.343664  	0.211964 
1022.272480  	0.212478 
1024.201296  	0.213107 
1026.130112  	0.213124 
1028.058928  	0.213717 
1029.987744  	0.215914 
1031.916560  	0.218995 
1033.845376  	0.222218 
1035.774192  	0.226499 
1037.703008  	0.232345 
1039.631824  	0.241090 
1041.560640  	0.253545 
1043.489456  	0.271071 
1045.418272  	0.291776 
1047.347088  	0.312933 
1049.275904  	0.330302 
1051.204720  	0.341988 
1053.133536  	0.346405 
1055.062352  	0.346112 
1056.991168  	0.343203 
1058.919984  	0.340727 
1060.848800  	0.338637 
1062.777616  	0.337065 
1064.706432  	0.334496 
1066.635248  	0.331349 
1068.564064  	0.326317 
1070.492880  	0.319195 
1072.421696  	0.311461 
1074.350512  	0.306351 
1076.279328  	0.305353 
1078.208144  	0.309117 
1080.136960  	0.314317 
1082.065776  	0.317747 
1083.994592  	0.316417 
1085.923408  	0.310591 
1087.852224  	0.299952 
1089.781040  	0.287754 
1091.709856  	0.273644 
1093.638672  	0.258154 
1095.567488  	0.241773 
1097.496304  	0.225822 
1099.425120  	0.209707 
1101.353936  	0.194520 
1103.282752  	0.180484 
1105.211568  	0.167752 
1107.140384  	0.155881 
1109.069200  	0.145162 
1110.998016  	0.135546 
1112.926832  	0.126583 
1114.855648  	0.118246 
1116.784464  	0.110617 
1118.713280  	0.103225 
1120.642096  	0.095890 
1122.570912  	0.089170 
1124.499728  	0.083045 
1126.428544  	0.077601 
1128.357360  	0.073285 
1130.286176  	0.069581 
1132.214992  	0.066558 
1134.143808  	0.064099 
1136.072624  	0.062057 
1138.001440  	0.060345 
1139.930256  	0.059002 
1141.859072  	0.057668 
1143.787888  	0.056225 
1145.716704  	0.054797 
1147.645520  	0.053838 
1149.574336  	0.053367 
1151.503152  	0.053188 
1153.431968  	0.053430 
1155.360784  	0.053748 
1157.289600  	0.054288 
1159.218416  	0.055147 
1161.147232  	0.056517 
1163.076048  	0.058055 
1165.004864  	0.059640 
1166.933680  	0.061023 
1168.862496  	0.062621 
1170.791312  	0.064468 
1172.720128  	0.066735 
1174.648944  	0.069557 
1176.577760  	0.072532 
1178.506576  	0.075709 
1180.435392  	0.078840 
1182.364208  	0.081996 
1184.293024  	0.085779 
1186.221840  	0.089944 
1188.150656  	0.094859 
1190.079472  	0.100636 
1192.008288  	0.107367 
1193.937104  	0.115061 
1195.865920  	0.123765 
1197.794736  	0.133541 
1199.723552  	0.143641 
1201.652368  	0.154040 
1203.581184  	0.164165 
1205.510000  	0.173659 
1207.438816  	0.182185 
1209.367632  	0.189690 
1211.296448  	0.195608 
1213.225264  	0.200588 
1215.154080  	0.203600 
1217.082896  	0.205231 
1219.011712  	0.205168 
1220.940528  	0.204334 
1222.869344  	0.202487 
1224.798160  	0.199910 
1226.726976  	0.196281 
1228.655792  	0.192186 
1230.584608  	0.187244 
1232.513424  	0.181855 
1234.442240  	0.175795 
1236.371056  	0.169381 
1238.299872  	0.162373 
1240.228688  	0.154668 
1242.157504  	0.147109 
1244.086320  	0.139881 
1246.015136  	0.132410 
1247.943952  	0.125078 
1249.872768  	0.118152 
1251.801584  	0.111653 
1253.730400  	0.104990 
1255.659216  	0.098665 
1257.588032  	0.092709 
1259.516848  	0.087031 
1261.445664  	0.081677 
1263.374480  	0.076941 
1265.303296  	0.072967 
1267.232112  	0.069628 
1269.160928  	0.067233 
1271.089744  	0.065800 
1273.018560  	0.065111 
1274.947376  	0.065337 
1276.876192  	0.066155 
1278.805008  	0.066808 
1280.733824  	0.066753 
1282.662640  	0.065577 
1284.591456  	0.063812 
1286.520272  	0.062103 
1288.449088  	0.061236 
1290.377904  	0.061663 
1292.306720  	0.062973 
1294.235536  	0.063973 
1296.164352  	0.063964 
1298.093168  	0.062438 
1300.021984  	0.059719 
1301.950800  	0.056766 
1303.879616  	0.053819 
1305.808432  	0.050395 
1307.737248  	0.046711 
1309.666064  	0.043337 
1311.594880  	0.040661 
1313.523696  	0.038665 
1315.452512  	0.037280 
1317.381328  	0.036485 
1319.310144  	0.036553 
1321.238960  	0.037197 
1323.167776  	0.038093 
1325.096592  	0.038861 
1327.025408  	0.039355 
1328.954224  	0.039165 
1330.883040  	0.038341 
1332.811856  	0.037069 
1334.740672  	0.035771 
1336.669488  	0.034877 
1338.598304  	0.034645 
1340.527120  	0.034354 
1342.455936  	0.033848 
1344.384752  	0.033711 
1346.313568  	0.034084 
1348.242384  	0.034878 
1350.171200  	0.036219 
1352.100016  	0.037877 
1354.028832  	0.039755 
1355.957648  	0.041889 
1357.886464  	0.043847 
1359.815280  	0.045757 
1361.744096  	0.048227 
1363.672912  	0.051308 
1365.601728  	0.053393 
1367.530544  	0.055336 
1369.459360  	0.057378 
1371.388176  	0.058173 
1373.316992  	0.057723 
1375.245808  	0.056386 
1377.174624  	0.054331 
1379.103440  	0.051881 
1381.032256  	0.049068 
1382.961072  	0.046564 
1384.889888  	0.044574 
1386.818704  	0.043138 
1388.747520  	0.041540 
1390.676336  	0.039272 
1392.605152  	0.036590 
1394.533968  	0.034923 
1396.462784  	0.035093 
1398.391600  	0.035128 
1400.320416  	0.035644 
1402.249232  	0.035717 
1404.178048  	0.036221 
1406.106864  	0.037330 
1408.035680  	0.038486 
1409.964496  	0.039944 
1411.893312  	0.042162 
1413.822128  	0.044208 
1415.750944  	0.046091 
1417.679760  	0.047417 
1419.608576  	0.049037 
1421.537392  	0.049217 
1423.466208  	0.048395 
1425.395024  	0.047307 
1427.323840  	0.045207 
1429.252656  	0.042481 
1431.181472  	0.040745 
1433.110288  	0.040057 
1435.039104  	0.039625 
1436.967920  	0.041415 
1438.896736  	0.043327 
1440.825552  	0.044155 
1442.754368  	0.044973 
1444.683184  	0.045063 
1446.612000  	0.044678 
1448.540816  	0.044890 
1450.469632  	0.045288 
1452.398448  	0.045226 
1454.327264  	0.044440 
1456.256080  	0.042926 
1458.184896  	0.044009 
1460.113712  	0.045196 
1462.042528  	0.044727 
1463.971344  	0.043600 
1465.900160  	0.044639 
1467.828976  	0.045751 
1469.757792  	0.046531 
1471.686608  	0.048089 
1473.615424  	0.054403 
1475.544240  	0.060002 
1477.473056  	0.065852 
1479.401872  	0.069642 
1481.330688  	0.073284 
1483.259504  	0.076170 
1485.188320  	0.077708 
1487.117136  	0.078080 
1489.045952  	0.078707 
1490.974768  	0.078232 
1492.903584  	0.076112 
1494.832400  	0.071826 
1496.761216  	0.065681 
1498.690032  	0.059852 
1500.618848  	0.055416 
1502.547664  	0.050495 
1504.476480  	0.044909 
1506.405296  	0.039642 
1508.334112  	0.040684 
1510.262928  	0.040081 
1512.191744  	0.038964 
1514.120560  	0.038114 
1516.049376  	0.037551 
1517.978192  	0.038694 
1519.907008  	0.039398 
1521.835824  	0.043536 
1523.764640  	0.048626 
1525.693456  	0.052356 
1527.622272  	0.055379 
1529.551088  	0.055997 
1531.479904  	0.054290 
1533.408720  	0.050982 
1535.337536  	0.048351 
1537.266352  	0.044490 
1539.195168  	0.038188 
1541.123984  	0.035484 
1543.052800  	0.036909 
1544.981616  	0.037292 
1546.910432  	0.037018 
1548.839248  	0.036203 
1550.768064  	0.036294 
1552.696880  	0.035250 
1554.625696  	0.034912 
1556.554512  	0.033100 
1558.483328  	0.031896 
1560.412144  	0.040435 
1562.340960  	0.042945 
1564.269776  	0.044822 
1566.198592  	0.048600 
1568.127408  	0.050342 
1570.056224  	0.056006 
1571.985040  	0.061355 
1573.913856  	0.063242 
1575.842672  	0.064832 
1577.771488  	0.069000 
1579.700304  	0.069310 
1581.629120  	0.068672 
1583.557936  	0.067755 
1585.486752  	0.068078 
1587.415568  	0.069670 
1589.344384  	0.073224 
1591.273200  	0.078106 
1593.202016  	0.084310 
1595.130832  	0.091125 
1597.059648  	0.098868 
1598.988464  	0.105232 
1600.917280  	0.110915 
1602.846096  	0.115080 
1604.774912  	0.118126 
1606.703728  	0.118797 
1608.632544  	0.118584 
1610.561360  	0.116879 
1612.490176  	0.114992 
1614.418992  	0.111427 
1616.347808  	0.109803 
1618.276624  	0.112657 
1620.205440  	0.114731 
1622.134256  	0.115956 
1624.063072  	0.122607 
1625.991888  	0.128284 
1627.920704  	0.135504 
1629.849520  	0.144356 
1631.778336  	0.151258 
1633.707152  	0.155252 
1635.635968  	0.163509 
1637.564784  	0.175121 
1639.493600  	0.181005 
1641.422416  	0.185071 
1643.351232  	0.187134 
1645.280048  	0.186281 
1647.208864  	0.189041 
1649.137680  	0.191139 
1651.066496  	0.188127 
1652.995312  	0.184527 
1654.924128  	0.189337 
1656.852944  	0.187898 
1658.781760  	0.185372 
1660.710576  	0.181357 
1662.639392  	0.177327 
1664.568208  	0.174094 
1666.497024  	0.169584 
1668.425840  	0.163080 
1670.354656  	0.157513 
1672.283472  	0.153562 
1674.212288  	0.148997 
1676.141104  	0.145576 
1678.069920  	0.142813 
1679.998736  	0.139963 
1681.927552  	0.136632 
1683.856368  	0.133801 
1685.785184  	0.137774 
1687.714000  	0.137685 
1689.642816  	0.137701 
1691.571632  	0.137109 
1693.500448  	0.135138 
1695.429264  	0.132960 
1697.358080  	0.132944 
1699.286896  	0.131102 
1701.215712  	0.133061 
1703.144528  	0.131823 
1705.073344  	0.129207 
1707.002160  	0.126775 
1708.930976  	0.123749 
1710.859792  	0.118566 
1712.788608  	0.111889 
1714.717424  	0.102603 
1716.646240  	0.091900 
1718.575056  	0.080754 
1720.503872  	0.072196 
1722.432688  	0.063377 
1724.361504  	0.053336 
1726.290320  	0.044747 
1728.219136  	0.037179 
1730.147952  	0.030398 
1732.076768  	0.024199 
1734.005584  	0.019322 
1735.934400  	0.016631 
1737.863216  	0.014328 
1739.792032  	0.011643 
1741.720848  	0.010439 
1743.649664  	0.009145 
1745.578480  	0.007668 
1747.507296  	0.005784 
1749.436112  	0.005174 
1751.364928  	0.005443 
1753.293744  	0.005162 
1755.222560  	0.003890 
1757.151376  	0.003851 
1759.080192  	0.003168 
1761.009008  	0.002332 
1762.937824  	0.002287 
1764.866640  	0.002323 
1766.795456  	0.001713 
1768.724272  	0.001266 
1770.653088  	-0.000937 
1772.581904  	-0.001098 
1774.510720  	0.000230 
1776.439536  	0.000819 
1778.368352  	0.000515 
1780.297168  	0.000234 
1782.225984  	0.000177 
1784.154800  	0.000416 
1786.083616  	0.000286 
1788.012432  	-0.000100 
1789.941248  	-0.000896 
1791.870064  	-0.001412 
1793.798880  	-0.001200 
1795.727696  	-0.000774 
1797.656512  	-0.001374 
1799.585328  	-0.001780 
1801.514144  	-0.001161 
1803.442960  	-0.000927 
1805.371776  	-0.001395 
1807.300592  	-0.001414 
1809.229408  	-0.001842 
1811.158224  	-0.001756 
1813.087040  	-0.001578 
1815.015856  	-0.001728 
1816.944672  	-0.001886 
1818.873488  	-0.001701 
1820.802304  	-0.001855 
1822.731120  	-0.001933 
1824.659936  	-0.002265 
1826.588752  	-0.002211 
1828.517568  	-0.003191 
1830.446384  	-0.002488 
1832.375200  	-0.001703 
1834.304016  	-0.001613 
1836.232832  	-0.001935 
1838.161648  	-0.001996 
1840.090464  	-0.002248 
1842.019280  	-0.002512 
1843.948096  	-0.002784 
1845.876912  	-0.002026 
1847.805728  	-0.001653 
1849.734544  	-0.001403 
1851.663360  	-0.001741 
1853.592176  	-0.001804 
1855.520992  	-0.002177 
1857.449808  	-0.001946 
1859.378624  	-0.001904 
1861.307440  	-0.001624 
1863.236256  	-0.001994 
1865.165072  	-0.002542 
1867.093888  	-0.003356 
1869.022704  	-0.002853 
1870.951520  	-0.002352 
1872.880336  	-0.002305 
1874.809152  	-0.002573 
1876.737968  	-0.002239 
1878.666784  	-0.001999 
1880.595600  	-0.001783 
1882.524416  	-0.002046 
1884.453232  	-0.002270 
1886.382048  	-0.002578 
1888.310864  	-0.002329 
1890.239680  	-0.002090 
1892.168496  	-0.002216 
1894.097312  	-0.002759 
1896.026128  	-0.002397 
1897.954944  	-0.001899 
1899.883760  	-0.001751 
1901.812576  	-0.001985 
1903.741392  	-0.001734 
1905.670208  	-0.002015 
1907.599024  	-0.001939 
1909.527840  	-0.002234 
1911.456656  	-0.002077 
1913.385472  	-0.002019 
1915.314288  	-0.002450 
1917.243104  	-0.002817 
1919.171920  	-0.001772 
1921.100736  	-0.001746 
1923.029552  	-0.001399 
1924.958368  	-0.002213 
1926.887184  	-0.002702 
1928.816000  	-0.002100 
1930.744816  	-0.001860 
1932.673632  	-0.002568 
1934.602448  	-0.002437 
1936.531264  	-0.002565 
1938.460080  	-0.003155 
1940.388896  	-0.003749 
1942.317712  	-0.002872 
1944.246528  	-0.002421 
1946.175344  	-0.002736 
1948.104160  	-0.003077 
1950.032976  	-0.003311 
1951.961792  	-0.003466 
1953.890608  	-0.002870 
1955.819424  	-0.003409 
1957.748240  	-0.003497 
1959.677056  	-0.003864 
1961.605872  	-0.003452 
1963.534688  	-0.003021 
1965.463504  	-0.001987 
1967.392320  	-0.003902 
1969.321136  	-0.004813 
1971.249952  	-0.004540 
1973.178768  	-0.003996 
1975.107584  	-0.004184 
1977.036400  	-0.003723 
1978.965216  	-0.002574 
1980.894032  	-0.001750 
1982.822848  	-0.002588 
1984.751664  	-0.002414 
1986.680480  	-0.002872 
1988.609296  	-0.002558 
1990.538112  	-0.003207 
1992.466928  	-0.003112 
1994.395744  	-0.004116 
1996.324560  	-0.003773 
1998.253376  	-0.003196 
2000.182192  	-0.003474 
2002.111008  	-0.005073 
2004.039824  	-0.004891 
2005.968640  	-0.004782 
2007.897456  	-0.003614 
2009.826272  	-0.002222 
2011.755088  	-0.002121 
2013.683904  	-0.002889 
2015.612720  	-0.002405 
2017.541536  	-0.001843 
2019.470352  	-0.001161 
2021.399168  	-0.002052 
2023.327984  	-0.001375 
2025.256800  	-0.002267 
2027.185616  	-0.002989 
2029.114432  	-0.002397 
2031.043248  	-0.001967 
2032.972064  	-0.002027 
2034.900880  	-0.000461 
2036.829696  	0.000113 
2038.758512  	0.000588 
2040.687328  	0.000118 
2042.616144  	0.000330 
2044.544960  	-0.000703 
2046.473776  	-0.001173 
2048.402592  	-0.000631 
2050.331408  	-0.000349 
2052.260224  	-0.001555 
2054.189040  	-0.001558 
2056.117856  	-0.001297 
2058.046672  	-0.001082 
2059.975488  	-0.001320 
2061.904304  	-0.001615 
2063.833120  	-0.002032 
2065.761936  	-0.001620 
2067.690752  	-0.001234 
2069.619568  	-0.001223 
2071.548384  	-0.001614 
2073.477200  	-0.001530 
2075.406016  	-0.001351 
2077.334832  	-0.000719 
2079.263648  	-0.000513 
2081.192464  	-0.000234 
2083.121280  	-0.000605 
2085.050096  	-0.000840 
2086.978912  	-0.001057 
2088.907728  	-0.000615 
2090.836544  	-0.000953 
2092.765360  	-0.001108 
2094.694176  	-0.001471 
2096.622992  	-0.001230 
2098.551808  	-0.000728 
2100.480624  	-0.000678 
2102.409440  	-0.000642 
2104.338256  	-0.000787 
2106.267072  	-0.000580 
2108.195888  	-0.000154 
2110.124704  	-0.000531 
2112.053520  	-0.001160 
2113.982336  	-0.000837 
2115.911152  	0.000002 
2117.839968  	-0.000150 
2119.768784  	-0.000537 
2121.697600  	-0.001332 
2123.626416  	-0.001213 
2125.555232  	-0.001350 
2127.484048  	-0.001670 
2129.412864  	-0.001790 
2131.341680  	-0.001617 
2133.270496  	-0.002090 
2135.199312  	-0.001149 
2137.128128  	-0.000636 
2139.056944  	-0.000408 
2140.985760  	-0.000803 
2142.914576  	-0.001377 
2144.843392  	-0.001647 
2146.772208  	-0.001014 
2148.701024  	-0.000123 
2150.629840  	0.000870 
2152.558656  	0.000062 
2154.487472  	-0.000547 
2156.416288  	-0.000767 
2158.345104  	0.001928 
2160.273920  	0.004372 
2162.202736  	0.004220 
2164.131552  	0.003340 
2166.060368  	0.003827 
2167.989184  	0.002851 
2169.918000  	0.002304 
2171.846816  	0.002111 
2173.775632  	0.001613 
2175.704448  	0.001320 
2177.633264  	0.001720 
2179.562080  	0.000723 
2181.490896  	0.000365 
2183.419712  	0.000397 
2185.348528  	0.000480 
2187.277344  	0.000495 
2189.206160  	0.000934 
2191.134976  	0.001189 
2193.063792  	0.001576 
2194.992608  	0.001052 
2196.921424  	0.001102 
2198.850240  	0.001322 
2200.779056  	0.001164 
2202.707872  	0.000196 
2204.636688  	-0.000246 
2206.565504  	0.000470 
2208.494320  	0.001435 
2210.423136  	0.000131 
2212.351952  	-0.000488 
2214.280768  	0.000069 
2216.209584  	0.000216 
2218.138400  	-0.000218 
2220.067216  	0.000255 
2221.996032  	0.000497 
2223.924848  	0.000687 
2225.853664  	-0.000339 
2227.782480  	-0.000644 
2229.711296  	-0.000157 
2231.640112  	0.000196 
2233.568928  	-0.000040 
2235.497744  	0.000077 
2237.426560  	-0.000120 
2239.355376  	-0.000460 
2241.284192  	-0.000790 
2243.213008  	-0.000880 
2245.141824  	-0.000849 
2247.070640  	-0.000378 
2248.999456  	-0.001314 
2250.928272  	-0.001760 
2252.857088  	-0.001633 
2254.785904  	-0.000982 
2256.714720  	-0.000668 
2258.643536  	-0.001357 
2260.572352  	-0.001694 
2262.501168  	-0.001320 
2264.429984  	-0.001311 
2266.358800  	-0.001277 
2268.287616  	-0.001192 
2270.216432  	-0.000889 
2272.145248  	-0.000884 
2274.074064  	-0.000833 
2276.002880  	-0.000880 
2277.931696  	-0.000441 
2279.860512  	-0.000020 
2281.789328  	0.000361 
2283.718144  	0.000264 
2285.646960  	0.000237 
2287.575776  	0.000144 
2289.504592  	0.000234 
2291.433408  	0.000480 
2293.362224  	0.000544 
2295.291040  	0.000384 
2297.219856  	0.000454 
2299.148672  	0.000534 
2301.077488  	0.000847 
2303.006304  	0.000947 
2304.935120  	0.000946 
2306.863936  	0.000891 
2308.792752  	0.000832 
2310.721568  	0.000672 
2312.650384  	0.000363 
2314.579200  	-0.000380 
2316.508016  	-0.000604 
2318.436832  	-0.000865 
2320.365648  	-0.001328 
2322.294464  	-0.001609 
2324.223280  	-0.002186 
2326.152096  	-0.004154 
2328.080912  	-0.005461 
2330.009728  	-0.006158 
2331.938544  	-0.006552 
2333.867360  	-0.007235 
2335.796176  	-0.008058 
2337.724992  	-0.008412 
2339.653808  	-0.008374 
2341.582624  	-0.008203 
2343.511440  	-0.007140 
2345.440256  	-0.005141 
2347.369072  	-0.003198 
2349.297888  	-0.003264 
2351.226704  	-0.005117 
2353.155520  	-0.007631 
2355.084336  	-0.009612 
2357.013152  	-0.010603 
2358.941968  	-0.011559 
2360.870784  	-0.011397 
2362.799600  	-0.010239 
2364.728416  	-0.009008 
2366.657232  	-0.007405 
2368.586048  	-0.006017 
2370.514864  	-0.004389 
2372.443680  	-0.002648 
2374.372496  	-0.001140 
2376.301312  	-0.000027 
2378.230128  	0.000969 
2380.158944  	0.001531 
2382.087760  	0.001580 
2384.016576  	0.001373 
2385.945392  	0.000974 
2387.874208  	0.000783 
2389.803024  	0.000825 
2391.731840  	0.000662 
2393.660656  	0.000430 
2395.589472  	0.000374 
2397.518288  	0.000588 
2399.447104  	0.000541 
2401.375920  	0.000825 
2403.304736  	0.000954 
2405.233552  	0.000914 
2407.162368  	0.001134 
2409.091184  	0.001285 
2411.020000  	0.001168 
2412.948816  	0.001076 
2414.877632  	0.001299 
2416.806448  	0.001521 
2418.735264  	0.001313 
2420.664080  	0.001345 
2422.592896  	0.001575 
2424.521712  	0.001846 
2426.450528  	0.001977 
2428.379344  	0.002023 
2430.308160  	0.002039 
2432.236976  	0.002019 
2434.165792  	0.002123 
2436.094608  	0.002408 
2438.023424  	0.002383 
2439.952240  	0.002253 
2441.881056  	0.002533 
2443.809872  	0.002782 
2445.738688  	0.002745 
2447.667504  	0.002992 
2449.596320  	0.003062 
2451.525136  	0.003089 
2453.453952  	0.003281 
2455.382768  	0.003416 
2457.311584  	0.003388 
2459.240400  	0.003271 
2461.169216  	0.003397 
2463.098032  	0.003679 
2465.026848  	0.003742 
2466.955664  	0.003619 
2468.884480  	0.003616 
2470.813296  	0.003874 
2472.742112  	0.004030 
2474.670928  	0.004166 
2476.599744  	0.004145 
2478.528560  	0.004350 
2480.457376  	0.004444 
2482.386192  	0.004497 
2484.315008  	0.004396 
2486.243824  	0.004418 
2488.172640  	0.004670 
2490.101456  	0.004998 
2492.030272  	0.005216 
2493.959088  	0.005320 
2495.887904  	0.005460 
2497.816720  	0.005669 
2499.745536  	0.005620 
2501.674352  	0.005804 
2503.603168  	0.006078 
2505.531984  	0.006022 
2507.460800  	0.005797 
2509.389616  	0.005789 
2511.318432  	0.005832 
2513.247248  	0.006014 
2515.176064  	0.006162 
2517.104880  	0.006233 
2519.033696  	0.006421 
2520.962512  	0.006569 
2522.891328  	0.006444 
2524.820144  	0.006479 
2526.748960  	0.006637 
2528.677776  	0.006775 
2530.606592  	0.006968 
2532.535408  	0.006987 
2534.464224  	0.006814 
2536.393040  	0.006729 
2538.321856  	0.006967 
2540.250672  	0.007169 
2542.179488  	0.007204 
2544.108304  	0.007406 
2546.037120  	0.007538 
2547.965936  	0.007430 
2549.894752  	0.007412 
2551.823568  	0.007595 
2553.752384  	0.007535 
2555.681200  	0.007715 
2557.610016  	0.007990 
2559.538832  	0.008112 
2561.467648  	0.008184 
2563.396464  	0.008180 
2565.325280  	0.008413 
2567.254096  	0.008702 
2569.182912  	0.008685 
2571.111728  	0.008877 
2573.040544  	0.009102 
2574.969360  	0.009300 
2576.898176  	0.009564 
2578.826992  	0.009679 
2580.755808  	0.009610 
2582.684624  	0.009793 
2584.613440  	0.009821 
2586.542256  	0.009887 
2588.471072  	0.009964 
2590.399888  	0.009918 
2592.328704  	0.009967 
2594.257520  	0.010200 
2596.186336  	0.010306 
2598.115152  	0.010418 
2600.043968  	0.010484 
2601.972784  	0.010421 
2603.901600  	0.010589 
2605.830416  	0.010824 
2607.759232  	0.010917 
2609.688048  	0.010978 
2611.616864  	0.011137 
2613.545680  	0.011239 
2615.474496  	0.011314 
2617.403312  	0.011476 
2619.332128  	0.011762 
2621.260944  	0.011889 
2623.189760  	0.011969 
2625.118576  	0.012145 
2627.047392  	0.012344 
2628.976208  	0.012590 
2630.905024  	0.012738 
2632.833840  	0.012984 
2634.762656  	0.013168 
2636.691472  	0.013224 
2638.620288  	0.013345 
2640.549104  	0.013548 
2642.477920  	0.013785 
2644.406736  	0.014041 
2646.335552  	0.014173 
2648.264368  	0.014243 
2650.193184  	0.014398 
2652.122000  	0.014722 
2654.050816  	0.015001 
2655.979632  	0.015062 
2657.908448  	0.015159 
2659.837264  	0.015423 
2661.766080  	0.015642 
2663.694896  	0.015679 
2665.623712  	0.015733 
2667.552528  	0.016003 
2669.481344  	0.016306 
2671.410160  	0.016510 
2673.338976  	0.016582 
2675.267792  	0.016703 
2677.196608  	0.016922 
2679.125424  	0.017044 
2681.054240  	0.017165 
2682.983056  	0.017293 
2684.911872  	0.017507 
2686.840688  	0.017712 
2688.769504  	0.017827 
2690.698320  	0.017945 
2692.627136  	0.018182 
2694.555952  	0.018355 
2696.484768  	0.018504 
2698.413584  	0.018699 
2700.342400  	0.018752 
2702.271216  	0.018889 
2704.200032  	0.019124 
2706.128848  	0.019293 
2708.057664  	0.019411 
2709.986480  	0.019512 
2711.915296  	0.019669 
2713.844112  	0.019799 
2715.772928  	0.019999 
2717.701744  	0.020224 
2719.630560  	0.020318 
2721.559376  	0.020525 
2723.488192  	0.020717 
2725.417008  	0.020891 
2727.345824  	0.021116 
2729.274640  	0.021321 
2731.203456  	0.021492 
2733.132272  	0.021750 
2735.061088  	0.022013 
2736.989904  	0.022130 
2738.918720  	0.022264 
2740.847536  	0.022439 
2742.776352  	0.022497 
2744.705168  	0.022625 
2746.633984  	0.022727 
2748.562800  	0.022883 
2750.491616  	0.023157 
2752.420432  	0.023294 
2754.349248  	0.023275 
2756.278064  	0.023303 
2758.206880  	0.023375 
2760.135696  	0.023381 
2762.064512  	0.023322 
2763.993328  	0.023438 
2765.922144  	0.023482 
2767.850960  	0.023475 
2769.779776  	0.023552 
2771.708592  	0.023609 
2773.637408  	0.023589 
2775.566224  	0.023533 
2777.495040  	0.023472 
2779.423856  	0.023447 
2781.352672  	0.023436 
2783.281488  	0.023513 
2785.210304  	0.023632 
2787.139120  	0.023699 
2789.067936  	0.023678 
2790.996752  	0.023692 
2792.925568  	0.023643 
2794.854384  	0.023572 
2796.783200  	0.023543 
2798.712016  	0.023609 
2800.640832  	0.023659 
2802.569648  	0.023669 
2804.498464  	0.023658 
2806.427280  	0.023665 
2808.356096  	0.023599 
2810.284912  	0.023604 
2812.213728  	0.023589 
2814.142544  	0.023673 
2816.071360  	0.023738 
2818.000176  	0.023766 
2819.928992  	0.023791 
2821.857808  	0.023842 
2823.786624  	0.023833 
2825.715440  	0.023873 
2827.644256  	0.023908 
2829.573072  	0.023891 
2831.501888  	0.023831 
2833.430704  	0.023692 
2835.359520  	0.023562 
2837.288336  	0.023621 
2839.217152  	0.023559 
2841.145968  	0.023456 
2843.074784  	0.023500 
2845.003600  	0.023510 
2846.932416  	0.023622 
2848.861232  	0.023788 
2850.790048  	0.023774 
2852.718864  	0.023683 
2854.647680  	0.023692 
2856.576496  	0.023787 
2858.505312  	0.023926 
2860.434128  	0.024122 
2862.362944  	0.024187 
2864.291760  	0.024152 
2866.220576  	0.024186 
2868.149392  	0.024280 
2870.078208  	0.024410 
2872.007024  	0.024665 
2873.935840  	0.024970 
2875.864656  	0.025279 
2877.793472  	0.025708 
2879.722288  	0.026188 
2881.651104  	0.026551 
2883.579920  	0.026663 
2885.508736  	0.026760 
2887.437552  	0.027019 
2889.366368  	0.027088 
2891.295184  	0.026916 
2893.224000  	0.026785 
2895.152816  	0.026860 
2897.081632  	0.026652 
2899.010448  	0.026099 
2900.939264  	0.025684 
2902.868080  	0.025877 
2904.796896  	0.026136 
2906.725712  	0.026254 
2908.654528  	0.026329 
2910.583344  	0.026545 
2912.512160  	0.027217 
2914.440976  	0.027918 
2916.369792  	0.028431 
2918.298608  	0.028927 
2920.227424  	0.029390 
2922.156240  	0.029850 
2924.085056  	0.030324 
2926.013872  	0.030862 
2927.942688  	0.031436 
2929.871504  	0.032098 
2931.800320  	0.032765 
2933.729136  	0.033402 
2935.657952  	0.034019 
2937.586768  	0.034539 
2939.515584  	0.034984 
2941.444400  	0.035427 
2943.373216  	0.035790 
2945.302032  	0.035915 
2947.230848  	0.036014 
2949.159664  	0.036171 
2951.088480  	0.035933 
2953.017296  	0.035647 
2954.946112  	0.035337 
2956.874928  	0.034943 
2958.803744  	0.034391 
2960.732560  	0.033941 
2962.661376  	0.033348 
2964.590192  	0.032847 
2966.519008  	0.032267 
2968.447824  	0.031553 
2970.376640  	0.030763 
2972.305456  	0.029944 
2974.234272  	0.029345 
2976.163088  	0.028852 
2978.091904  	0.028349 
2980.020720  	0.028074 
2981.949536  	0.028032 
2983.878352  	0.027970 
2985.807168  	0.027809 
2987.735984  	0.027876 
2989.664800  	0.028261 
2991.593616  	0.029152 
2993.522432  	0.029767 
2995.451248  	0.030149 
2997.380064  	0.030767 
2999.308880  	0.031382 
3001.237696  	0.031828 
3003.166512  	0.032205 
3005.095328  	0.032485 
3007.024144  	0.032928 
3008.952960  	0.033490 
3010.881776  	0.033916 
3012.810592  	0.034313 
3014.739408  	0.034798 
3016.668224  	0.035270 
3018.597040  	0.035745 
3020.525856  	0.036089 
3022.454672  	0.036497 
3024.383488  	0.036986 
3026.312304  	0.037420 
3028.241120  	0.037718 
3030.169936  	0.038128 
3032.098752  	0.038587 
3034.027568  	0.038992 
3035.956384  	0.039345 
3037.885200  	0.039664 
3039.814016  	0.040105 
3041.742832  	0.040574 
3043.671648  	0.041058 
3045.600464  	0.041687 
3047.529280  	0.042061 
3049.458096  	0.042405 
3051.386912  	0.042946 
3053.315728  	0.043405 
3055.244544  	0.043771 
3057.173360  	0.044366 
3059.102176  	0.044890 
3061.030992  	0.045361 
3062.959808  	0.045755 
3064.888624  	0.046319 
3066.817440  	0.047036 
3068.746256  	0.047845 
3070.675072  	0.048591 
3072.603888  	0.049146 
3074.532704  	0.049762 
3076.461520  	0.050408 
3078.390336  	0.050866 
3080.319152  	0.051436 
3082.247968  	0.052158 
3084.176784  	0.052748 
3086.105600  	0.053307 
3088.034416  	0.053932 
3089.963232  	0.054466 
3091.892048  	0.055115 
3093.820864  	0.055822 
3095.749680  	0.056464 
3097.678496  	0.057097 
3099.607312  	0.057852 
3101.536128  	0.058647 
3103.464944  	0.059272 
3105.393760  	0.059847 
3107.322576  	0.060240 
3109.251392  	0.060730 
3111.180208  	0.061220 
3113.109024  	0.061476 
3115.037840  	0.061795 
3116.966656  	0.062339 
3118.895472  	0.062946 
3120.824288  	0.063235 
3122.753104  	0.063578 
3124.681920  	0.063931 
3126.610736  	0.064338 
3128.539552  	0.064851 
3130.468368  	0.065051 
3132.397184  	0.065387 
3134.326000  	0.065789 
3136.254816  	0.065984 
3138.183632  	0.066336 
3140.112448  	0.066841 
3142.041264  	0.067154 
3143.970080  	0.067446 
3145.898896  	0.067822 
3147.827712  	0.068343 
3149.756528  	0.068878 
3151.685344  	0.069191 
3153.614160  	0.069524 
3155.542976  	0.069891 
3157.471792  	0.070279 
3159.400608  	0.070579 
3161.329424  	0.070868 
3163.258240  	0.071125 
3165.187056  	0.071461 
3167.115872  	0.071885 
3169.044688  	0.072222 
3170.973504  	0.072482 
3172.902320  	0.072535 
3174.831136  	0.072552 
3176.759952  	0.072739 
3178.688768  	0.073091 
3180.617584  	0.073413 
3182.546400  	0.073416 
3184.475216  	0.073379 
3186.404032  	0.073360 
3188.332848  	0.073209 
3190.261664  	0.072860 
3192.190480  	0.072784 
3194.119296  	0.072594 
3196.048112  	0.072241 
3197.976928  	0.071995 
3199.905744  	0.071780 
3201.834560  	0.071478 
3203.763376  	0.071181 
3205.692192  	0.070711 
3207.621008  	0.070176 
3209.549824  	0.069943 
3211.478640  	0.069584 
3213.407456  	0.069152 
3215.336272  	0.068928 
3217.265088  	0.068539 
3219.193904  	0.068218 
3221.122720  	0.068354 
3223.051536  	0.068345 
3224.980352  	0.067871 
3226.909168  	0.067168 
3228.837984  	0.066689 
3230.766800  	0.066552 
3232.695616  	0.066526 
3234.624432  	0.066207 
3236.553248  	0.065894 
3238.482064  	0.065831 
3240.410880  	0.066006 
3242.339696  	0.066204 
3244.268512  	0.066211 
3246.197328  	0.066201 
3248.126144  	0.065992 
3250.054960  	0.066222 
3251.983776  	0.066435 
3253.912592  	0.066552 
3255.841408  	0.066734 
3257.770224  	0.066983 
3259.699040  	0.067372 
3261.627856  	0.067564 
3263.556672  	0.067503 
3265.485488  	0.067638 
3267.414304  	0.067740 
3269.343120  	0.067850 
3271.271936  	0.068031 
3273.200752  	0.068146 
3275.129568  	0.068436 
3277.058384  	0.068719 
3278.987200  	0.068697 
3280.916016  	0.068717 
3282.844832  	0.068752 
3284.773648  	0.068713 
3286.702464  	0.068761 
3288.631280  	0.069046 
3290.560096  	0.069347 
3292.488912  	0.069758 
3294.417728  	0.070128 
3296.346544  	0.070352 
3298.275360  	0.070559 
3300.204176  	0.070738 
3302.132992  	0.071252 
3304.061808  	0.071557 
3305.990624  	0.071532 
3307.919440  	0.071879 
3309.848256  	0.072434 
3311.777072  	0.072610 
3313.705888  	0.072574 
3315.634704  	0.072608 
3317.563520  	0.072818 
3319.492336  	0.073295 
3321.421152  	0.073586 
3323.349968  	0.073735 
3325.278784  	0.073866 
3327.207600  	0.073985 
3329.136416  	0.073953 
3331.065232  	0.073924 
3332.994048  	0.074070 
3334.922864  	0.074294 
3336.851680  	0.074529 
3338.780496  	0.074505 
3340.709312  	0.074201 
3342.638128  	0.073856 
3344.566944  	0.073583 
3346.495760  	0.073257 
3348.424576  	0.072909 
3350.353392  	0.072815 
3352.282208  	0.072558 
3354.211024  	0.072126 
3356.139840  	0.071850 
3358.068656  	0.071609 
3359.997472  	0.071211 
3361.926288  	0.070757 
3363.855104  	0.070490 
3365.783920  	0.070495 
3367.712736  	0.070245 
3369.641552  	0.069937 
3371.570368  	0.069706 
3373.499184  	0.069219 
3375.428000  	0.068707 
3377.356816  	0.068459 
3379.285632  	0.068321 
3381.214448  	0.068059 
3383.143264  	0.067750 
3385.072080  	0.067603 
3387.000896  	0.067307 
3388.929712  	0.066850 
3390.858528  	0.066303 
3392.787344  	0.066224 
3394.716160  	0.065942 
3396.644976  	0.065550 
3398.573792  	0.065394 
3400.502608  	0.065117 
3402.431424  	0.064722 
3404.360240  	0.064338 
3406.289056  	0.063909 
3408.217872  	0.063450 
3410.146688  	0.063105 
3412.075504  	0.062741 
3414.004320  	0.062317 
3415.933136  	0.061796 
3417.861952  	0.061210 
3419.790768  	0.060894 
3421.719584  	0.060854 
3423.648400  	0.060454 
3425.577216  	0.059820 
3427.506032  	0.059257 
3429.434848  	0.058778 
3431.363664  	0.058471 
3433.292480  	0.058089 
3435.221296  	0.057546 
3437.150112  	0.057135 
3439.078928  	0.056600 
3441.007744  	0.055850 
3442.936560  	0.055757 
3444.865376  	0.055258 
3446.794192  	0.054748 
3448.723008  	0.054869 
3450.651824  	0.053902 
3452.580640  	0.053107 
3454.509456  	0.052577 
3456.438272  	0.051834 
3458.367088  	0.051206 
3460.295904  	0.050653 
3462.224720  	0.050388 
3464.153536  	0.049866 
3466.082352  	0.049162 
3468.011168  	0.048556 
3469.939984  	0.047643 
3471.868800  	0.046636 
3473.797616  	0.045955 
3475.726432  	0.045526 
3477.655248  	0.044836 
3479.584064  	0.043969 
3481.512880  	0.043395 
3483.441696  	0.043028 
3485.370512  	0.042185 
3487.299328  	0.041542 
3489.228144  	0.041073 
3491.156960  	0.040288 
3493.085776  	0.039167 
3495.014592  	0.038083 
3496.943408  	0.037674 
3498.872224  	0.037108 
3500.801040  	0.036123 
3502.729856  	0.035997 
3504.658672  	0.035948 
3506.587488  	0.034852 
3508.516304  	0.034041 
3510.445120  	0.034281 
3512.373936  	0.033738 
3514.302752  	0.032675 
3516.231568  	0.031836 
3518.160384  	0.031137 
3520.089200  	0.030293 
3522.018016  	0.029616 
3523.946832  	0.029770 
3525.875648  	0.028915 
3527.804464  	0.028156 
3529.733280  	0.028219 
3531.662096  	0.027868 
3533.590912  	0.026760 
3535.519728  	0.026297 
3537.448544  	0.026426 
3539.377360  	0.025338 
3541.306176  	0.024417 
3543.234992  	0.023813 
3545.163808  	0.024145 
3547.092624  	0.024474 
3549.021440  	0.023169 
3550.950256  	0.021624 
3552.879072  	0.021792 
3554.807888  	0.021491 
3556.736704  	0.020503 
3558.665520  	0.019794 
3560.594336  	0.019388 
3562.523152  	0.018071 
3564.451968  	0.016325 
3566.380784  	0.017077 
3568.309600  	0.019650 
3570.238416  	0.018184 
3572.167232  	0.016125 
3574.096048  	0.015105 
3576.024864  	0.014442 
3577.953680  	0.014041 
3579.882496  	0.013725 
3581.811312  	0.012941 
3583.740128  	0.011123 
3585.668944  	0.009797 
3587.597760  	0.011700 
3589.526576  	0.012266 
3591.455392  	0.009324 
3593.384208  	0.007843 
3595.313024  	0.008194 
3597.241840  	0.007536 
3599.170656  	0.006092 
3601.099472  	0.006022 
3603.028288  	0.005676 
3604.957104  	0.003865 
3606.885920  	0.002645 
3608.814736  	0.003699 
3610.743552  	0.002431 
3612.672368  	0.001040 
3614.601184  	0.000853 
3616.530000  	-0.001573 
3618.458816  	-0.002195 
3620.387632  	-0.000021 
3622.316448  	-0.000695 
3624.245264  	-0.003111 
3626.174080  	-0.006332 
3628.102896  	-0.007057 
3630.031712  	-0.002328 
3631.960528  	-0.004043 
3633.889344  	-0.005163 
3635.818160  	-0.005694 
3637.746976  	-0.006854 
3639.675792  	-0.007611 
3641.604608  	-0.008375 
3643.533424  	-0.009396 
3645.462240  	-0.012352 
3647.391056  	-0.014573 
3649.319872  	-0.012851 
3651.248688  	-0.009193 
3653.177504  	-0.011218 
3655.106320  	-0.013376 
3657.035136  	-0.011750 
3658.963952  	-0.011811 
3660.892768  	-0.012546 
3662.821584  	-0.013046 
3664.750400  	-0.013730 
3666.679216  	-0.015787 
3668.608032  	-0.018087 
3670.536848  	-0.015627 
3672.465664  	-0.016786 
3674.394480  	-0.019189 
3676.323296  	-0.014433 
3678.252112  	-0.014557 
3680.180928  	-0.014470 
3682.109744  	-0.014719 
3684.038560  	-0.015593 
3685.967376  	-0.017722 
3687.896192  	-0.019272 
3689.825008  	-0.017575 
3691.753824  	-0.015196 
3693.682640  	-0.014640 
3695.611456  	-0.014819 
3697.540272  	-0.014996 
3699.469088  	-0.016206 
3701.397904  	-0.015900 
3703.326720  	-0.014726 
3705.255536  	-0.015378 
3707.184352  	-0.016929 
3709.113168  	-0.018377 
3711.041984  	-0.017503 
3712.970800  	-0.013943 
3714.899616  	-0.013639 
3716.828432  	-0.015247 
3718.757248  	-0.015933 
3720.686064  	-0.016647 
3722.614880  	-0.016509 
3724.543696  	-0.015865 
3726.472512  	-0.014956 
3728.401328  	-0.015434 
3730.330144  	-0.017999 
3732.258960  	-0.019172 
3734.187776  	-0.018439 
3736.116592  	-0.014907 
3738.045408  	-0.014634 
3739.974224  	-0.016040 
3741.903040  	-0.018197 
3743.831856  	-0.018109 
3745.760672  	-0.015220 
3747.689488  	-0.018726 
3749.618304  	-0.019492 
3751.547120  	-0.016031 
3753.475936  	-0.013711 
3755.404752  	-0.015237 
3757.333568  	-0.016030 
3759.262384  	-0.015267 
3761.191200  	-0.014056 
3763.120016  	-0.015159 
3765.048832  	-0.014918 
3766.977648  	-0.014720 
3768.906464  	-0.015169 
3770.835280  	-0.013546 
3772.764096  	-0.013565 
3774.692912  	-0.014270 
3776.621728  	-0.015317 
3778.550544  	-0.015791 
3780.479360  	-0.014153 
3782.408176  	-0.014618 
3784.336992  	-0.014722 
3786.265808  	-0.013824 
3788.194624  	-0.013824 
3790.123440  	-0.014182 
3792.052256  	-0.014492 
3793.981072  	-0.015634 
3795.909888  	-0.016239 
3797.838704  	-0.016366 
3799.767520  	-0.018406 
3801.696336  	-0.016402 
3803.625152  	-0.015183 
3805.553968  	-0.017054 
3807.482784  	-0.014988 
3809.411600  	-0.014098 
3811.340416  	-0.014663 
3813.269232  	-0.016592 
3815.198048  	-0.017634 
3817.126864  	-0.015874 
3819.055680  	-0.018266 
3820.984496  	-0.016945 
3822.913312  	-0.013814 
3824.842128  	-0.015450 
3826.770944  	-0.015457 
3828.699760  	-0.015366 
3830.628576  	-0.016099 
3832.557392  	-0.016265 
3834.486208  	-0.017109 
3836.415024  	-0.018075 
3838.343840  	-0.017157 
3840.272656  	-0.015625 
3842.201472  	-0.015213 
3844.130288  	-0.014388 
3846.059104  	-0.014471 
3847.987920  	-0.015981 
3849.916736  	-0.018392 
3851.845552  	-0.020722 
3853.774368  	-0.015543 
3855.703184  	-0.013183 
3857.632000  	-0.014138 
3859.560816  	-0.015294 
3861.489632  	-0.016183 
3863.418448  	-0.016094 
3865.347264  	-0.014507 
3867.276080  	-0.016086 
3869.204896  	-0.016716 
3871.133712  	-0.014334 
3873.062528  	-0.015521 
3874.991344  	-0.013866 
3876.920160  	-0.014681 
3878.848976  	-0.016047 
3880.777792  	-0.014489 
3882.706608  	-0.014882 
3884.635424  	-0.015665 
3886.564240  	-0.013270 
3888.493056  	-0.015102 
3890.421872  	-0.015941 
3892.350688  	-0.014006 
3894.279504  	-0.013883 
3896.208320  	-0.015465 
3898.137136  	-0.016405 
3900.065952  	-0.015536 
3901.994768  	-0.015156 
3903.923584  	-0.014117 
3905.852400  	-0.013119 
3907.781216  	-0.013891 
3909.710032  	-0.014548 
3911.638848  	-0.014328 
3913.567664  	-0.014389 
3915.496480  	-0.014536 
3917.425296  	-0.013615 
3919.354112  	-0.013648 
3921.282928  	-0.014191 
3923.211744  	-0.014675 
3925.140560  	-0.013843 
3927.069376  	-0.014196 
3928.998192  	-0.015024 
3930.927008  	-0.014510 
3932.855824  	-0.013237 
3934.784640  	-0.013411 
3936.713456  	-0.014049 
3938.642272  	-0.014163 
3940.571088  	-0.014791 
3942.499904  	-0.014181 
3944.428720  	-0.013749 
3946.357536  	-0.014460 
3948.286352  	-0.014156 
3950.215168  	-0.013760 
3952.143984  	-0.013988 
3954.072800  	-0.014338 
3956.001616  	-0.014435 
3957.930432  	-0.014309 
3959.859248  	-0.014324 
3961.788064  	-0.014084 
3963.716880  	-0.013860 
3965.645696  	-0.014114 
3967.574512  	-0.014343 
3969.503328  	-0.014248 
3971.432144  	-0.014292 
3973.360960  	-0.014292 
3975.289776  	-0.013913 
3977.218592  	-0.013821 
3979.147408  	-0.014011 
3981.076224  	-0.014064 
3983.005040  	-0.013974 
3984.933856  	-0.014082 
3986.862672  	-0.014332 
3988.791488  	-0.014366 
3990.720304  	-0.014109 
3992.649120  	-0.014049 
3994.577936  	-0.014167 
3996.506752  	-0.014275 
3998.435568  	-0.014188 
4000.364384  	-0.014221 