##TITLE=No Description
##DATA TYPE=INFRARED SPECTRUM
##XUNITS=1/CM
##YUNITS=Abs
399.264912  	0.575136 
401.193728  	0.557713 
403.122544  	0.547697 
405.051360  	0.534011 
406.980176  	0.536895 
408.908992  	0.534167 
410.837808  	0.537019 
412.766624  	0.530243 
414.695440  	0.532204 
416.624256  	0.540930 
418.553072  	0.522047 
420.481888  	0.488030 
422.410704  	0.500249 
424.339520  	0.505339 
426.268336  	0.503772 
428.197152  	0.502693 
430.125968  	0.503314 
432.054784  	0.494285 
433.983600  	0.488845 
435.912416  	0.478366 
437.841232  	0.483832 
439.770048  	0.485231 
441.698864  	0.485351 
443.627680  	0.480925 
445.556496  	0.479752 
447.485312  	0.478452 
449.414128  	0.483297 
451.342944  	0.482067 
453.271760  	0.476847 
455.200576  	0.471739 
457.129392  	0.474346 
459.058208  	0.472686 
460.987024  	0.476562 
462.915840  	0.470599 
464.844656  	0.468556 
466.773472  	0.466939 
468.702288  	0.468428 
470.631104  	0.466778 
472.559920  	0.471548 
474.488736  	0.468885 
476.417552  	0.466358 
478.346368  	0.458726 
480.275184  	0.459550 
482.204000  	0.461426 
484.132816  	0.463378 
486.061632  	0.464804 
487.990448  	0.465852 
489.919264  	0.461108 
491.848080  	0.461874 
493.776896  	0.459468 
495.705712  	0.461767 
497.634528  	0.457085 
499.563344  	0.453061 
501.492160  	0.451040 
503.420976  	0.452641 
505.349792  	0.448333 
507.278608  	0.445629 
509.207424  	0.448218 
511.136240  	0.450469 
513.065056  	0.448501 
514.993872  	0.450006 
516.922688  	0.449611 
518.851504  	0.451843 
520.780320  	0.450267 
522.709136  	0.449157 
524.637952  	0.448473 
526.566768  	0.450170 
528.495584  	0.446819 
530.424400  	0.442517 
532.353216  	0.440338 
534.282032  	0.438324 
536.210848  	0.431486 
538.139664  	0.426877 
540.068480  	0.423305 
541.997296  	0.420218 
543.926112  	0.414736 
545.854928  	0.412055 
547.783744  	0.409994 
549.712560  	0.409392 
551.641376  	0.405300 
553.570192  	0.402590 
555.499008  	0.399475 
557.427824  	0.396541 
559.356640  	0.393941 
561.285456  	0.391545 
563.214272  	0.387857 
565.143088  	0.384899 
567.071904  	0.379692 
569.000720  	0.376117 
570.929536  	0.372701 
572.858352  	0.370672 
574.787168  	0.368754 
576.715984  	0.367019 
578.644800  	0.364112 
580.573616  	0.361142 
582.502432  	0.356649 
584.431248  	0.352433 
586.360064  	0.348233 
588.288880  	0.346106 
590.217696  	0.343555 
592.146512  	0.341073 
594.075328  	0.339219 
596.004144  	0.337089 
597.932960  	0.335033 
599.861776  	0.334162 
601.790592  	0.332756 
603.719408  	0.331520 
605.648224  	0.330208 
607.577040  	0.328602 
609.505856  	0.326277 
611.434672  	0.324910 
613.363488  	0.323421 
615.292304  	0.322083 
617.221120  	0.319817 
619.149936  	0.318608 
621.078752  	0.316477 
623.007568  	0.315468 
624.936384  	0.315299 
626.865200  	0.314131 
628.794016  	0.313008 
630.722832  	0.312805 
632.651648  	0.311580 
634.580464  	0.311171 
636.509280  	0.311257 
638.438096  	0.310508 
640.366912  	0.309721 
642.295728  	0.308755 
644.224544  	0.306331 
646.153360  	0.303388 
648.082176  	0.299367 
650.010992  	0.295908 
651.939808  	0.292632 
653.868624  	0.289952 
655.797440  	0.286712 
657.726256  	0.283654 
659.655072  	0.279670 
661.583888  	0.275632 
663.512704  	0.272288 
665.441520  	0.268800 
667.370336  	0.264199 
669.299152  	0.259773 
671.227968  	0.256462 
673.156784  	0.253242 
675.085600  	0.250369 
677.014416  	0.248387 
678.943232  	0.246577 
680.872048  	0.245172 
682.800864  	0.243112 
684.729680  	0.241755 
686.658496  	0.240581 
688.587312  	0.239258 
690.516128  	0.237138 
692.444944  	0.235928 
694.373760  	0.235133 
696.302576  	0.233919 
698.231392  	0.231646 
700.160208  	0.229678 
702.089024  	0.227810 
704.017840  	0.225626 
705.946656  	0.222770 
707.875472  	0.220829 
709.804288  	0.218972 
711.733104  	0.217290 
713.661920  	0.215433 
715.590736  	0.214312 
717.519552  	0.213724 
719.448368  	0.213317 
721.377184  	0.213555 
723.306000  	0.213982 
725.234816  	0.214205 
727.163632  	0.213277 
729.092448  	0.210932 
731.021264  	0.208018 
732.950080  	0.204963 
734.878896  	0.201997 
736.807712  	0.199343 
738.736528  	0.197580 
740.665344  	0.195591 
742.594160  	0.193910 
744.522976  	0.192531 
746.451792  	0.191092 
748.380608  	0.189681 
750.309424  	0.188826 
752.238240  	0.187556 
754.167056  	0.187085 
756.095872  	0.186575 
758.024688  	0.185356 
759.953504  	0.184642 
761.882320  	0.185023 
763.811136  	0.185449 
765.739952  	0.184012 
767.668768  	0.181380 
769.597584  	0.179072 
771.526400  	0.178161 
773.455216  	0.178916 
775.384032  	0.181838 
777.312848  	0.186167 
779.241664  	0.188879 
781.170480  	0.188540 
783.099296  	0.184703 
785.028112  	0.179570 
786.956928  	0.174856 
788.885744  	0.170946 
790.814560  	0.167496 
792.743376  	0.165526 
794.672192  	0.164542 
796.601008  	0.163423 
798.529824  	0.160549 
800.458640  	0.156820 
802.387456  	0.153649 
804.316272  	0.151724 
806.245088  	0.150545 
808.173904  	0.149881 
810.102720  	0.149305 
812.031536  	0.148850 
813.960352  	0.148881 
815.889168  	0.149425 
817.817984  	0.150007 
819.746800  	0.150271 
821.675616  	0.150660 
823.604432  	0.151156 
825.533248  	0.151409 
827.462064  	0.151294 
829.390880  	0.150603 
831.319696  	0.149883 
833.248512  	0.148665 
835.177328  	0.147247 
837.106144  	0.144960 
839.034960  	0.142402 
840.963776  	0.139129 
842.892592  	0.135879 
844.821408  	0.132659 
846.750224  	0.129743 
848.679040  	0.127538 
850.607856  	0.125805 
852.536672  	0.124414 
854.465488  	0.123017 
856.394304  	0.122144 
858.323120  	0.121170 
860.251936  	0.119874 
862.180752  	0.118476 
864.109568  	0.116843 
866.038384  	0.114712 
867.967200  	0.112876 
869.896016  	0.111170 
871.824832  	0.109478 
873.753648  	0.108554 
875.682464  	0.108302 
877.611280  	0.108966 
879.540096  	0.110823 
881.468912  	0.113641 
883.397728  	0.116529 
885.326544  	0.118889 
887.255360  	0.120420 
889.184176  	0.120958 
891.112992  	0.120651 
893.041808  	0.119707 
894.970624  	0.117552 
896.899440  	0.114416 
898.828256  	0.110913 
900.757072  	0.107164 
902.685888  	0.103613 
904.614704  	0.101407 
906.543520  	0.100821 
908.472336  	0.101537 
910.401152  	0.103228 
912.329968  	0.105547 
914.258784  	0.108073 
916.187600  	0.110257 
918.116416  	0.112204 
920.045232  	0.113839 
921.974048  	0.114891 
923.902864  	0.115695 
925.831680  	0.116122 
927.760496  	0.116714 
929.689312  	0.117611 
931.618128  	0.118683 
933.546944  	0.119529 
935.475760  	0.120032 
937.404576  	0.119891 
939.333392  	0.119263 
941.262208  	0.118948 
943.191024  	0.119605 
945.119840  	0.121869 
947.048656  	0.126025 
948.977472  	0.132072 
950.906288  	0.139863 
952.835104  	0.149511 
954.763920  	0.160386 
956.692736  	0.171630 
958.621552  	0.182133 
960.550368  	0.190199 
962.479184  	0.195653 
964.408000  	0.197276 
966.336816  	0.194909 
968.265632  	0.188381 
970.194448  	0.178892 
972.123264  	0.167112 
974.052080  	0.154042 
975.980896  	0.141034 
977.909712  	0.129134 
979.838528  	0.118360 
981.767344  	0.109368 
983.696160  	0.102767 
985.624976  	0.098603 
987.553792  	0.097256 
989.482608  	0.098617 
991.411424  	0.102228 
993.340240  	0.107642 
995.269056  	0.113933 
997.197872  	0.120493 
999.126688  	0.127159 
1001.055504  	0.134161 
1002.984320  	0.140906 
1004.913136  	0.147734 
1006.841952  	0.154199 
1008.770768  	0.160160 
1010.699584  	0.165154 
1012.628400  	0.169215 
1014.557216  	0.172078 
1016.486032  	0.174020 
1018.414848  	0.175295 
1020.343664  	0.176095 
1022.272480  	0.176646 
1024.201296  	0.177030 
1026.130112  	0.176645 
1028.058928  	0.176991 
1029.987744  	0.178476 
1031.916560  	0.180453 
1033.845376  	0.182518 
1035.774192  	0.185116 
1037.703008  	0.188896 
1039.631824  	0.194825 
1041.560640  	0.203933 
1043.489456  	0.216934 
1045.418272  	0.232903 
1047.347088  	0.250491 
1049.275904  	0.266741 
1051.204720  	0.279380 
1053.133536  	0.286522 
1055.062352  	0.289670 
1056.991168  	0.290105 
1058.919984  	0.290342 
1060.848800  	0.289796 
1062.777616  	0.288940 
1064.706432  	0.286860 
1066.635248  	0.284452 
1068.564064  	0.280433 
1070.492880  	0.274649 
1072.421696  	0.268333 
1074.350512  	0.263990 
1076.279328  	0.262372 
1078.208144  	0.264423 
1080.136960  	0.268246 
1082.065776  	0.271565 
1083.994592  	0.271621 
1085.923408  	0.268297 
1087.852224  	0.261235 
1089.781040  	0.252014 
1091.709856  	0.241019 
1093.638672  	0.229001 
1095.567488  	0.215491 
1097.496304  	0.201712 
1099.425120  	0.187565 
1101.353936  	0.174472 
1103.282752  	0.162395 
1105.211568  	0.150808 
1107.140384  	0.139882 
1109.069200  	0.130114 
1110.998016  	0.121073 
1112.926832  	0.112735 
1114.855648  	0.105318 
1116.784464  	0.098585 
1118.713280  	0.091727 
1120.642096  	0.085070 
1122.570912  	0.079044 
1124.499728  	0.073688 
1126.428544  	0.068862 
1128.357360  	0.064717 
1130.286176  	0.061115 
1132.214992  	0.058306 
1134.143808  	0.055946 
1136.072624  	0.053894 
1138.001440  	0.052228 
1139.930256  	0.050715 
1141.859072  	0.049186 
1143.787888  	0.047767 
1145.716704  	0.046449 
1147.645520  	0.045567 
1149.574336  	0.045071 
1151.503152  	0.044842 
1153.431968  	0.045086 
1155.360784  	0.045278 
1157.289600  	0.045677 
1159.218416  	0.046487 
1161.147232  	0.047544 
1163.076048  	0.048546 
1165.004864  	0.049679 
1166.933680  	0.050649 
1168.862496  	0.051931 
1170.791312  	0.053499 
1172.720128  	0.055259 
1174.648944  	0.057457 
1176.577760  	0.059677 
1178.506576  	0.062219 
1180.435392  	0.064830 
1182.364208  	0.067448 
1184.293024  	0.070558 
1186.221840  	0.073922 
1188.150656  	0.077795 
1190.079472  	0.082527 
1192.008288  	0.088097 
1193.937104  	0.094197 
1195.865920  	0.101307 
1197.794736  	0.109389 
1199.723552  	0.117836 
1201.652368  	0.126521 
1203.581184  	0.135132 
1205.510000  	0.143299 
1207.438816  	0.150759 
1209.367632  	0.157674 
1211.296448  	0.163270 
1213.225264  	0.167760 
1215.154080  	0.170690 
1217.082896  	0.172468 
1219.011712  	0.173062 
1220.940528  	0.172965 
1222.869344  	0.171807 
1224.798160  	0.170107 
1226.726976  	0.167475 
1228.655792  	0.164479 
1230.584608  	0.160709 
1232.513424  	0.156361 
1234.442240  	0.151541 
1236.371056  	0.146331 
1238.299872  	0.140507 
1240.228688  	0.133789 
1242.157504  	0.127181 
1244.086320  	0.120884 
1246.015136  	0.114376 
1247.943952  	0.107808 
1249.872768  	0.101497 
1251.801584  	0.095659 
1253.730400  	0.089698 
1255.659216  	0.083978 
1257.588032  	0.078538 
1259.516848  	0.073405 
1261.445664  	0.068704 
1263.374480  	0.064415 
1265.303296  	0.060724 
1267.232112  	0.057746 
1269.160928  	0.055633 
1271.089744  	0.054213 
1273.018560  	0.053597 
1274.947376  	0.053880 
1276.876192  	0.054620 
1278.805008  	0.055087 
1280.733824  	0.054841 
1282.662640  	0.053543 
1284.591456  	0.051927 
1286.520272  	0.050494 
1288.449088  	0.049576 
1290.377904  	0.049656 
1292.306720  	0.050506 
1294.235536  	0.051149 
1296.164352  	0.051017 
1298.093168  	0.049603 
1300.021984  	0.047324 
1301.950800  	0.044775 
1303.879616  	0.042163 
1305.808432  	0.039317 
1307.737248  	0.036338 
1309.666064  	0.033490 
1311.594880  	0.031434 
1313.523696  	0.029934 
1315.452512  	0.028838 
1317.381328  	0.028250 
1319.310144  	0.028260 
1321.238960  	0.028658 
1323.167776  	0.029349 
1325.096592  	0.030071 
1327.025408  	0.030527 
1328.954224  	0.030380 
1330.883040  	0.029710 
1332.811856  	0.028597 
1334.740672  	0.027560 
1336.669488  	0.026827 
1338.598304  	0.026677 
1340.527120  	0.026264 
1342.455936  	0.025478 
1344.384752  	0.025202 
1346.313568  	0.025509 
1348.242384  	0.026247 
1350.171200  	0.027405 
1352.100016  	0.028942 
1354.028832  	0.030721 
1355.957648  	0.032673 
1357.886464  	0.034433 
1359.815280  	0.036211 
1361.744096  	0.038395 
1363.672912  	0.040807 
1365.601728  	0.042435 
1367.530544  	0.043982 
1369.459360  	0.045541 
1371.388176  	0.046180 
1373.316992  	0.045688 
1375.245808  	0.044174 
1377.174624  	0.042419 
1379.103440  	0.040321 
1381.032256  	0.037867 
1382.961072  	0.035725 
1384.889888  	0.033967 
1386.818704  	0.032693 
1388.747520  	0.031204 
1390.676336  	0.029277 
1392.605152  	0.026989 
1394.533968  	0.025507 
1396.462784  	0.025773 
1398.391600  	0.025772 
1400.320416  	0.026055 
1402.249232  	0.026221 
1404.178048  	0.026808 
1406.106864  	0.027843 
1408.035680  	0.028993 
1409.964496  	0.030429 
1411.893312  	0.032320 
1413.822128  	0.034105 
1415.750944  	0.035853 
1417.679760  	0.037030 
1419.608576  	0.037990 
1421.537392  	0.038038 
1423.466208  	0.037511 
1425.395024  	0.036513 
1427.323840  	0.034637 
1429.252656  	0.032204 
1431.181472  	0.030731 
1433.110288  	0.030229 
1435.039104  	0.029709 
1436.967920  	0.030815 
1438.896736  	0.032416 
1440.825552  	0.033140 
1442.754368  	0.033686 
1444.683184  	0.033605 
1446.612000  	0.033243 
1448.540816  	0.033312 
1450.469632  	0.033555 
1452.398448  	0.033580 
1454.327264  	0.033068 
1456.256080  	0.031666 
1458.184896  	0.032166 
1460.113712  	0.033455 
1462.042528  	0.033393 
1463.971344  	0.032585 
1465.900160  	0.033799 
1467.828976  	0.035132 
1469.757792  	0.035964 
1471.686608  	0.037244 
1473.615424  	0.042869 
1475.544240  	0.048210 
1477.473056  	0.053267 
1479.401872  	0.056374 
1481.330688  	0.059301 
1483.259504  	0.061549 
1485.188320  	0.062689 
1487.117136  	0.062568 
1489.045952  	0.062578 
1490.974768  	0.061785 
1492.903584  	0.060172 
1494.832400  	0.056619 
1496.761216  	0.051253 
1498.690032  	0.046404 
1500.618848  	0.043025 
1502.547664  	0.039002 
1504.476480  	0.034117 
1506.405296  	0.029550 
1508.334112  	0.030796 
1510.262928  	0.030439 
1512.191744  	0.029351 
1514.120560  	0.028484 
1516.049376  	0.027919 
1517.978192  	0.028474 
1519.907008  	0.028869 
1521.835824  	0.031813 
1523.764640  	0.036488 
1525.693456  	0.039925 
1527.622272  	0.042621 
1529.551088  	0.043496 
1531.479904  	0.042341 
1533.408720  	0.039526 
1535.337536  	0.037589 
1537.266352  	0.034230 
1539.195168  	0.027900 
1541.123984  	0.025093 
1543.052800  	0.027178 
1544.981616  	0.027980 
1546.910432  	0.027676 
1548.839248  	0.026792 
1550.768064  	0.026735 
1552.696880  	0.025826 
1554.625696  	0.025424 
1556.554512  	0.023483 
1558.483328  	0.021547 
1560.412144  	0.029269 
1562.340960  	0.032003 
1564.269776  	0.033658 
1566.198592  	0.036970 
1568.127408  	0.038525 
1570.056224  	0.043182 
1571.985040  	0.048036 
1573.913856  	0.049627 
1575.842672  	0.050372 
1577.771488  	0.053969 
1579.700304  	0.054692 
1581.629120  	0.054130 
1583.557936  	0.053224 
1585.486752  	0.053446 
1587.415568  	0.054772 
1589.344384  	0.057753 
1591.273200  	0.061738 
1593.202016  	0.066781 
1595.130832  	0.072524 
1597.059648  	0.079105 
1598.988464  	0.084421 
1600.917280  	0.089148 
1602.846096  	0.092650 
1604.774912  	0.095127 
1606.703728  	0.095370 
1608.632544  	0.094753 
1610.561360  	0.093270 
1612.490176  	0.091815 
1614.418992  	0.088803 
1616.347808  	0.087008 
1618.276624  	0.089501 
1620.205440  	0.091684 
1622.134256  	0.092767 
1624.063072  	0.098319 
1625.991888  	0.103441 
1627.920704  	0.109960 
1629.849520  	0.118047 
1631.778336  	0.124426 
1633.707152  	0.128176 
1635.635968  	0.135076 
1637.564784  	0.145535 
1639.493600  	0.151748 
1641.422416  	0.156175 
1643.351232  	0.158754 
1645.280048  	0.158154 
1647.208864  	0.160007 
1649.137680  	0.162589 
1651.066496  	0.161094 
1652.995312  	0.157894 
1654.924128  	0.161508 
1656.852944  	0.160990 
1658.781760  	0.159454 
1660.710576  	0.156186 
1662.639392  	0.152354 
1664.568208  	0.149655 
1666.497024  	0.146370 
1668.425840  	0.140938 
1670.354656  	0.136122 
1672.283472  	0.133150 
1674.212288  	0.129603 
1676.141104  	0.126459 
1678.069920  	0.124554 
1679.998736  	0.122518 
1681.927552  	0.119947 
1683.856368  	0.117097 
1685.785184  	0.119956 
1687.714000  	0.120616 
1689.642816  	0.120773 
1691.571632  	0.120197 
1693.500448  	0.118569 
1695.429264  	0.116017 
1697.358080  	0.115215 
1699.286896  	0.113705 
1701.215712  	0.114532 
1703.144528  	0.113559 
1705.073344  	0.110969 
1707.002160  	0.108287 
1708.930976  	0.105737 
1710.859792  	0.101122 
1712.788608  	0.095186 
1714.717424  	0.087182 
1716.646240  	0.077765 
1718.575056  	0.067610 
1720.503872  	0.060161 
1722.432688  	0.052695 
1724.361504  	0.044066 
1726.290320  	0.036556 
1728.219136  	0.029929 
1730.147952  	0.023961 
1732.076768  	0.018516 
1734.005584  	0.014090 
1735.934400  	0.011509 
1737.863216  	0.009535 
1739.792032  	0.006823 
1741.720848  	0.005926 
1743.649664  	0.005009 
1745.578480  	0.003665 
1747.507296  	0.001872 
1749.436112  	0.001318 
1751.364928  	0.001616 
1753.293744  	0.001424 
1755.222560  	0.000438 
1757.151376  	0.000383 
1759.080192  	-0.000146 
1761.009008  	-0.000793 
1762.937824  	-0.000926 
1764.866640  	-0.000968 
1766.795456  	-0.001502 
1768.724272  	-0.001951 
1770.653088  	-0.004238 
1772.581904  	-0.004592 
1774.510720  	-0.003103 
1776.439536  	-0.002355 
1778.368352  	-0.002585 
1780.297168  	-0.002946 
1782.225984  	-0.002942 
1784.154800  	-0.002581 
1786.083616  	-0.002630 
1788.012432  	-0.003044 
1789.941248  	-0.003880 
1791.870064  	-0.004526 
1793.798880  	-0.004303 
1795.727696  	-0.003688 
1797.656512  	-0.004096 
1799.585328  	-0.004552 
1801.514144  	-0.003905 
1803.442960  	-0.003752 
1805.371776  	-0.004354 
1807.300592  	-0.004352 
1809.229408  	-0.004742 
1811.158224  	-0.004793 
1813.087040  	-0.004609 
1815.015856  	-0.004614 
1816.944672  	-0.004509 
1818.873488  	-0.004244 
1820.802304  	-0.004505 
1822.731120  	-0.004878 
1824.659936  	-0.005148 
1826.588752  	-0.004988 
1828.517568  	-0.005824 
1830.446384  	-0.005259 
1832.375200  	-0.004471 
1834.304016  	-0.004344 
1836.232832  	-0.004551 
1838.161648  	-0.004626 
1840.090464  	-0.004874 
1842.019280  	-0.005162 
1843.948096  	-0.005342 
1845.876912  	-0.004777 
1847.805728  	-0.004612 
1849.734544  	-0.004303 
1851.663360  	-0.004735 
1853.592176  	-0.004937 
1855.520992  	-0.005141 
1857.449808  	-0.004655 
1859.378624  	-0.004650 
1861.307440  	-0.004625 
1863.236256  	-0.004902 
1865.165072  	-0.005393 
1867.093888  	-0.006192 
1869.022704  	-0.005500 
1870.951520  	-0.004765 
1872.880336  	-0.004628 
1874.809152  	-0.004941 
1876.737968  	-0.004996 
1878.666784  	-0.005140 
1880.595600  	-0.004822 
1882.524416  	-0.004933 
1884.453232  	-0.005022 
1886.382048  	-0.005273 
1888.310864  	-0.005113 
1890.239680  	-0.004911 
1892.168496  	-0.004929 
1894.097312  	-0.005493 
1896.026128  	-0.005409 
1897.954944  	-0.004948 
1899.883760  	-0.004515 
1901.812576  	-0.004905 
1903.741392  	-0.005148 
1905.670208  	-0.005331 
1907.599024  	-0.005142 
1909.527840  	-0.004995 
1911.456656  	-0.004787 
1913.385472  	-0.004780 
1915.314288  	-0.004823 
1917.243104  	-0.005282 
1919.171920  	-0.005016 
1921.100736  	-0.004974 
1923.029552  	-0.004641 
1924.958368  	-0.005507 
1926.887184  	-0.005566 
1928.816000  	-0.005090 
1930.744816  	-0.005021 
1932.673632  	-0.005522 
1934.602448  	-0.005198 
1936.531264  	-0.005185 
1938.460080  	-0.005680 
1940.388896  	-0.005944 
1942.317712  	-0.004927 
1944.246528  	-0.004928 
1946.175344  	-0.004861 
1948.104160  	-0.005259 
1950.032976  	-0.005805 
1951.961792  	-0.005700 
1953.890608  	-0.004490 
1955.819424  	-0.004740 
1957.748240  	-0.005353 
1959.677056  	-0.005999 
1961.605872  	-0.005807 
1963.534688  	-0.006727 
1965.463504  	-0.006212 
1967.392320  	-0.006780 
1969.321136  	-0.006861 
1971.249952  	-0.007239 
1973.178768  	-0.006554 
1975.107584  	-0.006008 
1977.036400  	-0.005258 
1978.965216  	-0.004374 
1980.894032  	-0.004631 
1982.822848  	-0.005049 
1984.751664  	-0.004367 
1986.680480  	-0.004443 
1988.609296  	-0.004387 
1990.538112  	-0.005291 
1992.466928  	-0.005241 
1994.395744  	-0.005833 
1996.324560  	-0.005571 
1998.253376  	-0.005867 
2000.182192  	-0.005376 
2002.111008  	-0.005272 
2004.039824  	-0.004934 
2005.968640  	-0.004913 
2007.897456  	-0.004413 
2009.826272  	-0.004374 
2011.755088  	-0.005839 
2013.683904  	-0.006546 
2015.612720  	-0.005122 
2017.541536  	-0.004218 
2019.470352  	-0.002780 
2021.399168  	-0.003780 
2023.327984  	-0.003484 
2025.256800  	-0.003729 
2027.185616  	-0.003811 
2029.114432  	-0.003172 
2031.043248  	-0.002977 
2032.972064  	-0.003058 
2034.900880  	-0.002650 
2036.829696  	-0.003025 
2038.758512  	-0.002207 
2040.687328  	-0.002390 
2042.616144  	-0.001994 
2044.544960  	-0.002176 
2046.473776  	-0.003108 
2048.402592  	-0.004062 
2050.331408  	-0.003941 
2052.260224  	-0.004387 
2054.189040  	-0.004401 
2056.117856  	-0.003985 
2058.046672  	-0.003126 
2059.975488  	-0.003472 
2061.904304  	-0.003890 
2063.833120  	-0.004153 
2065.761936  	-0.003830 
2067.690752  	-0.003775 
2069.619568  	-0.003817 
2071.548384  	-0.004072 
2073.477200  	-0.003742 
2075.406016  	-0.003532 
2077.334832  	-0.003477 
2079.263648  	-0.003624 
2081.192464  	-0.003436 
2083.121280  	-0.003761 
2085.050096  	-0.003896 
2086.978912  	-0.003858 
2088.907728  	-0.003735 
2090.836544  	-0.004284 
2092.765360  	-0.004253 
2094.694176  	-0.004288 
2096.622992  	-0.003886 
2098.551808  	-0.003489 
2100.480624  	-0.003295 
2102.409440  	-0.003344 
2104.338256  	-0.003725 
2106.267072  	-0.003789 
2108.195888  	-0.003344 
2110.124704  	-0.003711 
2112.053520  	-0.003905 
2113.982336  	-0.003697 
2115.911152  	-0.003256 
2117.839968  	-0.003557 
2119.768784  	-0.003987 
2121.697600  	-0.004574 
2123.626416  	-0.004531 
2125.555232  	-0.004894 
2127.484048  	-0.004950 
2129.412864  	-0.004776 
2131.341680  	-0.004869 
2133.270496  	-0.005449 
2135.199312  	-0.004795 
2137.128128  	-0.004723 
2139.056944  	-0.004699 
2140.985760  	-0.004793 
2142.914576  	-0.004651 
2144.843392  	-0.004057 
2146.772208  	-0.003519 
2148.701024  	-0.003029 
2150.629840  	-0.002681 
2152.558656  	-0.003683 
2154.487472  	-0.003157 
2156.416288  	-0.003020 
2158.345104  	-0.000983 
2160.273920  	0.001282 
2162.202736  	0.001517 
2164.131552  	0.001091 
2166.060368  	0.001113 
2167.989184  	0.000381 
2169.918000  	0.000330 
2171.846816  	-0.000499 
2173.775632  	-0.001666 
2175.704448  	-0.002075 
2177.633264  	-0.002166 
2179.562080  	-0.003183 
2181.490896  	-0.002880 
2183.419712  	-0.001621 
2185.348528  	-0.001476 
2187.277344  	-0.001580 
2189.206160  	-0.000732 
2191.134976  	-0.001274 
2193.063792  	-0.000866 
2194.992608  	-0.001190 
2196.921424  	-0.001781 
2198.850240  	-0.002205 
2200.779056  	-0.002221 
2202.707872  	-0.003081 
2204.636688  	-0.003355 
2206.565504  	-0.002693 
2208.494320  	-0.001758 
2210.423136  	-0.001956 
2212.351952  	-0.002866 
2214.280768  	-0.002642 
2216.209584  	-0.002018 
2218.138400  	-0.002539 
2220.067216  	-0.002546 
2221.996032  	-0.002857 
2223.924848  	-0.003249 
2225.853664  	-0.003737 
2227.782480  	-0.003695 
2229.711296  	-0.003125 
2231.640112  	-0.003101 
2233.568928  	-0.003554 
2235.497744  	-0.003227 
2237.426560  	-0.003009 
2239.355376  	-0.002949 
2241.284192  	-0.003029 
2243.213008  	-0.003325 
2245.141824  	-0.003489 
2247.070640  	-0.002971 
2248.999456  	-0.003690 
2250.928272  	-0.004537 
2252.857088  	-0.004660 
2254.785904  	-0.004037 
2256.714720  	-0.003789 
2258.643536  	-0.004120 
2260.572352  	-0.004531 
2262.501168  	-0.004482 
2264.429984  	-0.004347 
2266.358800  	-0.004235 
2268.287616  	-0.004069 
2270.216432  	-0.003799 
2272.145248  	-0.004012 
2274.074064  	-0.003887 
2276.002880  	-0.003750 
2277.931696  	-0.003590 
2279.860512  	-0.003383 
2281.789328  	-0.002840 
2283.718144  	-0.002630 
2285.646960  	-0.002780 
2287.575776  	-0.003199 
2289.504592  	-0.003042 
2291.433408  	-0.002799 
2293.362224  	-0.002806 
2295.291040  	-0.002660 
2297.219856  	-0.002606 
2299.148672  	-0.002682 
2301.077488  	-0.002383 
2303.006304  	-0.002177 
2304.935120  	-0.002096 
2306.863936  	-0.001963 
2308.792752  	-0.001880 
2310.721568  	-0.002109 
2312.650384  	-0.002137 
2314.579200  	-0.002878 
2316.508016  	-0.003502 
2318.436832  	-0.003824 
2320.365648  	-0.004145 
2322.294464  	-0.004529 
2324.223280  	-0.005316 
2326.152096  	-0.007183 
2328.080912  	-0.008569 
2330.009728  	-0.009260 
2331.938544  	-0.009862 
2333.867360  	-0.011066 
2335.796176  	-0.012157 
2337.724992  	-0.012544 
2339.653808  	-0.012501 
2341.582624  	-0.012313 
2343.511440  	-0.011097 
2345.440256  	-0.009000 
2347.369072  	-0.006898 
2349.297888  	-0.006712 
2351.226704  	-0.008380 
2353.155520  	-0.010866 
2355.084336  	-0.013036 
2357.013152  	-0.014567 
2358.941968  	-0.015173 
2360.870784  	-0.014572 
2362.799600  	-0.013950 
2364.728416  	-0.013568 
2366.657232  	-0.011562 
2368.586048  	-0.009250 
2370.514864  	-0.007357 
2372.443680  	-0.005908 
2374.372496  	-0.004494 
2376.301312  	-0.003040 
2378.230128  	-0.001876 
2380.158944  	-0.001463 
2382.087760  	-0.001554 
2384.016576  	-0.002130 
2385.945392  	-0.002664 
2387.874208  	-0.002718 
2389.803024  	-0.002567 
2391.731840  	-0.002674 
2393.660656  	-0.002924 
2395.589472  	-0.003035 
2397.518288  	-0.002881 
2399.447104  	-0.002758 
2401.375920  	-0.002585 
2403.304736  	-0.002529 
2405.233552  	-0.002452 
2407.162368  	-0.002343 
2409.091184  	-0.002381 
2411.020000  	-0.002368 
2412.948816  	-0.002286 
2414.877632  	-0.002263 
2416.806448  	-0.002100 
2418.735264  	-0.002086 
2420.664080  	-0.002105 
2422.592896  	-0.002113 
2424.521712  	-0.001839 
2426.450528  	-0.001515 
2428.379344  	-0.001440 
2430.308160  	-0.001406 
2432.236976  	-0.001566 
2434.165792  	-0.001737 
2436.094608  	-0.001558 
2438.023424  	-0.001407 
2439.952240  	-0.001212 
2441.881056  	-0.001003 
2443.809872  	-0.000954 
2445.738688  	-0.000967 
2447.667504  	-0.000867 
2449.596320  	-0.000777 
2451.525136  	-0.000652 
2453.453952  	-0.000560 
2455.382768  	-0.000309 
2457.311584  	-0.000281 
2459.240400  	-0.000534 
2461.169216  	-0.000552 
2463.098032  	-0.000352 
2465.026848  	-0.000333 
2466.955664  	-0.000433 
2468.884480  	-0.000320 
2470.813296  	-0.000082 
2472.742112  	-0.000174 
2474.670928  	-0.000103 
2476.599744  	0.000051 
2478.528560  	0.000318 
2480.457376  	0.000409 
2482.386192  	0.000174 
2484.315008  	0.000047 
2486.243824  	0.000336 
2488.172640  	0.000757 
2490.101456  	0.000981 
2492.030272  	0.001007 
2493.959088  	0.000944 
2495.887904  	0.001000 
2497.816720  	0.001186 
2499.745536  	0.001334 
2501.674352  	0.001655 
2503.603168  	0.001663 
2505.531984  	0.001600 
2507.460800  	0.001753 
2509.389616  	0.001808 
2511.318432  	0.001591 
2513.247248  	0.001527 
2515.176064  	0.001622 
2517.104880  	0.001878 
2519.033696  	0.002251 
2520.962512  	0.002373 
2522.891328  	0.002243 
2524.820144  	0.002346 
2526.748960  	0.002342 
2528.677776  	0.002184 
2530.606592  	0.002325 
2532.535408  	0.002496 
2534.464224  	0.002447 
2536.393040  	0.002520 
2538.321856  	0.002654 
2540.250672  	0.002604 
2542.179488  	0.002550 
2544.108304  	0.002864 
2546.037120  	0.003163 
2547.965936  	0.003249 
2549.894752  	0.003046 
2551.823568  	0.002887 
2553.752384  	0.002944 
2555.681200  	0.003159 
2557.610016  	0.003425 
2559.538832  	0.003552 
2561.467648  	0.003653 
2563.396464  	0.003531 
2565.325280  	0.003476 
2567.254096  	0.003769 
2569.182912  	0.003966 
2571.111728  	0.004215 
2573.040544  	0.004477 
2574.969360  	0.004680 
2576.898176  	0.004877 
2578.826992  	0.005026 
2580.755808  	0.004792 
2582.684624  	0.004834 
2584.613440  	0.004930 
2586.542256  	0.004929 
2588.471072  	0.004849 
2590.399888  	0.004802 
2592.328704  	0.004901 
2594.257520  	0.005245 
2596.186336  	0.005412 
2598.115152  	0.005401 
2600.043968  	0.005354 
2601.972784  	0.005438 
2603.901600  	0.005565 
2605.830416  	0.005675 
2607.759232  	0.005745 
2609.688048  	0.005816 
2611.616864  	0.005905 
2613.545680  	0.006059 
2615.474496  	0.006289 
2617.403312  	0.006414 
2619.332128  	0.006480 
2621.260944  	0.006536 
2623.189760  	0.006580 
2625.118576  	0.006789 
2627.047392  	0.007080 
2628.976208  	0.007215 
2630.905024  	0.007147 
2632.833840  	0.007289 
2634.762656  	0.007549 
2636.691472  	0.007617 
2638.620288  	0.007708 
2640.549104  	0.007909 
2642.477920  	0.008105 
2644.406736  	0.008238 
2646.335552  	0.008267 
2648.264368  	0.008430 
2650.193184  	0.008607 
2652.122000  	0.008697 
2654.050816  	0.008817 
2655.979632  	0.008948 
2657.908448  	0.009052 
2659.837264  	0.009199 
2661.766080  	0.009371 
2663.694896  	0.009311 
2665.623712  	0.009323 
2667.552528  	0.009635 
2669.481344  	0.009919 
2671.410160  	0.010044 
2673.338976  	0.010057 
2675.267792  	0.010177 
2677.196608  	0.010352 
2679.125424  	0.010492 
2681.054240  	0.010629 
2682.983056  	0.010663 
2684.911872  	0.010816 
2686.840688  	0.011034 
2688.769504  	0.011138 
2690.698320  	0.011171 
2692.627136  	0.011355 
2694.555952  	0.011521 
2696.484768  	0.011553 
2698.413584  	0.011750 
2700.342400  	0.011849 
2702.271216  	0.011997 
2704.200032  	0.012212 
2706.128848  	0.012345 
2708.057664  	0.012479 
2709.986480  	0.012653 
2711.915296  	0.012758 
2713.844112  	0.012811 
2715.772928  	0.012938 
2717.701744  	0.013080 
2719.630560  	0.013157 
2721.559376  	0.013334 
2723.488192  	0.013428 
2725.417008  	0.013567 
2727.345824  	0.013855 
2729.274640  	0.013961 
2731.203456  	0.014026 
2733.132272  	0.014260 
2735.061088  	0.014523 
2736.989904  	0.014668 
2738.918720  	0.014768 
2740.847536  	0.014793 
2742.776352  	0.014898 
2744.705168  	0.015100 
2746.633984  	0.015220 
2748.562800  	0.015314 
2750.491616  	0.015493 
2752.420432  	0.015555 
2754.349248  	0.015534 
2756.278064  	0.015578 
2758.206880  	0.015670 
2760.135696  	0.015770 
2762.064512  	0.015810 
2763.993328  	0.015907 
2765.922144  	0.015875 
2767.850960  	0.015869 
2769.779776  	0.015891 
2771.708592  	0.015924 
2773.637408  	0.015920 
2775.566224  	0.015839 
2777.495040  	0.015893 
2779.423856  	0.015937 
2781.352672  	0.015901 
2783.281488  	0.015944 
2785.210304  	0.016026 
2787.139120  	0.016091 
2789.067936  	0.016090 
2790.996752  	0.016060 
2792.925568  	0.016055 
2794.854384  	0.016026 
2796.783200  	0.016004 
2798.712016  	0.016143 
2800.640832  	0.016352 
2802.569648  	0.016272 
2804.498464  	0.016107 
2806.427280  	0.016172 
2808.356096  	0.016273 
2810.284912  	0.016294 
2812.213728  	0.016262 
2814.142544  	0.016283 
2816.071360  	0.016277 
2818.000176  	0.016322 
2819.928992  	0.016370 
2821.857808  	0.016333 
2823.786624  	0.016326 
2825.715440  	0.016394 
2827.644256  	0.016343 
2829.573072  	0.016349 
2831.501888  	0.016321 
2833.430704  	0.016101 
2835.359520  	0.015918 
2837.288336  	0.015975 
2839.217152  	0.016008 
2841.145968  	0.015924 
2843.074784  	0.015950 
2845.003600  	0.015942 
2846.932416  	0.016038 
2848.861232  	0.016168 
2850.790048  	0.016070 
2852.718864  	0.016045 
2854.647680  	0.016107 
2856.576496  	0.016088 
2858.505312  	0.016064 
2860.434128  	0.016121 
2862.362944  	0.016217 
2864.291760  	0.016246 
2866.220576  	0.016220 
2868.149392  	0.016187 
2870.078208  	0.016175 
2872.007024  	0.016434 
2873.935840  	0.016756 
2875.864656  	0.017048 
2877.793472  	0.017404 
2879.722288  	0.017630 
2881.651104  	0.017874 
2883.579920  	0.018015 
2885.508736  	0.018113 
2887.437552  	0.018326 
2889.366368  	0.018350 
2891.295184  	0.018243 
2893.224000  	0.018188 
2895.152816  	0.018165 
2897.081632  	0.017875 
2899.010448  	0.017324 
2900.939264  	0.016936 
2902.868080  	0.017078 
2904.796896  	0.017311 
2906.725712  	0.017409 
2908.654528  	0.017431 
2910.583344  	0.017717 
2912.512160  	0.018200 
2914.440976  	0.018743 
2916.369792  	0.019232 
2918.298608  	0.019633 
2920.227424  	0.020042 
2922.156240  	0.020412 
2924.085056  	0.020799 
2926.013872  	0.021322 
2927.942688  	0.021923 
2929.871504  	0.022525 
2931.800320  	0.022921 
2933.729136  	0.023450 
2935.657952  	0.023955 
2937.586768  	0.024359 
2939.515584  	0.024780 
2941.444400  	0.025143 
2943.373216  	0.025407 
2945.302032  	0.025334 
2947.230848  	0.025306 
2949.159664  	0.025358 
2951.088480  	0.025137 
2953.017296  	0.024904 
2954.946112  	0.024618 
2956.874928  	0.024293 
2958.803744  	0.023836 
2960.732560  	0.023454 
2962.661376  	0.022945 
2964.590192  	0.022376 
2966.519008  	0.021704 
2968.447824  	0.020848 
2970.376640  	0.020024 
2972.305456  	0.019262 
2974.234272  	0.018648 
2976.163088  	0.018160 
2978.091904  	0.017780 
2980.020720  	0.017488 
2981.949536  	0.017465 
2983.878352  	0.017480 
2985.807168  	0.017328 
2987.735984  	0.017319 
2989.664800  	0.017766 
2991.593616  	0.018676 
2993.522432  	0.019255 
2995.451248  	0.019603 
2997.380064  	0.020002 
2999.308880  	0.020422 
3001.237696  	0.020911 
3003.166512  	0.021313 
3005.095328  	0.021531 
3007.024144  	0.021837 
3008.952960  	0.022395 
3010.881776  	0.022961 
3012.810592  	0.023233 
3014.739408  	0.023490 
3016.668224  	0.023854 
3018.597040  	0.024272 
3020.525856  	0.024561 
3022.454672  	0.024820 
3024.383488  	0.025081 
3026.312304  	0.025494 
3028.241120  	0.025823 
3030.169936  	0.026063 
3032.098752  	0.026448 
3034.027568  	0.026727 
3035.956384  	0.026936 
3037.885200  	0.027145 
3039.814016  	0.027437 
3041.742832  	0.027775 
3043.671648  	0.028141 
3045.600464  	0.028559 
3047.529280  	0.028725 
3049.458096  	0.028992 
3051.386912  	0.029304 
3053.315728  	0.029436 
3055.244544  	0.029631 
3057.173360  	0.030246 
3059.102176  	0.030714 
3061.030992  	0.030960 
3062.959808  	0.031203 
3064.888624  	0.031626 
3066.817440  	0.032241 
3068.746256  	0.032836 
3070.675072  	0.033201 
3072.603888  	0.033603 
3074.532704  	0.033998 
3076.461520  	0.034299 
3078.390336  	0.034723 
3080.319152  	0.035209 
3082.247968  	0.035754 
3084.176784  	0.036388 
3086.105600  	0.036855 
3088.034416  	0.037099 
3089.963232  	0.037456 
3091.892048  	0.037963 
3093.820864  	0.038450 
3095.749680  	0.038933 
3097.678496  	0.039258 
3099.607312  	0.039703 
3101.536128  	0.040198 
3103.464944  	0.040631 
3105.393760  	0.041078 
3107.322576  	0.041472 
3109.251392  	0.041936 
3111.180208  	0.042301 
3113.109024  	0.042360 
3115.037840  	0.042662 
3116.966656  	0.043072 
3118.895472  	0.043364 
3120.824288  	0.043559 
3122.753104  	0.043829 
3124.681920  	0.044025 
3126.610736  	0.044409 
3128.539552  	0.044776 
3130.468368  	0.044774 
3132.397184  	0.044833 
3134.326000  	0.045209 
3136.254816  	0.045479 
3138.183632  	0.045755 
3140.112448  	0.046120 
3142.041264  	0.046240 
3143.970080  	0.046289 
3145.898896  	0.046737 
3147.827712  	0.047236 
3149.756528  	0.047454 
3151.685344  	0.047781 
3153.614160  	0.048090 
3155.542976  	0.048275 
3157.471792  	0.048633 
3159.400608  	0.049018 
3161.329424  	0.049115 
3163.258240  	0.049168 
3165.187056  	0.049297 
3167.115872  	0.049526 
3169.044688  	0.050022 
3170.973504  	0.050602 
3172.902320  	0.050688 
3174.831136  	0.050551 
3176.759952  	0.050610 
3178.688768  	0.050823 
3180.617584  	0.051145 
3182.546400  	0.051092 
3184.475216  	0.050915 
3186.404032  	0.050897 
3188.332848  	0.050947 
3190.261664  	0.050792 
3192.190480  	0.050698 
3194.119296  	0.050485 
3196.048112  	0.050194 
3197.976928  	0.050102 
3199.905744  	0.050020 
3201.834560  	0.049540 
3203.763376  	0.049193 
3205.692192  	0.049059 
3207.621008  	0.048623 
3209.549824  	0.048246 
3211.478640  	0.048070 
3213.407456  	0.047934 
3215.336272  	0.047740 
3217.265088  	0.047279 
3219.193904  	0.046933 
3221.122720  	0.046804 
3223.051536  	0.046722 
3224.980352  	0.046528 
3226.909168  	0.046054 
3228.837984  	0.045542 
3230.766800  	0.045354 
3232.695616  	0.045185 
3234.624432  	0.044935 
3236.553248  	0.044765 
3238.482064  	0.044820 
3240.410880  	0.045012 
3242.339696  	0.044819 
3244.268512  	0.044596 
3246.197328  	0.044808 
3248.126144  	0.044775 
3250.054960  	0.044841 
3251.983776  	0.044789 
3253.912592  	0.044915 
3255.841408  	0.045207 
3257.770224  	0.045595 
3259.699040  	0.045741 
3261.627856  	0.045672 
3263.556672  	0.045629 
3265.485488  	0.045878 
3267.414304  	0.046168 
3269.343120  	0.046459 
3271.271936  	0.046634 
3273.200752  	0.046631 
3275.129568  	0.046866 
3277.058384  	0.047180 
3278.987200  	0.047152 
3280.916016  	0.047255 
3282.844832  	0.047345 
3284.773648  	0.047311 
3286.702464  	0.047211 
3288.631280  	0.047230 
3290.560096  	0.047432 
3292.488912  	0.048124 
3294.417728  	0.048403 
3296.346544  	0.048456 
3298.275360  	0.048937 
3300.204176  	0.049258 
3302.132992  	0.049591 
3304.061808  	0.049787 
3305.990624  	0.049841 
3307.919440  	0.050059 
3309.848256  	0.050435 
3311.777072  	0.050835 
3313.705888  	0.051130 
3315.634704  	0.051192 
3317.563520  	0.051402 
3319.492336  	0.051836 
3321.421152  	0.052071 
3323.349968  	0.052099 
3325.278784  	0.052205 
3327.207600  	0.052318 
3329.136416  	0.052658 
3331.065232  	0.052785 
3332.994048  	0.052837 
3334.922864  	0.053230 
3336.851680  	0.053596 
3338.780496  	0.053445 
3340.709312  	0.052977 
3342.638128  	0.052801 
3344.566944  	0.052674 
3346.495760  	0.052413 
3348.424576  	0.052033 
3350.353392  	0.052020 
3352.282208  	0.051921 
3354.211024  	0.051515 
3356.139840  	0.051213 
3358.068656  	0.051002 
3359.997472  	0.050758 
3361.926288  	0.050493 
3363.855104  	0.050202 
3365.783920  	0.050255 
3367.712736  	0.049878 
3369.641552  	0.049609 
3371.570368  	0.049425 
3373.499184  	0.049152 
3375.428000  	0.048860 
3377.356816  	0.048756 
3379.285632  	0.048729 
3381.214448  	0.048409 
3383.143264  	0.047946 
3385.072080  	0.047870 
3387.000896  	0.047633 
3388.929712  	0.047235 
3390.858528  	0.046846 
3392.787344  	0.046907 
3394.716160  	0.046698 
3396.644976  	0.046355 
3398.573792  	0.046113 
3400.502608  	0.045804 
3402.431424  	0.045686 
3404.360240  	0.045518 
3406.289056  	0.045172 
3408.217872  	0.044900 
3410.146688  	0.044661 
3412.075504  	0.044371 
3414.004320  	0.044056 
3415.933136  	0.043727 
3417.861952  	0.043148 
3419.790768  	0.042819 
3421.719584  	0.042765 
3423.648400  	0.042465 
3425.577216  	0.042166 
3427.506032  	0.041910 
3429.434848  	0.041527 
3431.363664  	0.041179 
3433.292480  	0.040867 
3435.221296  	0.040420 
3437.150112  	0.039970 
3439.078928  	0.039738 
3441.007744  	0.039488 
3442.936560  	0.039075 
3444.865376  	0.038353 
3446.794192  	0.038224 
3448.723008  	0.038430 
3450.651824  	0.037571 
3452.580640  	0.036911 
3454.509456  	0.036581 
3456.438272  	0.035980 
3458.367088  	0.035473 
3460.295904  	0.035215 
3462.224720  	0.035063 
3464.153536  	0.034607 
3466.082352  	0.033910 
3468.011168  	0.033441 
3469.939984  	0.032702 
3471.868800  	0.031894 
3473.797616  	0.031205 
3475.726432  	0.030817 
3477.655248  	0.030179 
3479.584064  	0.029496 
3481.512880  	0.029307 
3483.441696  	0.028937 
3485.370512  	0.028073 
3487.299328  	0.027575 
3489.228144  	0.027206 
3491.156960  	0.026311 
3493.085776  	0.025456 
3495.014592  	0.025011 
3496.943408  	0.024821 
3498.872224  	0.024153 
3500.801040  	0.023165 
3502.729856  	0.023181 
3504.658672  	0.023090 
3506.587488  	0.022168 
3508.516304  	0.021745 
3510.445120  	0.021983 
3512.373936  	0.021385 
3514.302752  	0.020583 
3516.231568  	0.019954 
3518.160384  	0.019214 
3520.089200  	0.018550 
3522.018016  	0.018014 
3523.946832  	0.018370 
3525.875648  	0.017787 
3527.804464  	0.017098 
3529.733280  	0.017119 
3531.662096  	0.016859 
3533.590912  	0.016037 
3535.519728  	0.015717 
3537.448544  	0.015859 
3539.377360  	0.014944 
3541.306176  	0.014147 
3543.234992  	0.013558 
3545.163808  	0.014185 
3547.092624  	0.014685 
3549.021440  	0.013437 
3550.950256  	0.012029 
3552.879072  	0.012265 
3554.807888  	0.012186 
3556.736704  	0.011289 
3558.665520  	0.010626 
3560.594336  	0.010195 
3562.523152  	0.009096 
3564.451968  	0.007646 
3566.380784  	0.008500 
3568.309600  	0.011018 
3570.238416  	0.009596 
3572.167232  	0.007736 
3574.096048  	0.006904 
3576.024864  	0.006388 
3577.953680  	0.006054 
3579.882496  	0.005884 
3581.811312  	0.005259 
3583.740128  	0.003601 
3585.668944  	0.002570 
3587.597760  	0.004418 
3589.526576  	0.004655 
3591.455392  	0.001952 
3593.384208  	0.000972 
3595.313024  	0.001497 
3597.241840  	0.000763 
3599.170656  	-0.000703 
3601.099472  	-0.000804 
3603.028288  	-0.000991 
3604.957104  	-0.002481 
3606.885920  	-0.003393 
3608.814736  	-0.002556 
3610.743552  	-0.003476 
3612.672368  	-0.004499 
3614.601184  	-0.004704 
3616.530000  	-0.006856 
3618.458816  	-0.007442 
3620.387632  	-0.005691 
3622.316448  	-0.006101 
3624.245264  	-0.008060 
3626.174080  	-0.011050 
3628.102896  	-0.011795 
3630.031712  	-0.007631 
3631.960528  	-0.009078 
3633.889344  	-0.009658 
3635.818160  	-0.009949 
3637.746976  	-0.011153 
3639.675792  	-0.011765 
3641.604608  	-0.012137 
3643.533424  	-0.013118 
3645.462240  	-0.015789 
3647.391056  	-0.017642 
3649.319872  	-0.016523 
3651.248688  	-0.013173 
3653.177504  	-0.014711 
3655.106320  	-0.016362 
3657.035136  	-0.014987 
3658.963952  	-0.015111 
3660.892768  	-0.015513 
3662.821584  	-0.016118 
3664.750400  	-0.016731 
3666.679216  	-0.018314 
3668.608032  	-0.020562 
3670.536848  	-0.018617 
3672.465664  	-0.019477 
3674.394480  	-0.021895 
3676.323296  	-0.017759 
3678.252112  	-0.017486 
3680.180928  	-0.017005 
3682.109744  	-0.016899 
3684.038560  	-0.017701 
3685.967376  	-0.019645 
3687.896192  	-0.021159 
3689.825008  	-0.019803 
3691.753824  	-0.017792 
3693.682640  	-0.017001 
3695.611456  	-0.017002 
3697.540272  	-0.017092 
3699.469088  	-0.018187 
3701.397904  	-0.017900 
3703.326720  	-0.016666 
3705.255536  	-0.017190 
3707.184352  	-0.018701 
3709.113168  	-0.020507 
3711.041984  	-0.019915 
3712.970800  	-0.016450 
3714.899616  	-0.015955 
3716.828432  	-0.017153 
3718.757248  	-0.017650 
3720.686064  	-0.018469 
3722.614880  	-0.018310 
3724.543696  	-0.017678 
3726.472512  	-0.016990 
3728.401328  	-0.017471 
3730.330144  	-0.020064 
3732.258960  	-0.021219 
3734.187776  	-0.020024 
3736.116592  	-0.016968 
3738.045408  	-0.016761 
3739.974224  	-0.017897 
3741.903040  	-0.019929 
3743.831856  	-0.019799 
3745.760672  	-0.016924 
3747.689488  	-0.020131 
3749.618304  	-0.021588 
3751.547120  	-0.018661 
3753.475936  	-0.016032 
3755.404752  	-0.017282 
3757.333568  	-0.018088 
3759.262384  	-0.017362 
3761.191200  	-0.015977 
3763.120016  	-0.016866 
3765.048832  	-0.016763 
3766.977648  	-0.016708 
3768.906464  	-0.017470 
3770.835280  	-0.015935 
3772.764096  	-0.015650 
3774.692912  	-0.016175 
3776.621728  	-0.017016 
3778.550544  	-0.017434 
3780.479360  	-0.016075 
3782.408176  	-0.016608 
3784.336992  	-0.016753 
3786.265808  	-0.015787 
3788.194624  	-0.015672 
3790.123440  	-0.016106 
3792.052256  	-0.016406 
3793.981072  	-0.017361 
3795.909888  	-0.017888 
3797.838704  	-0.017950 
3799.767520  	-0.019884 
3801.696336  	-0.018585 
3803.625152  	-0.017452 
3805.553968  	-0.019118 
3807.482784  	-0.017128 
3809.411600  	-0.016143 
3811.340416  	-0.016537 
3813.269232  	-0.018178 
3815.198048  	-0.019168 
3817.126864  	-0.017918 
3819.055680  	-0.020175 
3820.984496  	-0.019109 
3822.913312  	-0.016182 
3824.842128  	-0.017493 
3826.770944  	-0.017434 
3828.699760  	-0.017506 
3830.628576  	-0.018264 
3832.557392  	-0.018296 
3834.486208  	-0.019292 
3836.415024  	-0.020406 
3838.343840  	-0.019646 
3840.272656  	-0.018206 
3842.201472  	-0.017496 
3844.130288  	-0.016536 
3846.059104  	-0.016387 
3847.987920  	-0.017691 
3849.916736  	-0.019989 
3851.845552  	-0.022423 
3853.774368  	-0.018008 
3855.703184  	-0.015459 
3857.632000  	-0.016109 
3859.560816  	-0.017228 
3861.489632  	-0.018128 
3863.418448  	-0.018098 
3865.347264  	-0.016515 
3867.276080  	-0.017763 
3869.204896  	-0.018593 
3871.133712  	-0.016537 
3873.062528  	-0.017467 
3874.991344  	-0.016077 
3876.920160  	-0.016690 
3878.848976  	-0.017733 
3880.777792  	-0.016338 
3882.706608  	-0.016619 
3884.635424  	-0.017137 
3886.564240  	-0.015104 
3888.493056  	-0.016871 
3890.421872  	-0.017768 
3892.350688  	-0.016184 
3894.279504  	-0.015927 
3896.208320  	-0.016998 
3898.137136  	-0.017661 
3900.065952  	-0.017109 
3901.994768  	-0.016925 
3903.923584  	-0.015895 
3905.852400  	-0.015061 
3907.781216  	-0.015797 
3909.710032  	-0.016193 
3911.638848  	-0.016063 
3913.567664  	-0.016364 
3915.496480  	-0.016551 
3917.425296  	-0.015701 
3919.354112  	-0.015833 
3921.282928  	-0.016274 
3923.211744  	-0.016506 
3925.140560  	-0.015630 
3927.069376  	-0.016002 
3928.998192  	-0.016758 
3930.927008  	-0.016297 
3932.855824  	-0.015188 
3934.784640  	-0.015465 
3936.713456  	-0.016078 
3938.642272  	-0.016081 
3940.571088  	-0.016468 
3942.499904  	-0.015875 
3944.428720  	-0.015514 
3946.357536  	-0.016252 
3948.286352  	-0.015960 
3950.215168  	-0.015481 
3952.143984  	-0.015866 
3954.072800  	-0.016253 
3956.001616  	-0.016124 
3957.930432  	-0.015991 
3959.859248  	-0.016109 
3961.788064  	-0.015838 
3963.716880  	-0.015559 
3965.645696  	-0.015923 
3967.574512  	-0.016316 
3969.503328  	-0.016249 
3971.432144  	-0.016122 
3973.360960  	-0.016040 
3975.289776  	-0.015872 
3977.218592  	-0.015782 
3979.147408  	-0.015941 
3981.076224  	-0.016044 
3983.005040  	-0.015841 
3984.933856  	-0.015857 
3986.862672  	-0.016085 
3988.791488  	-0.016138 
3990.720304  	-0.015943 
3992.649120  	-0.015941 
3994.577936  	-0.015944 
3996.506752  	-0.015950 
3998.435568  	-0.015942 
4000.364384  	-0.016065 