##TITLE=No Description
##DATA TYPE=INFRARED SPECTRUM
##XUNITS=1/CM
##YUNITS=Abs
399.264912  	0.536962 
401.193728  	0.537915 
403.122544  	0.551510 
405.051360  	0.548265 
406.980176  	0.552416 
408.908992  	0.530784 
410.837808  	0.529037 
412.766624  	0.538181 
414.695440  	0.532507 
416.624256  	0.523071 
418.553072  	0.524674 
420.481888  	0.510313 
422.410704  	0.517408 
424.339520  	0.516983 
426.268336  	0.511713 
428.197152  	0.506695 
430.125968  	0.500064 
432.054784  	0.488448 
433.983600  	0.487409 
435.912416  	0.484221 
437.841232  	0.486266 
439.770048  	0.480627 
441.698864  	0.480077 
443.627680  	0.477321 
445.556496  	0.481368 
447.485312  	0.479612 
449.414128  	0.480543 
451.342944  	0.482043 
453.271760  	0.482844 
455.200576  	0.476898 
457.129392  	0.481338 
459.058208  	0.480453 
460.987024  	0.480727 
462.915840  	0.472980 
464.844656  	0.469862 
466.773472  	0.468102 
468.702288  	0.470663 
470.631104  	0.469976 
472.559920  	0.471406 
474.488736  	0.465415 
476.417552  	0.463755 
478.346368  	0.459718 
480.275184  	0.460525 
482.204000  	0.460216 
484.132816  	0.462943 
486.061632  	0.466170 
487.990448  	0.463052 
489.919264  	0.457132 
491.848080  	0.459271 
493.776896  	0.456073 
495.705712  	0.453951 
497.634528  	0.450753 
499.563344  	0.453101 
501.492160  	0.453783 
503.420976  	0.451015 
505.349792  	0.449236 
507.278608  	0.449912 
509.207424  	0.447075 
511.136240  	0.446539 
513.065056  	0.445669 
514.993872  	0.448673 
516.922688  	0.450584 
518.851504  	0.452112 
520.780320  	0.447550 
522.709136  	0.447468 
524.637952  	0.447729 
526.566768  	0.446314 
528.495584  	0.442002 
530.424400  	0.441241 
532.353216  	0.438943 
534.282032  	0.435515 
536.210848  	0.428921 
538.139664  	0.425069 
540.068480  	0.421533 
541.997296  	0.418091 
543.926112  	0.413879 
545.854928  	0.412072 
547.783744  	0.409100 
549.712560  	0.406922 
551.641376  	0.404729 
553.570192  	0.401527 
555.499008  	0.398474 
557.427824  	0.396908 
559.356640  	0.392802 
561.285456  	0.389807 
563.214272  	0.386682 
565.143088  	0.384695 
567.071904  	0.381423 
569.000720  	0.378630 
570.929536  	0.375666 
572.858352  	0.375003 
574.787168  	0.372245 
576.715984  	0.369405 
578.644800  	0.366207 
580.573616  	0.362638 
582.502432  	0.357723 
584.431248  	0.353568 
586.360064  	0.350334 
588.288880  	0.348228 
590.217696  	0.345982 
592.146512  	0.343934 
594.075328  	0.342184 
596.004144  	0.340659 
597.932960  	0.338921 
599.861776  	0.338020 
601.790592  	0.335445 
603.719408  	0.334103 
605.648224  	0.332698 
607.577040  	0.331356 
609.505856  	0.329219 
611.434672  	0.327470 
613.363488  	0.325613 
615.292304  	0.324980 
617.221120  	0.322622 
619.149936  	0.320903 
621.078752  	0.319094 
623.007568  	0.318354 
624.936384  	0.317464 
626.865200  	0.315835 
628.794016  	0.314297 
630.722832  	0.313483 
632.651648  	0.312176 
634.580464  	0.311491 
636.509280  	0.311255 
638.438096  	0.310784 
640.366912  	0.309933 
642.295728  	0.308246 
644.224544  	0.305542 
646.153360  	0.303634 
648.082176  	0.300047 
650.010992  	0.296681 
651.939808  	0.292252 
653.868624  	0.289105 
655.797440  	0.286117 
657.726256  	0.283409 
659.655072  	0.279588 
661.583888  	0.275980 
663.512704  	0.272556 
665.441520  	0.268848 
667.370336  	0.263831 
669.299152  	0.260973 
671.227968  	0.258057 
673.156784  	0.255117 
675.085600  	0.252797 
677.014416  	0.250609 
678.943232  	0.248325 
680.872048  	0.246839 
682.800864  	0.244863 
684.729680  	0.243533 
686.658496  	0.242143 
688.587312  	0.240803 
690.516128  	0.238640 
692.444944  	0.237210 
694.373760  	0.236249 
696.302576  	0.235003 
698.231392  	0.232636 
700.160208  	0.230610 
702.089024  	0.228462 
704.017840  	0.226528 
705.946656  	0.224236 
707.875472  	0.222322 
709.804288  	0.220297 
711.733104  	0.218199 
713.661920  	0.216311 
715.590736  	0.215267 
717.519552  	0.215031 
719.448368  	0.214703 
721.377184  	0.214503 
723.306000  	0.214247 
725.234816  	0.213905 
727.163632  	0.212934 
729.092448  	0.211058 
731.021264  	0.208462 
732.950080  	0.205498 
734.878896  	0.202978 
736.807712  	0.200128 
738.736528  	0.198015 
740.665344  	0.196112 
742.594160  	0.194452 
744.522976  	0.192900 
746.451792  	0.192098 
748.380608  	0.190860 
750.309424  	0.189755 
752.238240  	0.188398 
754.167056  	0.187793 
756.095872  	0.186669 
758.024688  	0.184995 
759.953504  	0.184207 
761.882320  	0.184265 
763.811136  	0.184515 
765.739952  	0.183422 
767.668768  	0.181234 
769.597584  	0.178866 
771.526400  	0.177543 
773.455216  	0.177878 
775.384032  	0.179670 
777.312848  	0.182970 
779.241664  	0.185273 
781.170480  	0.184865 
783.099296  	0.181326 
785.028112  	0.176994 
786.956928  	0.172664 
788.885744  	0.168936 
790.814560  	0.165655 
792.743376  	0.163763 
794.672192  	0.162900 
796.601008  	0.161773 
798.529824  	0.159054 
800.458640  	0.155529 
802.387456  	0.152229 
804.316272  	0.150181 
806.245088  	0.148821 
808.173904  	0.147955 
810.102720  	0.147475 
812.031536  	0.146921 
813.960352  	0.146551 
815.889168  	0.146398 
817.817984  	0.146424 
819.746800  	0.146610 
821.675616  	0.146784 
823.604432  	0.147018 
825.533248  	0.147010 
827.462064  	0.146651 
829.390880  	0.145892 
831.319696  	0.144881 
833.248512  	0.143092 
835.177328  	0.141522 
837.106144  	0.139634 
839.034960  	0.137204 
840.963776  	0.134389 
842.892592  	0.131742 
844.821408  	0.128669 
846.750224  	0.125819 
848.679040  	0.123711 
850.607856  	0.121981 
852.536672  	0.120786 
854.465488  	0.119546 
856.394304  	0.118516 
858.323120  	0.117375 
860.251936  	0.116155 
862.180752  	0.114700 
864.109568  	0.112809 
866.038384  	0.110654 
867.967200  	0.108746 
869.896016  	0.107390 
871.824832  	0.105836 
873.753648  	0.104494 
875.682464  	0.104000 
877.611280  	0.104535 
879.540096  	0.106215 
881.468912  	0.108770 
883.397728  	0.111152 
885.326544  	0.112974 
887.255360  	0.114156 
889.184176  	0.114485 
891.112992  	0.114181 
893.041808  	0.113315 
894.970624  	0.111448 
896.899440  	0.108707 
898.828256  	0.105737 
900.757072  	0.102495 
902.685888  	0.099418 
904.614704  	0.097521 
906.543520  	0.096850 
908.472336  	0.097163 
910.401152  	0.098347 
912.329968  	0.100300 
914.258784  	0.102535 
916.187600  	0.104410 
918.116416  	0.105984 
920.045232  	0.107350 
921.974048  	0.108091 
923.902864  	0.108578 
925.831680  	0.108853 
927.760496  	0.109127 
929.689312  	0.109548 
931.618128  	0.110408 
933.546944  	0.111041 
935.475760  	0.111359 
937.404576  	0.111288 
939.333392  	0.110768 
941.262208  	0.110334 
943.191024  	0.110725 
945.119840  	0.112547 
947.048656  	0.115755 
948.977472  	0.120749 
950.906288  	0.127199 
952.835104  	0.134897 
954.763920  	0.143766 
956.692736  	0.153022 
958.621552  	0.161704 
960.550368  	0.168349 
962.479184  	0.172914 
964.408000  	0.174114 
966.336816  	0.171963 
968.265632  	0.166405 
970.194448  	0.158415 
972.123264  	0.148237 
974.052080  	0.137214 
975.980896  	0.126280 
977.909712  	0.115652 
979.838528  	0.105965 
981.767344  	0.098179 
983.696160  	0.092707 
985.624976  	0.089132 
987.553792  	0.087795 
989.482608  	0.088808 
991.411424  	0.091787 
993.340240  	0.096266 
995.269056  	0.101632 
997.197872  	0.107439 
999.126688  	0.113187 
1001.055504  	0.119112 
1002.984320  	0.124822 
1004.913136  	0.130651 
1006.841952  	0.136023 
1008.770768  	0.141076 
1010.699584  	0.145346 
1012.628400  	0.148773 
1014.557216  	0.151254 
1016.486032  	0.153164 
1018.414848  	0.154562 
1020.343664  	0.155218 
1022.272480  	0.155616 
1024.201296  	0.156101 
1026.130112  	0.155944 
1028.058928  	0.156145 
1029.987744  	0.157407 
1031.916560  	0.158920 
1033.845376  	0.160221 
1035.774192  	0.161865 
1037.703008  	0.164323 
1039.631824  	0.168626 
1041.560640  	0.175646 
1043.489456  	0.186247 
1045.418272  	0.199844 
1047.347088  	0.215381 
1049.275904  	0.230244 
1051.204720  	0.242406 
1053.133536  	0.250228 
1055.062352  	0.254589 
1056.991168  	0.256176 
1058.919984  	0.257138 
1060.848800  	0.257392 
1062.777616  	0.257274 
1064.706432  	0.255982 
1066.635248  	0.254118 
1068.564064  	0.250901 
1070.492880  	0.246174 
1072.421696  	0.240615 
1074.350512  	0.236505 
1076.279328  	0.234765 
1078.208144  	0.236461 
1080.136960  	0.239713 
1082.065776  	0.242859 
1083.994592  	0.243563 
1085.923408  	0.241304 
1087.852224  	0.235736 
1089.781040  	0.228704 
1091.709856  	0.219699 
1093.638672  	0.209223 
1095.567488  	0.197270 
1097.496304  	0.185352 
1099.425120  	0.173036 
1101.353936  	0.161109 
1103.282752  	0.149926 
1105.211568  	0.139432 
1107.140384  	0.129564 
1109.069200  	0.120688 
1110.998016  	0.112248 
1112.926832  	0.104444 
1114.855648  	0.097527 
1116.784464  	0.091208 
1118.713280  	0.084906 
1120.642096  	0.078838 
1122.570912  	0.073129 
1124.499728  	0.067999 
1126.428544  	0.063717 
1128.357360  	0.059962 
1130.286176  	0.056319 
1132.214992  	0.053532 
1134.143808  	0.051489 
1136.072624  	0.049669 
1138.001440  	0.047996 
1139.930256  	0.046524 
1141.859072  	0.045135 
1143.787888  	0.043815 
1145.716704  	0.042660 
1147.645520  	0.041929 
1149.574336  	0.041417 
1151.503152  	0.041167 
1153.431968  	0.041320 
1155.360784  	0.041453 
1157.289600  	0.041800 
1159.218416  	0.042243 
1161.147232  	0.043000 
1163.076048  	0.043939 
1165.004864  	0.044938 
1166.933680  	0.045812 
1168.862496  	0.046853 
1170.791312  	0.048127 
1172.720128  	0.049596 
1174.648944  	0.051599 
1176.577760  	0.053428 
1178.506576  	0.055347 
1180.435392  	0.057492 
1182.364208  	0.059794 
1184.293024  	0.062311 
1186.221840  	0.065208 
1188.150656  	0.068639 
1190.079472  	0.072547 
1192.008288  	0.077183 
1193.937104  	0.082771 
1195.865920  	0.089045 
1197.794736  	0.095792 
1199.723552  	0.103075 
1201.652368  	0.110824 
1203.581184  	0.118340 
1205.510000  	0.125488 
1207.438816  	0.132183 
1209.367632  	0.138389 
1211.296448  	0.143598 
1213.225264  	0.147877 
1215.154080  	0.150620 
1217.082896  	0.152528 
1219.011712  	0.153359 
1220.940528  	0.153737 
1222.869344  	0.153208 
1224.798160  	0.151922 
1226.726976  	0.149729 
1228.655792  	0.147512 
1230.584608  	0.144662 
1232.513424  	0.141135 
1234.442240  	0.136883 
1236.371056  	0.132149 
1238.299872  	0.126967 
1240.228688  	0.121054 
1242.157504  	0.115110 
1244.086320  	0.109550 
1246.015136  	0.103669 
1247.943952  	0.097605 
1249.872768  	0.091914 
1251.801584  	0.086589 
1253.730400  	0.081065 
1255.659216  	0.075903 
1257.588032  	0.071004 
1259.516848  	0.066347 
1261.445664  	0.061854 
1263.374480  	0.057786 
1265.303296  	0.054365 
1267.232112  	0.051588 
1269.160928  	0.049573 
1271.089744  	0.048308 
1273.018560  	0.047747 
1274.947376  	0.047838 
1276.876192  	0.048342 
1278.805008  	0.048686 
1280.733824  	0.048410 
1282.662640  	0.047312 
1284.591456  	0.045885 
1286.520272  	0.044453 
1288.449088  	0.043511 
1290.377904  	0.043523 
1292.306720  	0.044285 
1294.235536  	0.044814 
1296.164352  	0.044626 
1298.093168  	0.043206 
1300.021984  	0.040999 
1301.950800  	0.038685 
1303.879616  	0.036376 
1305.808432  	0.033907 
1307.737248  	0.031268 
1309.666064  	0.028854 
1311.594880  	0.027012 
1313.523696  	0.025680 
1315.452512  	0.024764 
1317.381328  	0.024232 
1319.310144  	0.024207 
1321.238960  	0.024538 
1323.167776  	0.025163 
1325.096592  	0.025737 
1327.025408  	0.026202 
1328.954224  	0.026122 
1330.883040  	0.025472 
1332.811856  	0.024413 
1334.740672  	0.023391 
1336.669488  	0.022822 
1338.598304  	0.022754 
1340.527120  	0.022312 
1342.455936  	0.021535 
1344.384752  	0.021306 
1346.313568  	0.021548 
1348.242384  	0.022196 
1350.171200  	0.023280 
1352.100016  	0.024647 
1354.028832  	0.026283 
1355.957648  	0.028018 
1357.886464  	0.029489 
1359.815280  	0.031072 
1361.744096  	0.033171 
1363.672912  	0.035542 
1365.601728  	0.036918 
1367.530544  	0.038151 
1369.459360  	0.039464 
1371.388176  	0.039866 
1373.316992  	0.039381 
1375.245808  	0.038134 
1377.174624  	0.036410 
1379.103440  	0.034440 
1381.032256  	0.032242 
1382.961072  	0.030352 
1384.889888  	0.028734 
1386.818704  	0.027710 
1388.747520  	0.026527 
1390.676336  	0.024666 
1392.605152  	0.022455 
1394.533968  	0.021029 
1396.462784  	0.021349 
1398.391600  	0.021360 
1400.320416  	0.021701 
1402.249232  	0.021710 
1404.178048  	0.022169 
1406.106864  	0.023239 
1408.035680  	0.024328 
1409.964496  	0.025652 
1411.893312  	0.027475 
1413.822128  	0.028920 
1415.750944  	0.030304 
1417.679760  	0.031275 
1419.608576  	0.032413 
1421.537392  	0.032497 
1423.466208  	0.031905 
1425.395024  	0.031077 
1427.323840  	0.029275 
1429.252656  	0.027081 
1431.181472  	0.026002 
1433.110288  	0.025549 
1435.039104  	0.024930 
1436.967920  	0.026173 
1438.896736  	0.027528 
1440.825552  	0.027944 
1442.754368  	0.028276 
1444.683184  	0.028051 
1446.612000  	0.027629 
1448.540816  	0.027866 
1450.469632  	0.028125 
1452.398448  	0.027924 
1454.327264  	0.027162 
1456.256080  	0.025788 
1458.184896  	0.026898 
1460.113712  	0.028281 
1462.042528  	0.028074 
1463.971344  	0.027166 
1465.900160  	0.028512 
1467.828976  	0.029960 
1469.757792  	0.030682 
1471.686608  	0.031613 
1473.615424  	0.036991 
1475.544240  	0.041907 
1477.473056  	0.046483 
1479.401872  	0.049082 
1481.330688  	0.051652 
1483.259504  	0.053597 
1485.188320  	0.054385 
1487.117136  	0.054127 
1489.045952  	0.054273 
1490.974768  	0.053947 
1492.903584  	0.052266 
1494.832400  	0.048590 
1496.761216  	0.043809 
1498.690032  	0.039928 
1500.618848  	0.037105 
1502.547664  	0.033281 
1504.476480  	0.028326 
1506.405296  	0.024022 
1508.334112  	0.026110 
1510.262928  	0.025786 
1512.191744  	0.024766 
1514.120560  	0.023820 
1516.049376  	0.023116 
1517.978192  	0.023689 
1519.907008  	0.023872 
1521.835824  	0.026716 
1523.764640  	0.030866 
1525.693456  	0.033972 
1527.622272  	0.036634 
1529.551088  	0.037425 
1531.479904  	0.036288 
1533.408720  	0.033969 
1535.337536  	0.032353 
1537.266352  	0.028797 
1539.195168  	0.022505 
1541.123984  	0.020286 
1543.052800  	0.022709 
1544.981616  	0.023718 
1546.910432  	0.023272 
1548.839248  	0.022427 
1550.768064  	0.022524 
1552.696880  	0.021344 
1554.625696  	0.020656 
1556.554512  	0.018320 
1558.483328  	0.016289 
1560.412144  	0.024537 
1562.340960  	0.026863 
1564.269776  	0.028269 
1566.198592  	0.031189 
1568.127408  	0.032243 
1570.056224  	0.036744 
1571.985040  	0.041223 
1573.913856  	0.042077 
1575.842672  	0.042737 
1577.771488  	0.046639 
1579.700304  	0.047114 
1581.629120  	0.046517 
1583.557936  	0.045690 
1585.486752  	0.045820 
1587.415568  	0.046918 
1589.344384  	0.049507 
1591.273200  	0.053111 
1593.202016  	0.057580 
1595.130832  	0.062507 
1597.059648  	0.068296 
1598.988464  	0.072924 
1600.917280  	0.076885 
1602.846096  	0.079807 
1604.774912  	0.081980 
1606.703728  	0.082133 
1608.632544  	0.081727 
1610.561360  	0.080479 
1612.490176  	0.078979 
1614.418992  	0.075711 
1616.347808  	0.074190 
1618.276624  	0.077223 
1620.205440  	0.078933 
1622.134256  	0.079601 
1624.063072  	0.084830 
1625.991888  	0.089241 
1627.920704  	0.095169 
1629.849520  	0.102830 
1631.778336  	0.108330 
1633.707152  	0.111033 
1635.635968  	0.117861 
1637.564784  	0.128588 
1639.493600  	0.134069 
1641.422416  	0.138099 
1643.351232  	0.140212 
1645.280048  	0.139475 
1647.208864  	0.142544 
1649.137680  	0.145385 
1651.066496  	0.142781 
1652.995312  	0.140356 
1654.924128  	0.145858 
1656.852944  	0.144820 
1658.781760  	0.143103 
1660.710576  	0.140016 
1662.639392  	0.137138 
1664.568208  	0.135226 
1666.497024  	0.131824 
1668.425840  	0.126893 
1670.354656  	0.123101 
1672.283472  	0.120256 
1674.212288  	0.116808 
1676.141104  	0.114990 
1678.069920  	0.113330 
1679.998736  	0.111443 
1681.927552  	0.108749 
1683.856368  	0.106413 
1685.785184  	0.110197 
1687.714000  	0.110287 
1689.642816  	0.110497 
1691.571632  	0.110074 
1693.500448  	0.108097 
1695.429264  	0.105774 
1697.358080  	0.105302 
1699.286896  	0.103228 
1701.215712  	0.104776 
1703.144528  	0.103415 
1705.073344  	0.100778 
1707.002160  	0.098727 
1708.930976  	0.096435 
1710.859792  	0.092154 
1712.788608  	0.086530 
1714.717424  	0.078920 
1716.646240  	0.070218 
1718.575056  	0.061524 
1720.503872  	0.054879 
1722.432688  	0.047927 
1724.361504  	0.039980 
1726.290320  	0.033081 
1728.219136  	0.026979 
1730.147952  	0.021354 
1732.076768  	0.015954 
1734.005584  	0.012006 
1735.934400  	0.010042 
1737.863216  	0.007807 
1739.792032  	0.005223 
1741.720848  	0.004455 
1743.649664  	0.003678 
1745.578480  	0.002402 
1747.507296  	0.000536 
1749.436112  	0.000004 
1751.364928  	0.000582 
1753.293744  	0.000527 
1755.222560  	-0.000480 
1757.151376  	-0.000553 
1759.080192  	-0.001181 
1761.009008  	-0.001758 
1762.937824  	-0.001732 
1764.866640  	-0.001790 
1766.795456  	-0.002366 
1768.724272  	-0.002761 
1770.653088  	-0.005011 
1772.581904  	-0.005350 
1774.510720  	-0.003833 
1776.439536  	-0.003165 
1778.368352  	-0.003342 
1780.297168  	-0.003516 
1782.225984  	-0.003443 
1784.154800  	-0.003232 
1786.083616  	-0.003459 
1788.012432  	-0.003856 
1789.941248  	-0.004527 
1791.870064  	-0.005112 
1793.798880  	-0.004719 
1795.727696  	-0.004151 
1797.656512  	-0.004805 
1799.585328  	-0.005458 
1801.514144  	-0.004669 
1803.442960  	-0.004298 
1805.371776  	-0.004654 
1807.300592  	-0.004637 
1809.229408  	-0.005102 
1811.158224  	-0.005103 
1813.087040  	-0.004901 
1815.015856  	-0.004966 
1816.944672  	-0.004959 
1818.873488  	-0.004736 
1820.802304  	-0.004983 
1822.731120  	-0.005268 
1824.659936  	-0.005517 
1826.588752  	-0.005495 
1828.517568  	-0.006409 
1830.446384  	-0.005851 
1832.375200  	-0.004975 
1834.304016  	-0.004767 
1836.232832  	-0.005068 
1838.161648  	-0.005187 
1840.090464  	-0.005338 
1842.019280  	-0.005684 
1843.948096  	-0.005826 
1845.876912  	-0.005053 
1847.805728  	-0.004944 
1849.734544  	-0.004897 
1851.663360  	-0.005191 
1853.592176  	-0.005284 
1855.520992  	-0.005639 
1857.449808  	-0.005454 
1859.378624  	-0.005292 
1861.307440  	-0.005158 
1863.236256  	-0.005570 
1865.165072  	-0.006106 
1867.093888  	-0.006878 
1869.022704  	-0.006281 
1870.951520  	-0.005597 
1872.880336  	-0.005552 
1874.809152  	-0.005588 
1876.737968  	-0.005323 
1878.666784  	-0.005442 
1880.595600  	-0.005411 
1882.524416  	-0.005672 
1884.453232  	-0.005732 
1886.382048  	-0.005896 
1888.310864  	-0.005861 
1890.239680  	-0.005429 
1892.168496  	-0.005404 
1894.097312  	-0.006065 
1896.026128  	-0.005906 
1897.954944  	-0.005599 
1899.883760  	-0.005509 
1901.812576  	-0.005665 
1903.741392  	-0.005507 
1905.670208  	-0.005567 
1907.599024  	-0.005449 
1909.527840  	-0.005472 
1911.456656  	-0.005290 
1913.385472  	-0.005357 
1915.314288  	-0.005591 
1917.243104  	-0.005856 
1919.171920  	-0.005217 
1921.100736  	-0.005577 
1923.029552  	-0.005283 
1924.958368  	-0.005734 
1926.887184  	-0.006200 
1928.816000  	-0.005765 
1930.744816  	-0.005278 
1932.673632  	-0.005953 
1934.602448  	-0.006296 
1936.531264  	-0.006399 
1938.460080  	-0.006271 
1940.388896  	-0.006529 
1942.317712  	-0.005887 
1944.246528  	-0.005368 
1946.175344  	-0.005130 
1948.104160  	-0.005296 
1950.032976  	-0.005766 
1951.961792  	-0.006478 
1953.890608  	-0.005978 
1955.819424  	-0.006133 
1957.748240  	-0.006686 
1959.677056  	-0.007688 
1961.605872  	-0.007005 
1963.534688  	-0.006279 
1965.463504  	-0.005494 
1967.392320  	-0.007254 
1969.321136  	-0.007562 
1971.249952  	-0.007477 
1973.178768  	-0.007059 
1975.107584  	-0.006783 
1977.036400  	-0.005654 
1978.965216  	-0.004354 
1980.894032  	-0.004193 
1982.822848  	-0.005134 
1984.751664  	-0.004703 
1986.680480  	-0.004720 
1988.609296  	-0.004709 
1990.538112  	-0.005314 
1992.466928  	-0.005363 
1994.395744  	-0.006047 
1996.324560  	-0.006135 
1998.253376  	-0.006887 
2000.182192  	-0.006721 
2002.111008  	-0.006401 
2004.039824  	-0.005664 
2005.968640  	-0.005983 
2007.897456  	-0.005915 
2009.826272  	-0.006033 
2011.755088  	-0.005496 
2013.683904  	-0.005729 
2015.612720  	-0.005837 
2017.541536  	-0.005687 
2019.470352  	-0.004383 
2021.399168  	-0.004445 
2023.327984  	-0.004061 
2025.256800  	-0.003982 
2027.185616  	-0.004122 
2029.114432  	-0.004327 
2031.043248  	-0.004618 
2032.972064  	-0.003665 
2034.900880  	-0.001806 
2036.829696  	-0.002481 
2038.758512  	-0.002706 
2040.687328  	-0.002672 
2042.616144  	-0.002207 
2044.544960  	-0.002436 
2046.473776  	-0.003046 
2048.402592  	-0.003717 
2050.331408  	-0.003692 
2052.260224  	-0.004426 
2054.189040  	-0.004946 
2056.117856  	-0.004695 
2058.046672  	-0.004476 
2059.975488  	-0.004489 
2061.904304  	-0.004237 
2063.833120  	-0.004787 
2065.761936  	-0.004697 
2067.690752  	-0.004618 
2069.619568  	-0.004688 
2071.548384  	-0.004821 
2073.477200  	-0.004277 
2075.406016  	-0.004207 
2077.334832  	-0.004025 
2079.263648  	-0.004179 
2081.192464  	-0.003917 
2083.121280  	-0.003980 
2085.050096  	-0.004496 
2086.978912  	-0.004751 
2088.907728  	-0.004124 
2090.836544  	-0.004494 
2092.765360  	-0.004746 
2094.694176  	-0.004917 
2096.622992  	-0.004746 
2098.551808  	-0.004219 
2100.480624  	-0.004304 
2102.409440  	-0.004379 
2104.338256  	-0.003833 
2106.267072  	-0.003589 
2108.195888  	-0.003638 
2110.124704  	-0.004157 
2112.053520  	-0.004300 
2113.982336  	-0.004050 
2115.911152  	-0.003919 
2117.839968  	-0.004208 
2119.768784  	-0.004260 
2121.697600  	-0.004687 
2123.626416  	-0.004838 
2125.555232  	-0.005265 
2127.484048  	-0.005229 
2129.412864  	-0.005565 
2131.341680  	-0.005788 
2133.270496  	-0.006057 
2135.199312  	-0.005270 
2137.128128  	-0.004664 
2139.056944  	-0.004528 
2140.985760  	-0.004732 
2142.914576  	-0.005028 
2144.843392  	-0.004750 
2146.772208  	-0.004080 
2148.701024  	-0.003778 
2150.629840  	-0.002910 
2152.558656  	-0.003433 
2154.487472  	-0.003086 
2156.416288  	-0.002393 
2158.345104  	-0.000672 
2160.273920  	0.000819 
2162.202736  	0.000663 
2164.131552  	0.000232 
2166.060368  	-0.000325 
2167.989184  	-0.001444 
2169.918000  	-0.001075 
2171.846816  	-0.000774 
2173.775632  	-0.001698 
2175.704448  	-0.001923 
2177.633264  	-0.002306 
2179.562080  	-0.002847 
2181.490896  	-0.002598 
2183.419712  	-0.001619 
2185.348528  	-0.002313 
2187.277344  	-0.002786 
2189.206160  	-0.001549 
2191.134976  	-0.000747 
2193.063792  	-0.000223 
2194.992608  	-0.001153 
2196.921424  	-0.001850 
2198.850240  	-0.001676 
2200.779056  	-0.001398 
2202.707872  	-0.002119 
2204.636688  	-0.002524 
2206.565504  	-0.002445 
2208.494320  	-0.001929 
2210.423136  	-0.002454 
2212.351952  	-0.003092 
2214.280768  	-0.002595 
2216.209584  	-0.002039 
2218.138400  	-0.002884 
2220.067216  	-0.003300 
2221.996032  	-0.002750 
2223.924848  	-0.002444 
2225.853664  	-0.003347 
2227.782480  	-0.003606 
2229.711296  	-0.002947 
2231.640112  	-0.002780 
2233.568928  	-0.003042 
2235.497744  	-0.002636 
2237.426560  	-0.002912 
2239.355376  	-0.003609 
2241.284192  	-0.003835 
2243.213008  	-0.004062 
2245.141824  	-0.004264 
2247.070640  	-0.003564 
2248.999456  	-0.003911 
2250.928272  	-0.004391 
2252.857088  	-0.004576 
2254.785904  	-0.004521 
2256.714720  	-0.004134 
2258.643536  	-0.004416 
2260.572352  	-0.004713 
2262.501168  	-0.004386 
2264.429984  	-0.004038 
2266.358800  	-0.003956 
2268.287616  	-0.004134 
2270.216432  	-0.004032 
2272.145248  	-0.004038 
2274.074064  	-0.003950 
2276.002880  	-0.003767 
2277.931696  	-0.003623 
2279.860512  	-0.003654 
2281.789328  	-0.003389 
2283.718144  	-0.003160 
2285.646960  	-0.003178 
2287.575776  	-0.003421 
2289.504592  	-0.003318 
2291.433408  	-0.002969 
2293.362224  	-0.002788 
2295.291040  	-0.002731 
2297.219856  	-0.002618 
2299.148672  	-0.002617 
2301.077488  	-0.002307 
2303.006304  	-0.002133 
2304.935120  	-0.002205 
2306.863936  	-0.002224 
2308.792752  	-0.002260 
2310.721568  	-0.002410 
2312.650384  	-0.002663 
2314.579200  	-0.003223 
2316.508016  	-0.003568 
2318.436832  	-0.003855 
2320.365648  	-0.004202 
2322.294464  	-0.004621 
2324.223280  	-0.005548 
2326.152096  	-0.007550 
2328.080912  	-0.008650 
2330.009728  	-0.009216 
2331.938544  	-0.010142 
2333.867360  	-0.011661 
2335.796176  	-0.012454 
2337.724992  	-0.012477 
2339.653808  	-0.012585 
2341.582624  	-0.012509 
2343.511440  	-0.011194 
2345.440256  	-0.009186 
2347.369072  	-0.007045 
2349.297888  	-0.006916 
2351.226704  	-0.008866 
2353.155520  	-0.011494 
2355.084336  	-0.013499 
2357.013152  	-0.015109 
2358.941968  	-0.015613 
2360.870784  	-0.015408 
2362.799600  	-0.014403 
2364.728416  	-0.013230 
2366.657232  	-0.012083 
2368.586048  	-0.010314 
2370.514864  	-0.007980 
2372.443680  	-0.006286 
2374.372496  	-0.005036 
2376.301312  	-0.003611 
2378.230128  	-0.002218 
2380.158944  	-0.001696 
2382.087760  	-0.001726 
2384.016576  	-0.002107 
2385.945392  	-0.002717 
2387.874208  	-0.003099 
2389.803024  	-0.003132 
2391.731840  	-0.003174 
2393.660656  	-0.003241 
2395.589472  	-0.003397 
2397.518288  	-0.003357 
2399.447104  	-0.003255 
2401.375920  	-0.003095 
2403.304736  	-0.002903 
2405.233552  	-0.002983 
2407.162368  	-0.002970 
2409.091184  	-0.002688 
2411.020000  	-0.002585 
2412.948816  	-0.002724 
2414.877632  	-0.002671 
2416.806448  	-0.002500 
2418.735264  	-0.002657 
2420.664080  	-0.002721 
2422.592896  	-0.002583 
2424.521712  	-0.002361 
2426.450528  	-0.002174 
2428.379344  	-0.001924 
2430.308160  	-0.001787 
2432.236976  	-0.001751 
2434.165792  	-0.001696 
2436.094608  	-0.001613 
2438.023424  	-0.001538 
2439.952240  	-0.001543 
2441.881056  	-0.001543 
2443.809872  	-0.001363 
2445.738688  	-0.001100 
2447.667504  	-0.000897 
2449.596320  	-0.000947 
2451.525136  	-0.001017 
2453.453952  	-0.000984 
2455.382768  	-0.000663 
2457.311584  	-0.000711 
2459.240400  	-0.000967 
2461.169216  	-0.001079 
2463.098032  	-0.001008 
2465.026848  	-0.000872 
2466.955664  	-0.000773 
2468.884480  	-0.000697 
2470.813296  	-0.000433 
2472.742112  	-0.000381 
2474.670928  	-0.000477 
2476.599744  	-0.000427 
2478.528560  	-0.000123 
2480.457376  	-0.000178 
2482.386192  	-0.000441 
2484.315008  	-0.000451 
2486.243824  	-0.000193 
2488.172640  	0.000070 
2490.101456  	0.000281 
2492.030272  	0.000220 
2493.959088  	0.000151 
2495.887904  	0.000544 
2497.816720  	0.000887 
2499.745536  	0.000784 
2501.674352  	0.000830 
2503.603168  	0.001003 
2505.531984  	0.001075 
2507.460800  	0.000988 
2509.389616  	0.000982 
2511.318432  	0.000870 
2513.247248  	0.000963 
2515.176064  	0.001014 
2517.104880  	0.001274 
2519.033696  	0.001678 
2520.962512  	0.001686 
2522.891328  	0.001547 
2524.820144  	0.001715 
2526.748960  	0.001909 
2528.677776  	0.001719 
2530.606592  	0.001746 
2532.535408  	0.001941 
2534.464224  	0.001725 
2536.393040  	0.001591 
2538.321856  	0.001628 
2540.250672  	0.001803 
2542.179488  	0.001918 
2544.108304  	0.002073 
2546.037120  	0.002200 
2547.965936  	0.002287 
2549.894752  	0.002445 
2551.823568  	0.002381 
2553.752384  	0.002292 
2555.681200  	0.002411 
2557.610016  	0.002661 
2559.538832  	0.002930 
2561.467648  	0.003077 
2563.396464  	0.003056 
2565.325280  	0.003086 
2567.254096  	0.003231 
2569.182912  	0.003271 
2571.111728  	0.003555 
2573.040544  	0.003789 
2574.969360  	0.003839 
2576.898176  	0.003886 
2578.826992  	0.004022 
2580.755808  	0.003996 
2582.684624  	0.004040 
2584.613440  	0.003980 
2586.542256  	0.003942 
2588.471072  	0.004051 
2590.399888  	0.004190 
2592.328704  	0.004226 
2594.257520  	0.004330 
2596.186336  	0.004347 
2598.115152  	0.004321 
2600.043968  	0.004307 
2601.972784  	0.004369 
2603.901600  	0.004580 
2605.830416  	0.004743 
2607.759232  	0.004766 
2609.688048  	0.004767 
2611.616864  	0.004860 
2613.545680  	0.005050 
2615.474496  	0.005209 
2617.403312  	0.005330 
2619.332128  	0.005414 
2621.260944  	0.005527 
2623.189760  	0.005525 
2625.118576  	0.005614 
2627.047392  	0.005798 
2628.976208  	0.006005 
2630.905024  	0.006091 
2632.833840  	0.006155 
2634.762656  	0.006226 
2636.691472  	0.006381 
2638.620288  	0.006498 
2640.549104  	0.006588 
2642.477920  	0.006806 
2644.406736  	0.006957 
2646.335552  	0.006998 
2648.264368  	0.007071 
2650.193184  	0.007219 
2652.122000  	0.007407 
2654.050816  	0.007446 
2655.979632  	0.007536 
2657.908448  	0.007674 
2659.837264  	0.007855 
2661.766080  	0.008051 
2663.694896  	0.008063 
2665.623712  	0.008028 
2667.552528  	0.008209 
2669.481344  	0.008398 
2671.410160  	0.008486 
2673.338976  	0.008556 
2675.267792  	0.008637 
2677.196608  	0.008739 
2679.125424  	0.008806 
2681.054240  	0.008950 
2682.983056  	0.009121 
2684.911872  	0.009325 
2686.840688  	0.009396 
2688.769504  	0.009435 
2690.698320  	0.009545 
2692.627136  	0.009765 
2694.555952  	0.009887 
2696.484768  	0.009933 
2698.413584  	0.010074 
2700.342400  	0.010138 
2702.271216  	0.010216 
2704.200032  	0.010326 
2706.128848  	0.010411 
2708.057664  	0.010562 
2709.986480  	0.010731 
2711.915296  	0.010840 
2713.844112  	0.010929 
2715.772928  	0.011014 
2717.701744  	0.011110 
2719.630560  	0.011241 
2721.559376  	0.011463 
2723.488192  	0.011643 
2725.417008  	0.011798 
2727.345824  	0.011891 
2729.274640  	0.011967 
2731.203456  	0.012042 
2733.132272  	0.012239 
2735.061088  	0.012440 
2736.989904  	0.012508 
2738.918720  	0.012631 
2740.847536  	0.012717 
2742.776352  	0.012808 
2744.705168  	0.012934 
2746.633984  	0.013027 
2748.562800  	0.013149 
2750.491616  	0.013341 
2752.420432  	0.013493 
2754.349248  	0.013446 
2756.278064  	0.013398 
2758.206880  	0.013429 
2760.135696  	0.013465 
2762.064512  	0.013599 
2763.993328  	0.013677 
2765.922144  	0.013666 
2767.850960  	0.013688 
2769.779776  	0.013677 
2771.708592  	0.013708 
2773.637408  	0.013722 
2775.566224  	0.013756 
2777.495040  	0.013841 
2779.423856  	0.013800 
2781.352672  	0.013777 
2783.281488  	0.013828 
2785.210304  	0.013851 
2787.139120  	0.013855 
2789.067936  	0.013890 
2790.996752  	0.013934 
2792.925568  	0.013899 
2794.854384  	0.013842 
2796.783200  	0.013856 
2798.712016  	0.013981 
2800.640832  	0.014098 
2802.569648  	0.014044 
2804.498464  	0.014001 
2806.427280  	0.014084 
2808.356096  	0.014094 
2810.284912  	0.014117 
2812.213728  	0.014131 
2814.142544  	0.014189 
2816.071360  	0.014239 
2818.000176  	0.014323 
2819.928992  	0.014315 
2821.857808  	0.014272 
2823.786624  	0.014249 
2825.715440  	0.014192 
2827.644256  	0.014196 
2829.573072  	0.014157 
2831.501888  	0.014108 
2833.430704  	0.013999 
2835.359520  	0.013821 
2837.288336  	0.013812 
2839.217152  	0.013857 
2841.145968  	0.013723 
2843.074784  	0.013680 
2845.003600  	0.013691 
2846.932416  	0.013748 
2848.861232  	0.013772 
2850.790048  	0.013690 
2852.718864  	0.013679 
2854.647680  	0.013642 
2856.576496  	0.013615 
2858.505312  	0.013699 
2860.434128  	0.013745 
2862.362944  	0.013789 
2864.291760  	0.013748 
2866.220576  	0.013707 
2868.149392  	0.013757 
2870.078208  	0.013804 
2872.007024  	0.013915 
2873.935840  	0.014116 
2875.864656  	0.014478 
2877.793472  	0.014798 
2879.722288  	0.014989 
2881.651104  	0.015220 
2883.579920  	0.015341 
2885.508736  	0.015443 
2887.437552  	0.015604 
2889.366368  	0.015544 
2891.295184  	0.015395 
2893.224000  	0.015365 
2895.152816  	0.015355 
2897.081632  	0.015015 
2899.010448  	0.014391 
2900.939264  	0.013972 
2902.868080  	0.014126 
2904.796896  	0.014417 
2906.725712  	0.014604 
2908.654528  	0.014738 
2910.583344  	0.015028 
2912.512160  	0.015487 
2914.440976  	0.015906 
2916.369792  	0.016273 
2918.298608  	0.016636 
2920.227424  	0.016897 
2922.156240  	0.017195 
2924.085056  	0.017746 
2926.013872  	0.018248 
2927.942688  	0.018769 
2929.871504  	0.019351 
2931.800320  	0.019747 
2933.729136  	0.020103 
2935.657952  	0.020505 
2937.586768  	0.020938 
2939.515584  	0.021204 
2941.444400  	0.021405 
2943.373216  	0.021667 
2945.302032  	0.021788 
2947.230848  	0.021770 
2949.159664  	0.021871 
2951.088480  	0.021587 
2953.017296  	0.021201 
2954.946112  	0.020913 
2956.874928  	0.020537 
2958.803744  	0.020085 
2960.732560  	0.019654 
2962.661376  	0.019063 
2964.590192  	0.018615 
2966.519008  	0.018066 
2968.447824  	0.017199 
2970.376640  	0.016361 
2972.305456  	0.015649 
2974.234272  	0.015083 
2976.163088  	0.014519 
2978.091904  	0.014061 
2980.020720  	0.013769 
2981.949536  	0.013706 
2983.878352  	0.013800 
2985.807168  	0.013682 
2987.735984  	0.013659 
2989.664800  	0.014102 
2991.593616  	0.014953 
2993.522432  	0.015408 
2995.451248  	0.015731 
2997.380064  	0.016256 
2999.308880  	0.016814 
3001.237696  	0.017218 
3003.166512  	0.017494 
3005.095328  	0.017767 
3007.024144  	0.018049 
3008.952960  	0.018560 
3010.881776  	0.018971 
3012.810592  	0.019142 
3014.739408  	0.019370 
3016.668224  	0.019688 
3018.597040  	0.020074 
3020.525856  	0.020345 
3022.454672  	0.020578 
3024.383488  	0.020899 
3026.312304  	0.021286 
3028.241120  	0.021471 
3030.169936  	0.021637 
3032.098752  	0.021755 
3034.027568  	0.021971 
3035.956384  	0.022328 
3037.885200  	0.022523 
3039.814016  	0.022679 
3041.742832  	0.022875 
3043.671648  	0.023234 
3045.600464  	0.023670 
3047.529280  	0.023789 
3049.458096  	0.023803 
3051.386912  	0.024013 
3053.315728  	0.024215 
3055.244544  	0.024389 
3057.173360  	0.024842 
3059.102176  	0.025226 
3061.030992  	0.025402 
3062.959808  	0.025453 
3064.888624  	0.025882 
3066.817440  	0.026542 
3068.746256  	0.027057 
3070.675072  	0.027389 
3072.603888  	0.027562 
3074.532704  	0.027727 
3076.461520  	0.027901 
3078.390336  	0.028336 
3080.319152  	0.028871 
3082.247968  	0.029265 
3084.176784  	0.029666 
3086.105600  	0.029905 
3088.034416  	0.030110 
3089.963232  	0.030465 
3091.892048  	0.030955 
3093.820864  	0.031354 
3095.749680  	0.031758 
3097.678496  	0.032053 
3099.607312  	0.032359 
3101.536128  	0.032733 
3103.464944  	0.033091 
3105.393760  	0.033536 
3107.322576  	0.033795 
3109.251392  	0.034147 
3111.180208  	0.034560 
3113.109024  	0.034519 
3115.037840  	0.034477 
3116.966656  	0.034767 
3118.895472  	0.035220 
3120.824288  	0.035419 
3122.753104  	0.035570 
3124.681920  	0.035678 
3126.610736  	0.035854 
3128.539552  	0.036114 
3130.468368  	0.036205 
3132.397184  	0.036390 
3134.326000  	0.036601 
3136.254816  	0.036803 
3138.183632  	0.037003 
3140.112448  	0.037120 
3142.041264  	0.037278 
3143.970080  	0.037516 
3145.898896  	0.037733 
3147.827712  	0.037946 
3149.756528  	0.038275 
3151.685344  	0.038502 
3153.614160  	0.038586 
3155.542976  	0.038714 
3157.471792  	0.038994 
3159.400608  	0.039251 
3161.329424  	0.039313 
3163.258240  	0.039428 
3165.187056  	0.039708 
3167.115872  	0.039847 
3169.044688  	0.040234 
3170.973504  	0.040696 
3172.902320  	0.040700 
3174.831136  	0.040629 
3176.759952  	0.040690 
3178.688768  	0.040938 
3180.617584  	0.041129 
3182.546400  	0.041073 
3184.475216  	0.041079 
3186.404032  	0.041101 
3188.332848  	0.041029 
3190.261664  	0.040801 
3192.190480  	0.040688 
3194.119296  	0.040544 
3196.048112  	0.040338 
3197.976928  	0.040241 
3199.905744  	0.040158 
3201.834560  	0.040051 
3203.763376  	0.039838 
3205.692192  	0.039535 
3207.621008  	0.038911 
3209.549824  	0.038546 
3211.478640  	0.038496 
3213.407456  	0.038292 
3215.336272  	0.038159 
3217.265088  	0.037919 
3219.193904  	0.037803 
3221.122720  	0.037709 
3223.051536  	0.037410 
3224.980352  	0.037024 
3226.909168  	0.036589 
3228.837984  	0.036277 
3230.766800  	0.036100 
3232.695616  	0.035800 
3234.624432  	0.035405 
3236.553248  	0.035342 
3238.482064  	0.035499 
3240.410880  	0.035609 
3242.339696  	0.035441 
3244.268512  	0.035299 
3246.197328  	0.035512 
3248.126144  	0.035418 
3250.054960  	0.035535 
3251.983776  	0.035557 
3253.912592  	0.035691 
3255.841408  	0.035978 
3257.770224  	0.036227 
3259.699040  	0.036395 
3261.627856  	0.036503 
3263.556672  	0.036420 
3265.485488  	0.036666 
3267.414304  	0.036956 
3269.343120  	0.036961 
3271.271936  	0.036853 
3273.200752  	0.036962 
3275.129568  	0.037256 
3277.058384  	0.037695 
3278.987200  	0.037859 
3280.916016  	0.037779 
3282.844832  	0.037716 
3284.773648  	0.037680 
3286.702464  	0.037797 
3288.631280  	0.037941 
3290.560096  	0.038128 
3292.488912  	0.038650 
3294.417728  	0.038880 
3296.346544  	0.038964 
3298.275360  	0.039360 
3300.204176  	0.039650 
3302.132992  	0.040132 
3304.061808  	0.040359 
3305.990624  	0.040306 
3307.919440  	0.040540 
3309.848256  	0.040979 
3311.777072  	0.041460 
3313.705888  	0.041689 
3315.634704  	0.041712 
3317.563520  	0.041950 
3319.492336  	0.042315 
3321.421152  	0.042553 
3323.349968  	0.042872 
3325.278784  	0.043128 
3327.207600  	0.043173 
3329.136416  	0.043205 
3331.065232  	0.043324 
3332.994048  	0.043396 
3334.922864  	0.043645 
3336.851680  	0.044117 
3338.780496  	0.044263 
3340.709312  	0.043908 
3342.638128  	0.043636 
3344.566944  	0.043550 
3346.495760  	0.043259 
3348.424576  	0.042895 
3350.353392  	0.042832 
3352.282208  	0.042659 
3354.211024  	0.042491 
3356.139840  	0.042462 
3358.068656  	0.042338 
3359.997472  	0.042015 
3361.926288  	0.041730 
3363.855104  	0.041517 
3365.783920  	0.041597 
3367.712736  	0.041445 
3369.641552  	0.041076 
3371.570368  	0.040997 
3373.499184  	0.040634 
3375.428000  	0.040155 
3377.356816  	0.040125 
3379.285632  	0.040046 
3381.214448  	0.039797 
3383.143264  	0.039513 
3385.072080  	0.039499 
3387.000896  	0.039423 
3388.929712  	0.039088 
3390.858528  	0.038541 
3392.787344  	0.038438 
3394.716160  	0.038381 
3396.644976  	0.038102 
3398.573792  	0.037958 
3400.502608  	0.037927 
3402.431424  	0.037856 
3404.360240  	0.037668 
3406.289056  	0.037365 
3408.217872  	0.037088 
3410.146688  	0.036843 
3412.075504  	0.036534 
3414.004320  	0.036340 
3415.933136  	0.035990 
3417.861952  	0.035401 
3419.790768  	0.035203 
3421.719584  	0.035404 
3423.648400  	0.035222 
3425.577216  	0.034881 
3427.506032  	0.034580 
3429.434848  	0.034124 
3431.363664  	0.033817 
3433.292480  	0.033681 
3435.221296  	0.033333 
3437.150112  	0.032945 
3439.078928  	0.032690 
3441.007744  	0.032380 
3442.936560  	0.032197 
3444.865376  	0.031831 
3446.794192  	0.031861 
3448.723008  	0.031941 
3450.651824  	0.031032 
3452.580640  	0.030503 
3454.509456  	0.030193 
3456.438272  	0.029764 
3458.367088  	0.029348 
3460.295904  	0.028976 
3462.224720  	0.028810 
3464.153536  	0.028599 
3466.082352  	0.028011 
3468.011168  	0.027399 
3469.939984  	0.026741 
3471.868800  	0.026079 
3473.797616  	0.025653 
3475.726432  	0.025569 
3477.655248  	0.024962 
3479.584064  	0.024328 
3481.512880  	0.024019 
3483.441696  	0.023509 
3485.370512  	0.022586 
3487.299328  	0.022221 
3489.228144  	0.022226 
3491.156960  	0.021625 
3493.085776  	0.020613 
3495.014592  	0.019978 
3496.943408  	0.019972 
3498.872224  	0.019446 
3500.801040  	0.018336 
3502.729856  	0.018367 
3504.658672  	0.018690 
3506.587488  	0.017849 
3508.516304  	0.017248 
3510.445120  	0.017532 
3512.373936  	0.016979 
3514.302752  	0.016135 
3516.231568  	0.015524 
3518.160384  	0.015238 
3520.089200  	0.014721 
3522.018016  	0.014044 
3523.946832  	0.014293 
3525.875648  	0.013826 
3527.804464  	0.013297 
3529.733280  	0.013292 
3531.662096  	0.013151 
3533.590912  	0.012282 
3535.519728  	0.012053 
3537.448544  	0.012543 
3539.377360  	0.011685 
3541.306176  	0.010745 
3543.234992  	0.010161 
3545.163808  	0.010762 
3547.092624  	0.011428 
3549.021440  	0.010131 
3550.950256  	0.008717 
3552.879072  	0.009195 
3554.807888  	0.009088 
3556.736704  	0.008132 
3558.665520  	0.007542 
3560.594336  	0.007343 
3562.523152  	0.006319 
3564.451968  	0.005059 
3566.380784  	0.006098 
3568.309600  	0.008307 
3570.238416  	0.007020 
3572.167232  	0.005408 
3574.096048  	0.004606 
3576.024864  	0.004164 
3577.953680  	0.003917 
3579.882496  	0.003670 
3581.811312  	0.003110 
3583.740128  	0.001525 
3585.668944  	0.000192 
3587.597760  	0.002256 
3589.526576  	0.003060 
3591.455392  	0.000365 
3593.384208  	-0.000759 
3595.313024  	-0.000229 
3597.241840  	-0.001002 
3599.170656  	-0.002392 
3601.099472  	-0.002193 
3603.028288  	-0.002151 
3604.957104  	-0.003565 
3606.885920  	-0.004293 
3608.814736  	-0.003544 
3610.743552  	-0.004711 
3612.672368  	-0.005831 
3614.601184  	-0.005924 
3616.530000  	-0.008107 
3618.458816  	-0.008567 
3620.387632  	-0.006518 
3622.316448  	-0.006975 
3624.245264  	-0.008884 
3626.174080  	-0.011822 
3628.102896  	-0.012671 
3630.031712  	-0.008256 
3631.960528  	-0.009571 
3633.889344  	-0.010173 
3635.818160  	-0.010417 
3637.746976  	-0.011413 
3639.675792  	-0.011917 
3641.604608  	-0.012472 
3643.533424  	-0.013626 
3645.462240  	-0.016453 
3647.391056  	-0.018552 
3649.319872  	-0.016931 
3651.248688  	-0.013436 
3653.177504  	-0.014997 
3655.106320  	-0.016538 
3657.035136  	-0.015083 
3658.963952  	-0.015019 
3660.892768  	-0.015282 
3662.821584  	-0.015914 
3664.750400  	-0.016631 
3666.679216  	-0.018202 
3668.608032  	-0.020319 
3670.536848  	-0.018484 
3672.465664  	-0.019345 
3674.394480  	-0.021602 
3676.323296  	-0.017333 
3678.252112  	-0.017147 
3680.180928  	-0.016847 
3682.109744  	-0.016623 
3684.038560  	-0.017349 
3685.967376  	-0.019440 
3687.896192  	-0.020909 
3689.825008  	-0.019327 
3691.753824  	-0.016761 
3693.682640  	-0.016212 
3695.611456  	-0.016487 
3697.540272  	-0.016512 
3699.469088  	-0.017361 
3701.397904  	-0.017220 
3703.326720  	-0.016270 
3705.255536  	-0.016739 
3707.184352  	-0.017988 
3709.113168  	-0.019432 
3711.041984  	-0.018973 
3712.970800  	-0.015795 
3714.899616  	-0.015243 
3716.828432  	-0.016557 
3718.757248  	-0.016991 
3720.686064  	-0.017422 
3722.614880  	-0.017348 
3724.543696  	-0.016927 
3726.472512  	-0.015918 
3728.401328  	-0.016271 
3730.330144  	-0.018984 
3732.258960  	-0.020273 
3734.187776  	-0.019551 
3736.116592  	-0.016524 
3738.045408  	-0.016281 
3739.974224  	-0.017419 
3741.903040  	-0.019207 
3743.831856  	-0.019117 
3745.760672  	-0.016930 
3747.689488  	-0.019866 
3749.618304  	-0.020823 
3751.547120  	-0.017764 
3753.475936  	-0.015346 
3755.404752  	-0.016602 
3757.333568  	-0.017331 
3759.262384  	-0.016553 
3761.191200  	-0.015193 
3763.120016  	-0.016071 
3765.048832  	-0.015986 
3766.977648  	-0.015887 
3768.906464  	-0.016491 
3770.835280  	-0.015127 
3772.764096  	-0.014918 
3774.692912  	-0.015382 
3776.621728  	-0.016244 
3778.550544  	-0.016650 
3780.479360  	-0.015193 
3782.408176  	-0.015645 
3784.336992  	-0.016009 
3786.265808  	-0.015381 
3788.194624  	-0.015182 
3790.123440  	-0.015299 
3792.052256  	-0.015619 
3793.981072  	-0.016806 
3795.909888  	-0.017361 
3797.838704  	-0.017280 
3799.767520  	-0.019119 
3801.696336  	-0.017683 
3803.625152  	-0.016580 
3805.553968  	-0.018090 
3807.482784  	-0.016218 
3809.411600  	-0.015309 
3811.340416  	-0.015666 
3813.269232  	-0.017332 
3815.198048  	-0.018419 
3817.126864  	-0.017037 
3819.055680  	-0.019235 
3820.984496  	-0.018286 
3822.913312  	-0.015637 
3824.842128  	-0.016825 
3826.770944  	-0.016599 
3828.699760  	-0.016672 
3830.628576  	-0.017317 
3832.557392  	-0.017265 
3834.486208  	-0.018172 
3836.415024  	-0.019177 
3838.343840  	-0.018549 
3840.272656  	-0.017248 
3842.201472  	-0.016600 
3844.130288  	-0.015711 
3846.059104  	-0.015683 
3847.987920  	-0.016830 
3849.916736  	-0.018994 
3851.845552  	-0.021181 
3853.774368  	-0.016565 
3855.703184  	-0.014541 
3857.632000  	-0.015285 
3859.560816  	-0.016273 
3861.489632  	-0.017130 
3863.418448  	-0.017313 
3865.347264  	-0.015845 
3867.276080  	-0.016984 
3869.204896  	-0.017618 
3871.133712  	-0.015737 
3873.062528  	-0.016663 
3874.991344  	-0.015164 
3876.920160  	-0.015857 
3878.848976  	-0.016809 
3880.777792  	-0.015251 
3882.706608  	-0.015743 
3884.635424  	-0.016300 
3886.564240  	-0.014088 
3888.493056  	-0.015807 
3890.421872  	-0.016735 
3892.350688  	-0.015070 
3894.279504  	-0.014954 
3896.208320  	-0.016356 
3898.137136  	-0.017081 
3900.065952  	-0.016424 
3901.994768  	-0.016046 
3903.923584  	-0.015078 
3905.852400  	-0.014336 
3907.781216  	-0.014993 
3909.710032  	-0.015433 
3911.638848  	-0.015229 
3913.567664  	-0.015542 
3915.496480  	-0.015705 
3917.425296  	-0.014719 
3919.354112  	-0.014857 
3921.282928  	-0.015369 
3923.211744  	-0.015524 
3925.140560  	-0.014593 
3927.069376  	-0.015040 
3928.998192  	-0.015728 
3930.927008  	-0.015191 
3932.855824  	-0.014253 
3934.784640  	-0.014540 
3936.713456  	-0.015026 
3938.642272  	-0.015124 
3940.571088  	-0.015611 
3942.499904  	-0.014882 
3944.428720  	-0.014550 
3946.357536  	-0.015213 
3948.286352  	-0.014974 
3950.215168  	-0.014866 
3952.143984  	-0.015191 
3954.072800  	-0.015276 
3956.001616  	-0.015189 
3957.930432  	-0.015169 
3959.859248  	-0.015248 
3961.788064  	-0.014933 
3963.716880  	-0.014673 
3965.645696  	-0.015005 
3967.574512  	-0.015317 
3969.503328  	-0.015302 
3971.432144  	-0.015307 
3973.360960  	-0.015275 
3975.289776  	-0.015068 
3977.218592  	-0.015028 
3979.147408  	-0.015195 
3981.076224  	-0.015286 
3983.005040  	-0.015060 
3984.933856  	-0.015019 
3986.862672  	-0.015169 
3988.791488  	-0.015237 
3990.720304  	-0.015169 
3992.649120  	-0.015170 
3994.577936  	-0.015163 
3996.506752  	-0.015255 
3998.435568  	-0.015292 
4000.364384  	-0.015339 