##TITLE=No Description
##DATA TYPE=INFRARED SPECTRUM
##XUNITS=1/CM
##YUNITS=Abs
399.264912  	0.582990 
401.193728  	0.583723 
403.122544  	0.600244 
405.051360  	0.603873 
406.980176  	0.611940 
408.908992  	0.598703 
410.837808  	0.604022 
412.766624  	0.594816 
414.695440  	0.586801 
416.624256  	0.581525 
418.553072  	0.589917 
420.481888  	0.594410 
422.410704  	0.603929 
424.339520  	0.602337 
426.268336  	0.584930 
428.197152  	0.579182 
430.125968  	0.579803 
432.054784  	0.559408 
433.983600  	0.560516 
435.912416  	0.562906 
437.841232  	0.557060 
439.770048  	0.551381 
441.698864  	0.553199 
443.627680  	0.553939 
445.556496  	0.555055 
447.485312  	0.550853 
449.414128  	0.551088 
451.342944  	0.556482 
453.271760  	0.558554 
455.200576  	0.554351 
457.129392  	0.558286 
459.058208  	0.559860 
460.987024  	0.563461 
462.915840  	0.556392 
464.844656  	0.552612 
466.773472  	0.555483 
468.702288  	0.560397 
470.631104  	0.562690 
472.559920  	0.566956 
474.488736  	0.561098 
476.417552  	0.560707 
478.346368  	0.560638 
480.275184  	0.560810 
482.204000  	0.559168 
484.132816  	0.560845 
486.061632  	0.554593 
487.990448  	0.550081 
489.919264  	0.550039 
491.848080  	0.552995 
493.776896  	0.550240 
495.705712  	0.548239 
497.634528  	0.545002 
499.563344  	0.546153 
501.492160  	0.548275 
503.420976  	0.545578 
505.349792  	0.541268 
507.278608  	0.543474 
509.207424  	0.541076 
511.136240  	0.544427 
513.065056  	0.548921 
514.993872  	0.554089 
516.922688  	0.557262 
518.851504  	0.558884 
520.780320  	0.555728 
522.709136  	0.554884 
524.637952  	0.552896 
526.566768  	0.555057 
528.495584  	0.552383 
530.424400  	0.548130 
532.353216  	0.541450 
534.282032  	0.536692 
536.210848  	0.529685 
538.139664  	0.521019 
540.068480  	0.513797 
541.997296  	0.510683 
543.926112  	0.507760 
545.854928  	0.504999 
547.783744  	0.500932 
549.712560  	0.499334 
551.641376  	0.494625 
553.570192  	0.490660 
555.499008  	0.486943 
557.427824  	0.485275 
559.356640  	0.481853 
561.285456  	0.477220 
563.214272  	0.473396 
565.143088  	0.469078 
567.071904  	0.464389 
569.000720  	0.462652 
570.929536  	0.459923 
572.858352  	0.456645 
574.787168  	0.454587 
576.715984  	0.451682 
578.644800  	0.445724 
580.573616  	0.440882 
582.502432  	0.434536 
584.431248  	0.429823 
586.360064  	0.424846 
588.288880  	0.421553 
590.217696  	0.419380 
592.146512  	0.418489 
594.075328  	0.415733 
596.004144  	0.413276 
597.932960  	0.411198 
599.861776  	0.409514 
601.790592  	0.407677 
603.719408  	0.407535 
605.648224  	0.407028 
607.577040  	0.405972 
609.505856  	0.404351 
611.434672  	0.403528 
613.363488  	0.401696 
615.292304  	0.400786 
617.221120  	0.399336 
619.149936  	0.398168 
621.078752  	0.397145 
623.007568  	0.396913 
624.936384  	0.396741 
626.865200  	0.396302 
628.794016  	0.394942 
630.722832  	0.394696 
632.651648  	0.395658 
634.580464  	0.397199 
636.509280  	0.397342 
638.438096  	0.397108 
640.366912  	0.396582 
642.295728  	0.395444 
644.224544  	0.392513 
646.153360  	0.389080 
648.082176  	0.384308 
650.010992  	0.379706 
651.939808  	0.375914 
653.868624  	0.372158 
655.797440  	0.367480 
657.726256  	0.363565 
659.655072  	0.359032 
661.583888  	0.353690 
663.512704  	0.348439 
665.441520  	0.343505 
667.370336  	0.338747 
669.299152  	0.333652 
671.227968  	0.328355 
673.156784  	0.323350 
675.085600  	0.319574 
677.014416  	0.316910 
678.943232  	0.314772 
680.872048  	0.313849 
682.800864  	0.312031 
684.729680  	0.310342 
686.658496  	0.308845 
688.587312  	0.307521 
690.516128  	0.306709 
692.444944  	0.306504 
694.373760  	0.305701 
696.302576  	0.304435 
698.231392  	0.302346 
700.160208  	0.299742 
702.089024  	0.297035 
704.017840  	0.294565 
705.946656  	0.291801 
707.875472  	0.289179 
709.804288  	0.286532 
711.733104  	0.284801 
713.661920  	0.282922 
715.590736  	0.282011 
717.519552  	0.282255 
719.448368  	0.282976 
721.377184  	0.284221 
723.306000  	0.285833 
725.234816  	0.286674 
727.163632  	0.285293 
729.092448  	0.281923 
731.021264  	0.277635 
732.950080  	0.272953 
734.878896  	0.268640 
736.807712  	0.264776 
738.736528  	0.261734 
740.665344  	0.259972 
742.594160  	0.258720 
744.522976  	0.256967 
746.451792  	0.255514 
748.380608  	0.253629 
750.309424  	0.252357 
752.238240  	0.251436 
754.167056  	0.251006 
756.095872  	0.250341 
758.024688  	0.249275 
759.953504  	0.249159 
761.882320  	0.251123 
763.811136  	0.252512 
765.739952  	0.250422 
767.668768  	0.246345 
769.597584  	0.243345 
771.526400  	0.242890 
773.455216  	0.245748 
775.384032  	0.251785 
777.312848  	0.260203 
779.241664  	0.265802 
781.170480  	0.264048 
783.099296  	0.256357 
785.028112  	0.247742 
786.956928  	0.240689 
788.885744  	0.235481 
790.814560  	0.231315 
792.743376  	0.228925 
794.672192  	0.228210 
796.601008  	0.226804 
798.529824  	0.222733 
800.458640  	0.217616 
802.387456  	0.213664 
804.316272  	0.211772 
806.245088  	0.210889 
808.173904  	0.210176 
810.102720  	0.209947 
812.031536  	0.210293 
813.960352  	0.211003 
815.889168  	0.212417 
817.817984  	0.214294 
819.746800  	0.216251 
821.675616  	0.218453 
823.604432  	0.220511 
825.533248  	0.221887 
827.462064  	0.222886 
829.390880  	0.223175 
831.319696  	0.223000 
833.248512  	0.221982 
835.177328  	0.219812 
837.106144  	0.216100 
839.034960  	0.211922 
840.963776  	0.206456 
842.892592  	0.200849 
844.821408  	0.195628 
846.750224  	0.190718 
848.679040  	0.186735 
850.607856  	0.183908 
852.536672  	0.182090 
854.465488  	0.180799 
856.394304  	0.179987 
858.323120  	0.178711 
860.251936  	0.177120 
862.180752  	0.175542 
864.109568  	0.173321 
866.038384  	0.170891 
867.967200  	0.168392 
869.896016  	0.166196 
871.824832  	0.165349 
873.753648  	0.166016 
875.682464  	0.167657 
877.611280  	0.170444 
879.540096  	0.174302 
881.468912  	0.178374 
883.397728  	0.182566 
885.326544  	0.185806 
887.255360  	0.187910 
889.184176  	0.188984 
891.112992  	0.188818 
893.041808  	0.187116 
894.970624  	0.183673 
896.899440  	0.178259 
898.828256  	0.171549 
900.757072  	0.164736 
902.685888  	0.159064 
904.614704  	0.155794 
906.543520  	0.155373 
908.472336  	0.157649 
910.401152  	0.161577 
912.329968  	0.165932 
914.258784  	0.170209 
916.187600  	0.174287 
918.116416  	0.177845 
920.045232  	0.180590 
921.974048  	0.182798 
923.902864  	0.184874 
925.831680  	0.186804 
927.760496  	0.189208 
929.689312  	0.191731 
931.618128  	0.194478 
933.546944  	0.196708 
935.475760  	0.197891 
937.404576  	0.197759 
939.333392  	0.196843 
941.262208  	0.196114 
943.191024  	0.197346 
945.119840  	0.202094 
947.048656  	0.210498 
948.977472  	0.223221 
950.906288  	0.239954 
952.835104  	0.260490 
954.763920  	0.283518 
956.692736  	0.306245 
958.621552  	0.326778 
960.550368  	0.341703 
962.479184  	0.349427 
964.408000  	0.348649 
966.336816  	0.340672 
968.265632  	0.325581 
970.194448  	0.305634 
972.123264  	0.282949 
974.052080  	0.259775 
975.980896  	0.237332 
977.909712  	0.216703 
979.838528  	0.198969 
981.767344  	0.184623 
983.696160  	0.173862 
985.624976  	0.167361 
987.553792  	0.165495 
989.482608  	0.168388 
991.411424  	0.175410 
993.340240  	0.185665 
995.269056  	0.197370 
997.197872  	0.209931 
999.126688  	0.222393 
1001.055504  	0.235210 
1002.984320  	0.247765 
1004.913136  	0.260324 
1006.841952  	0.272219 
1008.770768  	0.283317 
1010.699584  	0.292392 
1012.628400  	0.298935 
1014.557216  	0.303217 
1016.486032  	0.305693 
1018.414848  	0.306451 
1020.343664  	0.306647 
1022.272480  	0.306863 
1024.201296  	0.307346 
1026.130112  	0.307649 
1028.058928  	0.309542 
1029.987744  	0.313611 
1031.916560  	0.319394 
1033.845376  	0.326769 
1035.774192  	0.336515 
1037.703008  	0.349042 
1039.631824  	0.366383 
1041.560640  	0.388673 
1043.489456  	0.415502 
1045.418272  	0.442912 
1047.347088  	0.466281 
1049.275904  	0.479383 
1051.204720  	0.482468 
1053.133536  	0.476812 
1055.062352  	0.466821 
1056.991168  	0.456050 
1058.919984  	0.448123 
1060.848800  	0.442070 
1062.777616  	0.437981 
1064.706432  	0.432550 
1066.635248  	0.425518 
1068.564064  	0.416500 
1070.492880  	0.406347 
1072.421696  	0.396446 
1074.350512  	0.391256 
1076.279328  	0.391149 
1078.208144  	0.395751 
1080.136960  	0.401382 
1082.065776  	0.404048 
1083.994592  	0.398783 
1085.923408  	0.386697 
1087.852224  	0.369994 
1089.781040  	0.351691 
1091.709856  	0.331657 
1093.638672  	0.311077 
1095.567488  	0.289794 
1097.496304  	0.269331 
1099.425120  	0.249916 
1101.353936  	0.231788 
1103.282752  	0.215284 
1105.211568  	0.200401 
1107.140384  	0.186777 
1109.069200  	0.174655 
1110.998016  	0.164053 
1112.926832  	0.154518 
1114.855648  	0.145609 
1116.784464  	0.136878 
1118.713280  	0.128330 
1120.642096  	0.120062 
1122.570912  	0.112334 
1124.499728  	0.105270 
1126.428544  	0.099421 
1128.357360  	0.094304 
1130.286176  	0.089917 
1132.214992  	0.086531 
1134.143808  	0.084291 
1136.072624  	0.082422 
1138.001440  	0.080731 
1139.930256  	0.079206 
1141.859072  	0.077709 
1143.787888  	0.075984 
1145.716704  	0.074638 
1147.645520  	0.073432 
1149.574336  	0.072932 
1151.503152  	0.072695 
1153.431968  	0.072939 
1155.360784  	0.073458 
1157.289600  	0.075034 
1159.218416  	0.077083 
1161.147232  	0.079452 
1163.076048  	0.082156 
1165.004864  	0.084780 
1166.933680  	0.087110 
1168.862496  	0.089817 
1170.791312  	0.093067 
1172.720128  	0.097128 
1174.648944  	0.101612 
1176.577760  	0.105953 
1178.506576  	0.110602 
1180.435392  	0.115636 
1182.364208  	0.120624 
1184.293024  	0.126072 
1186.221840  	0.132588 
1188.150656  	0.139939 
1190.079472  	0.148236 
1192.008288  	0.157892 
1193.937104  	0.168906 
1195.865920  	0.181376 
1197.794736  	0.194602 
1199.723552  	0.208523 
1201.652368  	0.222403 
1203.581184  	0.235279 
1205.510000  	0.247352 
1207.438816  	0.257605 
1209.367632  	0.266169 
1211.296448  	0.272563 
1213.225264  	0.276834 
1215.154080  	0.278611 
1217.082896  	0.278645 
1219.011712  	0.276954 
1220.940528  	0.274141 
1222.869344  	0.269801 
1224.798160  	0.265038 
1226.726976  	0.259183 
1228.655792  	0.252530 
1230.584608  	0.244991 
1232.513424  	0.236808 
1234.442240  	0.228253 
1236.371056  	0.219583 
1238.299872  	0.210374 
1240.228688  	0.200338 
1242.157504  	0.190417 
1244.086320  	0.181077 
1246.015136  	0.171822 
1247.943952  	0.163001 
1249.872768  	0.154476 
1251.801584  	0.146417 
1253.730400  	0.138795 
1255.659216  	0.131387 
1257.588032  	0.124225 
1259.516848  	0.117839 
1261.445664  	0.111684 
1263.374480  	0.106099 
1265.303296  	0.101531 
1267.232112  	0.097990 
1269.160928  	0.095727 
1271.089744  	0.094395 
1273.018560  	0.093752 
1274.947376  	0.094191 
1276.876192  	0.095572 
1278.805008  	0.096739 
1280.733824  	0.096860 
1282.662640  	0.095087 
1284.591456  	0.092798 
1286.520272  	0.091184 
1288.449088  	0.090577 
1290.377904  	0.090774 
1292.306720  	0.092417 
1294.235536  	0.094011 
1296.164352  	0.094180 
1298.093168  	0.091899 
1300.021984  	0.088450 
1301.950800  	0.084603 
1303.879616  	0.080540 
1305.808432  	0.076113 
1307.737248  	0.071590 
1309.666064  	0.066953 
1311.594880  	0.064083 
1313.523696  	0.062258 
1315.452512  	0.060653 
1317.381328  	0.060474 
1319.310144  	0.060797 
1321.238960  	0.060521 
1323.167776  	0.061082 
1325.096592  	0.062103 
1327.025408  	0.062681 
1328.954224  	0.062505 
1330.883040  	0.061550 
1332.811856  	0.059732 
1334.740672  	0.058606 
1336.669488  	0.059565 
1338.598304  	0.062287 
1340.527120  	0.061322 
1342.455936  	0.057066 
1344.384752  	0.055921 
1346.313568  	0.056525 
1348.242384  	0.057708 
1350.171200  	0.059284 
1352.100016  	0.061256 
1354.028832  	0.064187 
1355.957648  	0.067085 
1357.886464  	0.069619 
1359.815280  	0.073349 
1361.744096  	0.079417 
1363.672912  	0.082730 
1365.601728  	0.082380 
1367.530544  	0.085144 
1369.459360  	0.088322 
1371.388176  	0.089656 
1373.316992  	0.091853 
1375.245808  	0.090370 
1377.174624  	0.085510 
1379.103440  	0.081610 
1381.032256  	0.077321 
1382.961072  	0.073879 
1384.889888  	0.072548 
1386.818704  	0.073359 
1388.747520  	0.069798 
1390.676336  	0.065148 
1392.605152  	0.063387 
1394.533968  	0.064991 
1396.462784  	0.065545 
1398.391600  	0.064864 
1400.320416  	0.062958 
1402.249232  	0.061354 
1404.178048  	0.063696 
1406.106864  	0.064718 
1408.035680  	0.064748 
1409.964496  	0.067089 
1411.893312  	0.070069 
1413.822128  	0.072519 
1415.750944  	0.077315 
1417.679760  	0.083207 
1419.608576  	0.084960 
1421.537392  	0.081585 
1423.466208  	0.081061 
1425.395024  	0.077914 
1427.323840  	0.074010 
1429.252656  	0.072224 
1431.181472  	0.069598 
1433.110288  	0.067744 
1435.039104  	0.069367 
1436.967920  	0.073191 
1438.896736  	0.072176 
1440.825552  	0.071955 
1442.754368  	0.072895 
1444.683184  	0.073526 
1446.612000  	0.075464 
1448.540816  	0.076707 
1450.469632  	0.076182 
1452.398448  	0.077129 
1454.327264  	0.079263 
1456.256080  	0.085078 
1458.184896  	0.086415 
1460.113712  	0.078840 
1462.042528  	0.074954 
1463.971344  	0.075609 
1465.900160  	0.076284 
1467.828976  	0.075034 
1469.757792  	0.076745 
1471.686608  	0.084997 
1473.615424  	0.096124 
1475.544240  	0.099569 
1477.473056  	0.103380 
1479.401872  	0.106677 
1481.330688  	0.112240 
1483.259504  	0.115276 
1485.188320  	0.118530 
1487.117136  	0.123440 
1489.045952  	0.128705 
1490.974768  	0.124415 
1492.903584  	0.115964 
1494.832400  	0.111194 
1496.761216  	0.106613 
1498.690032  	0.097689 
1500.618848  	0.089042 
1502.547664  	0.081826 
1504.476480  	0.078521 
1506.405296  	0.085547 
1508.334112  	0.085851 
1510.262928  	0.075942 
1512.191744  	0.070085 
1514.120560  	0.068924 
1516.049376  	0.073562 
1517.978192  	0.075941 
1519.907008  	0.077651 
1521.835824  	0.086902 
1523.764640  	0.088793 
1525.693456  	0.092374 
1527.622272  	0.094062 
1529.551088  	0.091253 
1531.479904  	0.089515 
1533.408720  	0.089016 
1535.337536  	0.082335 
1537.266352  	0.078362 
1539.195168  	0.080243 
1541.123984  	0.080797 
1543.052800  	0.077072 
1544.981616  	0.072590 
1546.910432  	0.065643 
1548.839248  	0.065281 
1550.768064  	0.066921 
1552.696880  	0.065571 
1554.625696  	0.068540 
1556.554512  	0.069994 
1558.483328  	0.079034 
1560.412144  	0.080983 
1562.340960  	0.077142 
1564.269776  	0.079347 
1566.198592  	0.084443 
1568.127408  	0.089269 
1570.056224  	0.099047 
1571.985040  	0.102544 
1573.913856  	0.106147 
1575.842672  	0.113022 
1577.771488  	0.116439 
1579.700304  	0.113124 
1581.629120  	0.111704 
1583.557936  	0.110822 
1585.486752  	0.112034 
1587.415568  	0.115121 
1589.344384  	0.121453 
1591.273200  	0.129154 
1593.202016  	0.138804 
1595.130832  	0.149208 
1597.059648  	0.159256 
1598.988464  	0.167653 
1600.917280  	0.176555 
1602.846096  	0.182992 
1604.774912  	0.186895 
1606.703728  	0.188377 
1608.632544  	0.188857 
1610.561360  	0.185960 
1612.490176  	0.183387 
1614.418992  	0.181677 
1616.347808  	0.184335 
1618.276624  	0.185918 
1620.205440  	0.187705 
1622.134256  	0.192796 
1624.063072  	0.202510 
1625.991888  	0.208429 
1627.920704  	0.218231 
1629.849520  	0.227789 
1631.778336  	0.236512 
1633.707152  	0.245069 
1635.635968  	0.260295 
1637.564784  	0.269113 
1639.493600  	0.270995 
1641.422416  	0.273206 
1643.351232  	0.275654 
1645.280048  	0.278232 
1647.208864  	0.283666 
1649.137680  	0.279075 
1651.066496  	0.275889 
1652.995312  	0.277040 
1654.924128  	0.272990 
1656.852944  	0.264706 
1658.781760  	0.258969 
1660.710576  	0.254856 
1662.639392  	0.250542 
1664.568208  	0.242135 
1666.497024  	0.236121 
1668.425840  	0.231854 
1670.354656  	0.224426 
1672.283472  	0.215553 
1674.212288  	0.209735 
1676.141104  	0.203225 
1678.069920  	0.198272 
1679.998736  	0.197257 
1681.927552  	0.196208 
1683.856368  	0.197238 
1685.785184  	0.193137 
1687.714000  	0.189814 
1689.642816  	0.188249 
1691.571632  	0.184663 
1693.500448  	0.183230 
1695.429264  	0.185383 
1697.358080  	0.187203 
1699.286896  	0.184964 
1701.215712  	0.182860 
1703.144528  	0.178796 
1705.073344  	0.176476 
1707.002160  	0.170644 
1708.930976  	0.163531 
1710.859792  	0.156323 
1712.788608  	0.149525 
1714.717424  	0.143108 
1716.646240  	0.133948 
1718.575056  	0.115232 
1720.503872  	0.097969 
1722.432688  	0.086185 
1724.361504  	0.073285 
1726.290320  	0.061932 
1728.219136  	0.054394 
1730.147952  	0.049686 
1732.076768  	0.044966 
1734.005584  	0.042153 
1735.934400  	0.033195 
1737.863216  	0.029000 
1739.792032  	0.026381 
1741.720848  	0.024213 
1743.649664  	0.023917 
1745.578480  	0.022393 
1747.507296  	0.022050 
1749.436112  	0.022675 
1751.364928  	0.019829 
1753.293744  	0.014769 
1755.222560  	0.012727 
1757.151376  	0.014000 
1759.080192  	0.012220 
1761.009008  	0.012286 
1762.937824  	0.011284 
1764.866640  	0.008872 
1766.795456  	0.009328 
1768.724272  	0.010931 
1770.653088  	0.010758 
1772.581904  	0.012400 
1774.510720  	0.010197 
1776.439536  	0.008141 
1778.368352  	0.006717 
1780.297168  	0.007793 
1782.225984  	0.006603 
1784.154800  	0.006211 
1786.083616  	0.005395 
1788.012432  	0.004437 
1789.941248  	0.006107 
1791.870064  	0.009204 
1793.798880  	0.007472 
1795.727696  	0.006145 
1797.656512  	0.004780 
1799.585328  	0.005134 
1801.514144  	0.006091 
1803.442960  	0.004340 
1805.371776  	0.002738 
1807.300592  	0.002979 
1809.229408  	0.003275 
1811.158224  	0.003918 
1813.087040  	0.002510 
1815.015856  	0.001034 
1816.944672  	0.001325 
1818.873488  	0.001615 
1820.802304  	0.001345 
1822.731120  	0.002205 
1824.659936  	0.003486 
1826.588752  	0.003195 
1828.517568  	0.003198 
1830.446384  	0.004438 
1832.375200  	0.002024 
1834.304016  	0.001214 
1836.232832  	0.001454 
1838.161648  	0.001739 
1840.090464  	0.000883 
1842.019280  	0.001787 
1843.948096  	0.004058 
1845.876912  	0.004292 
1847.805728  	0.002544 
1849.734544  	0.001014 
1851.663360  	-0.000038 
1853.592176  	0.000359 
1855.520992  	0.000130 
1857.449808  	0.000568 
1859.378624  	0.000283 
1861.307440  	0.000576 
1863.236256  	0.000108 
1865.165072  	0.000560 
1867.093888  	0.002553 
1869.022704  	0.005055 
1870.951520  	0.002279 
1872.880336  	-0.000068 
1874.809152  	-0.000843 
1876.737968  	-0.000796 
1878.666784  	-0.000918 
1880.595600  	-0.000790 
1882.524416  	-0.000744 
1884.453232  	-0.000237 
1886.382048  	-0.000631 
1888.310864  	0.000671 
1890.239680  	0.001177 
1892.168496  	0.000023 
1894.097312  	0.000154 
1896.026128  	0.000263 
1897.954944  	-0.000995 
1899.883760  	-0.000908 
1901.812576  	-0.000884 
1903.741392  	-0.000490 
1905.670208  	-0.000759 
1907.599024  	-0.000474 
1909.527840  	0.000076 
1911.456656  	0.000172 
1913.385472  	-0.000181 
1915.314288  	0.000398 
1917.243104  	0.001328 
1919.171920  	0.001652 
1921.100736  	0.000945 
1923.029552  	0.002094 
1924.958368  	-0.000162 
1926.887184  	-0.001301 
1928.816000  	-0.002009 
1930.744816  	-0.001541 
1932.673632  	-0.001200 
1934.602448  	-0.000759 
1936.531264  	-0.001564 
1938.460080  	-0.001139 
1940.388896  	-0.000283 
1942.317712  	0.002149 
1944.246528  	0.000579 
1946.175344  	-0.000182 
1948.104160  	-0.000882 
1950.032976  	-0.000910 
1951.961792  	-0.001784 
1953.890608  	-0.001929 
1955.819424  	-0.002453 
1957.748240  	-0.002396 
1959.677056  	-0.003411 
1961.605872  	-0.002712 
1963.534688  	-0.001956 
1965.463504  	0.000425 
1967.392320  	-0.000080 
1969.321136  	-0.001903 
1971.249952  	-0.003915 
1973.178768  	-0.003770 
1975.107584  	-0.003265 
1977.036400  	-0.000654 
1978.965216  	-0.000142 
1980.894032  	-0.000026 
1982.822848  	-0.001405 
1984.751664  	-0.001388 
1986.680480  	-0.000798 
1988.609296  	0.001020 
1990.538112  	0.001414 
1992.466928  	0.002651 
1994.395744  	-0.000281 
1996.324560  	-0.001151 
1998.253376  	-0.001038 
2000.182192  	-0.001105 
2002.111008  	-0.001582 
2004.039824  	-0.000982 
2005.968640  	-0.001693 
2007.897456  	-0.000487 
2009.826272  	-0.000072 
2011.755088  	0.000649 
2013.683904  	-0.000239 
2015.612720  	0.000148 
2017.541536  	0.000527 
2019.470352  	0.001806 
2021.399168  	0.000446 
2023.327984  	0.000279 
2025.256800  	0.001119 
2027.185616  	0.002728 
2029.114432  	0.002227 
2031.043248  	0.002018 
2032.972064  	0.000923 
2034.900880  	0.002151 
2036.829696  	0.002013 
2038.758512  	0.002381 
2040.687328  	0.001463 
2042.616144  	0.001601 
2044.544960  	0.001265 
2046.473776  	0.001632 
2048.402592  	0.002148 
2050.331408  	0.002756 
2052.260224  	0.002468 
2054.189040  	0.002781 
2056.117856  	0.002089 
2058.046672  	0.002480 
2059.975488  	0.002500 
2061.904304  	0.002907 
2063.833120  	0.003513 
2065.761936  	0.004201 
2067.690752  	0.002913 
2069.619568  	0.002604 
2071.548384  	0.002393 
2073.477200  	0.002791 
2075.406016  	0.002922 
2077.334832  	0.003553 
2079.263648  	0.004202 
2081.192464  	0.004224 
2083.121280  	0.003343 
2085.050096  	0.003253 
2086.978912  	0.003087 
2088.907728  	0.003627 
2090.836544  	0.003842 
2092.765360  	0.003544 
2094.694176  	0.003705 
2096.622992  	0.004438 
2098.551808  	0.004046 
2100.480624  	0.004271 
2102.409440  	0.004294 
2104.338256  	0.004359 
2106.267072  	0.004090 
2108.195888  	0.004002 
2110.124704  	0.003758 
2112.053520  	0.004124 
2113.982336  	0.004562 
2115.911152  	0.004352 
2117.839968  	0.003477 
2119.768784  	0.003381 
2121.697600  	0.003301 
2123.626416  	0.003316 
2125.555232  	0.002886 
2127.484048  	0.002947 
2129.412864  	0.003107 
2131.341680  	0.003372 
2133.270496  	0.003276 
2135.199312  	0.004198 
2137.128128  	0.004593 
2139.056944  	0.005127 
2140.985760  	0.004499 
2142.914576  	0.004375 
2144.843392  	0.003159 
2146.772208  	0.003320 
2148.701024  	0.003552 
2150.629840  	0.003446 
2152.558656  	0.003106 
2154.487472  	0.003772 
2156.416288  	0.004079 
2158.345104  	0.006628 
2160.273920  	0.009202 
2162.202736  	0.009698 
2164.131552  	0.008236 
2166.060368  	0.008374 
2167.989184  	0.007043 
2169.918000  	0.005283 
2171.846816  	0.005197 
2173.775632  	0.006411 
2175.704448  	0.005881 
2177.633264  	0.005829 
2179.562080  	0.004968 
2181.490896  	0.005468 
2183.419712  	0.005844 
2185.348528  	0.005853 
2187.277344  	0.005511 
2189.206160  	0.005871 
2191.134976  	0.005638 
2193.063792  	0.005446 
2194.992608  	0.004799 
2196.921424  	0.004669 
2198.850240  	0.003623 
2200.779056  	0.003302 
2202.707872  	0.003467 
2204.636688  	0.004182 
2206.565504  	0.003547 
2208.494320  	0.003272 
2210.423136  	0.003063 
2212.351952  	0.003688 
2214.280768  	0.003535 
2216.209584  	0.003481 
2218.138400  	0.002676 
2220.067216  	0.002568 
2221.996032  	0.002519 
2223.924848  	0.003192 
2225.853664  	0.003153 
2227.782480  	0.003052 
2229.711296  	0.002407 
2231.640112  	0.002355 
2233.568928  	0.001701 
2235.497744  	0.001704 
2237.426560  	0.001963 
2239.355376  	0.002763 
2241.284192  	0.002265 
2243.213008  	0.002085 
2245.141824  	0.002479 
2247.070640  	0.002829 
2248.999456  	0.002349 
2250.928272  	0.002527 
2252.857088  	0.002539 
2254.785904  	0.003115 
2256.714720  	0.003417 
2258.643536  	0.003120 
2260.572352  	0.002965 
2262.501168  	0.002885 
2264.429984  	0.002812 
2266.358800  	0.002939 
2268.287616  	0.002641 
2270.216432  	0.002448 
2272.145248  	0.002523 
2274.074064  	0.003188 
2276.002880  	0.003251 
2277.931696  	0.003426 
2279.860512  	0.003408 
2281.789328  	0.003522 
2283.718144  	0.003522 
2285.646960  	0.004005 
2287.575776  	0.004459 
2289.504592  	0.004514 
2291.433408  	0.004390 
2293.362224  	0.004677 
2295.291040  	0.004636 
2297.219856  	0.005044 
2299.148672  	0.005347 
2301.077488  	0.005672 
2303.006304  	0.006079 
2304.935120  	0.006635 
2306.863936  	0.006732 
2308.792752  	0.006909 
2310.721568  	0.006837 
2312.650384  	0.006240 
2314.579200  	0.005428 
2316.508016  	0.005439 
2318.436832  	0.005631 
2320.365648  	0.005821 
2322.294464  	0.005489 
2324.223280  	0.004303 
2326.152096  	0.002069 
2328.080912  	0.000537 
2330.009728  	-0.000050 
2331.938544  	-0.000653 
2333.867360  	-0.001871 
2335.796176  	-0.002806 
2337.724992  	-0.003579 
2339.653808  	-0.003652 
2341.582624  	-0.003117 
2343.511440  	-0.001542 
2345.440256  	0.000760 
2347.369072  	0.002434 
2349.297888  	0.002200 
2351.226704  	0.000396 
2353.155520  	-0.002045 
2355.084336  	-0.003795 
2357.013152  	-0.005239 
2358.941968  	-0.005587 
2360.870784  	-0.005820 
2362.799600  	-0.005189 
2364.728416  	-0.003941 
2366.657232  	-0.002869 
2368.586048  	-0.001115 
2370.514864  	0.000927 
2372.443680  	0.002332 
2374.372496  	0.004204 
2376.301312  	0.005646 
2378.230128  	0.006173 
2380.158944  	0.005797 
2382.087760  	0.005294 
2384.016576  	0.004440 
2385.945392  	0.003541 
2387.874208  	0.002924 
2389.803024  	0.002549 
2391.731840  	0.002391 
2393.660656  	0.002550 
2395.589472  	0.002502 
2397.518288  	0.002390 
2399.447104  	0.002220 
2401.375920  	0.002339 
2403.304736  	0.002212 
2405.233552  	0.002279 
2407.162368  	0.002387 
2409.091184  	0.002522 
2411.020000  	0.002421 
2412.948816  	0.002219 
2414.877632  	0.002345 
2416.806448  	0.002676 
2418.735264  	0.002723 
2420.664080  	0.002851 
2422.592896  	0.002906 
2424.521712  	0.002842 
2426.450528  	0.002767 
2428.379344  	0.003032 
2430.308160  	0.003207 
2432.236976  	0.003378 
2434.165792  	0.003642 
2436.094608  	0.003953 
2438.023424  	0.003947 
2439.952240  	0.003966 
2441.881056  	0.004108 
2443.809872  	0.004016 
2445.738688  	0.003935 
2447.667504  	0.004250 
2449.596320  	0.004624 
2451.525136  	0.004764 
2453.453952  	0.004799 
2455.382768  	0.004910 
2457.311584  	0.004853 
2459.240400  	0.004794 
2461.169216  	0.004761 
2463.098032  	0.005045 
2465.026848  	0.005169 
2466.955664  	0.005104 
2468.884480  	0.005026 
2470.813296  	0.005023 
2472.742112  	0.005129 
2474.670928  	0.005417 
2476.599744  	0.005762 
2478.528560  	0.006079 
2480.457376  	0.006152 
2482.386192  	0.006413 
2484.315008  	0.006355 
2486.243824  	0.006386 
2488.172640  	0.006778 
2490.101456  	0.007073 
2492.030272  	0.007169 
2493.959088  	0.007236 
2495.887904  	0.007184 
2497.816720  	0.007423 
2499.745536  	0.007487 
2501.674352  	0.007594 
2503.603168  	0.007627 
2505.531984  	0.007861 
2507.460800  	0.007768 
2509.389616  	0.007609 
2511.318432  	0.007766 
2513.247248  	0.008103 
2515.176064  	0.008364 
2517.104880  	0.008439 
2519.033696  	0.008171 
2520.962512  	0.008324 
2522.891328  	0.008399 
2524.820144  	0.008895 
2526.748960  	0.009151 
2528.677776  	0.009174 
2530.606592  	0.009185 
2532.535408  	0.009381 
2534.464224  	0.009344 
2536.393040  	0.009210 
2538.321856  	0.009427 
2540.250672  	0.009727 
2542.179488  	0.009848 
2544.108304  	0.010164 
2546.037120  	0.010378 
2547.965936  	0.010477 
2549.894752  	0.010675 
2551.823568  	0.011042 
2553.752384  	0.011177 
2555.681200  	0.011185 
2557.610016  	0.011223 
2559.538832  	0.011210 
2561.467648  	0.011334 
2563.396464  	0.011677 
2565.325280  	0.011854 
2567.254096  	0.011929 
2569.182912  	0.012099 
2571.111728  	0.012298 
2573.040544  	0.012449 
2574.969360  	0.012718 
2576.898176  	0.012970 
2578.826992  	0.013084 
2580.755808  	0.013138 
2582.684624  	0.013414 
2584.613440  	0.013778 
2586.542256  	0.014182 
2588.471072  	0.014129 
2590.399888  	0.014142 
2592.328704  	0.014237 
2594.257520  	0.014382 
2596.186336  	0.014224 
2598.115152  	0.014340 
2600.043968  	0.014855 
2601.972784  	0.015086 
2603.901600  	0.015197 
2605.830416  	0.015262 
2607.759232  	0.015220 
2609.688048  	0.015400 
2611.616864  	0.015746 
2613.545680  	0.016001 
2615.474496  	0.016221 
2617.403312  	0.016392 
2619.332128  	0.016568 
2621.260944  	0.016790 
2623.189760  	0.016914 
2625.118576  	0.017216 
2627.047392  	0.017477 
2628.976208  	0.017888 
2630.905024  	0.018123 
2632.833840  	0.018269 
2634.762656  	0.018341 
2636.691472  	0.018588 
2638.620288  	0.018952 
2640.549104  	0.019281 
2642.477920  	0.019533 
2644.406736  	0.019680 
2646.335552  	0.019845 
2648.264368  	0.020206 
2650.193184  	0.020552 
2652.122000  	0.020926 
2654.050816  	0.021222 
2655.979632  	0.021412 
2657.908448  	0.021456 
2659.837264  	0.021698 
2661.766080  	0.022027 
2663.694896  	0.022253 
2665.623712  	0.022436 
2667.552528  	0.022627 
2669.481344  	0.022805 
2671.410160  	0.023061 
2673.338976  	0.023388 
2675.267792  	0.023629 
2677.196608  	0.023914 
2679.125424  	0.024206 
2681.054240  	0.024433 
2682.983056  	0.024667 
2684.911872  	0.024921 
2686.840688  	0.025188 
2688.769504  	0.025318 
2690.698320  	0.025516 
2692.627136  	0.025759 
2694.555952  	0.025933 
2696.484768  	0.026195 
2698.413584  	0.026391 
2700.342400  	0.026519 
2702.271216  	0.026820 
2704.200032  	0.027130 
2706.128848  	0.027391 
2708.057664  	0.027590 
2709.986480  	0.027718 
2711.915296  	0.027909 
2713.844112  	0.028160 
2715.772928  	0.028403 
2717.701744  	0.028677 
2719.630560  	0.028974 
2721.559376  	0.029193 
2723.488192  	0.029420 
2725.417008  	0.029680 
2727.345824  	0.029930 
2729.274640  	0.030302 
2731.203456  	0.030510 
2733.132272  	0.030649 
2735.061088  	0.030910 
2736.989904  	0.031150 
2738.918720  	0.031405 
2740.847536  	0.031704 
2742.776352  	0.031993 
2744.705168  	0.032226 
2746.633984  	0.032400 
2748.562800  	0.032641 
2750.491616  	0.032739 
2752.420432  	0.032828 
2754.349248  	0.032906 
2756.278064  	0.032960 
2758.206880  	0.032939 
2760.135696  	0.033004 
2762.064512  	0.033154 
2763.993328  	0.033297 
2765.922144  	0.033358 
2767.850960  	0.033315 
2769.779776  	0.033263 
2771.708592  	0.033297 
2773.637408  	0.033259 
2775.566224  	0.033253 
2777.495040  	0.033176 
2779.423856  	0.033160 
2781.352672  	0.033277 
2783.281488  	0.033373 
2785.210304  	0.033368 
2787.139120  	0.033406 
2789.067936  	0.033365 
2790.996752  	0.033365 
2792.925568  	0.033446 
2794.854384  	0.033477 
2796.783200  	0.033472 
2798.712016  	0.033512 
2800.640832  	0.033557 
2802.569648  	0.033694 
2804.498464  	0.033809 
2806.427280  	0.033927 
2808.356096  	0.034057 
2810.284912  	0.034102 
2812.213728  	0.034098 
2814.142544  	0.034215 
2816.071360  	0.034210 
2818.000176  	0.034260 
2819.928992  	0.034415 
2821.857808  	0.034502 
2823.786624  	0.034546 
2825.715440  	0.034673 
2827.644256  	0.034740 
2829.573072  	0.034802 
2831.501888  	0.034928 
2833.430704  	0.034950 
2835.359520  	0.034923 
2837.288336  	0.035017 
2839.217152  	0.035123 
2841.145968  	0.035271 
2843.074784  	0.035529 
2845.003600  	0.035902 
2846.932416  	0.036360 
2848.861232  	0.037115 
2850.790048  	0.037468 
2852.718864  	0.037290 
2854.647680  	0.037086 
2856.576496  	0.037194 
2858.505312  	0.037319 
2860.434128  	0.037554 
2862.362944  	0.037694 
2864.291760  	0.037835 
2866.220576  	0.038082 
2868.149392  	0.038364 
2870.078208  	0.038692 
2872.007024  	0.039195 
2873.935840  	0.039819 
2875.864656  	0.040342 
2877.793472  	0.040762 
2879.722288  	0.041522 
2881.651104  	0.042287 
2883.579920  	0.042859 
2885.508736  	0.043425 
2887.437552  	0.043821 
2889.366368  	0.043920 
2891.295184  	0.044091 
2893.224000  	0.044212 
2895.152816  	0.044369 
2897.081632  	0.044515 
2899.010448  	0.044267 
2900.939264  	0.043946 
2902.868080  	0.044354 
2904.796896  	0.045013 
2906.725712  	0.045423 
2908.654528  	0.045911 
2910.583344  	0.046664 
2912.512160  	0.047544 
2914.440976  	0.048692 
2916.369792  	0.049882 
2918.298608  	0.050644 
2920.227424  	0.051064 
2922.156240  	0.051431 
2924.085056  	0.051886 
2926.013872  	0.052526 
2927.942688  	0.053437 
2929.871504  	0.054357 
2931.800320  	0.055217 
2933.729136  	0.056120 
2935.657952  	0.056972 
2937.586768  	0.057757 
2939.515584  	0.058374 
2941.444400  	0.058861 
2943.373216  	0.059425 
2945.302032  	0.059912 
2947.230848  	0.060135 
2949.159664  	0.060058 
2951.088480  	0.059940 
2953.017296  	0.059987 
2954.946112  	0.059820 
2956.874928  	0.059517 
2958.803744  	0.059205 
2960.732560  	0.058999 
2962.661376  	0.058725 
2964.590192  	0.058404 
2966.519008  	0.058133 
2968.447824  	0.057557 
2970.376640  	0.057004 
2972.305456  	0.056614 
2974.234272  	0.056680 
2976.163088  	0.056666 
2978.091904  	0.056497 
2980.020720  	0.056257 
2981.949536  	0.056128 
2983.878352  	0.056271 
2985.807168  	0.056191 
2987.735984  	0.056117 
2989.664800  	0.056293 
2991.593616  	0.056838 
2993.522432  	0.057363 
2995.451248  	0.057707 
2997.380064  	0.058140 
2999.308880  	0.058686 
3001.237696  	0.059441 
3003.166512  	0.060278 
3005.095328  	0.060946 
3007.024144  	0.061584 
3008.952960  	0.062483 
3010.881776  	0.063496 
3012.810592  	0.064461 
3014.739408  	0.065309 
3016.668224  	0.065927 
3018.597040  	0.066643 
3020.525856  	0.067531 
3022.454672  	0.068226 
3024.383488  	0.069164 
3026.312304  	0.070230 
3028.241120  	0.071062 
3030.169936  	0.071992 
3032.098752  	0.072963 
3034.027568  	0.073713 
3035.956384  	0.074559 
3037.885200  	0.075408 
3039.814016  	0.076391 
3041.742832  	0.077330 
3043.671648  	0.078274 
3045.600464  	0.079183 
3047.529280  	0.080231 
3049.458096  	0.081384 
3051.386912  	0.082251 
3053.315728  	0.083247 
3055.244544  	0.084394 
3057.173360  	0.085604 
3059.102176  	0.086763 
3061.030992  	0.087995 
3062.959808  	0.089267 
3064.888624  	0.090804 
3066.817440  	0.092222 
3068.746256  	0.093405 
3070.675072  	0.094586 
3072.603888  	0.095786 
3074.532704  	0.097168 
3076.461520  	0.098504 
3078.390336  	0.099729 
3080.319152  	0.101213 
3082.247968  	0.102529 
3084.176784  	0.103578 
3086.105600  	0.104991 
3088.034416  	0.106473 
3089.963232  	0.107400 
3091.892048  	0.108530 
3093.820864  	0.109836 
3095.749680  	0.111572 
3097.678496  	0.113036 
3099.607312  	0.114277 
3101.536128  	0.115957 
3103.464944  	0.117060 
3105.393760  	0.117994 
3107.322576  	0.119350 
3109.251392  	0.120713 
3111.180208  	0.121851 
3113.109024  	0.122717 
3115.037840  	0.123755 
3116.966656  	0.125019 
3118.895472  	0.126325 
3120.824288  	0.127426 
3122.753104  	0.128560 
3124.681920  	0.129280 
3126.610736  	0.129951 
3128.539552  	0.130786 
3130.468368  	0.131588 
3132.397184  	0.132691 
3134.326000  	0.133636 
3136.254816  	0.134487 
3138.183632  	0.135363 
3140.112448  	0.136040 
3142.041264  	0.137134 
3143.970080  	0.138244 
3145.898896  	0.139000 
3147.827712  	0.139918 
3149.756528  	0.141201 
3151.685344  	0.142116 
3153.614160  	0.142837 
3155.542976  	0.143683 
3157.471792  	0.144857 
3159.400608  	0.145823 
3161.329424  	0.146381 
3163.258240  	0.147325 
3165.187056  	0.148263 
3167.115872  	0.148952 
3169.044688  	0.149683 
3170.973504  	0.150361 
3172.902320  	0.150890 
3174.831136  	0.151372 
3176.759952  	0.152167 
3178.688768  	0.152926 
3180.617584  	0.153168 
3182.546400  	0.153313 
3184.475216  	0.153666 
3186.404032  	0.154042 
3188.332848  	0.154272 
3190.261664  	0.154273 
3192.190480  	0.154201 
3194.119296  	0.154224 
3196.048112  	0.154230 
3197.976928  	0.154403 
3199.905744  	0.154270 
3201.834560  	0.153997 
3203.763376  	0.153680 
3205.692192  	0.153392 
3207.621008  	0.153342 
3209.549824  	0.153288 
3211.478640  	0.153119 
3213.407456  	0.153001 
3215.336272  	0.152946 
3217.265088  	0.152647 
3219.193904  	0.152598 
3221.122720  	0.152489 
3223.051536  	0.152003 
3224.980352  	0.151677 
3226.909168  	0.151633 
3228.837984  	0.151405 
3230.766800  	0.151079 
3232.695616  	0.151084 
3234.624432  	0.151083 
3236.553248  	0.151044 
3238.482064  	0.151124 
3240.410880  	0.151064 
3242.339696  	0.151085 
3244.268512  	0.151393 
3246.197328  	0.151420 
3248.126144  	0.151310 
3250.054960  	0.151677 
3251.983776  	0.152006 
3253.912592  	0.152366 
3255.841408  	0.152622 
3257.770224  	0.152675 
3259.699040  	0.152953 
3261.627856  	0.153270 
3263.556672  	0.153357 
3265.485488  	0.153665 
3267.414304  	0.153873 
3269.343120  	0.153966 
3271.271936  	0.154038 
3273.200752  	0.154446 
3275.129568  	0.154660 
3277.058384  	0.154695 
3278.987200  	0.154678 
3280.916016  	0.154763 
3282.844832  	0.155011 
3284.773648  	0.155125 
3286.702464  	0.155181 
3288.631280  	0.155531 
3290.560096  	0.155934 
3292.488912  	0.156066 
3294.417728  	0.156109 
3296.346544  	0.156554 
3298.275360  	0.156957 
3300.204176  	0.157047 
3302.132992  	0.157165 
3304.061808  	0.157571 
3305.990624  	0.157967 
3307.919440  	0.158405 
3309.848256  	0.158659 
3311.777072  	0.158785 
3313.705888  	0.159017 
3315.634704  	0.159515 
3317.563520  	0.159873 
3319.492336  	0.159917 
3321.421152  	0.160205 
3323.349968  	0.160525 
3325.278784  	0.160650 
3327.207600  	0.160691 
3329.136416  	0.160351 
3331.065232  	0.159999 
3332.994048  	0.160051 
3334.922864  	0.160468 
3336.851680  	0.160492 
3338.780496  	0.160057 
3340.709312  	0.159642 
3342.638128  	0.159452 
3344.566944  	0.158970 
3346.495760  	0.158344 
3348.424576  	0.157879 
3350.353392  	0.157503 
3352.282208  	0.156998 
3354.211024  	0.156710 
3356.139840  	0.156331 
3358.068656  	0.155621 
3359.997472  	0.155188 
3361.926288  	0.155054 
3363.855104  	0.154399 
3365.783920  	0.153945 
3367.712736  	0.153461 
3369.641552  	0.152649 
3371.570368  	0.151896 
3373.499184  	0.151447 
3375.428000  	0.151019 
3377.356816  	0.150714 
3379.285632  	0.150182 
3381.214448  	0.149346 
3383.143264  	0.148869 
3385.072080  	0.148550 
3387.000896  	0.147510 
3388.929712  	0.146443 
3390.858528  	0.146021 
3392.787344  	0.146336 
3394.716160  	0.145597 
3396.644976  	0.144753 
3398.573792  	0.143731 
3400.502608  	0.142731 
3402.431424  	0.141981 
3404.360240  	0.141179 
3406.289056  	0.140170 
3408.217872  	0.139266 
3410.146688  	0.138473 
3412.075504  	0.137531 
3414.004320  	0.136701 
3415.933136  	0.136121 
3417.861952  	0.135507 
3419.790768  	0.135201 
3421.719584  	0.134693 
3423.648400  	0.133307 
3425.577216  	0.131777 
3427.506032  	0.130890 
3429.434848  	0.130003 
3431.363664  	0.129320 
3433.292480  	0.128391 
3435.221296  	0.127116 
3437.150112  	0.125870 
3439.078928  	0.124742 
3441.007744  	0.123964 
3442.936560  	0.123539 
3444.865376  	0.122551 
3446.794192  	0.122425 
3448.723008  	0.121214 
3450.651824  	0.118866 
3452.580640  	0.117463 
3454.509456  	0.116342 
3456.438272  	0.115346 
3458.367088  	0.114358 
3460.295904  	0.113488 
3462.224720  	0.112725 
3464.153536  	0.111046 
3466.082352  	0.109572 
3468.011168  	0.108392 
3469.939984  	0.106889 
3471.868800  	0.105531 
3473.797616  	0.104399 
3475.726432  	0.103143 
3477.655248  	0.101491 
3479.584064  	0.100576 
3481.512880  	0.100429 
3483.441696  	0.099165 
3485.370512  	0.097199 
3487.299328  	0.095960 
3489.228144  	0.094355 
3491.156960  	0.092377 
3493.085776  	0.091223 
3495.014592  	0.090526 
3496.943408  	0.089452 
3498.872224  	0.087958 
3500.801040  	0.087883 
3502.729856  	0.088569 
3504.658672  	0.086974 
3506.587488  	0.084039 
3508.516304  	0.083207 
3510.445120  	0.082590 
3512.373936  	0.080465 
3514.302752  	0.078676 
3516.231568  	0.077517 
3518.160384  	0.076790 
3520.089200  	0.075817 
3522.018016  	0.075709 
3523.946832  	0.076501 
3525.875648  	0.075193 
3527.804464  	0.073758 
3529.733280  	0.071893 
3531.662096  	0.069533 
3533.590912  	0.067519 
3535.519728  	0.067355 
3537.448544  	0.066595 
3539.377360  	0.064153 
3541.306176  	0.062870 
3543.234992  	0.063589 
3545.163808  	0.065715 
3547.092624  	0.064978 
3549.021440  	0.060994 
3550.950256  	0.059125 
3552.879072  	0.059391 
3554.807888  	0.056887 
3556.736704  	0.054268 
3558.665520  	0.053758 
3560.594336  	0.053879 
3562.523152  	0.052950 
3564.451968  	0.053766 
3566.380784  	0.058342 
3568.309600  	0.057308 
3570.238416  	0.050249 
3572.167232  	0.046231 
3574.096048  	0.045033 
3576.024864  	0.044200 
3577.953680  	0.042930 
3579.882496  	0.042060 
3581.811312  	0.040564 
3583.740128  	0.039313 
3585.668944  	0.040760 
3587.597760  	0.044832 
3589.526576  	0.040917 
3591.455392  	0.035533 
3593.384208  	0.035085 
3595.313024  	0.035685 
3597.241840  	0.033767 
3599.170656  	0.031893 
3601.099472  	0.031007 
3603.028288  	0.028282 
3604.957104  	0.025977 
3606.885920  	0.027562 
3608.814736  	0.029260 
3610.743552  	0.026274 
3612.672368  	0.025865 
3614.601184  	0.025648 
3616.530000  	0.022786 
3618.458816  	0.023484 
3620.387632  	0.022739 
3622.316448  	0.017554 
3624.245264  	0.014147 
3626.174080  	0.013460 
3628.102896  	0.016959 
3630.031712  	0.019868 
3631.960528  	0.013229 
3633.889344  	0.010326 
3635.818160  	0.008018 
3637.746976  	0.006061 
3639.675792  	0.004996 
3641.604608  	0.004572 
3643.533424  	0.003492 
3645.462240  	0.002605 
3647.391056  	0.007263 
3649.319872  	0.011677 
3651.248688  	0.008655 
3653.177504  	0.000338 
3655.106320  	-0.002468 
3657.035136  	-0.001236 
3658.963952  	-0.003923 
3660.892768  	-0.006007 
3662.821584  	-0.007276 
3664.750400  	-0.008355 
3666.679216  	-0.008932 
3668.608032  	-0.006703 
3670.536848  	-0.002546 
3672.465664  	-0.006444 
3674.394480  	-0.006270 
3676.323296  	-0.000509 
3678.252112  	-0.005517 
3680.180928  	-0.008877 
3682.109744  	-0.011588 
3684.038560  	-0.012736 
3685.967376  	-0.013386 
3687.896192  	-0.010703 
3689.825008  	-0.005951 
3691.753824  	-0.007761 
3693.682640  	-0.011468 
3695.611456  	-0.013341 
3697.540272  	-0.013922 
3699.469088  	-0.014869 
3701.397904  	-0.012955 
3703.326720  	-0.012498 
3705.255536  	-0.014109 
3707.184352  	-0.014498 
3709.113168  	-0.012819 
3711.041984  	-0.007967 
3712.970800  	-0.007256 
3714.899616  	-0.011263 
3716.828432  	-0.013886 
3718.757248  	-0.013412 
3720.686064  	-0.012679 
3722.614880  	-0.011103 
3724.543696  	-0.010414 
3726.472512  	-0.009645 
3728.401328  	-0.012309 
3730.330144  	-0.015151 
3732.258960  	-0.012729 
3734.187776  	-0.006519 
3736.116592  	-0.001674 
3738.045408  	-0.006651 
3739.974224  	-0.010355 
3741.903040  	-0.012523 
3743.831856  	-0.011116 
3745.760672  	-0.006608 
3747.689488  	-0.009956 
3749.618304  	-0.008011 
3751.547120  	-0.004324 
3753.475936  	-0.007402 
3755.404752  	-0.011923 
3757.333568  	-0.012429 
3759.262384  	-0.010909 
3761.191200  	-0.011887 
3763.120016  	-0.014649 
3765.048832  	-0.013485 
3766.977648  	-0.013054 
3768.906464  	-0.013297 
3770.835280  	-0.011960 
3772.764096  	-0.014261 
3774.692912  	-0.016079 
3776.621728  	-0.016353 
3778.550544  	-0.014456 
3780.479360  	-0.012711 
3782.408176  	-0.014708 
3784.336992  	-0.014237 
3786.265808  	-0.013833 
3788.194624  	-0.015365 
3790.123440  	-0.015927 
3792.052256  	-0.016301 
3793.981072  	-0.016832 
3795.909888  	-0.014391 
3797.838704  	-0.012434 
3799.767520  	-0.013658 
3801.696336  	-0.009101 
3803.625152  	-0.010954 
3805.553968  	-0.014470 
3807.482784  	-0.012074 
3809.411600  	-0.013859 
3811.340416  	-0.016217 
3813.269232  	-0.017160 
3815.198048  	-0.014657 
3817.126864  	-0.011092 
3819.055680  	-0.012829 
3820.984496  	-0.008917 
3822.913312  	-0.009283 
3824.842128  	-0.013582 
3826.770944  	-0.013481 
3828.699760  	-0.014552 
3830.628576  	-0.015406 
3832.557392  	-0.014245 
3834.486208  	-0.014100 
3836.415024  	-0.012753 
3838.343840  	-0.008953 
3840.272656  	-0.007435 
3842.201472  	-0.010201 
3844.130288  	-0.011518 
3846.059104  	-0.014076 
3847.987920  	-0.016033 
3849.916736  	-0.015716 
3851.845552  	-0.012982 
3853.774368  	-0.004350 
3855.703184  	-0.006609 
3857.632000  	-0.011148 
3859.560816  	-0.014565 
3861.489632  	-0.014196 
3863.418448  	-0.011462 
3865.347264  	-0.009646 
3867.276080  	-0.013031 
3869.204896  	-0.011204 
3871.133712  	-0.007834 
3873.062528  	-0.011112 
3874.991344  	-0.011575 
3876.920160  	-0.015405 
3878.848976  	-0.015724 
3880.777792  	-0.010863 
3882.706608  	-0.011503 
3884.635424  	-0.012497 
3886.564240  	-0.011259 
3888.493056  	-0.015208 
3890.421872  	-0.014700 
3892.350688  	-0.011464 
3894.279504  	-0.013495 
3896.208320  	-0.016024 
3898.137136  	-0.014696 
3900.065952  	-0.010921 
3901.994768  	-0.009351 
3903.923584  	-0.007966 
3905.852400  	-0.009624 
3907.781216  	-0.014308 
3909.710032  	-0.016763 
3911.638848  	-0.016988 
3913.567664  	-0.016857 
3915.496480  	-0.015235 
3917.425296  	-0.012457 
3919.354112  	-0.012897 
3921.282928  	-0.014189 
3923.211744  	-0.013968 
3925.140560  	-0.012519 
3927.069376  	-0.014714 
3928.998192  	-0.015106 
3930.927008  	-0.012971 
3932.855824  	-0.012057 
3934.784640  	-0.014406 
3936.713456  	-0.015984 
3938.642272  	-0.016132 
3940.571088  	-0.015886 
3942.499904  	-0.013380 
3944.428720  	-0.013535 
3946.357536  	-0.015017 
3948.286352  	-0.013369 
3950.215168  	-0.013490 
3952.143984  	-0.015372 
3954.072800  	-0.016410 
3956.001616  	-0.016198 
3957.930432  	-0.015809 
3959.859248  	-0.015612 
3961.788064  	-0.015071 
3963.716880  	-0.015555 
3965.645696  	-0.016713 
3967.574512  	-0.016817 
3969.503328  	-0.016473 
3971.432144  	-0.016224 
3973.360960  	-0.015886 
3975.289776  	-0.015249 
3977.218592  	-0.015632 
3979.147408  	-0.016452 
3981.076224  	-0.016520 
3983.005040  	-0.016575 
3984.933856  	-0.016826 
3986.862672  	-0.016739 
3988.791488  	-0.016509 
3990.720304  	-0.015944 
3992.649120  	-0.016168 
3994.577936  	-0.016288 
3996.506752  	-0.016572 
3998.435568  	-0.016954 
4000.364384  	-0.016974 