##TITLE=No Description
##DATA TYPE=INFRARED SPECTRUM
##XUNITS=1/CM
##YUNITS=Abs
399.264912  	0.615960 
401.193728  	0.625107 
403.122544  	0.627726 
405.051360  	0.609096 
406.980176  	0.610490 
408.908992  	0.616345 
410.837808  	0.611254 
412.766624  	0.602590 
414.695440  	0.599839 
416.624256  	0.602844 
418.553072  	0.597713 
420.481888  	0.594308 
422.410704  	0.607733 
424.339520  	0.605440 
426.268336  	0.601974 
428.197152  	0.592744 
430.125968  	0.589979 
432.054784  	0.580475 
433.983600  	0.584106 
435.912416  	0.585713 
437.841232  	0.577759 
439.770048  	0.576570 
441.698864  	0.581993 
443.627680  	0.579209 
445.556496  	0.579227 
447.485312  	0.575790 
449.414128  	0.576334 
451.342944  	0.575832 
453.271760  	0.573944 
455.200576  	0.572073 
457.129392  	0.580625 
459.058208  	0.578380 
460.987024  	0.573097 
462.915840  	0.568811 
464.844656  	0.576167 
466.773472  	0.577229 
468.702288  	0.574073 
470.631104  	0.575350 
472.559920  	0.580794 
474.488736  	0.574418 
476.417552  	0.572584 
478.346368  	0.568848 
480.275184  	0.571584 
482.204000  	0.572860 
484.132816  	0.574965 
486.061632  	0.572473 
487.990448  	0.570082 
489.919264  	0.566352 
491.848080  	0.567871 
493.776896  	0.569008 
495.705712  	0.568665 
497.634528  	0.564778 
499.563344  	0.563166 
501.492160  	0.561485 
503.420976  	0.562029 
505.349792  	0.558497 
507.278608  	0.560715 
509.207424  	0.565137 
511.136240  	0.569080 
513.065056  	0.567530 
514.993872  	0.571580 
516.922688  	0.575953 
518.851504  	0.577952 
520.780320  	0.576193 
522.709136  	0.576716 
524.637952  	0.575720 
526.566768  	0.574776 
528.495584  	0.570424 
530.424400  	0.565591 
532.353216  	0.558672 
534.282032  	0.552153 
536.210848  	0.545659 
538.139664  	0.540047 
540.068480  	0.532799 
541.997296  	0.527955 
543.926112  	0.522417 
545.854928  	0.521440 
547.783744  	0.519556 
549.712560  	0.516193 
551.641376  	0.510300 
553.570192  	0.507891 
555.499008  	0.504558 
557.427824  	0.501836 
559.356640  	0.498289 
561.285456  	0.495100 
563.214272  	0.491059 
565.143088  	0.487874 
567.071904  	0.482985 
569.000720  	0.478365 
570.929536  	0.474249 
572.858352  	0.471222 
574.787168  	0.468638 
576.715984  	0.466435 
578.644800  	0.461832 
580.573616  	0.456944 
582.502432  	0.449804 
584.431248  	0.444687 
586.360064  	0.439418 
588.288880  	0.436674 
590.217696  	0.435031 
592.146512  	0.434059 
594.075328  	0.431776 
596.004144  	0.430026 
597.932960  	0.428311 
599.861776  	0.426813 
601.790592  	0.425168 
603.719408  	0.424871 
605.648224  	0.424298 
607.577040  	0.422670 
609.505856  	0.420991 
611.434672  	0.420454 
613.363488  	0.418618 
615.292304  	0.417262 
617.221120  	0.415276 
619.149936  	0.414468 
621.078752  	0.413866 
623.007568  	0.413348 
624.936384  	0.411686 
626.865200  	0.410276 
628.794016  	0.409731 
630.722832  	0.410135 
632.651648  	0.411165 
634.580464  	0.412937 
636.509280  	0.413899 
638.438096  	0.413938 
640.366912  	0.412844 
642.295728  	0.410893 
644.224544  	0.407859 
646.153360  	0.403870 
648.082176  	0.398795 
650.010992  	0.394732 
651.939808  	0.391300 
653.868624  	0.386906 
655.797440  	0.382465 
657.726256  	0.378669 
659.655072  	0.374093 
661.583888  	0.369159 
663.512704  	0.364296 
665.441520  	0.359700 
667.370336  	0.354439 
669.299152  	0.346686 
671.227968  	0.341695 
673.156784  	0.336965 
675.085600  	0.333280 
677.014416  	0.330738 
678.943232  	0.328328 
680.872048  	0.326335 
682.800864  	0.324900 
684.729680  	0.323561 
686.658496  	0.322340 
688.587312  	0.321257 
690.516128  	0.320309 
692.444944  	0.320184 
694.373760  	0.319396 
696.302576  	0.318160 
698.231392  	0.315929 
700.160208  	0.312845 
702.089024  	0.310044 
704.017840  	0.307444 
705.946656  	0.304339 
707.875472  	0.301692 
709.804288  	0.299638 
711.733104  	0.297842 
713.661920  	0.296227 
715.590736  	0.294761 
717.519552  	0.294171 
719.448368  	0.295700 
721.377184  	0.297255 
723.306000  	0.297929 
725.234816  	0.298146 
727.163632  	0.297347 
729.092448  	0.294043 
731.021264  	0.288907 
732.950080  	0.283937 
734.878896  	0.279283 
736.807712  	0.275557 
738.736528  	0.272947 
740.665344  	0.270789 
742.594160  	0.269108 
744.522976  	0.267496 
746.451792  	0.265882 
748.380608  	0.264279 
750.309424  	0.262735 
752.238240  	0.261619 
754.167056  	0.261440 
756.095872  	0.260736 
758.024688  	0.259326 
759.953504  	0.259350 
761.882320  	0.261698 
763.811136  	0.262883 
765.739952  	0.260058 
767.668768  	0.255384 
769.597584  	0.251655 
771.526400  	0.250896 
773.455216  	0.254125 
775.384032  	0.260717 
777.312848  	0.268617 
779.241664  	0.273529 
781.170480  	0.271107 
783.099296  	0.263485 
785.028112  	0.254984 
786.956928  	0.247802 
788.885744  	0.242120 
790.814560  	0.237885 
792.743376  	0.235928 
794.672192  	0.235091 
796.601008  	0.232971 
798.529824  	0.228500 
800.458640  	0.223258 
802.387456  	0.218950 
804.316272  	0.217042 
806.245088  	0.216340 
808.173904  	0.215609 
810.102720  	0.215310 
812.031536  	0.215348 
813.960352  	0.215798 
815.889168  	0.216909 
817.817984  	0.218596 
819.746800  	0.220541 
821.675616  	0.222749 
823.604432  	0.224819 
825.533248  	0.226669 
827.462064  	0.228012 
829.390880  	0.228538 
831.319696  	0.228704 
833.248512  	0.227560 
835.177328  	0.225199 
837.106144  	0.221498 
839.034960  	0.216982 
840.963776  	0.211654 
842.892592  	0.205616 
844.821408  	0.199610 
846.750224  	0.194539 
848.679040  	0.190563 
850.607856  	0.187385 
852.536672  	0.185326 
854.465488  	0.184293 
856.394304  	0.183582 
858.323120  	0.182023 
860.251936  	0.180168 
862.180752  	0.178429 
864.109568  	0.176037 
866.038384  	0.173234 
867.967200  	0.170670 
869.896016  	0.168454 
871.824832  	0.167578 
873.753648  	0.168140 
875.682464  	0.169478 
877.611280  	0.172004 
879.540096  	0.175930 
881.468912  	0.180278 
883.397728  	0.184669 
885.326544  	0.188392 
887.255360  	0.191150 
889.184176  	0.192440 
891.112992  	0.192156 
893.041808  	0.190280 
894.970624  	0.186773 
896.899440  	0.181469 
898.828256  	0.174585 
900.757072  	0.167172 
902.685888  	0.160809 
904.614704  	0.157024 
906.543520  	0.156550 
908.472336  	0.158935 
910.401152  	0.162832 
912.329968  	0.166911 
914.258784  	0.171029 
916.187600  	0.174956 
918.116416  	0.178334 
920.045232  	0.181035 
921.974048  	0.183482 
923.902864  	0.185841 
925.831680  	0.188106 
927.760496  	0.190755 
929.689312  	0.193682 
931.618128  	0.196812 
933.546944  	0.199001 
935.475760  	0.199958 
937.404576  	0.199774 
939.333392  	0.198843 
941.262208  	0.197951 
943.191024  	0.198754 
945.119840  	0.202893 
947.048656  	0.211128 
948.977472  	0.223952 
950.906288  	0.240834 
952.835104  	0.261834 
954.763920  	0.286204 
956.692736  	0.311046 
958.621552  	0.333675 
960.550368  	0.350698 
962.479184  	0.360152 
964.408000  	0.360666 
966.336816  	0.353126 
968.265632  	0.337602 
970.194448  	0.316974 
972.123264  	0.293282 
974.052080  	0.268689 
975.980896  	0.244788 
977.909712  	0.222920 
979.838528  	0.203825 
981.767344  	0.187885 
983.696160  	0.176148 
985.624976  	0.168798 
987.553792  	0.166153 
989.482608  	0.168248 
991.411424  	0.174715 
993.340240  	0.184573 
995.269056  	0.196138 
997.197872  	0.208479 
999.126688  	0.221030 
1001.055504  	0.233873 
1002.984320  	0.246476 
1004.913136  	0.259074 
1006.841952  	0.271528 
1008.770768  	0.283305 
1010.699584  	0.293118 
1012.628400  	0.300356 
1014.557216  	0.305395 
1016.486032  	0.308396 
1018.414848  	0.309300 
1020.343664  	0.309430 
1022.272480  	0.309426 
1024.201296  	0.309554 
1026.130112  	0.309715 
1028.058928  	0.311520 
1029.987744  	0.315462 
1031.916560  	0.321771 
1033.845376  	0.329796 
1035.774192  	0.340235 
1037.703008  	0.353884 
1039.631824  	0.372845 
1041.560640  	0.397372 
1043.489456  	0.427151 
1045.418272  	0.457691 
1047.347088  	0.482928 
1049.275904  	0.496210 
1051.204720  	0.497700 
1053.133536  	0.489511 
1055.062352  	0.477399 
1056.991168  	0.465252 
1058.919984  	0.456659 
1060.848800  	0.450560 
1062.777616  	0.446740 
1064.706432  	0.442307 
1066.635248  	0.436781 
1068.564064  	0.428074 
1070.492880  	0.417626 
1072.421696  	0.408149 
1074.350512  	0.403632 
1076.279328  	0.404817 
1078.208144  	0.411615 
1080.136960  	0.418972 
1082.065776  	0.421851 
1083.994592  	0.416255 
1085.923408  	0.403181 
1087.852224  	0.383942 
1089.781040  	0.362890 
1091.709856  	0.340774 
1093.638672  	0.318018 
1095.567488  	0.294937 
1097.496304  	0.273122 
1099.425120  	0.252634 
1101.353936  	0.233772 
1103.282752  	0.216910 
1105.211568  	0.201688 
1107.140384  	0.187875 
1109.069200  	0.175637 
1110.998016  	0.165081 
1112.926832  	0.155669 
1114.855648  	0.146818 
1116.784464  	0.137849 
1118.713280  	0.129106 
1120.642096  	0.120882 
1122.570912  	0.113212 
1124.499728  	0.106167 
1126.428544  	0.100174 
1128.357360  	0.095008 
1130.286176  	0.090673 
1132.214992  	0.087269 
1134.143808  	0.085205 
1136.072624  	0.083471 
1138.001440  	0.081953 
1139.930256  	0.080503 
1141.859072  	0.079064 
1143.787888  	0.077214 
1145.716704  	0.075795 
1147.645520  	0.074788 
1149.574336  	0.074540 
1151.503152  	0.074172 
1153.431968  	0.074388 
1155.360784  	0.075108 
1157.289600  	0.076724 
1159.218416  	0.078647 
1161.147232  	0.080962 
1163.076048  	0.083593 
1165.004864  	0.086447 
1166.933680  	0.089071 
1168.862496  	0.091806 
1170.791312  	0.094992 
1172.720128  	0.099005 
1174.648944  	0.103398 
1176.577760  	0.107974 
1178.506576  	0.112816 
1180.435392  	0.117989 
1182.364208  	0.123245 
1184.293024  	0.129112 
1186.221840  	0.135914 
1188.150656  	0.143551 
1190.079472  	0.152360 
1192.008288  	0.162610 
1193.937104  	0.174134 
1195.865920  	0.187100 
1197.794736  	0.200893 
1199.723552  	0.215405 
1201.652368  	0.229975 
1203.581184  	0.243341 
1205.510000  	0.255600 
1207.438816  	0.265951 
1209.367632  	0.274580 
1211.296448  	0.281141 
1213.225264  	0.285311 
1215.154080  	0.286849 
1217.082896  	0.286462 
1219.011712  	0.284119 
1220.940528  	0.280670 
1222.869344  	0.276211 
1224.798160  	0.270964 
1226.726976  	0.264187 
1228.655792  	0.256552 
1230.584608  	0.248486 
1232.513424  	0.239860 
1234.442240  	0.230503 
1236.371056  	0.220922 
1238.299872  	0.210970 
1240.228688  	0.200679 
1242.157504  	0.190621 
1244.086320  	0.181052 
1246.015136  	0.171404 
1247.943952  	0.162433 
1249.872768  	0.153943 
1251.801584  	0.145941 
1253.730400  	0.138429 
1255.659216  	0.131111 
1257.588032  	0.124115 
1259.516848  	0.117772 
1261.445664  	0.111689 
1263.374480  	0.105958 
1265.303296  	0.101495 
1267.232112  	0.098110 
1269.160928  	0.095958 
1271.089744  	0.094648 
1273.018560  	0.094066 
1274.947376  	0.094663 
1276.876192  	0.096258 
1278.805008  	0.097635 
1280.733824  	0.097882 
1282.662640  	0.096298 
1284.591456  	0.094148 
1286.520272  	0.092512 
1288.449088  	0.091816 
1290.377904  	0.092240 
1292.306720  	0.094301 
1294.235536  	0.096320 
1296.164352  	0.096864 
1298.093168  	0.094630 
1300.021984  	0.091218 
1301.950800  	0.087319 
1303.879616  	0.083234 
1305.808432  	0.078467 
1307.737248  	0.073300 
1309.666064  	0.068301 
1311.594880  	0.065382 
1313.523696  	0.063259 
1315.452512  	0.061497 
1317.381328  	0.061284 
1319.310144  	0.061554 
1321.238960  	0.061298 
1323.167776  	0.061996 
1325.096592  	0.063106 
1327.025408  	0.063751 
1328.954224  	0.063457 
1330.883040  	0.062316 
1332.811856  	0.060394 
1334.740672  	0.059336 
1336.669488  	0.060344 
1338.598304  	0.062944 
1340.527120  	0.061634 
1342.455936  	0.057657 
1344.384752  	0.056774 
1346.313568  	0.057400 
1348.242384  	0.058513 
1350.171200  	0.060048 
1352.100016  	0.062004 
1354.028832  	0.065043 
1355.957648  	0.067858 
1357.886464  	0.070527 
1359.815280  	0.074521 
1361.744096  	0.080442 
1363.672912  	0.083145 
1365.601728  	0.083315 
1367.530544  	0.086509 
1369.459360  	0.089794 
1371.388176  	0.091780 
1373.316992  	0.094248 
1375.245808  	0.092282 
1377.174624  	0.087652 
1379.103440  	0.083731 
1381.032256  	0.079419 
1382.961072  	0.075888 
1384.889888  	0.074818 
1386.818704  	0.075159 
1388.747520  	0.070999 
1390.676336  	0.066777 
1392.605152  	0.065586 
1394.533968  	0.066697 
1396.462784  	0.066850 
1398.391600  	0.066217 
1400.320416  	0.063750 
1402.249232  	0.062744 
1404.178048  	0.064921 
1406.106864  	0.065330 
1408.035680  	0.065639 
1409.964496  	0.068137 
1411.893312  	0.070984 
1413.822128  	0.073704 
1415.750944  	0.079064 
1417.679760  	0.085208 
1419.608576  	0.085539 
1421.537392  	0.082524 
1423.466208  	0.082599 
1425.395024  	0.079254 
1427.323840  	0.075807 
1429.252656  	0.073684 
1431.181472  	0.070640 
1433.110288  	0.069207 
1435.039104  	0.071413 
1436.967920  	0.073859 
1438.896736  	0.072999 
1440.825552  	0.073560 
1442.754368  	0.074783 
1444.683184  	0.075743 
1446.612000  	0.077808 
1448.540816  	0.078435 
1450.469632  	0.078156 
1452.398448  	0.079496 
1454.327264  	0.082450 
1456.256080  	0.088048 
1458.184896  	0.086344 
1460.113712  	0.079367 
1462.042528  	0.076753 
1463.971344  	0.077552 
1465.900160  	0.076823 
1467.828976  	0.075651 
1469.757792  	0.078099 
1471.686608  	0.086037 
1473.615424  	0.095000 
1475.544240  	0.098651 
1477.473056  	0.103005 
1479.401872  	0.107176 
1481.330688  	0.113008 
1483.259504  	0.116587 
1485.188320  	0.120894 
1487.117136  	0.126471 
1489.045952  	0.131576 
1490.974768  	0.126373 
1492.903584  	0.119087 
1494.832400  	0.115346 
1496.761216  	0.109726 
1498.690032  	0.099692 
1500.618848  	0.090776 
1502.547664  	0.084175 
1504.476480  	0.082298 
1506.405296  	0.087900 
1508.334112  	0.084461 
1510.262928  	0.076265 
1512.191744  	0.071262 
1514.120560  	0.070930 
1516.049376  	0.075692 
1517.978192  	0.077513 
1519.907008  	0.080562 
1521.835824  	0.088242 
1523.764640  	0.090345 
1525.693456  	0.094562 
1527.622272  	0.095795 
1529.551088  	0.093438 
1531.479904  	0.092575 
1533.408720  	0.090733 
1535.337536  	0.083494 
1537.266352  	0.081545 
1539.195168  	0.083602 
1541.123984  	0.081270 
1543.052800  	0.077671 
1544.981616  	0.073115 
1546.910432  	0.067011 
1548.839248  	0.067376 
1550.768064  	0.068464 
1552.696880  	0.067766 
1554.625696  	0.070796 
1556.554512  	0.073549 
1558.483328  	0.081596 
1560.412144  	0.079174 
1562.340960  	0.077804 
1564.269776  	0.080659 
1566.198592  	0.085819 
1568.127408  	0.091240 
1570.056224  	0.099534 
1571.985040  	0.103537 
1573.913856  	0.108670 
1575.842672  	0.114723 
1577.771488  	0.116870 
1579.700304  	0.114648 
1581.629120  	0.113441 
1583.557936  	0.112687 
1585.486752  	0.113971 
1587.415568  	0.117206 
1589.344384  	0.123644 
1591.273200  	0.131638 
1593.202016  	0.141627 
1595.130832  	0.152224 
1597.059648  	0.162665 
1598.988464  	0.171758 
1600.917280  	0.181317 
1602.846096  	0.188335 
1604.774912  	0.192904 
1606.703728  	0.194912 
1608.632544  	0.195353 
1610.561360  	0.192324 
1612.490176  	0.190016 
1614.418992  	0.189347 
1616.347808  	0.191064 
1618.276624  	0.191201 
1620.205440  	0.194430 
1622.134256  	0.200188 
1624.063072  	0.208765 
1625.991888  	0.215313 
1627.920704  	0.225205 
1629.849520  	0.234757 
1631.778336  	0.244853 
1633.707152  	0.254733 
1635.635968  	0.268669 
1637.564784  	0.276239 
1639.493600  	0.279502 
1641.422416  	0.282483 
1643.351232  	0.286358 
1645.280048  	0.289938 
1647.208864  	0.292967 
1649.137680  	0.288744 
1651.066496  	0.288463 
1652.995312  	0.287248 
1654.924128  	0.280440 
1656.852944  	0.274534 
1658.781760  	0.270178 
1660.710576  	0.266612 
1662.639392  	0.261100 
1664.568208  	0.251614 
1666.497024  	0.246695 
1668.425840  	0.242149 
1670.354656  	0.232460 
1672.283472  	0.223441 
1674.212288  	0.217721 
1676.141104  	0.209028 
1678.069920  	0.204681 
1679.998736  	0.203792 
1681.927552  	0.203254 
1683.856368  	0.202492 
1685.785184  	0.196560 
1687.714000  	0.194914 
1689.642816  	0.193452 
1691.571632  	0.190105 
1693.500448  	0.190113 
1695.429264  	0.192124 
1697.358080  	0.193429 
1699.286896  	0.192353 
1701.215712  	0.188499 
1703.144528  	0.186257 
1705.073344  	0.184335 
1707.002160  	0.178023 
1708.930976  	0.171809 
1710.859792  	0.165021 
1712.788608  	0.158806 
1714.717424  	0.152231 
1716.646240  	0.141614 
1718.575056  	0.119429 
1720.503872  	0.102318 
1722.432688  	0.090741 
1724.361504  	0.076766 
1726.290320  	0.064838 
1728.219136  	0.057157 
1730.147952  	0.052101 
1732.076768  	0.047718 
1734.005584  	0.042688 
1735.934400  	0.032642 
1737.863216  	0.030115 
1739.792032  	0.027009 
1741.720848  	0.024667 
1743.649664  	0.024138 
1745.578480  	0.022756 
1747.507296  	0.022629 
1749.436112  	0.022765 
1751.364928  	0.019034 
1753.293744  	0.014423 
1755.222560  	0.013188 
1757.151376  	0.013870 
1759.080192  	0.012355 
1761.009008  	0.012506 
1762.937824  	0.010691 
1764.866640  	0.009025 
1766.795456  	0.009865 
1768.724272  	0.011058 
1770.653088  	0.011245 
1772.581904  	0.011543 
1774.510720  	0.009040 
1776.439536  	0.007592 
1778.368352  	0.006697 
1780.297168  	0.007540 
1782.225984  	0.006088 
1784.154800  	0.005786 
1786.083616  	0.004752 
1788.012432  	0.004517 
1789.941248  	0.006824 
1791.870064  	0.009078 
1793.798880  	0.006491 
1795.727696  	0.005716 
1797.656512  	0.004576 
1799.585328  	0.004891 
1801.514144  	0.005369 
1803.442960  	0.003737 
1805.371776  	0.002352 
1807.300592  	0.002878 
1809.229408  	0.003227 
1811.158224  	0.003363 
1813.087040  	0.001657 
1815.015856  	0.000688 
1816.944672  	0.001096 
1818.873488  	0.001205 
1820.802304  	0.001135 
1822.731120  	0.002444 
1824.659936  	0.003325 
1826.588752  	0.002860 
1828.517568  	0.003077 
1830.446384  	0.003271 
1832.375200  	0.001032 
1834.304016  	0.000842 
1836.232832  	0.001106 
1838.161648  	0.001431 
1840.090464  	0.000863 
1842.019280  	0.002441 
1843.948096  	0.004034 
1845.876912  	0.003358 
1847.805728  	0.001907 
1849.734544  	0.000549 
1851.663360  	-0.000282 
1853.592176  	0.000077 
1855.520992  	-0.000198 
1857.449808  	0.000240 
1859.378624  	-0.000048 
1861.307440  	0.000177 
1863.236256  	-0.000072 
1865.165072  	0.000839 
1867.093888  	0.002920 
1869.022704  	0.004289 
1870.951520  	0.001491 
1872.880336  	-0.000076 
1874.809152  	-0.000844 
1876.737968  	-0.000763 
1878.666784  	-0.000782 
1880.595600  	-0.000998 
1882.524416  	-0.001236 
1884.453232  	-0.000347 
1886.382048  	-0.000692 
1888.310864  	0.000453 
1890.239680  	0.000597 
1892.168496  	0.000036 
1894.097312  	0.000152 
1896.026128  	0.000048 
1897.954944  	-0.000994 
1899.883760  	-0.001016 
1901.812576  	-0.001277 
1903.741392  	-0.001068 
1905.670208  	-0.001294 
1907.599024  	-0.000502 
1909.527840  	0.000156 
1911.456656  	0.000063 
1913.385472  	-0.000603 
1915.314288  	0.000043 
1917.243104  	0.000839 
1919.171920  	0.001136 
1921.100736  	0.000801 
1923.029552  	0.001281 
1924.958368  	-0.001162 
1926.887184  	-0.001577 
1928.816000  	-0.001929 
1930.744816  	-0.001388 
1932.673632  	-0.001437 
1934.602448  	-0.000912 
1936.531264  	-0.001348 
1938.460080  	-0.000982 
1940.388896  	-0.000383 
1942.317712  	0.001280 
1944.246528  	-0.000462 
1946.175344  	-0.000814 
1948.104160  	-0.001021 
1950.032976  	-0.000586 
1951.961792  	-0.001584 
1953.890608  	-0.001275 
1955.819424  	-0.002252 
1957.748240  	-0.002382 
1959.677056  	-0.002902 
1961.605872  	-0.001680 
1963.534688  	-0.001072 
1965.463504  	0.001126 
1967.392320  	0.000623 
1969.321136  	-0.000515 
1971.249952  	-0.002236 
1973.178768  	-0.002447 
1975.107584  	-0.002476 
1977.036400  	-0.000301 
1978.965216  	-0.000583 
1980.894032  	-0.000683 
1982.822848  	-0.001644 
1984.751664  	-0.000905 
1986.680480  	0.000157 
1988.609296  	0.001643 
1990.538112  	0.000818 
1992.466928  	0.001590 
1994.395744  	-0.000318 
1996.324560  	-0.000780 
1998.253376  	-0.000718 
2000.182192  	-0.000192 
2002.111008  	-0.001072 
2004.039824  	-0.000816 
2005.968640  	-0.001273 
2007.897456  	-0.000486 
2009.826272  	-0.000348 
2011.755088  	0.000087 
2013.683904  	-0.000982 
2015.612720  	0.000050 
2017.541536  	0.000192 
2019.470352  	0.000546 
2021.399168  	-0.000740 
2023.327984  	0.000001 
2025.256800  	-0.000351 
2027.185616  	0.001205 
2029.114432  	0.001367 
2031.043248  	0.001835 
2032.972064  	0.000459 
2034.900880  	0.001440 
2036.829696  	0.001707 
2038.758512  	0.002369 
2040.687328  	0.001589 
2042.616144  	0.002691 
2044.544960  	0.002325 
2046.473776  	0.002116 
2048.402592  	0.002411 
2050.331408  	0.002794 
2052.260224  	0.002057 
2054.189040  	0.002260 
2056.117856  	0.001367 
2058.046672  	0.001645 
2059.975488  	0.001684 
2061.904304  	0.002368 
2063.833120  	0.002465 
2065.761936  	0.003272 
2067.690752  	0.002455 
2069.619568  	0.002229 
2071.548384  	0.001699 
2073.477200  	0.002221 
2075.406016  	0.002567 
2077.334832  	0.002857 
2079.263648  	0.002975 
2081.192464  	0.003540 
2083.121280  	0.003229 
2085.050096  	0.002943 
2086.978912  	0.002574 
2088.907728  	0.003315 
2090.836544  	0.003694 
2092.765360  	0.003346 
2094.694176  	0.003234 
2096.622992  	0.003970 
2098.551808  	0.003667 
2100.480624  	0.003959 
2102.409440  	0.003874 
2104.338256  	0.004049 
2106.267072  	0.003725 
2108.195888  	0.003648 
2110.124704  	0.003785 
2112.053520  	0.003932 
2113.982336  	0.003725 
2115.911152  	0.003760 
2117.839968  	0.003137 
2119.768784  	0.002907 
2121.697600  	0.002909 
2123.626416  	0.003108 
2125.555232  	0.002694 
2127.484048  	0.002725 
2129.412864  	0.002899 
2131.341680  	0.003627 
2133.270496  	0.003708 
2135.199312  	0.003689 
2137.128128  	0.003381 
2139.056944  	0.004009 
2140.985760  	0.003564 
2142.914576  	0.004166 
2144.843392  	0.003687 
2146.772208  	0.003413 
2148.701024  	0.003541 
2150.629840  	0.004238 
2152.558656  	0.004345 
2154.487472  	0.005146 
2156.416288  	0.004067 
2158.345104  	0.006624 
2160.273920  	0.009424 
2162.202736  	0.009002 
2164.131552  	0.006838 
2166.060368  	0.007391 
2167.989184  	0.006575 
2169.918000  	0.005295 
2171.846816  	0.004653 
2173.775632  	0.005933 
2175.704448  	0.006228 
2177.633264  	0.006414 
2179.562080  	0.004943 
2181.490896  	0.005582 
2183.419712  	0.006149 
2185.348528  	0.006067 
2187.277344  	0.005033 
2189.206160  	0.005101 
2191.134976  	0.004377 
2193.063792  	0.003891 
2194.992608  	0.003566 
2196.921424  	0.003895 
2198.850240  	0.003067 
2200.779056  	0.002699 
2202.707872  	0.002648 
2204.636688  	0.003730 
2206.565504  	0.002957 
2208.494320  	0.002022 
2210.423136  	0.001841 
2212.351952  	0.003163 
2214.280768  	0.002844 
2216.209584  	0.002460 
2218.138400  	0.001914 
2220.067216  	0.001588 
2221.996032  	0.001076 
2223.924848  	0.001984 
2225.853664  	0.002515 
2227.782480  	0.002707 
2229.711296  	0.001991 
2231.640112  	0.002065 
2233.568928  	0.001536 
2235.497744  	0.001526 
2237.426560  	0.001583 
2239.355376  	0.001784 
2241.284192  	0.001314 
2243.213008  	0.001372 
2245.141824  	0.001416 
2247.070640  	0.001897 
2248.999456  	0.001739 
2250.928272  	0.001821 
2252.857088  	0.001731 
2254.785904  	0.001907 
2256.714720  	0.001814 
2258.643536  	0.001826 
2260.572352  	0.001737 
2262.501168  	0.001947 
2264.429984  	0.002161 
2266.358800  	0.002180 
2268.287616  	0.001636 
2270.216432  	0.001838 
2272.145248  	0.001994 
2274.074064  	0.002466 
2276.002880  	0.002384 
2277.931696  	0.002415 
2279.860512  	0.002237 
2281.789328  	0.002312 
2283.718144  	0.002528 
2285.646960  	0.002988 
2287.575776  	0.002856 
2289.504592  	0.002893 
2291.433408  	0.002977 
2293.362224  	0.003273 
2295.291040  	0.003488 
2297.219856  	0.004007 
2299.148672  	0.004280 
2301.077488  	0.004670 
2303.006304  	0.005057 
2304.935120  	0.005642 
2306.863936  	0.005959 
2308.792752  	0.006173 
2310.721568  	0.006215 
2312.650384  	0.005808 
2314.579200  	0.004962 
2316.508016  	0.004922 
2318.436832  	0.005082 
2320.365648  	0.005223 
2322.294464  	0.004858 
2324.223280  	0.003590 
2326.152096  	0.001513 
2328.080912  	0.000383 
2330.009728  	-0.000128 
2331.938544  	-0.001151 
2333.867360  	-0.002453 
2335.796176  	-0.003005 
2337.724992  	-0.003764 
2339.653808  	-0.004174 
2341.582624  	-0.003984 
2343.511440  	-0.002643 
2345.440256  	-0.000857 
2347.369072  	0.001249 
2349.297888  	0.002269 
2351.226704  	0.000882 
2353.155520  	-0.002043 
2355.084336  	-0.003695 
2357.013152  	-0.004589 
2358.941968  	-0.004948 
2360.870784  	-0.006073 
2362.799600  	-0.005851 
2364.728416  	-0.004386 
2366.657232  	-0.003235 
2368.586048  	-0.002036 
2370.514864  	-0.000161 
2372.443680  	0.001016 
2374.372496  	0.002629 
2376.301312  	0.003767 
2378.230128  	0.004233 
2380.158944  	0.004246 
2382.087760  	0.003968 
2384.016576  	0.003190 
2385.945392  	0.002467 
2387.874208  	0.002029 
2389.803024  	0.001780 
2391.731840  	0.001367 
2393.660656  	0.001298 
2395.589472  	0.001392 
2397.518288  	0.001557 
2399.447104  	0.001437 
2401.375920  	0.001380 
2403.304736  	0.001259 
2405.233552  	0.001293 
2407.162368  	0.001313 
2409.091184  	0.001348 
2411.020000  	0.001280 
2412.948816  	0.001280 
2414.877632  	0.001548 
2416.806448  	0.001881 
2418.735264  	0.001859 
2420.664080  	0.001841 
2422.592896  	0.001833 
2424.521712  	0.002016 
2426.450528  	0.002115 
2428.379344  	0.002155 
2430.308160  	0.002075 
2432.236976  	0.002114 
2434.165792  	0.002411 
2436.094608  	0.002714 
2438.023424  	0.002632 
2439.952240  	0.002657 
2441.881056  	0.002781 
2443.809872  	0.002900 
2445.738688  	0.002955 
2447.667504  	0.003206 
2449.596320  	0.003765 
2451.525136  	0.003959 
2453.453952  	0.003810 
2455.382768  	0.003877 
2457.311584  	0.003776 
2459.240400  	0.003634 
2461.169216  	0.003723 
2463.098032  	0.004004 
2465.026848  	0.003967 
2466.955664  	0.003893 
2468.884480  	0.003799 
2470.813296  	0.003898 
2472.742112  	0.004183 
2474.670928  	0.004534 
2476.599744  	0.004768 
2478.528560  	0.005171 
2480.457376  	0.005320 
2482.386192  	0.005376 
2484.315008  	0.005413 
2486.243824  	0.005575 
2488.172640  	0.005920 
2490.101456  	0.006174 
2492.030272  	0.006197 
2493.959088  	0.006318 
2495.887904  	0.006377 
2497.816720  	0.006637 
2499.745536  	0.006801 
2501.674352  	0.006911 
2503.603168  	0.007073 
2505.531984  	0.007113 
2507.460800  	0.007109 
2509.389616  	0.007215 
2511.318432  	0.007342 
2513.247248  	0.007519 
2515.176064  	0.007559 
2517.104880  	0.007538 
2519.033696  	0.007383 
2520.962512  	0.007627 
2522.891328  	0.007880 
2524.820144  	0.008206 
2526.748960  	0.008378 
2528.677776  	0.008493 
2530.606592  	0.008525 
2532.535408  	0.008770 
2534.464224  	0.008711 
2536.393040  	0.008716 
2538.321856  	0.008939 
2540.250672  	0.009156 
2542.179488  	0.009257 
2544.108304  	0.009407 
2546.037120  	0.009648 
2547.965936  	0.010016 
2549.894752  	0.010193 
2551.823568  	0.010360 
2553.752384  	0.010388 
2555.681200  	0.010377 
2557.610016  	0.010289 
2559.538832  	0.010596 
2561.467648  	0.011003 
2563.396464  	0.011408 
2565.325280  	0.011448 
2567.254096  	0.011417 
2569.182912  	0.011433 
2571.111728  	0.011545 
2573.040544  	0.011899 
2574.969360  	0.012202 
2576.898176  	0.012288 
2578.826992  	0.012393 
2580.755808  	0.012541 
2582.684624  	0.012796 
2584.613440  	0.013003 
2586.542256  	0.013329 
2588.471072  	0.013309 
2590.399888  	0.013358 
2592.328704  	0.013601 
2594.257520  	0.013883 
2596.186336  	0.013952 
2598.115152  	0.014067 
2600.043968  	0.014291 
2601.972784  	0.014557 
2603.901600  	0.014694 
2605.830416  	0.014732 
2607.759232  	0.014802 
2609.688048  	0.015056 
2611.616864  	0.015416 
2613.545680  	0.015624 
2615.474496  	0.015786 
2617.403312  	0.016093 
2619.332128  	0.016259 
2621.260944  	0.016363 
2623.189760  	0.016458 
2625.118576  	0.016684 
2627.047392  	0.017001 
2628.976208  	0.017334 
2630.905024  	0.017567 
2632.833840  	0.017826 
2634.762656  	0.017918 
2636.691472  	0.018179 
2638.620288  	0.018452 
2640.549104  	0.018839 
2642.477920  	0.019215 
2644.406736  	0.019267 
2646.335552  	0.019435 
2648.264368  	0.019825 
2650.193184  	0.020184 
2652.122000  	0.020458 
2654.050816  	0.020752 
2655.979632  	0.021148 
2657.908448  	0.021452 
2659.837264  	0.021679 
2661.766080  	0.021882 
2663.694896  	0.022054 
2665.623712  	0.022300 
2667.552528  	0.022640 
2669.481344  	0.022830 
2671.410160  	0.023044 
2673.338976  	0.023408 
2675.267792  	0.023709 
2677.196608  	0.024051 
2679.125424  	0.024378 
2681.054240  	0.024605 
2682.983056  	0.024813 
2684.911872  	0.024976 
2686.840688  	0.025125 
2688.769504  	0.025351 
2690.698320  	0.025688 
2692.627136  	0.025930 
2694.555952  	0.026124 
2696.484768  	0.026393 
2698.413584  	0.026593 
2700.342400  	0.026655 
2702.271216  	0.026974 
2704.200032  	0.027349 
2706.128848  	0.027697 
2708.057664  	0.027978 
2709.986480  	0.028132 
2711.915296  	0.028309 
2713.844112  	0.028623 
2715.772928  	0.028962 
2717.701744  	0.029112 
2719.630560  	0.029367 
2721.559376  	0.029734 
2723.488192  	0.029929 
2725.417008  	0.030233 
2727.345824  	0.030616 
2729.274640  	0.030979 
2731.203456  	0.031171 
2733.132272  	0.031307 
2735.061088  	0.031572 
2736.989904  	0.031901 
2738.918720  	0.032239 
2740.847536  	0.032491 
2742.776352  	0.032736 
2744.705168  	0.032997 
2746.633984  	0.033167 
2748.562800  	0.033326 
2750.491616  	0.033513 
2752.420432  	0.033681 
2754.349248  	0.033749 
2756.278064  	0.033762 
2758.206880  	0.033740 
2760.135696  	0.033810 
2762.064512  	0.033882 
2763.993328  	0.034000 
2765.922144  	0.034095 
2767.850960  	0.034135 
2769.779776  	0.034154 
2771.708592  	0.034233 
2773.637408  	0.034177 
2775.566224  	0.034157 
2777.495040  	0.034108 
2779.423856  	0.034039 
2781.352672  	0.034056 
2783.281488  	0.034119 
2785.210304  	0.034108 
2787.139120  	0.034199 
2789.067936  	0.034210 
2790.996752  	0.034189 
2792.925568  	0.034152 
2794.854384  	0.034169 
2796.783200  	0.034194 
2798.712016  	0.034231 
2800.640832  	0.034256 
2802.569648  	0.034384 
2804.498464  	0.034390 
2806.427280  	0.034485 
2808.356096  	0.034698 
2810.284912  	0.034714 
2812.213728  	0.034664 
2814.142544  	0.034754 
2816.071360  	0.034780 
2818.000176  	0.034939 
2819.928992  	0.035180 
2821.857808  	0.035174 
2823.786624  	0.035165 
2825.715440  	0.035379 
2827.644256  	0.035533 
2829.573072  	0.035562 
2831.501888  	0.035560 
2833.430704  	0.035687 
2835.359520  	0.035765 
2837.288336  	0.035813 
2839.217152  	0.035878 
2841.145968  	0.036015 
2843.074784  	0.036249 
2845.003600  	0.036724 
2846.932416  	0.037337 
2848.861232  	0.038157 
2850.790048  	0.038450 
2852.718864  	0.038421 
2854.647680  	0.038330 
2856.576496  	0.038300 
2858.505312  	0.038411 
2860.434128  	0.038693 
2862.362944  	0.038952 
2864.291760  	0.039222 
2866.220576  	0.039419 
2868.149392  	0.039593 
2870.078208  	0.039835 
2872.007024  	0.040362 
2873.935840  	0.041066 
2875.864656  	0.041715 
2877.793472  	0.042254 
2879.722288  	0.042976 
2881.651104  	0.043625 
2883.579920  	0.044282 
2885.508736  	0.044952 
2887.437552  	0.045424 
2889.366368  	0.045707 
2891.295184  	0.046033 
2893.224000  	0.046115 
2895.152816  	0.046123 
2897.081632  	0.046133 
2899.010448  	0.045997 
2900.939264  	0.045908 
2902.868080  	0.046286 
2904.796896  	0.046853 
2906.725712  	0.047299 
2908.654528  	0.047774 
2910.583344  	0.048519 
2912.512160  	0.049492 
2914.440976  	0.050751 
2916.369792  	0.051960 
2918.298608  	0.052715 
2920.227424  	0.053221 
2922.156240  	0.053741 
2924.085056  	0.054261 
2926.013872  	0.054835 
2927.942688  	0.055612 
2929.871504  	0.056539 
2931.800320  	0.057416 
2933.729136  	0.058461 
2935.657952  	0.059506 
2937.586768  	0.060366 
2939.515584  	0.061006 
2941.444400  	0.061646 
2943.373216  	0.062408 
2945.302032  	0.063136 
2947.230848  	0.063416 
2949.159664  	0.063412 
2951.088480  	0.063372 
2953.017296  	0.063352 
2954.946112  	0.063245 
2956.874928  	0.063088 
2958.803744  	0.062716 
2960.732560  	0.062307 
2962.661376  	0.061979 
2964.590192  	0.061718 
2966.519008  	0.061471 
2968.447824  	0.061062 
2970.376640  	0.060696 
2972.305456  	0.060428 
2974.234272  	0.060399 
2976.163088  	0.060326 
2978.091904  	0.060053 
2980.020720  	0.059952 
2981.949536  	0.059877 
2983.878352  	0.059803 
2985.807168  	0.059720 
2987.735984  	0.059700 
2989.664800  	0.059858 
2991.593616  	0.060517 
2993.522432  	0.061117 
2995.451248  	0.061515 
2997.380064  	0.062028 
2999.308880  	0.062675 
3001.237696  	0.063307 
3003.166512  	0.064076 
3005.095328  	0.064859 
3007.024144  	0.065526 
3008.952960  	0.066523 
3010.881776  	0.067781 
3012.810592  	0.068800 
3014.739408  	0.069602 
3016.668224  	0.070307 
3018.597040  	0.071150 
3020.525856  	0.072139 
3022.454672  	0.072906 
3024.383488  	0.073755 
3026.312304  	0.074897 
3028.241120  	0.075982 
3030.169936  	0.077084 
3032.098752  	0.078049 
3034.027568  	0.078920 
3035.956384  	0.079981 
3037.885200  	0.081009 
3039.814016  	0.082085 
3041.742832  	0.083170 
3043.671648  	0.084204 
3045.600464  	0.085323 
3047.529280  	0.086439 
3049.458096  	0.087649 
3051.386912  	0.088650 
3053.315728  	0.089651 
3055.244544  	0.090958 
3057.173360  	0.092322 
3059.102176  	0.093679 
3061.030992  	0.095134 
3062.959808  	0.096573 
3064.888624  	0.098139 
3066.817440  	0.099680 
3068.746256  	0.101088 
3070.675072  	0.102413 
3072.603888  	0.103849 
3074.532704  	0.105352 
3076.461520  	0.106972 
3078.390336  	0.108638 
3080.319152  	0.110233 
3082.247968  	0.111540 
3084.176784  	0.112741 
3086.105600  	0.114208 
3088.034416  	0.115806 
3089.963232  	0.117141 
3091.892048  	0.118529 
3093.820864  	0.119987 
3095.749680  	0.121750 
3097.678496  	0.123658 
3099.607312  	0.125298 
3101.536128  	0.126900 
3103.464944  	0.128306 
3105.393760  	0.129653 
3107.322576  	0.131128 
3109.251392  	0.132408 
3111.180208  	0.133559 
3113.109024  	0.134761 
3115.037840  	0.136169 
3116.966656  	0.137769 
3118.895472  	0.138936 
3120.824288  	0.139944 
3122.753104  	0.141160 
3124.681920  	0.142102 
3126.610736  	0.143072 
3128.539552  	0.144083 
3130.468368  	0.145189 
3132.397184  	0.146559 
3134.326000  	0.147754 
3136.254816  	0.148558 
3138.183632  	0.149510 
3140.112448  	0.150379 
3142.041264  	0.151615 
3143.970080  	0.152816 
3145.898896  	0.154006 
3147.827712  	0.155232 
3149.756528  	0.156571 
3151.685344  	0.157833 
3153.614160  	0.158789 
3155.542976  	0.159744 
3157.471792  	0.160831 
3159.400608  	0.161852 
3161.329424  	0.162830 
3163.258240  	0.163938 
3165.187056  	0.164908 
3167.115872  	0.165814 
3169.044688  	0.166904 
3170.973504  	0.167613 
3172.902320  	0.168239 
3174.831136  	0.168902 
3176.759952  	0.169553 
3178.688768  	0.170203 
3180.617584  	0.170601 
3182.546400  	0.171091 
3184.475216  	0.171557 
3186.404032  	0.171993 
3188.332848  	0.172218 
3190.261664  	0.172445 
3192.190480  	0.172798 
3194.119296  	0.172817 
3196.048112  	0.172506 
3197.976928  	0.172692 
3199.905744  	0.172709 
3201.834560  	0.172457 
3203.763376  	0.172233 
3205.692192  	0.171937 
3207.621008  	0.171730 
3209.549824  	0.171522 
3211.478640  	0.171551 
3213.407456  	0.171668 
3215.336272  	0.171380 
3217.265088  	0.171187 
3219.193904  	0.171197 
3221.122720  	0.170945 
3223.051536  	0.170497 
3224.980352  	0.170258 
3226.909168  	0.170159 
3228.837984  	0.169910 
3230.766800  	0.169599 
3232.695616  	0.169605 
3234.624432  	0.169807 
3236.553248  	0.169988 
3238.482064  	0.169953 
3240.410880  	0.169851 
3242.339696  	0.170150 
3244.268512  	0.170550 
3246.197328  	0.170598 
3248.126144  	0.170548 
3250.054960  	0.170980 
3251.983776  	0.171364 
3253.912592  	0.171733 
3255.841408  	0.171981 
3257.770224  	0.172036 
3259.699040  	0.172256 
3261.627856  	0.172582 
3263.556672  	0.172823 
3265.485488  	0.173113 
3267.414304  	0.173139 
3269.343120  	0.173443 
3271.271936  	0.174007 
3273.200752  	0.174177 
3275.129568  	0.174084 
3277.058384  	0.174207 
3278.987200  	0.174317 
3280.916016  	0.174327 
3282.844832  	0.174515 
3284.773648  	0.174902 
3286.702464  	0.175060 
3288.631280  	0.175364 
3290.560096  	0.175629 
3292.488912  	0.175855 
3294.417728  	0.175918 
3296.346544  	0.176125 
3298.275360  	0.176537 
3300.204176  	0.176786 
3302.132992  	0.176831 
3304.061808  	0.177379 
3305.990624  	0.177852 
3307.919440  	0.178389 
3309.848256  	0.178865 
3311.777072  	0.179172 
3313.705888  	0.179191 
3315.634704  	0.179349 
3317.563520  	0.179679 
3319.492336  	0.179833 
3321.421152  	0.180009 
3323.349968  	0.180396 
3325.278784  	0.180685 
3327.207600  	0.180866 
3329.136416  	0.180527 
3331.065232  	0.180221 
3332.994048  	0.180149 
3334.922864  	0.180312 
3336.851680  	0.180355 
3338.780496  	0.180106 
3340.709312  	0.179599 
3342.638128  	0.179289 
3344.566944  	0.178946 
3346.495760  	0.178613 
3348.424576  	0.178217 
3350.353392  	0.177738 
3352.282208  	0.177104 
3354.211024  	0.176848 
3356.139840  	0.176617 
3358.068656  	0.175902 
3359.997472  	0.175283 
3361.926288  	0.174895 
3363.855104  	0.174322 
3365.783920  	0.173851 
3367.712736  	0.173241 
3369.641552  	0.172299 
3371.570368  	0.171326 
3373.499184  	0.170941 
3375.428000  	0.170626 
3377.356816  	0.170270 
3379.285632  	0.169580 
3381.214448  	0.168817 
3383.143264  	0.168208 
3385.072080  	0.167660 
3387.000896  	0.166732 
3388.929712  	0.165920 
3390.858528  	0.165554 
3392.787344  	0.165333 
3394.716160  	0.164334 
3396.644976  	0.163472 
3398.573792  	0.162505 
3400.502608  	0.161314 
3402.431424  	0.160377 
3404.360240  	0.159638 
3406.289056  	0.158732 
3408.217872  	0.157564 
3410.146688  	0.156553 
3412.075504  	0.155646 
3414.004320  	0.154707 
3415.933136  	0.153991 
3417.861952  	0.153257 
3419.790768  	0.152936 
3421.719584  	0.152027 
3423.648400  	0.150429 
3425.577216  	0.149033 
3427.506032  	0.147882 
3429.434848  	0.146869 
3431.363664  	0.145979 
3433.292480  	0.144799 
3435.221296  	0.143540 
3437.150112  	0.142336 
3439.078928  	0.141324 
3441.007744  	0.140384 
3442.936560  	0.139519 
3444.865376  	0.138569 
3446.794192  	0.138048 
3448.723008  	0.136352 
3450.651824  	0.134264 
3452.580640  	0.132873 
3454.509456  	0.131663 
3456.438272  	0.130217 
3458.367088  	0.129181 
3460.295904  	0.128335 
3462.224720  	0.127177 
3464.153536  	0.125298 
3466.082352  	0.123796 
3468.011168  	0.122482 
3469.939984  	0.120928 
3471.868800  	0.119350 
3473.797616  	0.117870 
3475.726432  	0.116384 
3477.655248  	0.115001 
3479.584064  	0.113967 
3481.512880  	0.113313 
3483.441696  	0.111574 
3485.370512  	0.109573 
3487.299328  	0.108182 
3489.228144  	0.106329 
3491.156960  	0.104276 
3493.085776  	0.103091 
3495.014592  	0.102176 
3496.943408  	0.100861 
3498.872224  	0.099388 
3500.801040  	0.099265 
3502.729856  	0.099064 
3504.658672  	0.096963 
3506.587488  	0.094432 
3508.516304  	0.093622 
3510.445120  	0.092485 
3512.373936  	0.090399 
3514.302752  	0.088771 
3516.231568  	0.087623 
3518.160384  	0.086467 
3520.089200  	0.085439 
3522.018016  	0.085451 
3523.946832  	0.085461 
3525.875648  	0.083927 
3527.804464  	0.082505 
3529.733280  	0.080437 
3531.662096  	0.077827 
3533.590912  	0.075946 
3535.519728  	0.075544 
3537.448544  	0.074247 
3539.377360  	0.072040 
3541.306176  	0.071094 
3543.234992  	0.071941 
3545.163808  	0.073037 
3547.092624  	0.071119 
3549.021440  	0.067514 
3550.950256  	0.066134 
3552.879072  	0.065587 
3554.807888  	0.063137 
3556.736704  	0.060892 
3558.665520  	0.060640 
3560.594336  	0.060610 
3562.523152  	0.059741 
3564.451968  	0.060886 
3566.380784  	0.064161 
3568.309600  	0.060842 
3570.238416  	0.054608 
3572.167232  	0.051460 
3574.096048  	0.050249 
3576.024864  	0.049215 
3577.953680  	0.047992 
3579.882496  	0.046881 
3581.811312  	0.045449 
3583.740128  	0.044974 
3585.668944  	0.046609 
3587.597760  	0.047944 
3589.526576  	0.043125 
3591.455392  	0.039471 
3593.384208  	0.039607 
3595.313024  	0.039396 
3597.241840  	0.037207 
3599.170656  	0.035255 
3601.099472  	0.033517 
3603.028288  	0.030890 
3604.957104  	0.029803 
3606.885920  	0.031331 
3608.814736  	0.031301 
3610.743552  	0.028787 
3612.672368  	0.028404 
3614.601184  	0.027506 
3616.530000  	0.025575 
3618.458816  	0.025144 
3620.387632  	0.022450 
3622.316448  	0.018379 
3624.245264  	0.016750 
3626.174080  	0.017325 
3628.102896  	0.019275 
3630.031712  	0.017767 
3631.960528  	0.013180 
3633.889344  	0.010872 
3635.818160  	0.008875 
3637.746976  	0.007138 
3639.675792  	0.005892 
3641.604608  	0.005362 
3643.533424  	0.004819 
3645.462240  	0.005506 
3647.391056  	0.009663 
3649.319872  	0.010525 
3651.248688  	0.004851 
3653.177504  	-0.000622 
3655.106320  	-0.002197 
3657.035136  	-0.003367 
3658.963952  	-0.005675 
3660.892768  	-0.006936 
3662.821584  	-0.008046 
3664.750400  	-0.008858 
3666.679216  	-0.008402 
3668.608032  	-0.006206 
3670.536848  	-0.004786 
3672.465664  	-0.006828 
3674.394480  	-0.005949 
3676.323296  	-0.005493 
3678.252112  	-0.008850 
3680.180928  	-0.011447 
3682.109744  	-0.013319 
3684.038560  	-0.013765 
3685.967376  	-0.013278 
3687.896192  	-0.011220 
3689.825008  	-0.009726 
3691.753824  	-0.012102 
3693.682640  	-0.014509 
3695.611456  	-0.015457 
3697.540272  	-0.015747 
3699.469088  	-0.015881 
3701.397904  	-0.014931 
3703.326720  	-0.015392 
3705.255536  	-0.015971 
3707.184352  	-0.015232 
3709.113168  	-0.013040 
3711.041984  	-0.010363 
3712.970800  	-0.011969 
3714.899616  	-0.014820 
3716.828432  	-0.015944 
3718.757248  	-0.015242 
3720.686064  	-0.014539 
3722.614880  	-0.013338 
3724.543696  	-0.012339 
3726.472512  	-0.012329 
3728.401328  	-0.014606 
3730.330144  	-0.015539 
3732.258960  	-0.013270 
3734.187776  	-0.008317 
3736.116592  	-0.006409 
3738.045408  	-0.010979 
3739.974224  	-0.012773 
3741.903040  	-0.012534 
3743.831856  	-0.011718 
3745.760672  	-0.010952 
3747.689488  	-0.011462 
3749.618304  	-0.009713 
3751.547120  	-0.008981 
3753.475936  	-0.012602 
3755.404752  	-0.014579 
3757.333568  	-0.014313 
3759.262384  	-0.013762 
3761.191200  	-0.015531 
3763.120016  	-0.016653 
3765.048832  	-0.015607 
3766.977648  	-0.015431 
3768.906464  	-0.015491 
3770.835280  	-0.016016 
3772.764096  	-0.017745 
3774.692912  	-0.018466 
3776.621728  	-0.018021 
3778.550544  	-0.016752 
3780.479360  	-0.016549 
3782.408176  	-0.017357 
3784.336992  	-0.016924 
3786.265808  	-0.017124 
3788.194624  	-0.018174 
3790.123440  	-0.018466 
3792.052256  	-0.018637 
3793.981072  	-0.018358 
3795.909888  	-0.016546 
3797.838704  	-0.014869 
3799.767520  	-0.014396 
3801.696336  	-0.012891 
3803.625152  	-0.014859 
3805.553968  	-0.016298 
3807.482784  	-0.016496 
3809.411600  	-0.017781 
3811.340416  	-0.018499 
3813.269232  	-0.018123 
3815.198048  	-0.016105 
3817.126864  	-0.014408 
3819.055680  	-0.014042 
3820.984496  	-0.012477 
3822.913312  	-0.014412 
3824.842128  	-0.016149 
3826.770944  	-0.016306 
3828.699760  	-0.017038 
3830.628576  	-0.017019 
3832.557392  	-0.016322 
3834.486208  	-0.015729 
3836.415024  	-0.014389 
3838.343840  	-0.012454 
3840.272656  	-0.012125 
3842.201472  	-0.014187 
3844.130288  	-0.015577 
3846.059104  	-0.017317 
3847.987920  	-0.017615 
3849.916736  	-0.015706 
3851.845552  	-0.012385 
3853.774368  	-0.010223 
3855.703184  	-0.012959 
3857.632000  	-0.015048 
3859.560816  	-0.016655 
3861.489632  	-0.015815 
3863.418448  	-0.013885 
3865.347264  	-0.013566 
3867.276080  	-0.014915 
3869.204896  	-0.013023 
3871.133712  	-0.012352 
3873.062528  	-0.014359 
3874.991344  	-0.015648 
3876.920160  	-0.017536 
3878.848976  	-0.016624 
3880.777792  	-0.014063 
3882.706608  	-0.014283 
3884.635424  	-0.014269 
3886.564240  	-0.015220 
3888.493056  	-0.017442 
3890.421872  	-0.016221 
3892.350688  	-0.015021 
3894.279504  	-0.016792 
3896.208320  	-0.017614 
3898.137136  	-0.015753 
3900.065952  	-0.013077 
3901.994768  	-0.012027 
3903.923584  	-0.011976 
3905.852400  	-0.014476 
3907.781216  	-0.017971 
3909.710032  	-0.019563 
3911.638848  	-0.019718 
3913.567664  	-0.019177 
3915.496480  	-0.017155 
3917.425296  	-0.015380 
3919.354112  	-0.016308 
3921.282928  	-0.017098 
3923.211744  	-0.016203 
3925.140560  	-0.015622 
3927.069376  	-0.017466 
3928.998192  	-0.017328 
3930.927008  	-0.015667 
3932.855824  	-0.015678 
3934.784640  	-0.017906 
3936.713456  	-0.018875 
3938.642272  	-0.018788 
3940.571088  	-0.018241 
3942.499904  	-0.016357 
3944.428720  	-0.016796 
3946.357536  	-0.017487 
3948.286352  	-0.016215 
3950.215168  	-0.016836 
3952.143984  	-0.018507 
3954.072800  	-0.019265 
3956.001616  	-0.019049 
3957.930432  	-0.018644 
3959.859248  	-0.018388 
3961.788064  	-0.018123 
3963.716880  	-0.018631 
3965.645696  	-0.019505 
3967.574512  	-0.019552 
3969.503328  	-0.019343 
3971.432144  	-0.019026 
3973.360960  	-0.018519 
3975.289776  	-0.018092 
3977.218592  	-0.018577 
3979.147408  	-0.019217 
3981.076224  	-0.019225 
3983.005040  	-0.019443 
3984.933856  	-0.019510 
3986.862672  	-0.019316 
3988.791488  	-0.019102 
3990.720304  	-0.018589 
3992.649120  	-0.018744 
3994.577936  	-0.019053 
3996.506752  	-0.019341 
3998.435568  	-0.019513 
4000.364384  	-0.019414 