##TITLE=No Description
##DATA TYPE=INFRARED SPECTRUM
##XUNITS=1/CM
##YUNITS=Abs
399.264912  	0.614606 
401.193728  	0.593738 
403.122544  	0.605008 
405.051360  	0.597055 
406.980176  	0.586296 
408.908992  	0.574802 
410.837808  	0.586508 
412.766624  	0.590758 
414.695440  	0.582676 
416.624256  	0.579938 
418.553072  	0.593748 
420.481888  	0.583490 
422.410704  	0.582622 
424.339520  	0.580951 
426.268336  	0.569956 
428.197152  	0.560079 
430.125968  	0.570026 
432.054784  	0.567506 
433.983600  	0.565463 
435.912416  	0.558896 
437.841232  	0.553234 
439.770048  	0.552513 
441.698864  	0.554612 
443.627680  	0.550573 
445.556496  	0.552708 
447.485312  	0.544910 
449.414128  	0.541531 
451.342944  	0.541449 
453.271760  	0.548873 
455.200576  	0.552215 
457.129392  	0.556307 
459.058208  	0.549672 
460.987024  	0.546505 
462.915840  	0.544605 
464.844656  	0.546132 
466.773472  	0.546851 
468.702288  	0.547722 
470.631104  	0.549247 
472.559920  	0.555419 
474.488736  	0.548820 
476.417552  	0.547186 
478.346368  	0.543544 
480.275184  	0.547148 
482.204000  	0.546377 
484.132816  	0.543362 
486.061632  	0.540538 
487.990448  	0.539254 
489.919264  	0.540907 
491.848080  	0.542325 
493.776896  	0.536015 
495.705712  	0.534645 
497.634528  	0.533171 
499.563344  	0.532715 
501.492160  	0.531709 
503.420976  	0.529950 
505.349792  	0.527769 
507.278608  	0.531959 
509.207424  	0.533242 
511.136240  	0.535147 
513.065056  	0.534928 
514.993872  	0.538706 
516.922688  	0.543718 
518.851504  	0.546086 
520.780320  	0.544538 
522.709136  	0.542868 
524.637952  	0.543155 
526.566768  	0.541176 
528.495584  	0.534266 
530.424400  	0.531785 
532.353216  	0.528617 
534.282032  	0.523163 
536.210848  	0.515984 
538.139664  	0.510121 
540.068480  	0.502209 
541.997296  	0.497703 
543.926112  	0.495263 
545.854928  	0.493998 
547.783744  	0.489711 
549.712560  	0.487625 
551.641376  	0.484853 
553.570192  	0.482639 
555.499008  	0.478759 
557.427824  	0.474891 
559.356640  	0.471171 
561.285456  	0.468490 
563.214272  	0.464678 
565.143088  	0.460884 
567.071904  	0.456902 
569.000720  	0.453925 
570.929536  	0.450984 
572.858352  	0.448322 
574.787168  	0.445293 
576.715984  	0.443729 
578.644800  	0.438853 
580.573616  	0.433386 
582.502432  	0.426956 
584.431248  	0.422504 
586.360064  	0.418363 
588.288880  	0.415484 
590.217696  	0.413469 
592.146512  	0.412284 
594.075328  	0.409324 
596.004144  	0.407044 
597.932960  	0.405786 
599.861776  	0.404939 
601.790592  	0.402969 
603.719408  	0.401480 
605.648224  	0.400072 
607.577040  	0.399166 
609.505856  	0.398499 
611.434672  	0.397212 
613.363488  	0.394609 
615.292304  	0.393522 
617.221120  	0.391982 
619.149936  	0.390779 
621.078752  	0.389748 
623.007568  	0.388769 
624.936384  	0.387633 
626.865200  	0.387222 
628.794016  	0.386477 
630.722832  	0.386029 
632.651648  	0.386797 
634.580464  	0.387370 
636.509280  	0.386830 
638.438096  	0.386743 
640.366912  	0.386173 
642.295728  	0.384799 
644.224544  	0.381770 
646.153360  	0.377681 
648.082176  	0.373656 
650.010992  	0.369773 
651.939808  	0.366093 
653.868624  	0.362556 
655.797440  	0.358287 
657.726256  	0.354247 
659.655072  	0.350058 
661.583888  	0.345442 
663.512704  	0.340702 
665.441520  	0.336478 
667.370336  	0.332382 
669.299152  	0.325621 
671.227968  	0.320379 
673.156784  	0.316748 
675.085600  	0.313273 
677.014416  	0.310021 
678.943232  	0.307653 
680.872048  	0.306626 
682.800864  	0.305490 
684.729680  	0.303769 
686.658496  	0.302254 
688.587312  	0.301402 
690.516128  	0.300237 
692.444944  	0.299039 
694.373760  	0.298079 
696.302576  	0.296695 
698.231392  	0.294689 
700.160208  	0.292093 
702.089024  	0.289493 
704.017840  	0.287162 
705.946656  	0.284253 
707.875472  	0.281148 
709.804288  	0.278903 
711.733104  	0.277649 
713.661920  	0.276005 
715.590736  	0.274424 
717.519552  	0.273713 
719.448368  	0.274564 
721.377184  	0.275611 
723.306000  	0.276420 
725.234816  	0.277136 
727.163632  	0.276308 
729.092448  	0.273207 
731.021264  	0.268893 
732.950080  	0.264489 
734.878896  	0.260597 
736.807712  	0.257137 
738.736528  	0.254109 
740.665344  	0.252078 
742.594160  	0.250567 
744.522976  	0.248966 
746.451792  	0.247502 
748.380608  	0.245788 
750.309424  	0.244496 
752.238240  	0.243515 
754.167056  	0.242835 
756.095872  	0.242021 
758.024688  	0.240868 
759.953504  	0.240609 
761.882320  	0.242062 
763.811136  	0.243059 
765.739952  	0.241151 
767.668768  	0.237007 
769.597584  	0.233564 
771.526400  	0.232768 
773.455216  	0.235094 
775.384032  	0.240572 
777.312848  	0.247735 
779.241664  	0.252317 
781.170480  	0.250340 
783.099296  	0.243883 
785.028112  	0.236254 
786.956928  	0.229450 
788.885744  	0.224138 
790.814560  	0.220152 
792.743376  	0.218137 
794.672192  	0.217503 
796.601008  	0.215787 
798.529824  	0.211749 
800.458640  	0.206860 
802.387456  	0.203057 
804.316272  	0.201082 
806.245088  	0.200055 
808.173904  	0.199298 
810.102720  	0.198962 
812.031536  	0.199205 
813.960352  	0.199644 
815.889168  	0.200170 
817.817984  	0.201391 
819.746800  	0.203053 
821.675616  	0.204707 
823.604432  	0.205743 
825.533248  	0.206662 
827.462064  	0.207588 
829.390880  	0.207677 
831.319696  	0.207286 
833.248512  	0.206390 
835.177328  	0.204470 
837.106144  	0.201168 
839.034960  	0.197247 
840.963776  	0.192368 
842.892592  	0.187065 
844.821408  	0.181977 
846.750224  	0.177401 
848.679040  	0.173782 
850.607856  	0.171191 
852.536672  	0.169367 
854.465488  	0.168133 
856.394304  	0.167228 
858.323120  	0.165788 
860.251936  	0.164131 
862.180752  	0.162488 
864.109568  	0.160120 
866.038384  	0.157551 
867.967200  	0.155313 
869.896016  	0.153432 
871.824832  	0.152344 
873.753648  	0.152568 
875.682464  	0.153704 
877.611280  	0.155894 
879.540096  	0.159066 
881.468912  	0.162585 
883.397728  	0.166090 
885.326544  	0.168924 
887.255360  	0.171037 
889.184176  	0.171810 
891.112992  	0.171111 
893.041808  	0.169329 
894.970624  	0.166284 
896.899440  	0.161400 
898.828256  	0.155210 
900.757072  	0.149005 
902.685888  	0.143788 
904.614704  	0.140537 
906.543520  	0.140086 
908.472336  	0.141790 
910.401152  	0.144874 
912.329968  	0.148527 
914.258784  	0.152244 
916.187600  	0.155787 
918.116416  	0.158624 
920.045232  	0.160829 
921.974048  	0.162798 
923.902864  	0.164470 
925.831680  	0.165985 
927.760496  	0.167939 
929.689312  	0.170146 
931.618128  	0.172578 
933.546944  	0.174225 
935.475760  	0.175042 
937.404576  	0.174974 
939.333392  	0.174163 
941.262208  	0.173565 
943.191024  	0.174536 
945.119840  	0.178270 
947.048656  	0.185239 
948.977472  	0.195999 
950.906288  	0.210053 
952.835104  	0.227229 
954.763920  	0.247017 
956.692736  	0.267243 
958.621552  	0.285625 
960.550368  	0.299547 
962.479184  	0.307805 
964.408000  	0.308822 
966.336816  	0.302888 
968.265632  	0.290719 
970.194448  	0.274015 
972.123264  	0.254023 
974.052080  	0.233166 
975.980896  	0.212820 
977.909712  	0.194115 
979.838528  	0.177788 
981.767344  	0.164326 
983.696160  	0.154270 
985.624976  	0.147959 
987.553792  	0.145968 
989.482608  	0.148129 
991.411424  	0.153772 
993.340240  	0.162202 
995.269056  	0.172216 
997.197872  	0.182995 
999.126688  	0.193751 
1001.055504  	0.204826 
1002.984320  	0.215681 
1004.913136  	0.226216 
1006.841952  	0.236779 
1008.770768  	0.246618 
1010.699584  	0.254643 
1012.628400  	0.260908 
1014.557216  	0.265475 
1016.486032  	0.268120 
1018.414848  	0.269197 
1020.343664  	0.269921 
1022.272480  	0.270175 
1024.201296  	0.270224 
1026.130112  	0.270377 
1028.058928  	0.272044 
1029.987744  	0.275470 
1031.916560  	0.280424 
1033.845376  	0.286667 
1035.774192  	0.294926 
1037.703008  	0.305743 
1039.631824  	0.320651 
1041.560640  	0.340237 
1043.489456  	0.364687 
1045.418272  	0.390942 
1047.347088  	0.414764 
1049.275904  	0.430406 
1051.204720  	0.436520 
1053.133536  	0.434264 
1055.062352  	0.427509 
1056.991168  	0.418811 
1058.919984  	0.412320 
1060.848800  	0.407816 
1062.777616  	0.404489 
1064.706432  	0.400221 
1066.635248  	0.395162 
1068.564064  	0.387603 
1070.492880  	0.378566 
1072.421696  	0.369440 
1074.350512  	0.364365 
1076.279328  	0.364298 
1078.208144  	0.369208 
1080.136960  	0.375516 
1082.065776  	0.379207 
1083.994592  	0.375696 
1085.923408  	0.365549 
1087.852224  	0.350588 
1089.781040  	0.333594 
1091.709856  	0.315002 
1093.638672  	0.295526 
1095.567488  	0.275295 
1097.496304  	0.256065 
1099.425120  	0.237583 
1101.353936  	0.220123 
1103.282752  	0.204181 
1105.211568  	0.189581 
1107.140384  	0.176364 
1109.069200  	0.164510 
1110.998016  	0.154198 
1112.926832  	0.144772 
1114.855648  	0.136013 
1116.784464  	0.127562 
1118.713280  	0.119488 
1120.642096  	0.111607 
1122.570912  	0.104283 
1124.499728  	0.097660 
1126.428544  	0.091892 
1128.357360  	0.086757 
1130.286176  	0.082416 
1132.214992  	0.079126 
1134.143808  	0.076901 
1136.072624  	0.074851 
1138.001440  	0.073068 
1139.930256  	0.071488 
1141.859072  	0.069987 
1143.787888  	0.068336 
1145.716704  	0.067074 
1147.645520  	0.066113 
1149.574336  	0.065818 
1151.503152  	0.065533 
1153.431968  	0.065612 
1155.360784  	0.065963 
1157.289600  	0.067229 
1159.218416  	0.068810 
1161.147232  	0.070765 
1163.076048  	0.072914 
1165.004864  	0.075269 
1166.933680  	0.077447 
1168.862496  	0.079922 
1170.791312  	0.082607 
1172.720128  	0.085999 
1174.648944  	0.089926 
1176.577760  	0.093920 
1178.506576  	0.098012 
1180.435392  	0.102328 
1182.364208  	0.106506 
1184.293024  	0.111370 
1186.221840  	0.117122 
1188.150656  	0.123702 
1190.079472  	0.131195 
1192.008288  	0.139941 
1193.937104  	0.149775 
1195.865920  	0.160958 
1197.794736  	0.172877 
1199.723552  	0.185239 
1201.652368  	0.198053 
1203.581184  	0.210309 
1205.510000  	0.221633 
1207.438816  	0.231492 
1209.367632  	0.239916 
1211.296448  	0.246664 
1213.225264  	0.251395 
1215.154080  	0.253686 
1217.082896  	0.254100 
1219.011712  	0.252958 
1220.940528  	0.251023 
1222.869344  	0.248022 
1224.798160  	0.244099 
1226.726976  	0.238838 
1228.655792  	0.233006 
1230.584608  	0.226368 
1232.513424  	0.219015 
1234.442240  	0.211100 
1236.371056  	0.203007 
1238.299872  	0.194509 
1240.228688  	0.185251 
1242.157504  	0.175950 
1244.086320  	0.167065 
1246.015136  	0.158265 
1247.943952  	0.150000 
1249.872768  	0.142081 
1251.801584  	0.134503 
1253.730400  	0.127245 
1255.659216  	0.120034 
1257.588032  	0.113339 
1259.516848  	0.107344 
1261.445664  	0.101475 
1263.374480  	0.096038 
1265.303296  	0.091712 
1267.232112  	0.088376 
1269.160928  	0.086234 
1271.089744  	0.084863 
1273.018560  	0.084134 
1274.947376  	0.084444 
1276.876192  	0.085690 
1278.805008  	0.086810 
1280.733824  	0.086909 
1282.662640  	0.085319 
1284.591456  	0.083140 
1286.520272  	0.081522 
1288.449088  	0.080897 
1290.377904  	0.081011 
1292.306720  	0.082440 
1294.235536  	0.083838 
1296.164352  	0.084132 
1298.093168  	0.082049 
1300.021984  	0.078926 
1301.950800  	0.075425 
1303.879616  	0.071662 
1305.808432  	0.067555 
1307.737248  	0.063380 
1309.666064  	0.059132 
1311.594880  	0.056692 
1313.523696  	0.055072 
1315.452512  	0.053512 
1317.381328  	0.053333 
1319.310144  	0.053486 
1321.238960  	0.053070 
1323.167776  	0.053555 
1325.096592  	0.054489 
1327.025408  	0.055029 
1328.954224  	0.054764 
1330.883040  	0.053752 
1332.811856  	0.052043 
1334.740672  	0.051229 
1336.669488  	0.052427 
1338.598304  	0.055069 
1340.527120  	0.053675 
1342.455936  	0.049426 
1344.384752  	0.048261 
1346.313568  	0.048811 
1348.242384  	0.049963 
1350.171200  	0.051384 
1352.100016  	0.053216 
1354.028832  	0.056026 
1355.957648  	0.058578 
1357.886464  	0.061101 
1359.815280  	0.064898 
1361.744096  	0.070552 
1363.672912  	0.072854 
1365.601728  	0.072434 
1367.530544  	0.075204 
1369.459360  	0.078068 
1371.388176  	0.079540 
1373.316992  	0.081767 
1375.245808  	0.079903 
1377.174624  	0.075515 
1379.103440  	0.071985 
1381.032256  	0.067991 
1382.961072  	0.064787 
1384.889888  	0.063921 
1386.818704  	0.064629 
1388.747520  	0.060813 
1390.676336  	0.056669 
1392.605152  	0.055611 
1394.533968  	0.057187 
1396.462784  	0.057433 
1398.391600  	0.056768 
1400.320416  	0.054381 
1402.249232  	0.053176 
1404.178048  	0.055286 
1406.106864  	0.055699 
1408.035680  	0.055913 
1409.964496  	0.058320 
1411.893312  	0.060942 
1413.822128  	0.063414 
1415.750944  	0.068532 
1417.679760  	0.074324 
1419.608576  	0.074480 
1421.537392  	0.071499 
1423.466208  	0.071620 
1425.395024  	0.068315 
1427.323840  	0.065075 
1429.252656  	0.063421 
1431.181472  	0.060672 
1433.110288  	0.059240 
1435.039104  	0.061402 
1436.967920  	0.063628 
1438.896736  	0.062238 
1440.825552  	0.062475 
1442.754368  	0.063428 
1444.683184  	0.064193 
1446.612000  	0.066141 
1448.540816  	0.066760 
1450.469632  	0.066259 
1452.398448  	0.067487 
1454.327264  	0.070478 
1456.256080  	0.076220 
1458.184896  	0.074830 
1460.113712  	0.067933 
1462.042528  	0.065316 
1463.971344  	0.066235 
1465.900160  	0.065996 
1467.828976  	0.065157 
1469.757792  	0.067698 
1471.686608  	0.075666 
1473.615424  	0.084429 
1475.544240  	0.087434 
1477.473056  	0.090615 
1479.401872  	0.093998 
1481.330688  	0.099112 
1483.259504  	0.101931 
1485.188320  	0.105563 
1487.117136  	0.110587 
1489.045952  	0.115276 
1490.974768  	0.110111 
1492.903584  	0.102926 
1494.832400  	0.099701 
1496.761216  	0.095249 
1498.690032  	0.086503 
1500.618848  	0.078469 
1502.547664  	0.072504 
1504.476480  	0.071073 
1506.405296  	0.077695 
1508.334112  	0.075171 
1510.262928  	0.066500 
1512.191744  	0.061331 
1514.120560  	0.060949 
1516.049376  	0.065789 
1517.978192  	0.067439 
1519.907008  	0.069961 
1521.835824  	0.077015 
1523.764640  	0.078218 
1525.693456  	0.081843 
1527.622272  	0.082982 
1529.551088  	0.080669 
1531.479904  	0.079998 
1533.408720  	0.079022 
1535.337536  	0.072499 
1537.266352  	0.070731 
1539.195168  	0.073184 
1541.123984  	0.071205 
1543.052800  	0.067682 
1544.981616  	0.063295 
1546.910432  	0.056998 
1548.839248  	0.057421 
1550.768064  	0.058517 
1552.696880  	0.057563 
1554.625696  	0.060302 
1556.554512  	0.062770 
1558.483328  	0.070496 
1560.412144  	0.067598 
1562.340960  	0.065880 
1564.269776  	0.068543 
1566.198592  	0.073141 
1568.127408  	0.078062 
1570.056224  	0.085712 
1571.985040  	0.088816 
1573.913856  	0.093279 
1575.842672  	0.099054 
1577.771488  	0.100783 
1579.700304  	0.098353 
1581.629120  	0.097202 
1583.557936  	0.096481 
1585.486752  	0.097458 
1587.415568  	0.100169 
1589.344384  	0.105841 
1591.273200  	0.112706 
1593.202016  	0.121340 
1595.130832  	0.130690 
1597.059648  	0.139835 
1598.988464  	0.147860 
1600.917280  	0.156257 
1602.846096  	0.162338 
1604.774912  	0.166204 
1606.703728  	0.168104 
1608.632544  	0.168571 
1610.561360  	0.165864 
1612.490176  	0.163866 
1614.418992  	0.163331 
1616.347808  	0.164952 
1618.276624  	0.165238 
1620.205440  	0.168358 
1622.134256  	0.173735 
1624.063072  	0.181222 
1625.991888  	0.187009 
1627.920704  	0.196227 
1629.849520  	0.205087 
1631.778336  	0.214498 
1633.707152  	0.223962 
1635.635968  	0.237657 
1637.564784  	0.244997 
1639.493600  	0.248313 
1641.422416  	0.251502 
1643.351232  	0.255478 
1645.280048  	0.259416 
1647.208864  	0.263217 
1649.137680  	0.259112 
1651.066496  	0.258950 
1652.995312  	0.258628 
1654.924128  	0.252372 
1656.852944  	0.246704 
1658.781760  	0.242527 
1660.710576  	0.239492 
1662.639392  	0.234978 
1664.568208  	0.226582 
1666.497024  	0.222404 
1668.425840  	0.218912 
1670.354656  	0.210482 
1672.283472  	0.202290 
1674.212288  	0.197638 
1676.141104  	0.190099 
1678.069920  	0.186304 
1679.998736  	0.186180 
1681.927552  	0.186188 
1683.856368  	0.185876 
1685.785184  	0.179935 
1687.714000  	0.178054 
1689.642816  	0.176650 
1691.571632  	0.173436 
1693.500448  	0.173326 
1695.429264  	0.175478 
1697.358080  	0.176621 
1699.286896  	0.175205 
1701.215712  	0.170478 
1703.144528  	0.168039 
1705.073344  	0.166294 
1707.002160  	0.159774 
1708.930976  	0.153329 
1710.859792  	0.146858 
1712.788608  	0.141223 
1714.717424  	0.135733 
1716.646240  	0.126764 
1718.575056  	0.106751 
1720.503872  	0.090859 
1722.432688  	0.080464 
1724.361504  	0.067910 
1726.290320  	0.057160 
1728.219136  	0.050402 
1730.147952  	0.045991 
1732.076768  	0.042161 
1734.005584  	0.037943 
1735.934400  	0.028488 
1737.863216  	0.025915 
1739.792032  	0.022922 
1741.720848  	0.020776 
1743.649664  	0.020573 
1745.578480  	0.019108 
1747.507296  	0.018965 
1749.436112  	0.019547 
1751.364928  	0.016179 
1753.293744  	0.011280 
1755.222560  	0.009867 
1757.151376  	0.010654 
1759.080192  	0.009256 
1761.009008  	0.009477 
1762.937824  	0.007742 
1764.866640  	0.005897 
1766.795456  	0.006907 
1768.724272  	0.008422 
1770.653088  	0.008781 
1772.581904  	0.009233 
1774.510720  	0.006729 
1776.439536  	0.005288 
1778.368352  	0.004356 
1780.297168  	0.005105 
1782.225984  	0.003604 
1784.154800  	0.003367 
1786.083616  	0.002491 
1788.012432  	0.002010 
1789.941248  	0.004143 
1791.870064  	0.006754 
1793.798880  	0.004437 
1795.727696  	0.003583 
1797.656512  	0.002443 
1799.585328  	0.002751 
1801.514144  	0.003303 
1803.442960  	0.001635 
1805.371776  	0.000142 
1807.300592  	0.000517 
1809.229408  	0.000773 
1811.158224  	0.001049 
1813.087040  	-0.000479 
1815.015856  	-0.001538 
1816.944672  	-0.001119 
1818.873488  	-0.000848 
1820.802304  	-0.000886 
1822.731120  	0.000231 
1824.659936  	0.001145 
1826.588752  	0.000647 
1828.517568  	0.001153 
1830.446384  	0.001545 
1832.375200  	-0.000990 
1834.304016  	-0.001354 
1836.232832  	-0.001120 
1838.161648  	-0.000878 
1840.090464  	-0.001397 
1842.019280  	0.000189 
1843.948096  	0.001649 
1845.876912  	0.001129 
1847.805728  	-0.000212 
1849.734544  	-0.001654 
1851.663360  	-0.002654 
1853.592176  	-0.002250 
1855.520992  	-0.002366 
1857.449808  	-0.002147 
1859.378624  	-0.002509 
1861.307440  	-0.002303 
1863.236256  	-0.002705 
1865.165072  	-0.001754 
1867.093888  	0.000335 
1869.022704  	0.001975 
1870.951520  	-0.000664 
1872.880336  	-0.002403 
1874.809152  	-0.003290 
1876.737968  	-0.003274 
1878.666784  	-0.003384 
1880.595600  	-0.003448 
1882.524416  	-0.003364 
1884.453232  	-0.002479 
1886.382048  	-0.002910 
1888.310864  	-0.002015 
1890.239680  	-0.001962 
1892.168496  	-0.002672 
1894.097312  	-0.002494 
1896.026128  	-0.002598 
1897.954944  	-0.003558 
1899.883760  	-0.003406 
1901.812576  	-0.003661 
1903.741392  	-0.003557 
1905.670208  	-0.003585 
1907.599024  	-0.002721 
1909.527840  	-0.002440 
1911.456656  	-0.002645 
1913.385472  	-0.002921 
1915.314288  	-0.002141 
1917.243104  	-0.001333 
1919.171920  	-0.001248 
1921.100736  	-0.001568 
1923.029552  	-0.000847 
1924.958368  	-0.003506 
1926.887184  	-0.004307 
1928.816000  	-0.004708 
1930.744816  	-0.004044 
1932.673632  	-0.003666 
1934.602448  	-0.003149 
1936.531264  	-0.003892 
1938.460080  	-0.003631 
1940.388896  	-0.002410 
1942.317712  	-0.000454 
1944.246528  	-0.002984 
1946.175344  	-0.003358 
1948.104160  	-0.003552 
1950.032976  	-0.003421 
1951.961792  	-0.004352 
1953.890608  	-0.004142 
1955.819424  	-0.004968 
1957.748240  	-0.005422 
1959.677056  	-0.005936 
1961.605872  	-0.005072 
1963.534688  	-0.005116 
1965.463504  	-0.003293 
1967.392320  	-0.003523 
1969.321136  	-0.003832 
1971.249952  	-0.005300 
1973.178768  	-0.005447 
1975.107584  	-0.004391 
1977.036400  	-0.002154 
1978.965216  	-0.002311 
1980.894032  	-0.001951 
1982.822848  	-0.002361 
1984.751664  	-0.002167 
1986.680480  	-0.002213 
1988.609296  	-0.000676 
1990.538112  	-0.001137 
1992.466928  	-0.000345 
1994.395744  	-0.002153 
1996.324560  	-0.002883 
1998.253376  	-0.003297 
2000.182192  	-0.003399 
2002.111008  	-0.004407 
2004.039824  	-0.003472 
2005.968640  	-0.003998 
2007.897456  	-0.003763 
2009.826272  	-0.003021 
2011.755088  	-0.001818 
2013.683904  	-0.002684 
2015.612720  	-0.001223 
2017.541536  	-0.000108 
2019.470352  	-0.000402 
2021.399168  	-0.002334 
2023.327984  	-0.002044 
2025.256800  	-0.001741 
2027.185616  	0.000222 
2029.114432  	-0.000123 
2031.043248  	-0.000671 
2032.972064  	-0.001149 
2034.900880  	0.000676 
2036.829696  	-0.000340 
2038.758512  	-0.000604 
2040.687328  	-0.000927 
2042.616144  	-0.000537 
2044.544960  	-0.001433 
2046.473776  	-0.000956 
2048.402592  	-0.000256 
2050.331408  	0.000378 
2052.260224  	-0.000430 
2054.189040  	-0.000398 
2056.117856  	-0.000756 
2058.046672  	-0.000989 
2059.975488  	-0.001384 
2061.904304  	-0.000353 
2063.833120  	0.000132 
2065.761936  	0.000490 
2067.690752  	-0.000063 
2069.619568  	0.000264 
2071.548384  	0.000109 
2073.477200  	0.000288 
2075.406016  	0.000188 
2077.334832  	0.000629 
2079.263648  	0.001105 
2081.192464  	0.001392 
2083.121280  	0.000577 
2085.050096  	0.000183 
2086.978912  	0.000012 
2088.907728  	0.000655 
2090.836544  	0.000750 
2092.765360  	0.000620 
2094.694176  	0.000801 
2096.622992  	0.001591 
2098.551808  	0.001368 
2100.480624  	0.001384 
2102.409440  	0.001063 
2104.338256  	0.001155 
2106.267072  	0.001192 
2108.195888  	0.001685 
2110.124704  	0.001681 
2112.053520  	0.001727 
2113.982336  	0.001547 
2115.911152  	0.001274 
2117.839968  	0.000754 
2119.768784  	0.001072 
2121.697600  	0.000984 
2123.626416  	0.000969 
2125.555232  	0.000351 
2127.484048  	0.000152 
2129.412864  	0.000376 
2131.341680  	0.000740 
2133.270496  	0.000748 
2135.199312  	0.001251 
2137.128128  	0.001271 
2139.056944  	0.002018 
2140.985760  	0.001913 
2142.914576  	0.002484 
2144.843392  	0.001717 
2146.772208  	0.001620 
2148.701024  	0.001492 
2150.629840  	0.001630 
2152.558656  	0.001453 
2154.487472  	0.002206 
2156.416288  	0.002249 
2158.345104  	0.004105 
2160.273920  	0.006235 
2162.202736  	0.007261 
2164.131552  	0.005786 
2166.060368  	0.005961 
2167.989184  	0.004412 
2169.918000  	0.003282 
2171.846816  	0.003177 
2173.775632  	0.003802 
2175.704448  	0.003477 
2177.633264  	0.004105 
2179.562080  	0.003973 
2181.490896  	0.005025 
2183.419712  	0.004455 
2185.348528  	0.003221 
2187.277344  	0.001967 
2189.206160  	0.002496 
2191.134976  	0.001981 
2193.063792  	0.001500 
2194.992608  	0.001484 
2196.921424  	0.001389 
2198.850240  	0.000933 
2200.779056  	0.001315 
2202.707872  	0.001217 
2204.636688  	0.002033 
2206.565504  	0.001911 
2208.494320  	0.000900 
2210.423136  	0.000121 
2212.351952  	0.000918 
2214.280768  	0.000515 
2216.209584  	-0.000068 
2218.138400  	-0.000877 
2220.067216  	-0.000433 
2221.996032  	-0.000430 
2223.924848  	-0.000183 
2225.853664  	0.000023 
2227.782480  	0.000278 
2229.711296  	-0.000486 
2231.640112  	-0.000676 
2233.568928  	-0.000563 
2235.497744  	-0.000158 
2237.426560  	-0.000202 
2239.355376  	-0.000050 
2241.284192  	-0.000799 
2243.213008  	-0.000751 
2245.141824  	-0.000609 
2247.070640  	-0.000929 
2248.999456  	-0.001200 
2250.928272  	-0.000515 
2252.857088  	-0.000529 
2254.785904  	-0.000282 
2256.714720  	-0.000412 
2258.643536  	-0.000530 
2260.572352  	-0.000323 
2262.501168  	-0.000035 
2264.429984  	-0.000107 
2266.358800  	-0.000136 
2268.287616  	-0.000426 
2270.216432  	-0.000291 
2272.145248  	-0.000290 
2274.074064  	-0.000050 
2276.002880  	-0.000080 
2277.931696  	0.000258 
2279.860512  	0.000083 
2281.789328  	0.000090 
2283.718144  	0.000425 
2285.646960  	0.000998 
2287.575776  	0.001274 
2289.504592  	0.001245 
2291.433408  	0.001055 
2293.362224  	0.001403 
2295.291040  	0.001541 
2297.219856  	0.001827 
2299.148672  	0.002088 
2301.077488  	0.002531 
2303.006304  	0.003014 
2304.935120  	0.003700 
2306.863936  	0.003750 
2308.792752  	0.003753 
2310.721568  	0.003750 
2312.650384  	0.003458 
2314.579200  	0.002754 
2316.508016  	0.002467 
2318.436832  	0.002522 
2320.365648  	0.002824 
2322.294464  	0.002516 
2324.223280  	0.001077 
2326.152096  	-0.001057 
2328.080912  	-0.002454 
2330.009728  	-0.003202 
2331.938544  	-0.003879 
2333.867360  	-0.005235 
2335.796176  	-0.006077 
2337.724992  	-0.006846 
2339.653808  	-0.007104 
2341.582624  	-0.006533 
2343.511440  	-0.005261 
2345.440256  	-0.003443 
2347.369072  	-0.001261 
2349.297888  	-0.000266 
2351.226704  	-0.001669 
2353.155520  	-0.004572 
2355.084336  	-0.006410 
2357.013152  	-0.007795 
2358.941968  	-0.008747 
2360.870784  	-0.009617 
2362.799600  	-0.009318 
2364.728416  	-0.008152 
2366.657232  	-0.006602 
2368.586048  	-0.005126 
2370.514864  	-0.003230 
2372.443680  	-0.001448 
2374.372496  	0.000334 
2376.301312  	0.001447 
2378.230128  	0.002052 
2380.158944  	0.002148 
2382.087760  	0.001925 
2384.016576  	0.001237 
2385.945392  	0.000505 
2387.874208  	0.000032 
2389.803024  	-0.000325 
2391.731840  	-0.000835 
2393.660656  	-0.000826 
2395.589472  	-0.000768 
2397.518288  	-0.000792 
2399.447104  	-0.000828 
2401.375920  	-0.000678 
2403.304736  	-0.000855 
2405.233552  	-0.000925 
2407.162368  	-0.000789 
2409.091184  	-0.000682 
2411.020000  	-0.000808 
2412.948816  	-0.000878 
2414.877632  	-0.000785 
2416.806448  	-0.000376 
2418.735264  	-0.000308 
2420.664080  	-0.000329 
2422.592896  	-0.000308 
2424.521712  	-0.000169 
2426.450528  	-0.000193 
2428.379344  	-0.000048 
2430.308160  	0.000156 
2432.236976  	0.000069 
2434.165792  	0.000154 
2436.094608  	0.000528 
2438.023424  	0.000584 
2439.952240  	0.000816 
2441.881056  	0.000910 
2443.809872  	0.000852 
2445.738688  	0.000891 
2447.667504  	0.001156 
2449.596320  	0.001212 
2451.525136  	0.001193 
2453.453952  	0.001238 
2455.382768  	0.001358 
2457.311584  	0.001375 
2459.240400  	0.001402 
2461.169216  	0.001489 
2463.098032  	0.001695 
2465.026848  	0.001648 
2466.955664  	0.001772 
2468.884480  	0.001630 
2470.813296  	0.001405 
2472.742112  	0.001695 
2474.670928  	0.002176 
2476.599744  	0.002308 
2478.528560  	0.002514 
2480.457376  	0.002843 
2482.386192  	0.002964 
2484.315008  	0.002738 
2486.243824  	0.002888 
2488.172640  	0.003229 
2490.101456  	0.003481 
2492.030272  	0.003549 
2493.959088  	0.003509 
2495.887904  	0.003414 
2497.816720  	0.003693 
2499.745536  	0.003924 
2501.674352  	0.003946 
2503.603168  	0.003994 
2505.531984  	0.004237 
2507.460800  	0.004274 
2509.389616  	0.004327 
2511.318432  	0.004296 
2513.247248  	0.004507 
2515.176064  	0.004738 
2517.104880  	0.004721 
2519.033696  	0.004604 
2520.962512  	0.004894 
2522.891328  	0.004947 
2524.820144  	0.005247 
2526.748960  	0.005465 
2528.677776  	0.005651 
2530.606592  	0.005608 
2532.535408  	0.005632 
2534.464224  	0.005545 
2536.393040  	0.005562 
2538.321856  	0.005658 
2540.250672  	0.005923 
2542.179488  	0.006191 
2544.108304  	0.006341 
2546.037120  	0.006556 
2547.965936  	0.006814 
2549.894752  	0.007031 
2551.823568  	0.007317 
2553.752384  	0.007418 
2555.681200  	0.007377 
2557.610016  	0.007490 
2559.538832  	0.007578 
2561.467648  	0.007678 
2563.396464  	0.007873 
2565.325280  	0.007936 
2567.254096  	0.008091 
2569.182912  	0.008135 
2571.111728  	0.008329 
2573.040544  	0.008583 
2574.969360  	0.008756 
2576.898176  	0.008885 
2578.826992  	0.008981 
2580.755808  	0.008979 
2582.684624  	0.009367 
2584.613440  	0.009573 
2586.542256  	0.009722 
2588.471072  	0.009716 
2590.399888  	0.009695 
2592.328704  	0.009974 
2594.257520  	0.010171 
2596.186336  	0.010059 
2598.115152  	0.010166 
2600.043968  	0.010456 
2601.972784  	0.010566 
2603.901600  	0.010722 
2605.830416  	0.010920 
2607.759232  	0.011018 
2609.688048  	0.011075 
2611.616864  	0.011262 
2613.545680  	0.011472 
2615.474496  	0.011665 
2617.403312  	0.011989 
2619.332128  	0.012164 
2621.260944  	0.012193 
2623.189760  	0.012381 
2625.118576  	0.012755 
2627.047392  	0.012885 
2628.976208  	0.013108 
2630.905024  	0.013296 
2632.833840  	0.013346 
2634.762656  	0.013435 
2636.691472  	0.013812 
2638.620288  	0.014101 
2640.549104  	0.014345 
2642.477920  	0.014604 
2644.406736  	0.014787 
2646.335552  	0.014965 
2648.264368  	0.015222 
2650.193184  	0.015451 
2652.122000  	0.015701 
2654.050816  	0.015923 
2655.979632  	0.016126 
2657.908448  	0.016330 
2659.837264  	0.016643 
2661.766080  	0.016890 
2663.694896  	0.017032 
2665.623712  	0.017175 
2667.552528  	0.017432 
2669.481344  	0.017608 
2671.410160  	0.017818 
2673.338976  	0.018095 
2675.267792  	0.018393 
2677.196608  	0.018602 
2679.125424  	0.018829 
2681.054240  	0.019071 
2682.983056  	0.019337 
2684.911872  	0.019484 
2686.840688  	0.019604 
2688.769504  	0.019849 
2690.698320  	0.020133 
2692.627136  	0.020306 
2694.555952  	0.020472 
2696.484768  	0.020584 
2698.413584  	0.020760 
2700.342400  	0.020942 
2702.271216  	0.021191 
2704.200032  	0.021462 
2706.128848  	0.021713 
2708.057664  	0.021915 
2709.986480  	0.022041 
2711.915296  	0.022202 
2713.844112  	0.022514 
2715.772928  	0.022792 
2717.701744  	0.022937 
2719.630560  	0.023165 
2721.559376  	0.023405 
2723.488192  	0.023619 
2725.417008  	0.023873 
2727.345824  	0.024095 
2729.274640  	0.024473 
2731.203456  	0.024702 
2733.132272  	0.024795 
2735.061088  	0.025043 
2736.989904  	0.025271 
2738.918720  	0.025519 
2740.847536  	0.025727 
2742.776352  	0.025895 
2744.705168  	0.026093 
2746.633984  	0.026334 
2748.562800  	0.026613 
2750.491616  	0.026623 
2752.420432  	0.026648 
2754.349248  	0.026730 
2756.278064  	0.026760 
2758.206880  	0.026806 
2760.135696  	0.026851 
2762.064512  	0.026888 
2763.993328  	0.026971 
2765.922144  	0.027110 
2767.850960  	0.027143 
2769.779776  	0.027029 
2771.708592  	0.027016 
2773.637408  	0.027010 
2775.566224  	0.027068 
2777.495040  	0.027075 
2779.423856  	0.027079 
2781.352672  	0.027150 
2783.281488  	0.027163 
2785.210304  	0.027083 
2787.139120  	0.027207 
2789.067936  	0.027259 
2790.996752  	0.027291 
2792.925568  	0.027289 
2794.854384  	0.027217 
2796.783200  	0.027218 
2798.712016  	0.027223 
2800.640832  	0.027296 
2802.569648  	0.027469 
2804.498464  	0.027570 
2806.427280  	0.027714 
2808.356096  	0.027871 
2810.284912  	0.027857 
2812.213728  	0.027786 
2814.142544  	0.027879 
2816.071360  	0.027833 
2818.000176  	0.028005 
2819.928992  	0.028193 
2821.857808  	0.028191 
2823.786624  	0.028206 
2825.715440  	0.028422 
2827.644256  	0.028541 
2829.573072  	0.028464 
2831.501888  	0.028451 
2833.430704  	0.028575 
2835.359520  	0.028624 
2837.288336  	0.028650 
2839.217152  	0.028713 
2841.145968  	0.028714 
2843.074784  	0.028900 
2845.003600  	0.029294 
2846.932416  	0.029671 
2848.861232  	0.030142 
2850.790048  	0.030405 
2852.718864  	0.030483 
2854.647680  	0.030460 
2856.576496  	0.030505 
2858.505312  	0.030576 
2860.434128  	0.030770 
2862.362944  	0.030925 
2864.291760  	0.031072 
2866.220576  	0.031243 
2868.149392  	0.031411 
2870.078208  	0.031690 
2872.007024  	0.032184 
2873.935840  	0.032755 
2875.864656  	0.033173 
2877.793472  	0.033635 
2879.722288  	0.034303 
2881.651104  	0.034974 
2883.579920  	0.035563 
2885.508736  	0.036105 
2887.437552  	0.036477 
2889.366368  	0.036644 
2891.295184  	0.036787 
2893.224000  	0.036918 
2895.152816  	0.036980 
2897.081632  	0.036896 
2899.010448  	0.036581 
2900.939264  	0.036364 
2902.868080  	0.036657 
2904.796896  	0.037128 
2906.725712  	0.037491 
2908.654528  	0.037988 
2910.583344  	0.038666 
2912.512160  	0.039321 
2914.440976  	0.040234 
2916.369792  	0.041288 
2918.298608  	0.041996 
2920.227424  	0.042481 
2922.156240  	0.043072 
2924.085056  	0.043662 
2926.013872  	0.044182 
2927.942688  	0.044951 
2929.871504  	0.045876 
2931.800320  	0.046631 
2933.729136  	0.047332 
2935.657952  	0.048096 
2937.586768  	0.048868 
2939.515584  	0.049497 
2941.444400  	0.049932 
2943.373216  	0.050466 
2945.302032  	0.051016 
2947.230848  	0.051221 
2949.159664  	0.051224 
2951.088480  	0.051080 
2953.017296  	0.051017 
2954.946112  	0.050893 
2956.874928  	0.050715 
2958.803744  	0.050400 
2960.732560  	0.050155 
2962.661376  	0.050004 
2964.590192  	0.049614 
2966.519008  	0.049051 
2968.447824  	0.048622 
2970.376640  	0.048301 
2972.305456  	0.047931 
2974.234272  	0.047917 
2976.163088  	0.047971 
2978.091904  	0.047830 
2980.020720  	0.047578 
2981.949536  	0.047431 
2983.878352  	0.047299 
2985.807168  	0.047233 
2987.735984  	0.047264 
2989.664800  	0.047449 
2991.593616  	0.048083 
2993.522432  	0.048543 
2995.451248  	0.048711 
2997.380064  	0.049090 
2999.308880  	0.049703 
3001.237696  	0.050371 
3003.166512  	0.051075 
3005.095328  	0.051623 
3007.024144  	0.052169 
3008.952960  	0.053123 
3010.881776  	0.054041 
3012.810592  	0.054819 
3014.739408  	0.055555 
3016.668224  	0.056225 
3018.597040  	0.056916 
3020.525856  	0.057640 
3022.454672  	0.058326 
3024.383488  	0.059115 
3026.312304  	0.060095 
3028.241120  	0.060957 
3030.169936  	0.061920 
3032.098752  	0.062783 
3034.027568  	0.063335 
3035.956384  	0.063932 
3037.885200  	0.064759 
3039.814016  	0.065753 
3041.742832  	0.066515 
3043.671648  	0.067335 
3045.600464  	0.068292 
3047.529280  	0.069186 
3049.458096  	0.070107 
3051.386912  	0.070868 
3053.315728  	0.071904 
3055.244544  	0.073151 
3057.173360  	0.074176 
3059.102176  	0.075039 
3061.030992  	0.076081 
3062.959808  	0.077427 
3064.888624  	0.078836 
3066.817440  	0.080089 
3068.746256  	0.081228 
3070.675072  	0.082298 
3072.603888  	0.083551 
3074.532704  	0.084874 
3076.461520  	0.086178 
3078.390336  	0.087474 
3080.319152  	0.088706 
3082.247968  	0.089596 
3084.176784  	0.090560 
3086.105600  	0.091787 
3088.034416  	0.093202 
3089.963232  	0.094313 
3091.892048  	0.095544 
3093.820864  	0.096828 
3095.749680  	0.098294 
3097.678496  	0.099665 
3099.607312  	0.100898 
3101.536128  	0.102221 
3103.464944  	0.103361 
3105.393760  	0.104431 
3107.322576  	0.105626 
3109.251392  	0.106884 
3111.180208  	0.107967 
3113.109024  	0.108692 
3115.037840  	0.109813 
3116.966656  	0.111294 
3118.895472  	0.112345 
3120.824288  	0.113201 
3122.753104  	0.114166 
3124.681920  	0.114976 
3126.610736  	0.115764 
3128.539552  	0.116624 
3130.468368  	0.117443 
3132.397184  	0.118476 
3134.326000  	0.119488 
3136.254816  	0.120288 
3138.183632  	0.121111 
3140.112448  	0.121938 
3142.041264  	0.122890 
3143.970080  	0.123710 
3145.898896  	0.124640 
3147.827712  	0.125673 
3149.756528  	0.126688 
3151.685344  	0.127658 
3153.614160  	0.128660 
3155.542976  	0.129541 
3157.471792  	0.130398 
3159.400608  	0.131395 
3161.329424  	0.132249 
3163.258240  	0.132915 
3165.187056  	0.133713 
3167.115872  	0.134573 
3169.044688  	0.135519 
3170.973504  	0.136290 
3172.902320  	0.136883 
3174.831136  	0.137350 
3176.759952  	0.137844 
3178.688768  	0.138432 
3180.617584  	0.138852 
3182.546400  	0.139170 
3184.475216  	0.139431 
3186.404032  	0.139682 
3188.332848  	0.139957 
3190.261664  	0.140089 
3192.190480  	0.140152 
3194.119296  	0.140310 
3196.048112  	0.140320 
3197.976928  	0.140572 
3199.905744  	0.140604 
3201.834560  	0.140415 
3203.763376  	0.140052 
3205.692192  	0.139721 
3207.621008  	0.139708 
3209.549824  	0.139743 
3211.478640  	0.139647 
3213.407456  	0.139433 
3215.336272  	0.139207 
3217.265088  	0.139081 
3219.193904  	0.139093 
3221.122720  	0.138791 
3223.051536  	0.138383 
3224.980352  	0.138226 
3226.909168  	0.138178 
3228.837984  	0.137877 
3230.766800  	0.137510 
3232.695616  	0.137565 
3234.624432  	0.137660 
3236.553248  	0.137645 
3238.482064  	0.137663 
3240.410880  	0.137631 
3242.339696  	0.137797 
3244.268512  	0.137989 
3246.197328  	0.137951 
3248.126144  	0.138056 
3250.054960  	0.138234 
3251.983776  	0.138414 
3253.912592  	0.138744 
3255.841408  	0.139023 
3257.770224  	0.139216 
3259.699040  	0.139537 
3261.627856  	0.139645 
3263.556672  	0.139641 
3265.485488  	0.139925 
3267.414304  	0.140105 
3269.343120  	0.140366 
3271.271936  	0.140744 
3273.200752  	0.141015 
3275.129568  	0.141112 
3277.058384  	0.141134 
3278.987200  	0.141123 
3280.916016  	0.141204 
3282.844832  	0.141387 
3284.773648  	0.141661 
3286.702464  	0.141891 
3288.631280  	0.142274 
3290.560096  	0.142501 
3292.488912  	0.142628 
3294.417728  	0.142751 
3296.346544  	0.143053 
3298.275360  	0.143401 
3300.204176  	0.143649 
3302.132992  	0.143772 
3304.061808  	0.144238 
3305.990624  	0.144736 
3307.919440  	0.145225 
3309.848256  	0.145440 
3311.777072  	0.145487 
3313.705888  	0.145761 
3315.634704  	0.146045 
3317.563520  	0.146246 
3319.492336  	0.146321 
3321.421152  	0.146649 
3323.349968  	0.147092 
3325.278784  	0.147186 
3327.207600  	0.147279 
3329.136416  	0.147088 
3331.065232  	0.146899 
3332.994048  	0.146900 
3334.922864  	0.147068 
3336.851680  	0.147156 
3338.780496  	0.146781 
3340.709312  	0.146051 
3342.638128  	0.145942 
3344.566944  	0.145869 
3346.495760  	0.145302 
3348.424576  	0.144904 
3350.353392  	0.144678 
3352.282208  	0.144249 
3354.211024  	0.144027 
3356.139840  	0.143687 
3358.068656  	0.142968 
3359.997472  	0.142565 
3361.926288  	0.142224 
3363.855104  	0.141614 
3365.783920  	0.141260 
3367.712736  	0.140781 
3369.641552  	0.140003 
3371.570368  	0.139277 
3373.499184  	0.138824 
3375.428000  	0.138412 
3377.356816  	0.137886 
3379.285632  	0.137469 
3381.214448  	0.136997 
3383.143264  	0.136693 
3385.072080  	0.136288 
3387.000896  	0.135184 
3388.929712  	0.134400 
3390.858528  	0.134025 
3392.787344  	0.133926 
3394.716160  	0.133312 
3396.644976  	0.132852 
3398.573792  	0.131966 
3400.502608  	0.130815 
3402.431424  	0.129771 
3404.360240  	0.128856 
3406.289056  	0.128198 
3408.217872  	0.127549 
3410.146688  	0.126433 
3412.075504  	0.125627 
3414.004320  	0.125279 
3415.933136  	0.124674 
3417.861952  	0.124124 
3419.790768  	0.123960 
3421.719584  	0.123234 
3423.648400  	0.121765 
3425.577216  	0.120364 
3427.506032  	0.119460 
3429.434848  	0.118679 
3431.363664  	0.117999 
3433.292480  	0.117025 
3435.221296  	0.115950 
3437.150112  	0.114874 
3439.078928  	0.113993 
3441.007744  	0.113423 
3442.936560  	0.112976 
3444.865376  	0.111974 
3446.794192  	0.111697 
3448.723008  	0.110336 
3450.651824  	0.108398 
3452.580640  	0.107195 
3454.509456  	0.106104 
3456.438272  	0.105052 
3458.367088  	0.104290 
3460.295904  	0.103573 
3462.224720  	0.102520 
3464.153536  	0.100993 
3466.082352  	0.099810 
3468.011168  	0.098599 
3469.939984  	0.097252 
3471.868800  	0.095846 
3473.797616  	0.094577 
3475.726432  	0.093461 
3477.655248  	0.092229 
3479.584064  	0.091620 
3481.512880  	0.091203 
3483.441696  	0.089594 
3485.370512  	0.087888 
3487.299328  	0.086857 
3489.228144  	0.085257 
3491.156960  	0.083404 
3493.085776  	0.082383 
3495.014592  	0.081668 
3496.943408  	0.080640 
3498.872224  	0.079391 
3500.801040  	0.079520 
3502.729856  	0.079772 
3504.658672  	0.077814 
3506.587488  	0.075507 
3508.516304  	0.075036 
3510.445120  	0.074118 
3512.373936  	0.071912 
3514.302752  	0.070185 
3516.231568  	0.069285 
3518.160384  	0.068626 
3520.089200  	0.067801 
3522.018016  	0.067858 
3523.946832  	0.068471 
3525.875648  	0.067302 
3527.804464  	0.065819 
3529.733280  	0.063871 
3531.662096  	0.061616 
3533.590912  	0.060072 
3535.519728  	0.060059 
3537.448544  	0.059084 
3539.377360  	0.056865 
3541.306176  	0.056012 
3543.234992  	0.056948 
3545.163808  	0.058400 
3547.092624  	0.056916 
3549.021440  	0.053377 
3550.950256  	0.052174 
3552.879072  	0.052009 
3554.807888  	0.049589 
3556.736704  	0.047572 
3558.665520  	0.047557 
3560.594336  	0.047728 
3562.523152  	0.047105 
3564.451968  	0.048579 
3566.380784  	0.052236 
3568.309600  	0.049268 
3570.238416  	0.042985 
3572.167232  	0.039995 
3574.096048  	0.039096 
3576.024864  	0.038280 
3577.953680  	0.037056 
3579.882496  	0.036153 
3581.811312  	0.034892 
3583.740128  	0.034511 
3585.668944  	0.036607 
3587.597760  	0.038405 
3589.526576  	0.033634 
3591.455392  	0.030126 
3593.384208  	0.030397 
3595.313024  	0.030193 
3597.241840  	0.028022 
3599.170656  	0.026517 
3601.099472  	0.025250 
3603.028288  	0.022867 
3604.957104  	0.021720 
3606.885920  	0.023328 
3608.814736  	0.023808 
3610.743552  	0.021714 
3612.672368  	0.021554 
3614.601184  	0.020688 
3616.530000  	0.018734 
3618.458816  	0.018579 
3620.387632  	0.016286 
3622.316448  	0.012180 
3624.245264  	0.010237 
3626.174080  	0.011034 
3628.102896  	0.013758 
3630.031712  	0.012814 
3631.960528  	0.008195 
3633.889344  	0.006017 
3635.818160  	0.003787 
3637.746976  	0.002138 
3639.675792  	0.001262 
3641.604608  	0.000771 
3643.533424  	0.000211 
3645.462240  	0.001026 
3647.391056  	0.005707 
3649.319872  	0.007448 
3651.248688  	0.001961 
3653.177504  	-0.003723 
3655.106320  	-0.005189 
3657.035136  	-0.005652 
3658.963952  	-0.007732 
3660.892768  	-0.009252 
3662.821584  	-0.010566 
3664.750400  	-0.011112 
3666.679216  	-0.010450 
3668.608032  	-0.007975 
3670.536848  	-0.006245 
3672.465664  	-0.008513 
3674.394480  	-0.007586 
3676.323296  	-0.006769 
3678.252112  	-0.010190 
3680.180928  	-0.012587 
3682.109744  	-0.014420 
3684.038560  	-0.014978 
3685.967376  	-0.014612 
3687.896192  	-0.012327 
3689.825008  	-0.010100 
3691.753824  	-0.012211 
3693.682640  	-0.014860 
3695.611456  	-0.016154 
3697.540272  	-0.016576 
3699.469088  	-0.016663 
3701.397904  	-0.015653 
3703.326720  	-0.015886 
3705.255536  	-0.016402 
3707.184352  	-0.015718 
3709.113168  	-0.013660 
3711.041984  	-0.010839 
3712.970800  	-0.012024 
3714.899616  	-0.014832 
3716.828432  	-0.016225 
3718.757248  	-0.015712 
3720.686064  	-0.014831 
3722.614880  	-0.013513 
3724.543696  	-0.012800 
3726.472512  	-0.012396 
3728.401328  	-0.014482 
3730.330144  	-0.016019 
3732.258960  	-0.013945 
3734.187776  	-0.008947 
3736.116592  	-0.006843 
3738.045408  	-0.011248 
3739.974224  	-0.012921 
3741.903040  	-0.012875 
3743.831856  	-0.012113 
3745.760672  	-0.010870 
3747.689488  	-0.011692 
3749.618304  	-0.010049 
3751.547120  	-0.008595 
3753.475936  	-0.011992 
3755.404752  	-0.014515 
3757.333568  	-0.014385 
3759.262384  	-0.013880 
3761.191200  	-0.015758 
3763.120016  	-0.016997 
3765.048832  	-0.015975 
3766.977648  	-0.015700 
3768.906464  	-0.015679 
3770.835280  	-0.015717 
3772.764096  	-0.017500 
3774.692912  	-0.018348 
3776.621728  	-0.017943 
3778.550544  	-0.016537 
3780.479360  	-0.016249 
3782.408176  	-0.017340 
3784.336992  	-0.017024 
3786.265808  	-0.017208 
3788.194624  	-0.018213 
3790.123440  	-0.018389 
3792.052256  	-0.018504 
3793.981072  	-0.018465 
3795.909888  	-0.016600 
3797.838704  	-0.014761 
3799.767520  	-0.014457 
3801.696336  	-0.012649 
3803.625152  	-0.014637 
3805.553968  	-0.016379 
3807.482784  	-0.016105 
3809.411600  	-0.017483 
3811.340416  	-0.018311 
3813.269232  	-0.017804 
3815.198048  	-0.015558 
3817.126864  	-0.013907 
3819.055680  	-0.014005 
3820.984496  	-0.012461 
3822.913312  	-0.014162 
3824.842128  	-0.016015 
3826.770944  	-0.015929 
3828.699760  	-0.016461 
3830.628576  	-0.016554 
3832.557392  	-0.016002 
3834.486208  	-0.015830 
3836.415024  	-0.014613 
3838.343840  	-0.012267 
3840.272656  	-0.011601 
3842.201472  	-0.013761 
3844.130288  	-0.015240 
3846.059104  	-0.017068 
3847.987920  	-0.017573 
3849.916736  	-0.015785 
3851.845552  	-0.012475 
3853.774368  	-0.009383 
3855.703184  	-0.011998 
3857.632000  	-0.014701 
3859.560816  	-0.016550 
3861.489632  	-0.015605 
3863.418448  	-0.013471 
3865.347264  	-0.012982 
3867.276080  	-0.014827 
3869.204896  	-0.013136 
3871.133712  	-0.011861 
3873.062528  	-0.014064 
3874.991344  	-0.015354 
3876.920160  	-0.017590 
3878.848976  	-0.016684 
3880.777792  	-0.013511 
3882.706608  	-0.013851 
3884.635424  	-0.014325 
3886.564240  	-0.015208 
3888.493056  	-0.017628 
3890.421872  	-0.016629 
3892.350688  	-0.015045 
3894.279504  	-0.016526 
3896.208320  	-0.017439 
3898.137136  	-0.015646 
3900.065952  	-0.012770 
3901.994768  	-0.011652 
3903.923584  	-0.011481 
3905.852400  	-0.013904 
3907.781216  	-0.017698 
3909.710032  	-0.019550 
3911.638848  	-0.019777 
3913.567664  	-0.019213 
3915.496480  	-0.017129 
3917.425296  	-0.015174 
3919.354112  	-0.015881 
3921.282928  	-0.016793 
3923.211744  	-0.016078 
3925.140560  	-0.015419 
3927.069376  	-0.017223 
3928.998192  	-0.017109 
3930.927008  	-0.015434 
3932.855824  	-0.015279 
3934.784640  	-0.017391 
3936.713456  	-0.018523 
3938.642272  	-0.018610 
3940.571088  	-0.018126 
3942.499904  	-0.016062 
3944.428720  	-0.016580 
3946.357536  	-0.017554 
3948.286352  	-0.016072 
3950.215168  	-0.016645 
3952.143984  	-0.018523 
3954.072800  	-0.019104 
3956.001616  	-0.018696 
3957.930432  	-0.018409 
3959.859248  	-0.018298 
3961.788064  	-0.017950 
3963.716880  	-0.018514 
3965.645696  	-0.019377 
3967.574512  	-0.019423 
3969.503328  	-0.019212 
3971.432144  	-0.018902 
3973.360960  	-0.018458 
3975.289776  	-0.017996 
3977.218592  	-0.018497 
3979.147408  	-0.019194 
3981.076224  	-0.019261 
3983.005040  	-0.019368 
3984.933856  	-0.019350 
3986.862672  	-0.019203 
3988.791488  	-0.018955 
3990.720304  	-0.018593 
3992.649120  	-0.018900 
3994.577936  	-0.019112 
3996.506752  	-0.019348 
3998.435568  	-0.019606 
4000.364384  	-0.019479 