##TITLE=No Description
##DATA TYPE=INFRARED SPECTRUM
##XUNITS=1/CM
##YUNITS=Abs
399.264912  	0.652561 
401.193728  	0.623437 
403.122544  	0.610710 
405.051360  	0.606579 
406.980176  	0.600326 
408.908992  	0.579690 
410.837808  	0.590456 
412.766624  	0.593266 
414.695440  	0.592192 
416.624256  	0.594127 
418.553072  	0.606824 
420.481888  	0.582712 
422.410704  	0.579086 
424.339520  	0.567560 
426.268336  	0.565227 
428.197152  	0.569687 
430.125968  	0.572244 
432.054784  	0.562169 
433.983600  	0.556990 
435.912416  	0.556751 
437.841232  	0.554946 
439.770048  	0.552590 
441.698864  	0.558777 
443.627680  	0.553250 
445.556496  	0.551976 
447.485312  	0.553644 
449.414128  	0.557077 
451.342944  	0.557336 
453.271760  	0.554049 
455.200576  	0.549372 
457.129392  	0.552722 
459.058208  	0.549653 
460.987024  	0.545415 
462.915840  	0.540422 
464.844656  	0.542821 
466.773472  	0.548015 
468.702288  	0.550280 
470.631104  	0.546790 
472.559920  	0.550474 
474.488736  	0.549209 
476.417552  	0.545324 
478.346368  	0.540385 
480.275184  	0.540345 
482.204000  	0.541254 
484.132816  	0.544778 
486.061632  	0.541051 
487.990448  	0.540383 
489.919264  	0.540028 
491.848080  	0.538644 
493.776896  	0.531821 
495.705712  	0.532302 
497.634528  	0.530141 
499.563344  	0.528978 
501.492160  	0.529620 
503.420976  	0.529687 
505.349792  	0.529231 
507.278608  	0.530232 
509.207424  	0.527995 
511.136240  	0.527340 
513.065056  	0.528534 
514.993872  	0.533213 
516.922688  	0.537404 
518.851504  	0.541438 
520.780320  	0.536419 
522.709136  	0.534687 
524.637952  	0.535554 
526.566768  	0.535129 
528.495584  	0.530021 
530.424400  	0.526998 
532.353216  	0.520668 
534.282032  	0.517144 
536.210848  	0.514423 
538.139664  	0.508533 
540.068480  	0.501691 
541.997296  	0.496197 
543.926112  	0.492542 
545.854928  	0.491751 
547.783744  	0.489117 
549.712560  	0.487147 
551.641376  	0.483433 
553.570192  	0.479878 
555.499008  	0.476354 
557.427824  	0.473127 
559.356640  	0.469919 
561.285456  	0.467893 
563.214272  	0.463858 
565.143088  	0.460481 
567.071904  	0.456745 
569.000720  	0.453886 
570.929536  	0.449966 
572.858352  	0.446475 
574.787168  	0.443715 
576.715984  	0.441546 
578.644800  	0.436734 
580.573616  	0.432165 
582.502432  	0.426067 
584.431248  	0.422241 
586.360064  	0.417977 
588.288880  	0.415327 
590.217696  	0.413391 
592.146512  	0.412129 
594.075328  	0.409620 
596.004144  	0.407888 
597.932960  	0.405800 
599.861776  	0.404581 
601.790592  	0.403002 
603.719408  	0.401274 
605.648224  	0.399790 
607.577040  	0.399578 
609.505856  	0.398360 
611.434672  	0.396261 
613.363488  	0.393777 
615.292304  	0.393380 
617.221120  	0.392163 
619.149936  	0.390366 
621.078752  	0.388575 
623.007568  	0.387683 
624.936384  	0.386657 
626.865200  	0.385267 
628.794016  	0.384240 
630.722832  	0.384258 
632.651648  	0.384278 
634.580464  	0.384153 
636.509280  	0.383691 
638.438096  	0.383914 
640.366912  	0.383485 
642.295728  	0.381936 
644.224544  	0.379478 
646.153360  	0.376256 
648.082176  	0.372125 
650.010992  	0.368467 
651.939808  	0.364584 
653.868624  	0.360412 
655.797440  	0.356543 
657.726256  	0.353589 
659.655072  	0.349222 
661.583888  	0.343673 
663.512704  	0.339067 
665.441520  	0.335506 
667.370336  	0.330492 
669.299152  	0.323908 
671.227968  	0.320283 
673.156784  	0.316510 
675.085600  	0.312986 
677.014416  	0.310332 
678.943232  	0.307813 
680.872048  	0.306227 
682.800864  	0.304597 
684.729680  	0.302591 
686.658496  	0.301312 
688.587312  	0.300342 
690.516128  	0.299366 
692.444944  	0.298683 
694.373760  	0.297630 
696.302576  	0.296045 
698.231392  	0.293496 
700.160208  	0.290941 
702.089024  	0.288539 
704.017840  	0.286156 
705.946656  	0.283397 
707.875472  	0.280892 
709.804288  	0.278494 
711.733104  	0.276170 
713.661920  	0.274246 
715.590736  	0.273047 
717.519552  	0.272668 
719.448368  	0.273330 
721.377184  	0.274098 
723.306000  	0.274619 
725.234816  	0.274769 
727.163632  	0.273408 
729.092448  	0.270314 
731.021264  	0.266243 
732.950080  	0.262093 
734.878896  	0.258026 
736.807712  	0.254785 
738.736528  	0.252182 
740.665344  	0.250210 
742.594160  	0.248574 
744.522976  	0.247072 
746.451792  	0.245606 
748.380608  	0.243833 
750.309424  	0.242219 
752.238240  	0.241122 
754.167056  	0.240680 
756.095872  	0.239878 
758.024688  	0.238720 
759.953504  	0.238299 
761.882320  	0.239690 
763.811136  	0.240480 
765.739952  	0.238188 
767.668768  	0.234238 
769.597584  	0.230866 
771.526400  	0.229781 
773.455216  	0.231758 
775.384032  	0.236501 
777.312848  	0.242626 
779.241664  	0.246517 
781.170480  	0.244577 
783.099296  	0.238487 
785.028112  	0.231411 
786.956928  	0.224932 
788.885744  	0.219751 
790.814560  	0.215976 
792.743376  	0.213873 
794.672192  	0.213038 
796.601008  	0.211702 
798.529824  	0.207794 
800.458640  	0.202921 
802.387456  	0.199448 
804.316272  	0.197555 
806.245088  	0.196332 
808.173904  	0.195281 
810.102720  	0.194400 
812.031536  	0.194356 
813.960352  	0.194533 
815.889168  	0.194918 
817.817984  	0.195889 
819.746800  	0.197252 
821.675616  	0.198556 
823.604432  	0.199353 
825.533248  	0.200151 
827.462064  	0.200644 
829.390880  	0.200446 
831.319696  	0.199694 
833.248512  	0.198707 
835.177328  	0.196788 
837.106144  	0.193674 
839.034960  	0.190050 
840.963776  	0.185457 
842.892592  	0.180571 
844.821408  	0.175863 
846.750224  	0.171702 
848.679040  	0.168199 
850.607856  	0.165427 
852.536672  	0.163504 
854.465488  	0.162128 
856.394304  	0.161117 
858.323120  	0.159692 
860.251936  	0.158040 
862.180752  	0.156406 
864.109568  	0.154445 
866.038384  	0.151965 
867.967200  	0.149439 
869.896016  	0.147607 
871.824832  	0.146699 
873.753648  	0.146657 
875.682464  	0.147627 
877.611280  	0.149350 
879.540096  	0.151973 
881.468912  	0.155096 
883.397728  	0.158150 
885.326544  	0.160799 
887.255360  	0.162648 
889.184176  	0.163341 
891.112992  	0.162910 
893.041808  	0.161413 
894.970624  	0.158331 
896.899440  	0.153555 
898.828256  	0.147782 
900.757072  	0.142270 
902.685888  	0.137616 
904.614704  	0.134449 
906.543520  	0.133666 
908.472336  	0.135183 
910.401152  	0.138029 
912.329968  	0.141100 
914.258784  	0.144349 
916.187600  	0.147499 
918.116416  	0.150291 
920.045232  	0.152195 
921.974048  	0.153683 
923.902864  	0.155045 
925.831680  	0.156489 
927.760496  	0.158262 
929.689312  	0.160034 
931.618128  	0.161961 
933.546944  	0.163411 
935.475760  	0.164250 
937.404576  	0.164256 
939.333392  	0.163345 
941.262208  	0.162698 
943.191024  	0.163491 
945.119840  	0.166763 
947.048656  	0.172834 
948.977472  	0.182341 
950.906288  	0.194748 
952.835104  	0.210188 
954.763920  	0.227851 
956.692736  	0.246006 
958.621552  	0.262822 
960.550368  	0.275837 
962.479184  	0.283971 
964.408000  	0.285746 
966.336816  	0.281009 
968.265632  	0.270234 
970.194448  	0.255219 
972.123264  	0.237078 
974.052080  	0.217859 
975.980896  	0.199080 
977.909712  	0.181712 
979.838528  	0.166410 
981.767344  	0.153725 
983.696160  	0.144245 
985.624976  	0.138205 
987.553792  	0.136094 
989.482608  	0.137772 
991.411424  	0.142744 
993.340240  	0.150363 
995.269056  	0.159411 
997.197872  	0.168762 
999.126688  	0.178208 
1001.055504  	0.188086 
1002.984320  	0.197921 
1004.913136  	0.207706 
1006.841952  	0.217270 
1008.770768  	0.226107 
1010.699584  	0.234013 
1012.628400  	0.240288 
1014.557216  	0.244453 
1016.486032  	0.247080 
1018.414848  	0.248342 
1020.343664  	0.249152 
1022.272480  	0.249459 
1024.201296  	0.249951 
1026.130112  	0.250194 
1028.058928  	0.251371 
1029.987744  	0.254295 
1031.916560  	0.258697 
1033.845376  	0.264232 
1035.774192  	0.271560 
1037.703008  	0.281159 
1039.631824  	0.294595 
1041.560640  	0.312251 
1043.489456  	0.334271 
1045.418272  	0.358613 
1047.347088  	0.381638 
1049.275904  	0.398026 
1051.204720  	0.405562 
1053.133536  	0.404936 
1055.062352  	0.400167 
1056.991168  	0.393398 
1058.919984  	0.388479 
1060.848800  	0.384696 
1062.777616  	0.382028 
1064.706432  	0.378937 
1066.635248  	0.374745 
1068.564064  	0.368371 
1070.492880  	0.360253 
1072.421696  	0.351754 
1074.350512  	0.346626 
1076.279328  	0.346260 
1078.208144  	0.351409 
1080.136960  	0.358091 
1082.065776  	0.361982 
1083.994592  	0.359741 
1085.923408  	0.351712 
1087.852224  	0.338337 
1089.781040  	0.322186 
1091.709856  	0.304264 
1093.638672  	0.285716 
1095.567488  	0.266255 
1097.496304  	0.247461 
1099.425120  	0.229451 
1101.353936  	0.212625 
1103.282752  	0.197359 
1105.211568  	0.183236 
1107.140384  	0.170254 
1109.069200  	0.158715 
1110.998016  	0.148667 
1112.926832  	0.139605 
1114.855648  	0.130914 
1116.784464  	0.122393 
1118.713280  	0.114488 
1120.642096  	0.107036 
1122.570912  	0.100052 
1124.499728  	0.093572 
1126.428544  	0.088055 
1128.357360  	0.083168 
1130.286176  	0.078960 
1132.214992  	0.075636 
1134.143808  	0.073491 
1136.072624  	0.071621 
1138.001440  	0.069850 
1139.930256  	0.068146 
1141.859072  	0.066790 
1143.787888  	0.065296 
1145.716704  	0.063981 
1147.645520  	0.062853 
1149.574336  	0.062471 
1151.503152  	0.062114 
1153.431968  	0.062134 
1155.360784  	0.062502 
1157.289600  	0.063590 
1159.218416  	0.064855 
1161.147232  	0.066575 
1163.076048  	0.068506 
1165.004864  	0.070640 
1166.933680  	0.072522 
1168.862496  	0.074633 
1170.791312  	0.077194 
1172.720128  	0.080539 
1174.648944  	0.083998 
1176.577760  	0.087567 
1178.506576  	0.091144 
1180.435392  	0.094931 
1182.364208  	0.098949 
1184.293024  	0.103622 
1186.221840  	0.108946 
1188.150656  	0.114773 
1190.079472  	0.121538 
1192.008288  	0.129645 
1193.937104  	0.138759 
1195.865920  	0.148832 
1197.794736  	0.159833 
1199.723552  	0.171822 
1201.652368  	0.183826 
1203.581184  	0.195134 
1205.510000  	0.205720 
1207.438816  	0.215134 
1209.367632  	0.223197 
1211.296448  	0.229915 
1213.225264  	0.234893 
1215.154080  	0.237659 
1217.082896  	0.238754 
1219.011712  	0.238259 
1220.940528  	0.236755 
1222.869344  	0.234290 
1224.798160  	0.230923 
1226.726976  	0.226172 
1228.655792  	0.220683 
1230.584608  	0.214703 
1232.513424  	0.208165 
1234.442240  	0.200847 
1236.371056  	0.193248 
1238.299872  	0.185335 
1240.228688  	0.176603 
1242.157504  	0.167748 
1244.086320  	0.159445 
1246.015136  	0.151188 
1247.943952  	0.143334 
1249.872768  	0.135713 
1251.801584  	0.128265 
1253.730400  	0.121291 
1255.659216  	0.114466 
1257.588032  	0.108119 
1259.516848  	0.102293 
1261.445664  	0.096551 
1263.374480  	0.091271 
1265.303296  	0.087039 
1267.232112  	0.083937 
1269.160928  	0.081980 
1271.089744  	0.080486 
1273.018560  	0.079593 
1274.947376  	0.079889 
1276.876192  	0.081129 
1278.805008  	0.082102 
1280.733824  	0.081994 
1282.662640  	0.080404 
1284.591456  	0.078430 
1286.520272  	0.077003 
1288.449088  	0.076346 
1290.377904  	0.076307 
1292.306720  	0.077749 
1294.235536  	0.079174 
1296.164352  	0.079365 
1298.093168  	0.077354 
1300.021984  	0.074389 
1301.950800  	0.071041 
1303.879616  	0.067596 
1305.808432  	0.063765 
1307.737248  	0.059814 
1309.666064  	0.055706 
1311.594880  	0.053373 
1313.523696  	0.051771 
1315.452512  	0.050329 
1317.381328  	0.050265 
1319.310144  	0.050421 
1321.238960  	0.049836 
1323.167776  	0.050168 
1325.096592  	0.051035 
1327.025408  	0.051541 
1328.954224  	0.051293 
1330.883040  	0.050340 
1332.811856  	0.048659 
1334.740672  	0.047978 
1336.669488  	0.049273 
1338.598304  	0.051909 
1340.527120  	0.050334 
1342.455936  	0.046037 
1344.384752  	0.044968 
1346.313568  	0.045598 
1348.242384  	0.046736 
1350.171200  	0.048080 
1352.100016  	0.049765 
1354.028832  	0.052370 
1355.957648  	0.054738 
1357.886464  	0.057095 
1359.815280  	0.060793 
1361.744096  	0.066449 
1363.672912  	0.068430 
1365.601728  	0.067856 
1367.530544  	0.070603 
1369.459360  	0.073239 
1371.388176  	0.074722 
1373.316992  	0.077198 
1375.245808  	0.075366 
1377.174624  	0.071093 
1379.103440  	0.067716 
1381.032256  	0.063871 
1382.961072  	0.060787 
1384.889888  	0.060160 
1386.818704  	0.060974 
1388.747520  	0.057094 
1390.676336  	0.053139 
1392.605152  	0.052357 
1394.533968  	0.053824 
1396.462784  	0.053982 
1398.391600  	0.053350 
1400.320416  	0.050691 
1402.249232  	0.049607 
1404.178048  	0.051834 
1406.106864  	0.052038 
1408.035680  	0.052137 
1409.964496  	0.054540 
1411.893312  	0.056990 
1413.822128  	0.059238 
1415.750944  	0.064400 
1417.679760  	0.070386 
1419.608576  	0.070090 
1421.537392  	0.066931 
1423.466208  	0.067184 
1425.395024  	0.063944 
1427.323840  	0.061020 
1429.252656  	0.059546 
1431.181472  	0.056909 
1433.110288  	0.055660 
1435.039104  	0.057921 
1436.967920  	0.059622 
1438.896736  	0.057942 
1440.825552  	0.058187 
1442.754368  	0.059134 
1444.683184  	0.059966 
1446.612000  	0.061980 
1448.540816  	0.062418 
1450.469632  	0.061972 
1452.398448  	0.063361 
1454.327264  	0.066533 
1456.256080  	0.072487 
1458.184896  	0.070376 
1460.113712  	0.063453 
1462.042528  	0.061184 
1463.971344  	0.062230 
1465.900160  	0.061663 
1467.828976  	0.060728 
1469.757792  	0.063478 
1471.686608  	0.071510 
1473.615424  	0.079297 
1475.544240  	0.081867 
1477.473056  	0.084691 
1479.401872  	0.087869 
1481.330688  	0.092821 
1483.259504  	0.095540 
1485.188320  	0.099359 
1487.117136  	0.104626 
1489.045952  	0.109401 
1490.974768  	0.104059 
1492.903584  	0.097134 
1494.832400  	0.094401 
1496.761216  	0.090181 
1498.690032  	0.081696 
1500.618848  	0.074011 
1502.547664  	0.068575 
1504.476480  	0.067740 
1506.405296  	0.074603 
1508.334112  	0.071581 
1510.262928  	0.063140 
1512.191744  	0.057905 
1514.120560  	0.057525 
1516.049376  	0.062341 
1517.978192  	0.063580 
1519.907008  	0.066250 
1521.835824  	0.072621 
1523.764640  	0.073670 
1525.693456  	0.077527 
1527.622272  	0.078337 
1529.551088  	0.076073 
1531.479904  	0.076024 
1533.408720  	0.075239 
1535.337536  	0.068647 
1537.266352  	0.067572 
1539.195168  	0.070503 
1541.123984  	0.068195 
1543.052800  	0.064593 
1544.981616  	0.060141 
1546.910432  	0.053797 
1548.839248  	0.054302 
1550.768064  	0.055032 
1552.696880  	0.054092 
1554.625696  	0.056899 
1556.554512  	0.059741 
1558.483328  	0.067498 
1560.412144  	0.062944 
1562.340960  	0.061435 
1564.269776  	0.064027 
1566.198592  	0.068279 
1568.127408  	0.073268 
1570.056224  	0.079993 
1571.985040  	0.082795 
1573.913856  	0.087560 
1575.842672  	0.092897 
1577.771488  	0.093935 
1579.700304  	0.091930 
1581.629120  	0.090807 
1583.557936  	0.090006 
1585.486752  	0.090848 
1587.415568  	0.093378 
1589.344384  	0.098651 
1591.273200  	0.105106 
1593.202016  	0.113337 
1595.130832  	0.121996 
1597.059648  	0.130509 
1598.988464  	0.138150 
1600.917280  	0.146210 
1602.846096  	0.152109 
1604.774912  	0.156005 
1606.703728  	0.158126 
1608.632544  	0.158793 
1610.561360  	0.156269 
1612.490176  	0.154560 
1614.418992  	0.154735 
1616.347808  	0.156449 
1618.276624  	0.155372 
1620.205440  	0.158334 
1622.134256  	0.163908 
1624.063072  	0.170824 
1625.991888  	0.176340 
1627.920704  	0.185095 
1629.849520  	0.193178 
1631.778336  	0.202539 
1633.707152  	0.212465 
1635.635968  	0.225686 
1637.564784  	0.232112 
1639.493600  	0.235847 
1641.422416  	0.239612 
1643.351232  	0.244595 
1645.280048  	0.249292 
1647.208864  	0.252326 
1649.137680  	0.248660 
1651.066496  	0.250346 
1652.995312  	0.249962 
1654.924128  	0.242145 
1656.852944  	0.237590 
1658.781760  	0.234185 
1660.710576  	0.231732 
1662.639392  	0.227354 
1664.568208  	0.219112 
1666.497024  	0.215825 
1668.425840  	0.212832 
1670.354656  	0.204162 
1672.283472  	0.196095 
1674.212288  	0.191838 
1676.141104  	0.183977 
1678.069920  	0.180507 
1679.998736  	0.180721 
1681.927552  	0.181420 
1683.856368  	0.181345 
1685.785184  	0.174093 
1687.714000  	0.172718 
1689.642816  	0.171520 
1691.571632  	0.168305 
1693.500448  	0.168595 
1695.429264  	0.170779 
1697.358080  	0.171795 
1699.286896  	0.170976 
1701.215712  	0.165794 
1703.144528  	0.163905 
1705.073344  	0.162355 
1707.002160  	0.155767 
1708.930976  	0.149863 
1710.859792  	0.143881 
1712.788608  	0.138784 
1714.717424  	0.133697 
1716.646240  	0.124599 
1718.575056  	0.104320 
1720.503872  	0.088717 
1722.432688  	0.078738 
1724.361504  	0.066408 
1726.290320  	0.055800 
1728.219136  	0.049344 
1730.147952  	0.045215 
1732.076768  	0.041609 
1734.005584  	0.037203 
1735.934400  	0.027305 
1737.863216  	0.025101 
1739.792032  	0.022295 
1741.720848  	0.020036 
1743.649664  	0.019843 
1745.578480  	0.018626 
1747.507296  	0.018717 
1749.436112  	0.019133 
1751.364928  	0.015380 
1753.293744  	0.010535 
1755.222560  	0.009485 
1757.151376  	0.010300 
1759.080192  	0.008858 
1761.009008  	0.009114 
1762.937824  	0.007208 
1764.866640  	0.005462 
1766.795456  	0.006555 
1768.724272  	0.008042 
1770.653088  	0.008338 
1772.581904  	0.008467 
1774.510720  	0.006051 
1776.439536  	0.004780 
1778.368352  	0.003920 
1780.297168  	0.004679 
1782.225984  	0.003282 
1784.154800  	0.003141 
1786.083616  	0.002045 
1788.012432  	0.001664 
1789.941248  	0.004066 
1791.870064  	0.006516 
1793.798880  	0.004015 
1795.727696  	0.003296 
1797.656512  	0.002253 
1799.585328  	0.002645 
1801.514144  	0.003102 
1803.442960  	0.001357 
1805.371776  	0.000063 
1807.300592  	0.000498 
1809.229408  	0.000860 
1811.158224  	0.001164 
1813.087040  	-0.000558 
1815.015856  	-0.001532 
1816.944672  	-0.001061 
1818.873488  	-0.001033 
1820.802304  	-0.001246 
1822.731120  	0.000035 
1824.659936  	0.000928 
1826.588752  	0.000566 
1828.517568  	0.001188 
1830.446384  	0.001473 
1832.375200  	-0.001016 
1834.304016  	-0.001476 
1836.232832  	-0.001367 
1838.161648  	-0.001062 
1840.090464  	-0.001572 
1842.019280  	0.000125 
1843.948096  	0.001710 
1845.876912  	0.000987 
1847.805728  	-0.000436 
1849.734544  	-0.001772 
1851.663360  	-0.002635 
1853.592176  	-0.002297 
1855.520992  	-0.002477 
1857.449808  	-0.002171 
1859.378624  	-0.002392 
1861.307440  	-0.002181 
1863.236256  	-0.002516 
1865.165072  	-0.001430 
1867.093888  	0.000947 
1869.022704  	0.002193 
1870.951520  	-0.000932 
1872.880336  	-0.002553 
1874.809152  	-0.003326 
1876.737968  	-0.003321 
1878.666784  	-0.003360 
1880.595600  	-0.003398 
1882.524416  	-0.003469 
1884.453232  	-0.002826 
1886.382048  	-0.003015 
1888.310864  	-0.001741 
1890.239680  	-0.001846 
1892.168496  	-0.002649 
1894.097312  	-0.002261 
1896.026128  	-0.002214 
1897.954944  	-0.003055 
1899.883760  	-0.003059 
1901.812576  	-0.003450 
1903.741392  	-0.003332 
1905.670208  	-0.003524 
1907.599024  	-0.002779 
1909.527840  	-0.002428 
1911.456656  	-0.002538 
1913.385472  	-0.002968 
1915.314288  	-0.002355 
1917.243104  	-0.001560 
1919.171920  	-0.001423 
1921.100736  	-0.001367 
1923.029552  	-0.000699 
1924.958368  	-0.003344 
1926.887184  	-0.003800 
1928.816000  	-0.004298 
1930.744816  	-0.003922 
1932.673632  	-0.003762 
1934.602448  	-0.003423 
1936.531264  	-0.003889 
1938.460080  	-0.003447 
1940.388896  	-0.002736 
1942.317712  	-0.000873 
1944.246528  	-0.002761 
1946.175344  	-0.003224 
1948.104160  	-0.003739 
1950.032976  	-0.003542 
1951.961792  	-0.004203 
1953.890608  	-0.003960 
1955.819424  	-0.004609 
1957.748240  	-0.005076 
1959.677056  	-0.005483 
1961.605872  	-0.004493 
1963.534688  	-0.004052 
1965.463504  	-0.002067 
1967.392320  	-0.002267 
1969.321136  	-0.003824 
1971.249952  	-0.006159 
1973.178768  	-0.005499 
1975.107584  	-0.004204 
1977.036400  	-0.003214 
1978.965216  	-0.003876 
1980.894032  	-0.003399 
1982.822848  	-0.004250 
1984.751664  	-0.003808 
1986.680480  	-0.003413 
1988.609296  	-0.001857 
1990.538112  	-0.001614 
1992.466928  	-0.000740 
1994.395744  	-0.002757 
1996.324560  	-0.003415 
1998.253376  	-0.003567 
2000.182192  	-0.004027 
2002.111008  	-0.004735 
2004.039824  	-0.003319 
2005.968640  	-0.004457 
2007.897456  	-0.004024 
2009.826272  	-0.003046 
2011.755088  	-0.001838 
2013.683904  	-0.003140 
2015.612720  	-0.001923 
2017.541536  	-0.001969 
2019.470352  	-0.002386 
2021.399168  	-0.003651 
2023.327984  	-0.002720 
2025.256800  	-0.002464 
2027.185616  	-0.000732 
2029.114432  	-0.001326 
2031.043248  	-0.001228 
2032.972064  	-0.001926 
2034.900880  	-0.001634 
2036.829696  	-0.001512 
2038.758512  	-0.000152 
2040.687328  	-0.000898 
2042.616144  	-0.000704 
2044.544960  	-0.001627 
2046.473776  	-0.001581 
2048.402592  	-0.001227 
2050.331408  	0.000030 
2052.260224  	0.000207 
2054.189040  	-0.000110 
2056.117856  	-0.001210 
2058.046672  	-0.000988 
2059.975488  	-0.000825 
2061.904304  	-0.000112 
2063.833120  	-0.000026 
2065.761936  	0.000440 
2067.690752  	-0.000348 
2069.619568  	-0.000824 
2071.548384  	-0.001438 
2073.477200  	-0.000813 
2075.406016  	-0.000245 
2077.334832  	0.000281 
2079.263648  	0.000415 
2081.192464  	0.000746 
2083.121280  	0.000022 
2085.050096  	-0.000328 
2086.978912  	-0.000581 
2088.907728  	0.000108 
2090.836544  	0.000599 
2092.765360  	0.000427 
2094.694176  	0.000204 
2096.622992  	0.000637 
2098.551808  	0.000226 
2100.480624  	0.000510 
2102.409440  	0.000743 
2104.338256  	0.001087 
2106.267072  	0.000835 
2108.195888  	0.000912 
2110.124704  	0.000717 
2112.053520  	0.001032 
2113.982336  	0.001260 
2115.911152  	0.001104 
2117.839968  	0.000250 
2119.768784  	-0.000076 
2121.697600  	-0.000229 
2123.626416  	-0.000047 
2125.555232  	-0.000147 
2127.484048  	0.000000 
2129.412864  	0.000010 
2131.341680  	0.000694 
2133.270496  	0.000791 
2135.199312  	0.000764 
2137.128128  	0.000768 
2139.056944  	0.001303 
2140.985760  	0.001347 
2142.914576  	0.002043 
2144.843392  	0.001321 
2146.772208  	0.001904 
2148.701024  	0.001828 
2150.629840  	0.001162 
2152.558656  	0.001142 
2154.487472  	0.002300 
2156.416288  	0.001952 
2158.345104  	0.003554 
2160.273920  	0.007077 
2162.202736  	0.006611 
2164.131552  	0.003806 
2166.060368  	0.004408 
2167.989184  	0.003438 
2169.918000  	0.002152 
2171.846816  	0.001776 
2173.775632  	0.002858 
2175.704448  	0.002124 
2177.633264  	0.002433 
2179.562080  	0.001666 
2181.490896  	0.001841 
2183.419712  	0.002411 
2185.348528  	0.002453 
2187.277344  	0.001674 
2189.206160  	0.001777 
2191.134976  	0.001668 
2193.063792  	0.001633 
2194.992608  	0.001351 
2196.921424  	0.001486 
2198.850240  	0.000144 
2200.779056  	-0.000550 
2202.707872  	-0.000564 
2204.636688  	0.000218 
2206.565504  	-0.000102 
2208.494320  	-0.000529 
2210.423136  	-0.000501 
2212.351952  	0.000654 
2214.280768  	0.000543 
2216.209584  	0.000126 
2218.138400  	-0.000746 
2220.067216  	-0.000696 
2221.996032  	-0.000966 
2223.924848  	-0.000616 
2225.853664  	-0.000677 
2227.782480  	-0.000420 
2229.711296  	-0.000615 
2231.640112  	-0.000455 
2233.568928  	-0.001360 
2235.497744  	-0.001511 
2237.426560  	-0.001358 
2239.355376  	-0.001146 
2241.284192  	-0.001567 
2243.213008  	-0.001530 
2245.141824  	-0.001678 
2247.070640  	-0.001368 
2248.999456  	-0.001332 
2250.928272  	-0.001142 
2252.857088  	-0.001170 
2254.785904  	-0.000859 
2256.714720  	-0.001183 
2258.643536  	-0.001197 
2260.572352  	-0.000605 
2262.501168  	-0.000262 
2264.429984  	-0.000644 
2266.358800  	-0.000772 
2268.287616  	-0.001126 
2270.216432  	-0.001015 
2272.145248  	-0.000754 
2274.074064  	-0.000564 
2276.002880  	-0.000568 
2277.931696  	-0.000072 
2279.860512  	-0.000246 
2281.789328  	-0.000102 
2283.718144  	0.000004 
2285.646960  	0.000553 
2287.575776  	0.000725 
2289.504592  	0.000695 
2291.433408  	0.000591 
2293.362224  	0.000775 
2295.291040  	0.000745 
2297.219856  	0.001257 
2299.148672  	0.001547 
2301.077488  	0.001860 
2303.006304  	0.002448 
2304.935120  	0.003087 
2306.863936  	0.003251 
2308.792752  	0.003553 
2310.721568  	0.003343 
2312.650384  	0.002635 
2314.579200  	0.001858 
2316.508016  	0.002081 
2318.436832  	0.002396 
2320.365648  	0.002294 
2322.294464  	0.001538 
2324.223280  	0.000173 
2326.152096  	-0.001743 
2328.080912  	-0.003169 
2330.009728  	-0.004075 
2331.938544  	-0.005026 
2333.867360  	-0.006296 
2335.796176  	-0.006870 
2337.724992  	-0.007684 
2339.653808  	-0.008076 
2341.582624  	-0.007785 
2343.511440  	-0.006484 
2345.440256  	-0.004385 
2347.369072  	-0.002109 
2349.297888  	-0.000959 
2351.226704  	-0.002164 
2353.155520  	-0.005218 
2355.084336  	-0.007465 
2357.013152  	-0.008791 
2358.941968  	-0.009380 
2360.870784  	-0.010208 
2362.799600  	-0.009684 
2364.728416  	-0.008425 
2366.657232  	-0.007167 
2368.586048  	-0.005888 
2370.514864  	-0.003870 
2372.443680  	-0.002171 
2374.372496  	-0.000431 
2376.301312  	0.000731 
2378.230128  	0.001516 
2380.158944  	0.001799 
2382.087760  	0.001560 
2384.016576  	0.000762 
2385.945392  	0.000034 
2387.874208  	-0.000443 
2389.803024  	-0.000771 
2391.731840  	-0.001081 
2393.660656  	-0.001116 
2395.589472  	-0.001027 
2397.518288  	-0.000959 
2399.447104  	-0.001130 
2401.375920  	-0.001150 
2403.304736  	-0.001400 
2405.233552  	-0.001256 
2407.162368  	-0.001001 
2409.091184  	-0.000998 
2411.020000  	-0.001207 
2412.948816  	-0.001361 
2414.877632  	-0.001314 
2416.806448  	-0.000845 
2418.735264  	-0.000735 
2420.664080  	-0.000748 
2422.592896  	-0.000773 
2424.521712  	-0.000609 
2426.450528  	-0.000556 
2428.379344  	-0.000281 
2430.308160  	-0.000223 
2432.236976  	-0.000252 
2434.165792  	-0.000080 
2436.094608  	0.000298 
2438.023424  	0.000270 
2439.952240  	0.000250 
2441.881056  	0.000334 
2443.809872  	0.000434 
2445.738688  	0.000364 
2447.667504  	0.000675 
2449.596320  	0.000964 
2451.525136  	0.001001 
2453.453952  	0.000874 
2455.382768  	0.000988 
2457.311584  	0.001165 
2459.240400  	0.001211 
2461.169216  	0.001101 
2463.098032  	0.001236 
2465.026848  	0.001209 
2466.955664  	0.001312 
2468.884480  	0.001322 
2470.813296  	0.001310 
2472.742112  	0.001435 
2474.670928  	0.001490 
2476.599744  	0.001600 
2478.528560  	0.002032 
2480.457376  	0.002371 
2482.386192  	0.002655 
2484.315008  	0.002507 
2486.243824  	0.002534 
2488.172640  	0.002763 
2490.101456  	0.003021 
2492.030272  	0.003190 
2493.959088  	0.003135 
2495.887904  	0.002894 
2497.816720  	0.003265 
2499.745536  	0.003644 
2501.674352  	0.003576 
2503.603168  	0.003542 
2505.531984  	0.003692 
2507.460800  	0.003581 
2509.389616  	0.003493 
2511.318432  	0.003632 
2513.247248  	0.003919 
2515.176064  	0.003871 
2517.104880  	0.003999 
2519.033696  	0.004127 
2520.962512  	0.004384 
2522.891328  	0.004569 
2524.820144  	0.004905 
2526.748960  	0.004705 
2528.677776  	0.004540 
2530.606592  	0.004630 
2532.535408  	0.005012 
2534.464224  	0.005113 
2536.393040  	0.005098 
2538.321856  	0.005300 
2540.250672  	0.005464 
2542.179488  	0.005595 
2544.108304  	0.005844 
2546.037120  	0.005765 
2547.965936  	0.005872 
2549.894752  	0.006140 
2551.823568  	0.006450 
2553.752384  	0.006541 
2555.681200  	0.006484 
2557.610016  	0.006592 
2559.538832  	0.006809 
2561.467648  	0.007094 
2563.396464  	0.007276 
2565.325280  	0.007195 
2567.254096  	0.007235 
2569.182912  	0.007336 
2571.111728  	0.007609 
2573.040544  	0.007856 
2574.969360  	0.008202 
2576.898176  	0.008327 
2578.826992  	0.008185 
2580.755808  	0.008147 
2582.684624  	0.008562 
2584.613440  	0.008792 
2586.542256  	0.008801 
2588.471072  	0.008719 
2590.399888  	0.008877 
2592.328704  	0.009120 
2594.257520  	0.009393 
2596.186336  	0.009294 
2598.115152  	0.009299 
2600.043968  	0.009662 
2601.972784  	0.009814 
2603.901600  	0.010091 
2605.830416  	0.010236 
2607.759232  	0.010256 
2609.688048  	0.010353 
2611.616864  	0.010510 
2613.545680  	0.010700 
2615.474496  	0.010862 
2617.403312  	0.011198 
2619.332128  	0.011350 
2621.260944  	0.011398 
2623.189760  	0.011540 
2625.118576  	0.011816 
2627.047392  	0.012000 
2628.976208  	0.012266 
2630.905024  	0.012376 
2632.833840  	0.012419 
2634.762656  	0.012594 
2636.691472  	0.012962 
2638.620288  	0.013155 
2640.549104  	0.013334 
2642.477920  	0.013587 
2644.406736  	0.013791 
2646.335552  	0.013924 
2648.264368  	0.014185 
2650.193184  	0.014511 
2652.122000  	0.014745 
2654.050816  	0.014941 
2655.979632  	0.015153 
2657.908448  	0.015419 
2659.837264  	0.015662 
2661.766080  	0.015816 
2663.694896  	0.015976 
2665.623712  	0.016119 
2667.552528  	0.016425 
2669.481344  	0.016623 
2671.410160  	0.016742 
2673.338976  	0.017037 
2675.267792  	0.017357 
2677.196608  	0.017565 
2679.125424  	0.017779 
2681.054240  	0.018025 
2682.983056  	0.018287 
2684.911872  	0.018452 
2686.840688  	0.018557 
2688.769504  	0.018625 
2690.698320  	0.018887 
2692.627136  	0.019133 
2694.555952  	0.019302 
2696.484768  	0.019467 
2698.413584  	0.019613 
2700.342400  	0.019741 
2702.271216  	0.020005 
2704.200032  	0.020243 
2706.128848  	0.020476 
2708.057664  	0.020666 
2709.986480  	0.020848 
2711.915296  	0.021087 
2713.844112  	0.021281 
2715.772928  	0.021517 
2717.701744  	0.021715 
2719.630560  	0.021956 
2721.559376  	0.022181 
2723.488192  	0.022335 
2725.417008  	0.022643 
2727.345824  	0.022942 
2729.274640  	0.023273 
2731.203456  	0.023452 
2733.132272  	0.023482 
2735.061088  	0.023695 
2736.989904  	0.023873 
2738.918720  	0.024086 
2740.847536  	0.024335 
2742.776352  	0.024563 
2744.705168  	0.024753 
2746.633984  	0.024923 
2748.562800  	0.025122 
2750.491616  	0.025233 
2752.420432  	0.025275 
2754.349248  	0.025330 
2756.278064  	0.025404 
2758.206880  	0.025436 
2760.135696  	0.025495 
2762.064512  	0.025510 
2763.993328  	0.025587 
2765.922144  	0.025625 
2767.850960  	0.025693 
2769.779776  	0.025680 
2771.708592  	0.025699 
2773.637408  	0.025689 
2775.566224  	0.025696 
2777.495040  	0.025779 
2779.423856  	0.025796 
2781.352672  	0.025854 
2783.281488  	0.025983 
2785.210304  	0.025944 
2787.139120  	0.025966 
2789.067936  	0.025936 
2790.996752  	0.025917 
2792.925568  	0.025957 
2794.854384  	0.025961 
2796.783200  	0.025918 
2798.712016  	0.025980 
2800.640832  	0.026113 
2802.569648  	0.026292 
2804.498464  	0.026353 
2806.427280  	0.026418 
2808.356096  	0.026563 
2810.284912  	0.026520 
2812.213728  	0.026338 
2814.142544  	0.026423 
2816.071360  	0.026501 
2818.000176  	0.026641 
2819.928992  	0.026746 
2821.857808  	0.026782 
2823.786624  	0.026816 
2825.715440  	0.026949 
2827.644256  	0.027067 
2829.573072  	0.027109 
2831.501888  	0.027116 
2833.430704  	0.027169 
2835.359520  	0.027200 
2837.288336  	0.027243 
2839.217152  	0.027289 
2841.145968  	0.027312 
2843.074784  	0.027501 
2845.003600  	0.027914 
2846.932416  	0.028302 
2848.861232  	0.028721 
2850.790048  	0.028941 
2852.718864  	0.028963 
2854.647680  	0.028782 
2856.576496  	0.028837 
2858.505312  	0.029007 
2860.434128  	0.029148 
2862.362944  	0.029258 
2864.291760  	0.029402 
2866.220576  	0.029609 
2868.149392  	0.029840 
2870.078208  	0.030143 
2872.007024  	0.030581 
2873.935840  	0.031090 
2875.864656  	0.031569 
2877.793472  	0.031908 
2879.722288  	0.032436 
2881.651104  	0.033097 
2883.579920  	0.033806 
2885.508736  	0.034354 
2887.437552  	0.034598 
2889.366368  	0.034688 
2891.295184  	0.034896 
2893.224000  	0.034978 
2895.152816  	0.035003 
2897.081632  	0.035053 
2899.010448  	0.034814 
2900.939264  	0.034589 
2902.868080  	0.034885 
2904.796896  	0.035298 
2906.725712  	0.035563 
2908.654528  	0.035992 
2910.583344  	0.036604 
2912.512160  	0.037235 
2914.440976  	0.038117 
2916.369792  	0.039018 
2918.298608  	0.039593 
2920.227424  	0.040112 
2922.156240  	0.040630 
2924.085056  	0.041232 
2926.013872  	0.041913 
2927.942688  	0.042741 
2929.871504  	0.043515 
2931.800320  	0.044089 
2933.729136  	0.044876 
2935.657952  	0.045749 
2937.586768  	0.046468 
2939.515584  	0.047100 
2941.444400  	0.047597 
2943.373216  	0.047953 
2945.302032  	0.048455 
2947.230848  	0.048758 
2949.159664  	0.048660 
2951.088480  	0.048500 
2953.017296  	0.048504 
2954.946112  	0.048352 
2956.874928  	0.048185 
2958.803744  	0.047913 
2960.732560  	0.047655 
2962.661376  	0.047458 
2964.590192  	0.047183 
2966.519008  	0.046700 
2968.447824  	0.046296 
2970.376640  	0.046013 
2972.305456  	0.045660 
2974.234272  	0.045636 
2976.163088  	0.045540 
2978.091904  	0.045324 
2980.020720  	0.045262 
2981.949536  	0.045179 
2983.878352  	0.044968 
2985.807168  	0.044727 
2987.735984  	0.044703 
2989.664800  	0.044884 
2991.593616  	0.045539 
2993.522432  	0.045968 
2995.451248  	0.046033 
2997.380064  	0.046435 
2999.308880  	0.047193 
3001.237696  	0.047928 
3003.166512  	0.048587 
3005.095328  	0.049080 
3007.024144  	0.049748 
3008.952960  	0.050695 
3010.881776  	0.051540 
3012.810592  	0.052303 
3014.739408  	0.052916 
3016.668224  	0.053434 
3018.597040  	0.054006 
3020.525856  	0.054751 
3022.454672  	0.055402 
3024.383488  	0.056278 
3026.312304  	0.057158 
3028.241120  	0.057830 
3030.169936  	0.058684 
3032.098752  	0.059631 
3034.027568  	0.060299 
3035.956384  	0.061011 
3037.885200  	0.061727 
3039.814016  	0.062648 
3041.742832  	0.063423 
3043.671648  	0.064064 
3045.600464  	0.064822 
3047.529280  	0.065682 
3049.458096  	0.066697 
3051.386912  	0.067568 
3053.315728  	0.068431 
3055.244544  	0.069522 
3057.173360  	0.070702 
3059.102176  	0.071597 
3061.030992  	0.072564 
3062.959808  	0.073792 
3064.888624  	0.074972 
3066.817440  	0.076098 
3068.746256  	0.077230 
3070.675072  	0.078413 
3072.603888  	0.079550 
3074.532704  	0.080759 
3076.461520  	0.081992 
3078.390336  	0.083173 
3080.319152  	0.084395 
3082.247968  	0.085471 
3084.176784  	0.086476 
3086.105600  	0.087692 
3088.034416  	0.088970 
3089.963232  	0.090019 
3091.892048  	0.090978 
3093.820864  	0.092178 
3095.749680  	0.093686 
3097.678496  	0.095083 
3099.607312  	0.096458 
3101.536128  	0.097750 
3103.464944  	0.098704 
3105.393760  	0.099684 
3107.322576  	0.100956 
3109.251392  	0.102354 
3111.180208  	0.103359 
3113.109024  	0.104270 
3115.037840  	0.105244 
3116.966656  	0.106362 
3118.895472  	0.107365 
3120.824288  	0.108339 
3122.753104  	0.109369 
3124.681920  	0.110119 
3126.610736  	0.110917 
3128.539552  	0.111673 
3130.468368  	0.112546 
3132.397184  	0.113621 
3134.326000  	0.114453 
3136.254816  	0.115249 
3138.183632  	0.116205 
3140.112448  	0.116976 
3142.041264  	0.117963 
3143.970080  	0.118821 
3145.898896  	0.119717 
3147.827712  	0.120612 
3149.756528  	0.121691 
3151.685344  	0.122780 
3153.614160  	0.123808 
3155.542976  	0.124613 
3157.471792  	0.125312 
3159.400608  	0.126129 
3161.329424  	0.127054 
3163.258240  	0.128009 
3165.187056  	0.128866 
3167.115872  	0.129511 
3169.044688  	0.130276 
3170.973504  	0.131153 
3172.902320  	0.131763 
3174.831136  	0.132117 
3176.759952  	0.132835 
3178.688768  	0.133611 
3180.617584  	0.134053 
3182.546400  	0.134437 
3184.475216  	0.134862 
3186.404032  	0.135086 
3188.332848  	0.135253 
3190.261664  	0.135314 
3192.190480  	0.135476 
3194.119296  	0.135556 
3196.048112  	0.135438 
3197.976928  	0.135532 
3199.905744  	0.135587 
3201.834560  	0.135529 
3203.763376  	0.135258 
3205.692192  	0.134931 
3207.621008  	0.134900 
3209.549824  	0.135019 
3211.478640  	0.134976 
3213.407456  	0.134636 
3215.336272  	0.134426 
3217.265088  	0.134354 
3219.193904  	0.134280 
3221.122720  	0.134031 
3223.051536  	0.133591 
3224.980352  	0.133247 
3226.909168  	0.133167 
3228.837984  	0.133030 
3230.766800  	0.132744 
3232.695616  	0.132777 
3234.624432  	0.132949 
3236.553248  	0.133019 
3238.482064  	0.132865 
3240.410880  	0.132683 
3242.339696  	0.132815 
3244.268512  	0.133183 
3246.197328  	0.133241 
3248.126144  	0.133298 
3250.054960  	0.133387 
3251.983776  	0.133682 
3253.912592  	0.134280 
3255.841408  	0.134663 
3257.770224  	0.134703 
3259.699040  	0.134856 
3261.627856  	0.134998 
3263.556672  	0.135015 
3265.485488  	0.135308 
3267.414304  	0.135581 
3269.343120  	0.135887 
3271.271936  	0.136232 
3273.200752  	0.136613 
3275.129568  	0.136600 
3277.058384  	0.136659 
3278.987200  	0.136699 
3280.916016  	0.136800 
3282.844832  	0.137119 
3284.773648  	0.137306 
3286.702464  	0.137445 
3288.631280  	0.137814 
3290.560096  	0.137920 
3292.488912  	0.138103 
3294.417728  	0.138286 
3296.346544  	0.138510 
3298.275360  	0.138846 
3300.204176  	0.139142 
3302.132992  	0.139278 
3304.061808  	0.139603 
3305.990624  	0.140051 
3307.919440  	0.140655 
3309.848256  	0.141017 
3311.777072  	0.141280 
3313.705888  	0.141359 
3315.634704  	0.141536 
3317.563520  	0.141828 
3319.492336  	0.142155 
3321.421152  	0.142304 
3323.349968  	0.142527 
3325.278784  	0.142920 
3327.207600  	0.142963 
3329.136416  	0.142630 
3331.065232  	0.142634 
3332.994048  	0.142784 
3334.922864  	0.143171 
3336.851680  	0.143018 
3338.780496  	0.142538 
3340.709312  	0.142165 
3342.638128  	0.141872 
3344.566944  	0.141469 
3346.495760  	0.141184 
3348.424576  	0.141034 
3350.353392  	0.140729 
3352.282208  	0.140184 
3354.211024  	0.139893 
3356.139840  	0.139508 
3358.068656  	0.138951 
3359.997472  	0.138479 
3361.926288  	0.137966 
3363.855104  	0.137517 
3365.783920  	0.137196 
3367.712736  	0.136701 
3369.641552  	0.136035 
3371.570368  	0.135274 
3373.499184  	0.134852 
3375.428000  	0.134572 
3377.356816  	0.134250 
3379.285632  	0.133771 
3381.214448  	0.133143 
3383.143264  	0.132808 
3385.072080  	0.132430 
3387.000896  	0.131452 
3388.929712  	0.130704 
3390.858528  	0.130483 
3392.787344  	0.130273 
3394.716160  	0.129467 
3396.644976  	0.128881 
3398.573792  	0.128144 
3400.502608  	0.127205 
3402.431424  	0.126251 
3404.360240  	0.125376 
3406.289056  	0.124565 
3408.217872  	0.123894 
3410.146688  	0.123130 
3412.075504  	0.122485 
3414.004320  	0.121800 
3415.933136  	0.121183 
3417.861952  	0.120606 
3419.790768  	0.120541 
3421.719584  	0.119760 
3423.648400  	0.118327 
3425.577216  	0.117279 
3427.506032  	0.116346 
3429.434848  	0.115444 
3431.363664  	0.114806 
3433.292480  	0.113758 
3435.221296  	0.112903 
3437.150112  	0.112089 
3439.078928  	0.111028 
3441.007744  	0.110326 
3442.936560  	0.109836 
3444.865376  	0.109131 
3446.794192  	0.108916 
3448.723008  	0.107307 
3450.651824  	0.105311 
3452.580640  	0.104029 
3454.509456  	0.103152 
3456.438272  	0.102309 
3458.367088  	0.101423 
3460.295904  	0.100607 
3462.224720  	0.099703 
3464.153536  	0.098167 
3466.082352  	0.096936 
3468.011168  	0.095890 
3469.939984  	0.094738 
3471.868800  	0.093578 
3473.797616  	0.092338 
3475.726432  	0.090848 
3477.655248  	0.089623 
3479.584064  	0.089096 
3481.512880  	0.088699 
3483.441696  	0.087283 
3485.370512  	0.085543 
3487.299328  	0.084335 
3489.228144  	0.082813 
3491.156960  	0.081169 
3493.085776  	0.080123 
3495.014592  	0.079355 
3496.943408  	0.078348 
3498.872224  	0.077257 
3500.801040  	0.077578 
3502.729856  	0.077691 
3504.658672  	0.075443 
3506.587488  	0.073206 
3508.516304  	0.073076 
3510.445120  	0.072157 
3512.373936  	0.069947 
3514.302752  	0.068473 
3516.231568  	0.067643 
3518.160384  	0.066736 
3520.089200  	0.065776 
3522.018016  	0.066078 
3523.946832  	0.066726 
3525.875648  	0.065757 
3527.804464  	0.064387 
3529.733280  	0.062191 
3531.662096  	0.059923 
3533.590912  	0.058592 
3535.519728  	0.058584 
3537.448544  	0.057396 
3539.377360  	0.055387 
3541.306176  	0.054572 
3543.234992  	0.055535 
3545.163808  	0.057063 
3547.092624  	0.055597 
3549.021440  	0.052211 
3550.950256  	0.051198 
3552.879072  	0.050687 
3554.807888  	0.048251 
3556.736704  	0.046263 
3558.665520  	0.046102 
3560.594336  	0.046273 
3562.523152  	0.045940 
3564.451968  	0.047894 
3566.380784  	0.051684 
3568.309600  	0.048040 
3570.238416  	0.041764 
3572.167232  	0.038939 
3574.096048  	0.037935 
3576.024864  	0.036994 
3577.953680  	0.036121 
3579.882496  	0.035231 
3581.811312  	0.033975 
3583.740128  	0.033928 
3585.668944  	0.036254 
3587.597760  	0.037936 
3589.526576  	0.032677 
3591.455392  	0.029357 
3593.384208  	0.029942 
3595.313024  	0.029695 
3597.241840  	0.027324 
3599.170656  	0.025764 
3601.099472  	0.024585 
3603.028288  	0.022298 
3604.957104  	0.021331 
3606.885920  	0.022990 
3608.814736  	0.023184 
3610.743552  	0.020945 
3612.672368  	0.021198 
3614.601184  	0.020290 
3616.530000  	0.018440 
3618.458816  	0.018261 
3620.387632  	0.015479 
3622.316448  	0.011658 
3624.245264  	0.010331 
3626.174080  	0.011483 
3628.102896  	0.014220 
3630.031712  	0.012319 
3631.960528  	0.007756 
3633.889344  	0.005510 
3635.818160  	0.003319 
3637.746976  	0.001921 
3639.675792  	0.001139 
3641.604608  	0.000890 
3643.533424  	0.000527 
3645.462240  	0.001830 
3647.391056  	0.006436 
3649.319872  	0.007451 
3651.248688  	0.001719 
3653.177504  	-0.003773 
3655.106320  	-0.004986 
3657.035136  	-0.005872 
3658.963952  	-0.007971 
3660.892768  	-0.009245 
3662.821584  	-0.010517 
3664.750400  	-0.011150 
3666.679216  	-0.010215 
3668.608032  	-0.007541 
3670.536848  	-0.006389 
3672.465664  	-0.008456 
3674.394480  	-0.006908 
3676.323296  	-0.006802 
3678.252112  	-0.010343 
3680.180928  	-0.012712 
3682.109744  	-0.014427 
3684.038560  	-0.014673 
3685.967376  	-0.013982 
3687.896192  	-0.011553 
3689.825008  	-0.009769 
3691.753824  	-0.012111 
3693.682640  	-0.014780 
3695.611456  	-0.015899 
3697.540272  	-0.016312 
3699.469088  	-0.016218 
3701.397904  	-0.014969 
3703.326720  	-0.015485 
3705.255536  	-0.016199 
3707.184352  	-0.015315 
3709.113168  	-0.013047 
3711.041984  	-0.010292 
3712.970800  	-0.011803 
3714.899616  	-0.014611 
3716.828432  	-0.015768 
3718.757248  	-0.015017 
3720.686064  	-0.014037 
3722.614880  	-0.012755 
3724.543696  	-0.012083 
3726.472512  	-0.012116 
3728.401328  	-0.014217 
3730.330144  	-0.015051 
3732.258960  	-0.012795 
3734.187776  	-0.007679 
3736.116592  	-0.005550 
3738.045408  	-0.010662 
3739.974224  	-0.012524 
3741.903040  	-0.012059 
3743.831856  	-0.010854 
3745.760672  	-0.010608 
3747.689488  	-0.011206 
3749.618304  	-0.009204 
3751.547120  	-0.008553 
3753.475936  	-0.012300 
3755.404752  	-0.014345 
3757.333568  	-0.014002 
3759.262384  	-0.013482 
3761.191200  	-0.015291 
3763.120016  	-0.016344 
3765.048832  	-0.015234 
3766.977648  	-0.015118 
3768.906464  	-0.015058 
3770.835280  	-0.015575 
3772.764096  	-0.017343 
3774.692912  	-0.018021 
3776.621728  	-0.017539 
3778.550544  	-0.016005 
3780.479360  	-0.016124 
3782.408176  	-0.017112 
3784.336992  	-0.016559 
3786.265808  	-0.016879 
3788.194624  	-0.017995 
3790.123440  	-0.018241 
3792.052256  	-0.018319 
3793.981072  	-0.017894 
3795.909888  	-0.015635 
3797.838704  	-0.014061 
3799.767520  	-0.013661 
3801.696336  	-0.012055 
3803.625152  	-0.014470 
3805.553968  	-0.015922 
3807.482784  	-0.016054 
3809.411600  	-0.017377 
3811.340416  	-0.017989 
3813.269232  	-0.017312 
3815.198048  	-0.015020 
3817.126864  	-0.013719 
3819.055680  	-0.013341 
3820.984496  	-0.011870 
3822.913312  	-0.014219 
3824.842128  	-0.015749 
3826.770944  	-0.015699 
3828.699760  	-0.016477 
3830.628576  	-0.016432 
3832.557392  	-0.015630 
3834.486208  	-0.015004 
3836.415024  	-0.013395 
3838.343840  	-0.011479 
3840.272656  	-0.011306 
3842.201472  	-0.013298 
3844.130288  	-0.014894 
3846.059104  	-0.016868 
3847.987920  	-0.016998 
3849.916736  	-0.014762 
3851.845552  	-0.011314 
3853.774368  	-0.009336 
3855.703184  	-0.012264 
3857.632000  	-0.014424 
3859.560816  	-0.016111 
3861.489632  	-0.015060 
3863.418448  	-0.012923 
3865.347264  	-0.012699 
3867.276080  	-0.014436 
3869.204896  	-0.012561 
3871.133712  	-0.011865 
3873.062528  	-0.013672 
3874.991344  	-0.015041 
3876.920160  	-0.017373 
3878.848976  	-0.016181 
3880.777792  	-0.013222 
3882.706608  	-0.013563 
3884.635424  	-0.013709 
3886.564240  	-0.015118 
3888.493056  	-0.017328 
3890.421872  	-0.015903 
3892.350688  	-0.014505 
3894.279504  	-0.016164 
3896.208320  	-0.016982 
3898.137136  	-0.014973 
3900.065952  	-0.012294 
3901.994768  	-0.011347 
3903.923584  	-0.011209 
3905.852400  	-0.013884 
3907.781216  	-0.017465 
3909.710032  	-0.019191 
3911.638848  	-0.019465 
3913.567664  	-0.018832 
3915.496480  	-0.016615 
3917.425296  	-0.014833 
3919.354112  	-0.015720 
3921.282928  	-0.016435 
3923.211744  	-0.015515 
3925.140560  	-0.015218 
3927.069376  	-0.017289 
3928.998192  	-0.016774 
3930.927008  	-0.014866 
3932.855824  	-0.014936 
3934.784640  	-0.017201 
3936.713456  	-0.018346 
3938.642272  	-0.018346 
3940.571088  	-0.017586 
3942.499904  	-0.015596 
3944.428720  	-0.016108 
3946.357536  	-0.016891 
3948.286352  	-0.015612 
3950.215168  	-0.016351 
3952.143984  	-0.018099 
3954.072800  	-0.018809 
3956.001616  	-0.018605 
3957.930432  	-0.018152 
3959.859248  	-0.017767 
3961.788064  	-0.017523 
3963.716880  	-0.018044 
3965.645696  	-0.018801 
3967.574512  	-0.018903 
3969.503328  	-0.018631 
3971.432144  	-0.018343 
3973.360960  	-0.017986 
3975.289776  	-0.017625 
3977.218592  	-0.018175 
3979.147408  	-0.018821 
3981.076224  	-0.018775 
3983.005040  	-0.018884 
3984.933856  	-0.018892 
3986.862672  	-0.018668 
3988.791488  	-0.018524 
3990.720304  	-0.018187 
3992.649120  	-0.018489 
3994.577936  	-0.018637 
3996.506752  	-0.018928 
3998.435568  	-0.019141 
4000.364384  	-0.018930 