##TITLE=No Description
##DATA TYPE=INFRARED SPECTRUM
##XUNITS=1/CM
##YUNITS=Abs
399.264912  	0.666552 
401.193728  	0.650999 
403.122544  	0.638749 
405.051360  	0.635537 
406.980176  	0.643561 
408.908992  	0.625229 
410.837808  	0.617982 
412.766624  	0.619846 
414.695440  	0.619683 
416.624256  	0.611510 
418.553072  	0.610745 
420.481888  	0.609340 
422.410704  	0.603492 
424.339520  	0.594480 
426.268336  	0.593482 
428.197152  	0.590963 
430.125968  	0.583969 
432.054784  	0.578698 
433.983600  	0.585952 
435.912416  	0.578664 
437.841232  	0.573567 
439.770048  	0.570402 
441.698864  	0.567022 
443.627680  	0.555725 
445.556496  	0.560714 
447.485312  	0.559443 
449.414128  	0.560037 
451.342944  	0.556435 
453.271760  	0.556618 
455.200576  	0.553239 
457.129392  	0.555178 
459.058208  	0.555105 
460.987024  	0.558019 
462.915840  	0.553003 
464.844656  	0.553526 
466.773472  	0.554073 
468.702288  	0.553523 
470.631104  	0.553716 
472.559920  	0.552774 
474.488736  	0.535720 
476.417552  	0.534345 
478.346368  	0.534066 
480.275184  	0.534440 
482.204000  	0.532345 
484.132816  	0.534008 
486.061632  	0.533762 
487.990448  	0.533148 
489.919264  	0.529071 
491.848080  	0.530996 
493.776896  	0.529515 
495.705712  	0.526625 
497.634528  	0.520932 
499.563344  	0.522292 
501.492160  	0.520877 
503.420976  	0.521129 
505.349792  	0.519021 
507.278608  	0.519654 
509.207424  	0.517706 
511.136240  	0.520057 
513.065056  	0.521544 
514.993872  	0.524172 
516.922688  	0.522451 
518.851504  	0.521835 
520.780320  	0.518886 
522.709136  	0.520027 
524.637952  	0.518129 
526.566768  	0.515685 
528.495584  	0.513033 
530.424400  	0.512799 
532.353216  	0.508025 
534.282032  	0.504361 
536.210848  	0.502323 
538.139664  	0.501057 
540.068480  	0.495390 
541.997296  	0.490392 
543.926112  	0.487193 
545.854928  	0.487043 
547.783744  	0.483501 
549.712560  	0.482316 
551.641376  	0.480015 
553.570192  	0.478659 
555.499008  	0.475943 
557.427824  	0.473466 
559.356640  	0.469904 
561.285456  	0.467451 
563.214272  	0.463703 
565.143088  	0.460464 
567.071904  	0.458016 
569.000720  	0.456321 
570.929536  	0.453109 
572.858352  	0.451171 
574.787168  	0.447532 
576.715984  	0.445803 
578.644800  	0.442635 
580.573616  	0.438801 
582.502432  	0.434797 
584.431248  	0.431766 
586.360064  	0.428378 
588.288880  	0.426773 
590.217696  	0.424327 
592.146512  	0.423430 
594.075328  	0.422390 
596.004144  	0.420422 
597.932960  	0.416515 
599.861776  	0.414307 
601.790592  	0.412809 
603.719408  	0.411822 
605.648224  	0.409891 
607.577040  	0.408159 
609.505856  	0.406021 
611.434672  	0.404135 
613.363488  	0.401858 
615.292304  	0.400858 
617.221120  	0.398196 
619.149936  	0.396318 
621.078752  	0.394414 
623.007568  	0.392754 
624.936384  	0.390667 
626.865200  	0.389486 
628.794016  	0.388217 
630.722832  	0.386755 
632.651648  	0.385145 
634.580464  	0.383902 
636.509280  	0.382697 
638.438096  	0.381953 
640.366912  	0.379987 
642.295728  	0.378499 
644.224544  	0.376458 
646.153360  	0.374167 
648.082176  	0.370808 
650.010992  	0.367144 
651.939808  	0.363086 
653.868624  	0.360344 
655.797440  	0.357403 
657.726256  	0.354466 
659.655072  	0.350563 
661.583888  	0.346915 
663.512704  	0.343082 
665.441520  	0.340471 
667.370336  	0.337576 
669.299152  	0.333571 
671.227968  	0.329355 
673.156784  	0.326149 
675.085600  	0.323187 
677.014416  	0.320576 
678.943232  	0.317998 
680.872048  	0.315913 
682.800864  	0.313614 
684.729680  	0.311834 
686.658496  	0.310024 
688.587312  	0.308170 
690.516128  	0.305625 
692.444944  	0.304033 
694.373760  	0.301960 
696.302576  	0.299751 
698.231392  	0.297279 
700.160208  	0.295064 
702.089024  	0.292270 
704.017840  	0.289565 
705.946656  	0.286849 
707.875472  	0.284661 
709.804288  	0.282643 
711.733104  	0.281119 
713.661920  	0.278925 
715.590736  	0.276762 
717.519552  	0.274817 
719.448368  	0.273978 
721.377184  	0.273244 
723.306000  	0.272490 
725.234816  	0.271169 
727.163632  	0.269516 
729.092448  	0.267214 
731.021264  	0.264252 
732.950080  	0.261169 
734.878896  	0.258566 
736.807712  	0.255606 
738.736528  	0.253271 
740.665344  	0.251299 
742.594160  	0.249833 
744.522976  	0.247863 
746.451792  	0.246110 
748.380608  	0.244153 
750.309424  	0.242555 
752.238240  	0.240809 
754.167056  	0.239416 
756.095872  	0.237871 
758.024688  	0.236058 
759.953504  	0.234540 
761.882320  	0.234362 
763.811136  	0.234009 
765.739952  	0.231953 
767.668768  	0.228546 
769.597584  	0.225562 
771.526400  	0.223676 
773.455216  	0.223319 
775.384032  	0.223791 
777.312848  	0.225478 
779.241664  	0.226510 
781.170480  	0.224973 
783.099296  	0.221198 
785.028112  	0.216898 
786.956928  	0.212050 
788.885744  	0.207656 
790.814560  	0.204365 
792.743376  	0.202422 
794.672192  	0.200883 
796.601008  	0.199246 
798.529824  	0.196242 
800.458640  	0.192628 
802.387456  	0.189474 
804.316272  	0.187198 
806.245088  	0.185658 
808.173904  	0.184086 
810.102720  	0.182595 
812.031536  	0.181489 
813.960352  	0.180311 
815.889168  	0.179400 
817.817984  	0.178273 
819.746800  	0.177478 
821.675616  	0.177116 
823.604432  	0.176613 
825.533248  	0.175750 
827.462064  	0.174931 
829.390880  	0.173498 
831.319696  	0.172116 
833.248512  	0.170730 
835.177328  	0.168843 
837.106144  	0.166397 
839.034960  	0.164064 
840.963776  	0.161319 
842.892592  	0.158315 
844.821408  	0.155219 
846.750224  	0.152296 
848.679040  	0.149693 
850.607856  	0.147750 
852.536672  	0.146171 
854.465488  	0.144860 
856.394304  	0.143804 
858.323120  	0.142063 
860.251936  	0.140328 
862.180752  	0.139041 
864.109568  	0.137141 
866.038384  	0.135091 
867.967200  	0.133502 
869.896016  	0.132266 
871.824832  	0.130954 
873.753648  	0.130258 
875.682464  	0.129885 
877.611280  	0.129996 
879.540096  	0.130745 
881.468912  	0.131647 
883.397728  	0.132532 
885.326544  	0.133320 
887.255360  	0.133481 
889.184176  	0.133334 
891.112992  	0.132743 
893.041808  	0.131592 
894.970624  	0.129899 
896.899440  	0.127191 
898.828256  	0.123680 
900.757072  	0.120308 
902.685888  	0.117349 
904.614704  	0.115186 
906.543520  	0.114025 
908.472336  	0.113994 
910.401152  	0.114582 
912.329968  	0.115537 
914.258784  	0.116410 
916.187600  	0.117462 
918.116416  	0.118166 
920.045232  	0.118374 
921.974048  	0.118358 
923.902864  	0.118378 
925.831680  	0.118300 
927.760496  	0.118089 
929.689312  	0.117994 
931.618128  	0.118160 
933.546944  	0.118049 
935.475760  	0.117634 
937.404576  	0.117037 
939.333392  	0.116008 
941.262208  	0.115044 
943.191024  	0.114841 
945.119840  	0.115426 
947.048656  	0.117094 
948.977472  	0.120263 
950.906288  	0.124481 
952.835104  	0.129875 
954.763920  	0.136519 
956.692736  	0.143355 
958.621552  	0.149938 
960.550368  	0.155218 
962.479184  	0.158845 
964.408000  	0.159977 
966.336816  	0.158531 
968.265632  	0.154158 
970.194448  	0.147627 
972.123264  	0.139194 
974.052080  	0.129786 
975.980896  	0.120348 
977.909712  	0.111381 
979.838528  	0.103333 
981.767344  	0.096588 
983.696160  	0.091332 
985.624976  	0.087863 
987.553792  	0.086328 
989.482608  	0.086289 
991.411424  	0.087900 
993.340240  	0.090904 
995.269056  	0.094588 
997.197872  	0.098715 
999.126688  	0.102955 
1001.055504  	0.107347 
1002.984320  	0.111382 
1004.913136  	0.115394 
1006.841952  	0.119493 
1008.770768  	0.123498 
1010.699584  	0.126853 
1012.628400  	0.129621 
1014.557216  	0.131856 
1016.486032  	0.133471 
1018.414848  	0.134369 
1020.343664  	0.134958 
1022.272480  	0.135429 
1024.201296  	0.135868 
1026.130112  	0.135978 
1028.058928  	0.136475 
1029.987744  	0.137769 
1031.916560  	0.139222 
1033.845376  	0.141009 
1035.774192  	0.143478 
1037.703008  	0.146772 
1039.631824  	0.151900 
1041.560640  	0.158713 
1043.489456  	0.167648 
1045.418272  	0.178640 
1047.347088  	0.190515 
1049.275904  	0.200947 
1051.204720  	0.208954 
1053.133536  	0.213808 
1055.062352  	0.216064 
1056.991168  	0.216251 
1058.919984  	0.216475 
1060.848800  	0.216713 
1062.777616  	0.217156 
1064.706432  	0.216915 
1066.635248  	0.216114 
1068.564064  	0.214732 
1070.492880  	0.212141 
1072.421696  	0.208547 
1074.350512  	0.205906 
1076.279328  	0.205457 
1078.208144  	0.208000 
1080.136960  	0.212260 
1082.065776  	0.216523 
1083.994592  	0.218313 
1085.923408  	0.217477 
1087.852224  	0.213523 
1089.781040  	0.207387 
1091.709856  	0.199378 
1093.638672  	0.190260 
1095.567488  	0.179992 
1097.496304  	0.169227 
1099.425120  	0.158522 
1101.353936  	0.148483 
1103.282752  	0.138713 
1105.211568  	0.129651 
1107.140384  	0.121424 
1109.069200  	0.113853 
1110.998016  	0.106968 
1112.926832  	0.100883 
1114.855648  	0.095320 
1116.784464  	0.089867 
1118.713280  	0.084491 
1120.642096  	0.079377 
1122.570912  	0.074753 
1124.499728  	0.070533 
1126.428544  	0.066862 
1128.357360  	0.063744 
1130.286176  	0.060939 
1132.214992  	0.058508 
1134.143808  	0.056631 
1136.072624  	0.054865 
1138.001440  	0.053264 
1139.930256  	0.052149 
1141.859072  	0.051030 
1143.787888  	0.049786 
1145.716704  	0.048857 
1147.645520  	0.048286 
1149.574336  	0.047945 
1151.503152  	0.047477 
1153.431968  	0.047196 
1155.360784  	0.047271 
1157.289600  	0.047592 
1159.218416  	0.047996 
1161.147232  	0.048455 
1163.076048  	0.049156 
1165.004864  	0.049831 
1166.933680  	0.050331 
1168.862496  	0.051023 
1170.791312  	0.052045 
1172.720128  	0.053297 
1174.648944  	0.054624 
1176.577760  	0.056039 
1178.506576  	0.057787 
1180.435392  	0.059698 
1182.364208  	0.061470 
1184.293024  	0.063441 
1186.221840  	0.065720 
1188.150656  	0.068386 
1190.079472  	0.071375 
1192.008288  	0.075128 
1193.937104  	0.079518 
1195.865920  	0.084055 
1197.794736  	0.089120 
1199.723552  	0.095134 
1201.652368  	0.101323 
1203.581184  	0.107080 
1205.510000  	0.112767 
1207.438816  	0.118105 
1209.367632  	0.122946 
1211.296448  	0.127165 
1213.225264  	0.130565 
1215.154080  	0.132936 
1217.082896  	0.134669 
1219.011712  	0.135437 
1220.940528  	0.135719 
1222.869344  	0.135328 
1224.798160  	0.134443 
1226.726976  	0.132813 
1228.655792  	0.130579 
1230.584608  	0.127987 
1232.513424  	0.124938 
1234.442240  	0.121338 
1236.371056  	0.117494 
1238.299872  	0.113297 
1240.228688  	0.108473 
1242.157504  	0.103507 
1244.086320  	0.098585 
1246.015136  	0.093735 
1247.943952  	0.089050 
1249.872768  	0.084304 
1251.801584  	0.079830 
1253.730400  	0.075436 
1255.659216  	0.071155 
1257.588032  	0.067144 
1259.516848  	0.063481 
1261.445664  	0.060005 
1263.374480  	0.056830 
1265.303296  	0.054060 
1267.232112  	0.051891 
1269.160928  	0.050384 
1271.089744  	0.049294 
1273.018560  	0.048765 
1274.947376  	0.048896 
1276.876192  	0.049435 
1278.805008  	0.049888 
1280.733824  	0.049794 
1282.662640  	0.048876 
1284.591456  	0.047613 
1286.520272  	0.046336 
1288.449088  	0.045576 
1290.377904  	0.045484 
1292.306720  	0.045898 
1294.235536  	0.046395 
1296.164352  	0.046332 
1298.093168  	0.045275 
1300.021984  	0.043665 
1301.950800  	0.041828 
1303.879616  	0.039726 
1305.808432  	0.037576 
1307.737248  	0.035437 
1309.666064  	0.033289 
1311.594880  	0.031600 
1313.523696  	0.030441 
1315.452512  	0.029675 
1317.381328  	0.029343 
1319.310144  	0.029444 
1321.238960  	0.029736 
1323.167776  	0.030278 
1325.096592  	0.030716 
1327.025408  	0.030868 
1328.954224  	0.030690 
1330.883040  	0.030149 
1332.811856  	0.029192 
1334.740672  	0.028225 
1336.669488  	0.027672 
1338.598304  	0.027667 
1340.527120  	0.027424 
1342.455936  	0.026765 
1344.384752  	0.026538 
1346.313568  	0.026781 
1348.242384  	0.027299 
1350.171200  	0.027946 
1352.100016  	0.028821 
1354.028832  	0.030052 
1355.957648  	0.031376 
1357.886464  	0.032621 
1359.815280  	0.033874 
1361.744096  	0.035468 
1363.672912  	0.037097 
1365.601728  	0.038094 
1367.530544  	0.039211 
1369.459360  	0.040485 
1371.388176  	0.041190 
1373.316992  	0.041466 
1375.245808  	0.040968 
1377.174624  	0.039468 
1379.103440  	0.037943 
1381.032256  	0.036336 
1382.961072  	0.034710 
1384.889888  	0.033443 
1386.818704  	0.032637 
1388.747520  	0.031491 
1390.676336  	0.029985 
1392.605152  	0.028636 
1394.533968  	0.027871 
1396.462784  	0.027917 
1398.391600  	0.027801 
1400.320416  	0.027685 
1402.249232  	0.027562 
1404.178048  	0.028006 
1406.106864  	0.028608 
1408.035680  	0.029389 
1409.964496  	0.030424 
1411.893312  	0.031728 
1413.822128  	0.033150 
1415.750944  	0.034666 
1417.679760  	0.035774 
1419.608576  	0.036862 
1421.537392  	0.036807 
1423.466208  	0.036369 
1425.395024  	0.035422 
1427.323840  	0.034046 
1429.252656  	0.032727 
1431.181472  	0.031497 
1433.110288  	0.030707 
1435.039104  	0.030604 
1436.967920  	0.031466 
1438.896736  	0.032233 
1440.825552  	0.032626 
1442.754368  	0.032992 
1444.683184  	0.033011 
1446.612000  	0.033198 
1448.540816  	0.033459 
1450.469632  	0.033598 
1452.398448  	0.033636 
1454.327264  	0.033711 
1456.256080  	0.034325 
1458.184896  	0.035300 
1460.113712  	0.034340 
1462.042528  	0.033524 
1463.971344  	0.033188 
1465.900160  	0.033614 
1467.828976  	0.033771 
1469.757792  	0.034229 
1471.686608  	0.036051 
1473.615424  	0.040328 
1475.544240  	0.042908 
1477.473056  	0.045817 
1479.401872  	0.047768 
1481.330688  	0.050069 
1483.259504  	0.051762 
1485.188320  	0.052699 
1487.117136  	0.053457 
1489.045952  	0.054415 
1490.974768  	0.053893 
1492.903584  	0.052096 
1494.832400  	0.049663 
1496.761216  	0.046788 
1498.690032  	0.043206 
1500.618848  	0.039853 
1502.547664  	0.036899 
1504.476480  	0.034783 
1506.405296  	0.033603 
1508.334112  	0.032970 
1510.262928  	0.031164 
1512.191744  	0.030034 
1514.120560  	0.029595 
1516.049376  	0.030262 
1517.978192  	0.031541 
1519.907008  	0.032061 
1521.835824  	0.035001 
1523.764640  	0.037118 
1525.693456  	0.038851 
1527.622272  	0.040577 
1529.551088  	0.040709 
1531.479904  	0.039962 
1533.408720  	0.039161 
1535.337536  	0.037662 
1537.266352  	0.035918 
1539.195168  	0.034668 
1541.123984  	0.033604 
1543.052800  	0.032415 
1544.981616  	0.031261 
1546.910432  	0.029913 
1548.839248  	0.029306 
1550.768064  	0.029672 
1552.696880  	0.029157 
1554.625696  	0.029346 
1556.554512  	0.029255 
1558.483328  	0.030967 
1560.412144  	0.033592 
1562.340960  	0.033425 
1564.269776  	0.034342 
1566.198592  	0.036568 
1568.127408  	0.038079 
1570.056224  	0.042184 
1571.985040  	0.044643 
1573.913856  	0.045859 
1575.842672  	0.047939 
1577.771488  	0.050364 
1579.700304  	0.049602 
1581.629120  	0.048929 
1583.557936  	0.048388 
1585.486752  	0.048782 
1587.415568  	0.049796 
1589.344384  	0.052017 
1591.273200  	0.055040 
1593.202016  	0.058999 
1595.130832  	0.063245 
1597.059648  	0.067734 
1598.988464  	0.071561 
1600.917280  	0.075563 
1602.846096  	0.078712 
1604.774912  	0.080988 
1606.703728  	0.081983 
1608.632544  	0.082608 
1610.561360  	0.082041 
1612.490176  	0.081369 
1614.418992  	0.080194 
1616.347808  	0.080852 
1618.276624  	0.082565 
1620.205440  	0.083528 
1622.134256  	0.084974 
1624.063072  	0.089808 
1625.991888  	0.093298 
1627.920704  	0.098287 
1629.849520  	0.103697 
1631.778336  	0.108125 
1633.707152  	0.111613 
1635.635968  	0.119639 
1637.564784  	0.127404 
1639.493600  	0.130131 
1641.422416  	0.133094 
1643.351232  	0.135886 
1645.280048  	0.137329 
1647.208864  	0.141661 
1649.137680  	0.142613 
1651.066496  	0.140747 
1652.995312  	0.141275 
1654.924128  	0.144823 
1656.852944  	0.142344 
1658.781760  	0.140816 
1660.710576  	0.139088 
1662.639392  	0.137688 
1664.568208  	0.135276 
1666.497024  	0.132163 
1668.425840  	0.128799 
1670.354656  	0.125700 
1672.283472  	0.122282 
1674.212288  	0.119153 
1676.141104  	0.116858 
1678.069920  	0.114443 
1679.998736  	0.112756 
1681.927552  	0.111214 
1683.856368  	0.110168 
1685.785184  	0.110697 
1687.714000  	0.109146 
1689.642816  	0.108859 
1691.571632  	0.108245 
1693.500448  	0.107055 
1695.429264  	0.106365 
1697.358080  	0.107150 
1699.286896  	0.105603 
1701.215712  	0.106082 
1703.144528  	0.104431 
1705.073344  	0.102881 
1707.002160  	0.101021 
1708.930976  	0.098159 
1710.859792  	0.094541 
1712.788608  	0.090590 
1714.717424  	0.085314 
1716.646240  	0.078611 
1718.575056  	0.069345 
1720.503872  	0.061814 
1722.432688  	0.054899 
1724.361504  	0.047199 
1726.290320  	0.040535 
1728.219136  	0.034978 
1730.147952  	0.030160 
1732.076768  	0.026097 
1734.005584  	0.022545 
1735.934400  	0.019275 
1737.863216  	0.017458 
1739.792032  	0.015152 
1741.720848  	0.013380 
1743.649664  	0.012150 
1745.578480  	0.011090 
1747.507296  	0.009918 
1749.436112  	0.009374 
1751.364928  	0.008342 
1753.293744  	0.007559 
1755.222560  	0.006881 
1757.151376  	0.006925 
1759.080192  	0.006423 
1761.009008  	0.005963 
1762.937824  	0.005309 
1764.866640  	0.004906 
1766.795456  	0.004612 
1768.724272  	0.004672 
1770.653088  	0.004090 
1772.581904  	0.004295 
1774.510720  	0.004238 
1776.439536  	0.003924 
1778.368352  	0.003325 
1780.297168  	0.003247 
1782.225984  	0.002921 
1784.154800  	0.002660 
1786.083616  	0.002350 
1788.012432  	0.002340 
1789.941248  	0.002332 
1791.870064  	0.002538 
1793.798880  	0.002258 
1795.727696  	0.002057 
1797.656512  	0.001590 
1799.585328  	0.001445 
1801.514144  	0.001619 
1803.442960  	0.001707 
1805.371776  	0.001495 
1807.300592  	0.001288 
1809.229408  	0.000917 
1811.158224  	0.000816 
1813.087040  	0.000588 
1815.015856  	0.000378 
1816.944672  	0.000553 
1818.873488  	0.001004 
1820.802304  	0.001016 
1822.731120  	0.001050 
1824.659936  	0.000665 
1826.588752  	0.000613 
1828.517568  	0.000286 
1830.446384  	0.000401 
1832.375200  	0.000312 
1834.304016  	0.000315 
1836.232832  	0.000336 
1838.161648  	0.000550 
1840.090464  	0.000319 
1842.019280  	-0.000080 
1843.948096  	-0.000309 
1845.876912  	0.000222 
1847.805728  	-0.000033 
1849.734544  	-0.000073 
1851.663360  	0.000044 
1853.592176  	0.000201 
1855.520992  	0.000109 
1857.449808  	0.000100 
1859.378624  	-0.000294 
1861.307440  	-0.000234 
1863.236256  	-0.000419 
1865.165072  	-0.000436 
1867.093888  	-0.000423 
1869.022704  	0.000136 
1870.951520  	-0.000037 
1872.880336  	-0.000253 
1874.809152  	-0.000671 
1876.737968  	-0.000802 
1878.666784  	-0.000874 
1880.595600  	-0.000930 
1882.524416  	-0.000804 
1884.453232  	-0.000349 
1886.382048  	-0.000589 
1888.310864  	-0.000492 
1890.239680  	-0.000638 
1892.168496  	-0.000630 
1894.097312  	-0.000658 
1896.026128  	-0.000763 
1897.954944  	-0.000848 
1899.883760  	-0.000732 
1901.812576  	-0.000933 
1903.741392  	-0.000532 
1905.670208  	-0.000965 
1907.599024  	-0.001646 
1909.527840  	-0.001527 
1911.456656  	-0.000725 
1913.385472  	-0.000448 
1915.314288  	-0.000209 
1917.243104  	-0.000471 
1919.171920  	-0.000039 
1921.100736  	-0.000434 
1923.029552  	-0.001058 
1924.958368  	-0.001963 
1926.887184  	-0.001758 
1928.816000  	-0.001528 
1930.744816  	-0.001232 
1932.673632  	-0.001199 
1934.602448  	-0.001046 
1936.531264  	-0.001151 
1938.460080  	-0.000922 
1940.388896  	-0.001379 
1942.317712  	-0.001611 
1944.246528  	-0.001718 
1946.175344  	-0.001096 
1948.104160  	-0.000997 
1950.032976  	-0.000339 
1951.961792  	-0.000535 
1953.890608  	-0.001036 
1955.819424  	-0.001943 
1957.748240  	-0.001829 
1959.677056  	-0.001765 
1961.605872  	-0.001094 
1963.534688  	-0.001047 
1965.463504  	-0.000769 
1967.392320  	-0.000711 
1969.321136  	-0.000897 
1971.249952  	-0.002228 
1973.178768  	-0.001900 
1975.107584  	-0.000946 
1977.036400  	0.000451 
1978.965216  	0.001352 
1980.894032  	0.001119 
1982.822848  	-0.000495 
1984.751664  	-0.000402 
1986.680480  	0.000258 
1988.609296  	0.000691 
1990.538112  	0.000491 
1992.466928  	0.001615 
1994.395744  	0.000481 
1996.324560  	-0.000425 
1998.253376  	-0.000681 
2000.182192  	-0.000977 
2002.111008  	-0.001109 
2004.039824  	-0.000064 
2005.968640  	-0.000017 
2007.897456  	0.000514 
2009.826272  	0.000520 
2011.755088  	0.000517 
2013.683904  	-0.000373 
2015.612720  	-0.000139 
2017.541536  	0.000099 
2019.470352  	0.000339 
2021.399168  	0.000144 
2023.327984  	0.000593 
2025.256800  	0.000421 
2027.185616  	0.001425 
2029.114432  	0.001491 
2031.043248  	0.000766 
2032.972064  	0.000094 
2034.900880  	0.001978 
2036.829696  	0.002326 
2038.758512  	0.001965 
2040.687328  	0.000609 
2042.616144  	0.000863 
2044.544960  	0.000523 
2046.473776  	0.000048 
2048.402592  	0.001155 
2050.331408  	0.002296 
2052.260224  	0.001642 
2054.189040  	0.001282 
2056.117856  	0.000495 
2058.046672  	0.000732 
2059.975488  	0.001082 
2061.904304  	0.001486 
2063.833120  	0.001287 
2065.761936  	0.001533 
2067.690752  	0.001588 
2069.619568  	0.000999 
2071.548384  	0.000609 
2073.477200  	0.001285 
2075.406016  	0.001755 
2077.334832  	0.001757 
2079.263648  	0.001825 
2081.192464  	0.002250 
2083.121280  	0.001822 
2085.050096  	0.001565 
2086.978912  	0.001210 
2088.907728  	0.001467 
2090.836544  	0.001862 
2092.765360  	0.002085 
2094.694176  	0.002027 
2096.622992  	0.002343 
2098.551808  	0.002588 
2100.480624  	0.002667 
2102.409440  	0.002462 
2104.338256  	0.002450 
2106.267072  	0.002467 
2108.195888  	0.002474 
2110.124704  	0.002549 
2112.053520  	0.002544 
2113.982336  	0.002501 
2115.911152  	0.002159 
2117.839968  	0.001693 
2119.768784  	0.001915 
2121.697600  	0.001920 
2123.626416  	0.001658 
2125.555232  	0.001618 
2127.484048  	0.001499 
2129.412864  	0.001473 
2131.341680  	0.001804 
2133.270496  	0.001742 
2135.199312  	0.001831 
2137.128128  	0.002212 
2139.056944  	0.002773 
2140.985760  	0.002971 
2142.914576  	0.003367 
2144.843392  	0.002571 
2146.772208  	0.002348 
2148.701024  	0.002466 
2150.629840  	0.001996 
2152.558656  	0.001737 
2154.487472  	0.002938 
2156.416288  	0.003292 
2158.345104  	0.005123 
2160.273920  	0.007906 
2162.202736  	0.007484 
2164.131552  	0.005312 
2166.060368  	0.004982 
2167.989184  	0.004817 
2169.918000  	0.004519 
2171.846816  	0.004550 
2173.775632  	0.005411 
2175.704448  	0.004560 
2177.633264  	0.004469 
2179.562080  	0.003624 
2181.490896  	0.003735 
2183.419712  	0.004555 
2185.348528  	0.004481 
2187.277344  	0.003407 
2189.206160  	0.003455 
2191.134976  	0.003605 
2193.063792  	0.003683 
2194.992608  	0.003449 
2196.921424  	0.003497 
2198.850240  	0.002987 
2200.779056  	0.002719 
2202.707872  	0.002408 
2204.636688  	0.003094 
2206.565504  	0.003387 
2208.494320  	0.002653 
2210.423136  	0.002504 
2212.351952  	0.003160 
2214.280768  	0.002859 
2216.209584  	0.002887 
2218.138400  	0.002661 
2220.067216  	0.002249 
2221.996032  	0.001954 
2223.924848  	0.002686 
2225.853664  	0.003167 
2227.782480  	0.003235 
2229.711296  	0.002173 
2231.640112  	0.001436 
2233.568928  	0.001144 
2235.497744  	0.001505 
2237.426560  	0.001790 
2239.355376  	0.001969 
2241.284192  	0.001395 
2243.213008  	0.001257 
2245.141824  	0.001465 
2247.070640  	0.001525 
2248.999456  	0.001662 
2250.928272  	0.001669 
2252.857088  	0.001496 
2254.785904  	0.001769 
2256.714720  	0.002084 
2258.643536  	0.002587 
2260.572352  	0.002853 
2262.501168  	0.002841 
2264.429984  	0.002760 
2266.358800  	0.002747 
2268.287616  	0.002295 
2270.216432  	0.002175 
2272.145248  	0.002191 
2274.074064  	0.002497 
2276.002880  	0.002319 
2277.931696  	0.002547 
2279.860512  	0.002698 
2281.789328  	0.002640 
2283.718144  	0.002605 
2285.646960  	0.002945 
2287.575776  	0.002913 
2289.504592  	0.002950 
2291.433408  	0.003012 
2293.362224  	0.003224 
2295.291040  	0.002937 
2297.219856  	0.002930 
2299.148672  	0.002951 
2301.077488  	0.002998 
2303.006304  	0.003494 
2304.935120  	0.003918 
2306.863936  	0.003799 
2308.792752  	0.003884 
2310.721568  	0.003986 
2312.650384  	0.003933 
2314.579200  	0.003964 
2316.508016  	0.004361 
2318.436832  	0.004838 
2320.365648  	0.005201 
2322.294464  	0.005446 
2324.223280  	0.005339 
2326.152096  	0.004535 
2328.080912  	0.003928 
2330.009728  	0.003926 
2331.938544  	0.004038 
2333.867360  	0.004196 
2335.796176  	0.004260 
2337.724992  	0.003865 
2339.653808  	0.003646 
2341.582624  	0.003942 
2343.511440  	0.004335 
2345.440256  	0.004536 
2347.369072  	0.004156 
2349.297888  	0.003761 
2351.226704  	0.003941 
2353.155520  	0.003731 
2355.084336  	0.003731 
2357.013152  	0.004349 
2358.941968  	0.004700 
2360.870784  	0.004749 
2362.799600  	0.004773 
2364.728416  	0.004554 
2366.657232  	0.004320 
2368.586048  	0.004118 
2370.514864  	0.004137 
2372.443680  	0.003939 
2374.372496  	0.003717 
2376.301312  	0.003477 
2378.230128  	0.003247 
2380.158944  	0.002852 
2382.087760  	0.002445 
2384.016576  	0.001981 
2385.945392  	0.001753 
2387.874208  	0.001727 
2389.803024  	0.001613 
2391.731840  	0.001437 
2393.660656  	0.001521 
2395.589472  	0.001610 
2397.518288  	0.001675 
2399.447104  	0.001652 
2401.375920  	0.001740 
2403.304736  	0.001642 
2405.233552  	0.001654 
2407.162368  	0.001698 
2409.091184  	0.001716 
2411.020000  	0.001742 
2412.948816  	0.001660 
2414.877632  	0.001717 
2416.806448  	0.001988 
2418.735264  	0.002041 
2420.664080  	0.001978 
2422.592896  	0.001987 
2424.521712  	0.002199 
2426.450528  	0.002255 
2428.379344  	0.002272 
2430.308160  	0.002322 
2432.236976  	0.002359 
2434.165792  	0.002484 
2436.094608  	0.002662 
2438.023424  	0.002555 
2439.952240  	0.002668 
2441.881056  	0.002776 
2443.809872  	0.002555 
2445.738688  	0.002511 
2447.667504  	0.002796 
2449.596320  	0.003002 
2451.525136  	0.002988 
2453.453952  	0.002977 
2455.382768  	0.003144 
2457.311584  	0.003067 
2459.240400  	0.002858 
2461.169216  	0.002983 
2463.098032  	0.003133 
2465.026848  	0.002986 
2466.955664  	0.002934 
2468.884480  	0.002704 
2470.813296  	0.002703 
2472.742112  	0.003066 
2474.670928  	0.003450 
2476.599744  	0.003649 
2478.528560  	0.003810 
2480.457376  	0.003978 
2482.386192  	0.004207 
2484.315008  	0.004107 
2486.243824  	0.004091 
2488.172640  	0.004303 
2490.101456  	0.004464 
2492.030272  	0.004530 
2493.959088  	0.004362 
2495.887904  	0.004242 
2497.816720  	0.004515 
2499.745536  	0.004700 
2501.674352  	0.004746 
2503.603168  	0.004684 
2505.531984  	0.004631 
2507.460800  	0.004675 
2509.389616  	0.004501 
2511.318432  	0.004472 
2513.247248  	0.004845 
2515.176064  	0.005157 
2517.104880  	0.005240 
2519.033696  	0.004983 
2520.962512  	0.004996 
2522.891328  	0.005182 
2524.820144  	0.005512 
2526.748960  	0.005445 
2528.677776  	0.005377 
2530.606592  	0.005390 
2532.535408  	0.005551 
2534.464224  	0.005579 
2536.393040  	0.005540 
2538.321856  	0.005656 
2540.250672  	0.005703 
2542.179488  	0.005740 
2544.108304  	0.005932 
2546.037120  	0.006105 
2547.965936  	0.006357 
2549.894752  	0.006332 
2551.823568  	0.006497 
2553.752384  	0.006664 
2555.681200  	0.006578 
2557.610016  	0.006575 
2559.538832  	0.006546 
2561.467648  	0.006675 
2563.396464  	0.007007 
2565.325280  	0.006985 
2567.254096  	0.006820 
2569.182912  	0.006793 
2571.111728  	0.006880 
2573.040544  	0.007065 
2574.969360  	0.007193 
2576.898176  	0.007293 
2578.826992  	0.007346 
2580.755808  	0.007391 
2582.684624  	0.007684 
2584.613440  	0.007847 
2586.542256  	0.007889 
2588.471072  	0.007904 
2590.399888  	0.007968 
2592.328704  	0.008060 
2594.257520  	0.008192 
2596.186336  	0.008128 
2598.115152  	0.008170 
2600.043968  	0.008468 
2601.972784  	0.008524 
2603.901600  	0.008473 
2605.830416  	0.008435 
2607.759232  	0.008519 
2609.688048  	0.008614 
2611.616864  	0.008737 
2613.545680  	0.008816 
2615.474496  	0.009065 
2617.403312  	0.009194 
2619.332128  	0.009053 
2621.260944  	0.009004 
2623.189760  	0.009122 
2625.118576  	0.009363 
2627.047392  	0.009386 
2628.976208  	0.009512 
2630.905024  	0.009583 
2632.833840  	0.009692 
2634.762656  	0.009820 
2636.691472  	0.009990 
2638.620288  	0.010130 
2640.549104  	0.010318 
2642.477920  	0.010508 
2644.406736  	0.010561 
2646.335552  	0.010607 
2648.264368  	0.010637 
2650.193184  	0.010762 
2652.122000  	0.010835 
2654.050816  	0.010870 
2655.979632  	0.011143 
2657.908448  	0.011312 
2659.837264  	0.011321 
2661.766080  	0.011331 
2663.694896  	0.011394 
2665.623712  	0.011475 
2667.552528  	0.011622 
2669.481344  	0.011704 
2671.410160  	0.011747 
2673.338976  	0.011861 
2675.267792  	0.012035 
2677.196608  	0.012241 
2679.125424  	0.012344 
2681.054240  	0.012431 
2682.983056  	0.012612 
2684.911872  	0.012661 
2686.840688  	0.012663 
2688.769504  	0.012713 
2690.698320  	0.012850 
2692.627136  	0.013015 
2694.555952  	0.013172 
2696.484768  	0.013197 
2698.413584  	0.013218 
2700.342400  	0.013286 
2702.271216  	0.013517 
2704.200032  	0.013750 
2706.128848  	0.013894 
2708.057664  	0.014032 
2709.986480  	0.014069 
2711.915296  	0.014089 
2713.844112  	0.014285 
2715.772928  	0.014438 
2717.701744  	0.014532 
2719.630560  	0.014737 
2721.559376  	0.014813 
2723.488192  	0.014803 
2725.417008  	0.014893 
2727.345824  	0.014962 
2729.274640  	0.015146 
2731.203456  	0.015287 
2733.132272  	0.015410 
2735.061088  	0.015446 
2736.989904  	0.015356 
2738.918720  	0.015522 
2740.847536  	0.015812 
2742.776352  	0.015871 
2744.705168  	0.016021 
2746.633984  	0.016179 
2748.562800  	0.016327 
2750.491616  	0.016363 
2752.420432  	0.016357 
2754.349248  	0.016329 
2756.278064  	0.016430 
2758.206880  	0.016485 
2760.135696  	0.016552 
2762.064512  	0.016573 
2763.993328  	0.016568 
2765.922144  	0.016619 
2767.850960  	0.016692 
2769.779776  	0.016672 
2771.708592  	0.016727 
2773.637408  	0.016772 
2775.566224  	0.016836 
2777.495040  	0.016867 
2779.423856  	0.016875 
2781.352672  	0.016968 
2783.281488  	0.016970 
2785.210304  	0.016945 
2787.139120  	0.017060 
2789.067936  	0.017011 
2790.996752  	0.016950 
2792.925568  	0.016934 
2794.854384  	0.017050 
2796.783200  	0.017051 
2798.712016  	0.017026 
2800.640832  	0.017153 
2802.569648  	0.017310 
2804.498464  	0.017298 
2806.427280  	0.017364 
2808.356096  	0.017564 
2810.284912  	0.017573 
2812.213728  	0.017501 
2814.142544  	0.017605 
2816.071360  	0.017704 
2818.000176  	0.017765 
2819.928992  	0.017791 
2821.857808  	0.017798 
2823.786624  	0.017755 
2825.715440  	0.017890 
2827.644256  	0.017984 
2829.573072  	0.017975 
2831.501888  	0.018023 
2833.430704  	0.018039 
2835.359520  	0.018034 
2837.288336  	0.018050 
2839.217152  	0.018024 
2841.145968  	0.017943 
2843.074784  	0.017918 
2845.003600  	0.018040 
2846.932416  	0.018047 
2848.861232  	0.018188 
2850.790048  	0.018208 
2852.718864  	0.018205 
2854.647680  	0.018327 
2856.576496  	0.018537 
2858.505312  	0.018624 
2860.434128  	0.018703 
2862.362944  	0.018844 
2864.291760  	0.018841 
2866.220576  	0.018854 
2868.149392  	0.018900 
2870.078208  	0.018970 
2872.007024  	0.019296 
2873.935840  	0.019706 
2875.864656  	0.019874 
2877.793472  	0.020062 
2879.722288  	0.020465 
2881.651104  	0.020775 
2883.579920  	0.020975 
2885.508736  	0.021174 
2887.437552  	0.021440 
2889.366368  	0.021452 
2891.295184  	0.021447 
2893.224000  	0.021436 
2895.152816  	0.021501 
2897.081632  	0.021554 
2899.010448  	0.021234 
2900.939264  	0.020853 
2902.868080  	0.020993 
2904.796896  	0.021335 
2906.725712  	0.021520 
2908.654528  	0.021758 
2910.583344  	0.021989 
2912.512160  	0.022181 
2914.440976  	0.022585 
2916.369792  	0.022985 
2918.298608  	0.023250 
2920.227424  	0.023675 
2922.156240  	0.024134 
2924.085056  	0.024528 
2926.013872  	0.024962 
2927.942688  	0.025512 
2929.871504  	0.025980 
2931.800320  	0.026374 
2933.729136  	0.026909 
2935.657952  	0.027523 
2937.586768  	0.027968 
2939.515584  	0.028235 
2941.444400  	0.028417 
2943.373216  	0.028666 
2945.302032  	0.029061 
2947.230848  	0.029231 
2949.159664  	0.029131 
2951.088480  	0.028978 
2953.017296  	0.028963 
2954.946112  	0.028819 
2956.874928  	0.028587 
2958.803744  	0.028272 
2960.732560  	0.028066 
2962.661376  	0.027933 
2964.590192  	0.027659 
2966.519008  	0.027380 
2968.447824  	0.027034 
2970.376640  	0.026745 
2972.305456  	0.026463 
2974.234272  	0.026532 
2976.163088  	0.026588 
2978.091904  	0.026438 
2980.020720  	0.026313 
2981.949536  	0.026250 
2983.878352  	0.026170 
2985.807168  	0.026073 
2987.735984  	0.026020 
2989.664800  	0.026070 
2991.593616  	0.026588 
2993.522432  	0.026910 
2995.451248  	0.027102 
2997.380064  	0.027469 
2999.308880  	0.027852 
3001.237696  	0.028185 
3003.166512  	0.028536 
3005.095328  	0.028810 
3007.024144  	0.029136 
3008.952960  	0.029653 
3010.881776  	0.030145 
3012.810592  	0.030554 
3014.739408  	0.030984 
3016.668224  	0.031523 
3018.597040  	0.031995 
3020.525856  	0.032348 
3022.454672  	0.032631 
3024.383488  	0.033063 
3026.312304  	0.033597 
3028.241120  	0.033901 
3030.169936  	0.034164 
3032.098752  	0.034712 
3034.027568  	0.035100 
3035.956384  	0.035477 
3037.885200  	0.036016 
3039.814016  	0.036474 
3041.742832  	0.036816 
3043.671648  	0.037213 
3045.600464  	0.037693 
3047.529280  	0.038161 
3049.458096  	0.038591 
3051.386912  	0.038944 
3053.315728  	0.039314 
3055.244544  	0.039853 
3057.173360  	0.040472 
3059.102176  	0.041056 
3061.030992  	0.041564 
3062.959808  	0.042052 
3064.888624  	0.042603 
3066.817440  	0.043250 
3068.746256  	0.043938 
3070.675072  	0.044388 
3072.603888  	0.044883 
3074.532704  	0.045527 
3076.461520  	0.046147 
3078.390336  	0.046724 
3080.319152  	0.047409 
3082.247968  	0.047882 
3084.176784  	0.048443 
3086.105600  	0.049248 
3088.034416  	0.049978 
3089.963232  	0.050505 
3091.892048  	0.050934 
3093.820864  	0.051337 
3095.749680  	0.052022 
3097.678496  	0.052828 
3099.607312  	0.053505 
3101.536128  	0.054283 
3103.464944  	0.054918 
3105.393760  	0.055395 
3107.322576  	0.055987 
3109.251392  	0.056699 
3111.180208  	0.057308 
3113.109024  	0.057806 
3115.037840  	0.058294 
3116.966656  	0.058992 
3118.895472  	0.059617 
3120.824288  	0.060199 
3122.753104  	0.060794 
3124.681920  	0.061250 
3126.610736  	0.061655 
3128.539552  	0.062182 
3130.468368  	0.062723 
3132.397184  	0.063350 
3134.326000  	0.063840 
3136.254816  	0.064200 
3138.183632  	0.064712 
3140.112448  	0.065263 
3142.041264  	0.065947 
3143.970080  	0.066606 
3145.898896  	0.067172 
3147.827712  	0.067687 
3149.756528  	0.068276 
3151.685344  	0.068679 
3153.614160  	0.069031 
3155.542976  	0.069750 
3157.471792  	0.070578 
3159.400608  	0.071199 
3161.329424  	0.071753 
3163.258240  	0.072380 
3165.187056  	0.072876 
3167.115872  	0.073261 
3169.044688  	0.073870 
3170.973504  	0.074513 
3172.902320  	0.074917 
3174.831136  	0.075204 
3176.759952  	0.075610 
3178.688768  	0.076081 
3180.617584  	0.076501 
3182.546400  	0.076917 
3184.475216  	0.077122 
3186.404032  	0.077513 
3188.332848  	0.077906 
3190.261664  	0.078012 
3192.190480  	0.078082 
3194.119296  	0.078302 
3196.048112  	0.078271 
3197.976928  	0.078571 
3199.905744  	0.078842 
3201.834560  	0.078828 
3203.763376  	0.078761 
3205.692192  	0.078595 
3207.621008  	0.078593 
3209.549824  	0.078826 
3211.478640  	0.078972 
3213.407456  	0.078717 
3215.336272  	0.078639 
3217.265088  	0.078723 
3219.193904  	0.078808 
3221.122720  	0.078797 
3223.051536  	0.078656 
3224.980352  	0.078578 
3226.909168  	0.078605 
3228.837984  	0.078511 
3230.766800  	0.078380 
3232.695616  	0.078342 
3234.624432  	0.078420 
3236.553248  	0.078616 
3238.482064  	0.078688 
3240.410880  	0.078600 
3242.339696  	0.078618 
3244.268512  	0.078526 
3246.197328  	0.078509 
3248.126144  	0.078685 
3250.054960  	0.078981 
3251.983776  	0.079285 
3253.912592  	0.079424 
3255.841408  	0.079654 
3257.770224  	0.079878 
3259.699040  	0.080032 
3261.627856  	0.080184 
3263.556672  	0.080237 
3265.485488  	0.080459 
3267.414304  	0.080585 
3269.343120  	0.080648 
3271.271936  	0.080795 
3273.200752  	0.081061 
3275.129568  	0.081368 
3277.058384  	0.081539 
3278.987200  	0.081622 
3280.916016  	0.081611 
3282.844832  	0.081627 
3284.773648  	0.081890 
3286.702464  	0.082162 
3288.631280  	0.082495 
3290.560096  	0.082677 
3292.488912  	0.082789 
3294.417728  	0.082962 
3296.346544  	0.083251 
3298.275360  	0.083550 
3300.204176  	0.083810 
3302.132992  	0.084097 
3304.061808  	0.084473 
3305.990624  	0.084711 
3307.919440  	0.084942 
3309.848256  	0.085214 
3311.777072  	0.085536 
3313.705888  	0.085791 
3315.634704  	0.086035 
3317.563520  	0.086573 
3319.492336  	0.086886 
3321.421152  	0.087003 
3323.349968  	0.087191 
3325.278784  	0.087442 
3327.207600  	0.087681 
3329.136416  	0.087735 
3331.065232  	0.087868 
3332.994048  	0.087932 
3334.922864  	0.087964 
3336.851680  	0.088010 
3338.780496  	0.088080 
3340.709312  	0.087993 
3342.638128  	0.087978 
3344.566944  	0.087899 
3346.495760  	0.087772 
3348.424576  	0.087779 
3350.353392  	0.087676 
3352.282208  	0.087315 
3354.211024  	0.087094 
3356.139840  	0.086891 
3358.068656  	0.086679 
3359.997472  	0.086510 
3361.926288  	0.086394 
3363.855104  	0.086174 
3365.783920  	0.085930 
3367.712736  	0.085664 
3369.641552  	0.085508 
3371.570368  	0.085202 
3373.499184  	0.084974 
3375.428000  	0.084726 
3377.356816  	0.084590 
3379.285632  	0.084563 
3381.214448  	0.084136 
3383.143264  	0.083711 
3385.072080  	0.083512 
3387.000896  	0.083247 
3388.929712  	0.082829 
3390.858528  	0.082568 
3392.787344  	0.082588 
3394.716160  	0.082413 
3396.644976  	0.082094 
3398.573792  	0.081496 
3400.502608  	0.080958 
3402.431424  	0.080500 
3404.360240  	0.080102 
3406.289056  	0.079647 
3408.217872  	0.079221 
3410.146688  	0.078867 
3412.075504  	0.078582 
3414.004320  	0.078297 
3415.933136  	0.077975 
3417.861952  	0.077556 
3419.790768  	0.077277 
3421.719584  	0.076819 
3423.648400  	0.076035 
3425.577216  	0.075449 
3427.506032  	0.075143 
3429.434848  	0.074713 
3431.363664  	0.074355 
3433.292480  	0.073920 
3435.221296  	0.073170 
3437.150112  	0.072481 
3439.078928  	0.071997 
3441.007744  	0.071280 
3442.936560  	0.070804 
3444.865376  	0.070095 
3446.794192  	0.069748 
3448.723008  	0.069522 
3450.651824  	0.068799 
3452.580640  	0.068257 
3454.509456  	0.067726 
3456.438272  	0.066917 
3458.367088  	0.066264 
3460.295904  	0.065673 
3462.224720  	0.065119 
3464.153536  	0.064402 
3466.082352  	0.063617 
3468.011168  	0.063030 
3469.939984  	0.062429 
3471.868800  	0.061566 
3473.797616  	0.060649 
3475.726432  	0.059855 
3477.655248  	0.059055 
3479.584064  	0.058315 
3481.512880  	0.057878 
3483.441696  	0.057295 
3485.370512  	0.056281 
3487.299328  	0.055341 
3489.228144  	0.054559 
3491.156960  	0.053759 
3493.085776  	0.053025 
3495.014592  	0.052502 
3496.943408  	0.051845 
3498.872224  	0.050893 
3500.801040  	0.050330 
3502.729856  	0.049779 
3504.658672  	0.049259 
3506.587488  	0.048483 
3508.516304  	0.047622 
3510.445120  	0.046984 
3512.373936  	0.046389 
3514.302752  	0.045800 
3516.231568  	0.045163 
3518.160384  	0.044510 
3520.089200  	0.043719 
3522.018016  	0.043011 
3523.946832  	0.042557 
3525.875648  	0.042033 
3527.804464  	0.041405 
3529.733280  	0.040914 
3531.662096  	0.040236 
3533.590912  	0.039352 
3535.519728  	0.038525 
3537.448544  	0.037989 
3539.377360  	0.037559 
3541.306176  	0.036854 
3543.234992  	0.036197 
3545.163808  	0.035775 
3547.092624  	0.035554 
3549.021440  	0.034713 
3550.950256  	0.033749 
3552.879072  	0.033340 
3554.807888  	0.032516 
3556.736704  	0.031611 
3558.665520  	0.031161 
3560.594336  	0.030600 
3562.523152  	0.030002 
3564.451968  	0.029553 
3566.380784  	0.029495 
3568.309600  	0.029409 
3570.238416  	0.028163 
3572.167232  	0.026971 
3574.096048  	0.026329 
3576.024864  	0.025788 
3577.953680  	0.025120 
3579.882496  	0.024283 
3581.811312  	0.023559 
3583.740128  	0.022818 
3585.668944  	0.022180 
3587.597760  	0.021998 
3589.526576  	0.021425 
3591.455392  	0.020299 
3593.384208  	0.019711 
3595.313024  	0.019286 
3597.241840  	0.018353 
3599.170656  	0.017355 
3601.099472  	0.017009 
3603.028288  	0.016261 
3604.957104  	0.015306 
3606.885920  	0.014905 
3608.814736  	0.014588 
3610.743552  	0.013367 
3612.672368  	0.012530 
3614.601184  	0.012397 
3616.530000  	0.011717 
3618.458816  	0.010842 
3620.387632  	0.010293 
3622.316448  	0.009522 
3624.245264  	0.008741 
3626.174080  	0.007892 
3628.102896  	0.007310 
3630.031712  	0.007292 
3631.960528  	0.006293 
3633.889344  	0.005299 
3635.818160  	0.004538 
3637.746976  	0.003638 
3639.675792  	0.002956 
3641.604608  	0.002226 
3643.533424  	0.001581 
3645.462240  	0.001013 
3647.391056  	0.001021 
3649.319872  	0.001003 
3651.248688  	0.000204 
3653.177504  	-0.001114 
3655.106320  	-0.002177 
3657.035136  	-0.002632 
3658.963952  	-0.003024 
3660.892768  	-0.003430 
3662.821584  	-0.003806 
3664.750400  	-0.004283 
3666.679216  	-0.004502 
3668.608032  	-0.004636 
3670.536848  	-0.004617 
3672.465664  	-0.005001 
3674.394480  	-0.005570 
3676.323296  	-0.005354 
3678.252112  	-0.005368 
3680.180928  	-0.005891 
3682.109744  	-0.006246 
3684.038560  	-0.006437 
3685.967376  	-0.006560 
3687.896192  	-0.006490 
3689.825008  	-0.006356 
3691.753824  	-0.006674 
3693.682640  	-0.006718 
3695.611456  	-0.006763 
3697.540272  	-0.006924 
3699.469088  	-0.007286 
3701.397904  	-0.007117 
3703.326720  	-0.006704 
3705.255536  	-0.006540 
3707.184352  	-0.006460 
3709.113168  	-0.006513 
3711.041984  	-0.006645 
3712.970800  	-0.006404 
3714.899616  	-0.006790 
3716.828432  	-0.007099 
3718.757248  	-0.006835 
3720.686064  	-0.006853 
3722.614880  	-0.007169 
3724.543696  	-0.006987 
3726.472512  	-0.006220 
3728.401328  	-0.006244 
3730.330144  	-0.007059 
3732.258960  	-0.007385 
3734.187776  	-0.006674 
3736.116592  	-0.006167 
3738.045408  	-0.006581 
3739.974224  	-0.006970 
3741.903040  	-0.007095 
3743.831856  	-0.007338 
3745.760672  	-0.007148 
3747.689488  	-0.007561 
3749.618304  	-0.007271 
3751.547120  	-0.006579 
3753.475936  	-0.007006 
3755.404752  	-0.007200 
3757.333568  	-0.007377 
3759.262384  	-0.007227 
3761.191200  	-0.007292 
3763.120016  	-0.007509 
3765.048832  	-0.007505 
3766.977648  	-0.007234 
3768.906464  	-0.007296 
3770.835280  	-0.007372 
3772.764096  	-0.007489 
3774.692912  	-0.007722 
3776.621728  	-0.007579 
3778.550544  	-0.007271 
3780.479360  	-0.007224 
3782.408176  	-0.007421 
3784.336992  	-0.007469 
3786.265808  	-0.007539 
3788.194624  	-0.007669 
3790.123440  	-0.007510 
3792.052256  	-0.007541 
3793.981072  	-0.007833 
3795.909888  	-0.007453 
3797.838704  	-0.006937 
3799.767520  	-0.007013 
3801.696336  	-0.007050 
3803.625152  	-0.007285 
3805.553968  	-0.007510 
3807.482784  	-0.007422 
3809.411600  	-0.007323 
3811.340416  	-0.007542 
3813.269232  	-0.007717 
3815.198048  	-0.007390 
3817.126864  	-0.007154 
3819.055680  	-0.007369 
3820.984496  	-0.007202 
3822.913312  	-0.007134 
3824.842128  	-0.007554 
3826.770944  	-0.007806 
3828.699760  	-0.007763 
3830.628576  	-0.007814 
3832.557392  	-0.007782 
3834.486208  	-0.007858 
3836.415024  	-0.007771 
3838.343840  	-0.007433 
3840.272656  	-0.007084 
3842.201472  	-0.007065 
3844.130288  	-0.007205 
3846.059104  	-0.007413 
3847.987920  	-0.007673 
3849.916736  	-0.007710 
3851.845552  	-0.007269 
3853.774368  	-0.006398 
3855.703184  	-0.006466 
3857.632000  	-0.007077 
3859.560816  	-0.007376 
3861.489632  	-0.007405 
3863.418448  	-0.007343 
3865.347264  	-0.007243 
3867.276080  	-0.007484 
3869.204896  	-0.007551 
3871.133712  	-0.007424 
3873.062528  	-0.007614 
3874.991344  	-0.007409 
3876.920160  	-0.007553 
3878.848976  	-0.007576 
3880.777792  	-0.007130 
3882.706608  	-0.007060 
3884.635424  	-0.007392 
3886.564240  	-0.007573 
3888.493056  	-0.007800 
3890.421872  	-0.007955 
3892.350688  	-0.007875 
3894.279504  	-0.007858 
3896.208320  	-0.007884 
3898.137136  	-0.007815 
3900.065952  	-0.007314 
3901.994768  	-0.007257 
3903.923584  	-0.007372 
3905.852400  	-0.007348 
3907.781216  	-0.007614 
3909.710032  	-0.007942 
3911.638848  	-0.008089 
3913.567664  	-0.008002 
3915.496480  	-0.007833 
3917.425296  	-0.007415 
3919.354112  	-0.007437 
3921.282928  	-0.007432 
3923.211744  	-0.007332 
3925.140560  	-0.007493 
3927.069376  	-0.007673 
3928.998192  	-0.007611 
3930.927008  	-0.007452 
3932.855824  	-0.007632 
3934.784640  	-0.007889 
3936.713456  	-0.007746 
3938.642272  	-0.007865 
3940.571088  	-0.008053 
3942.499904  	-0.007708 
3944.428720  	-0.007639 
3946.357536  	-0.007770 
3948.286352  	-0.007580 
3950.215168  	-0.007797 
3952.143984  	-0.008091 
3954.072800  	-0.008159 
3956.001616  	-0.008080 
3957.930432  	-0.007791 
3959.859248  	-0.007603 
3961.788064  	-0.007692 
3963.716880  	-0.007800 
3965.645696  	-0.007999 
3967.574512  	-0.008179 
3969.503328  	-0.008214 
3971.432144  	-0.008014 
3973.360960  	-0.007734 
3975.289776  	-0.007439 
3977.218592  	-0.007416 
3979.147408  	-0.007658 
3981.076224  	-0.007823 
3983.005040  	-0.007934 
3984.933856  	-0.007815 
3986.862672  	-0.007781 
3988.791488  	-0.008000 
3990.720304  	-0.007843 
3992.649120  	-0.007683 
3994.577936  	-0.007706 
3996.506752  	-0.007824 
3998.435568  	-0.007933 
4000.364384  	-0.007862 