##TITLE=No Description
##DATA TYPE=INFRARED SPECTRUM
##XUNITS=1/CM
##YUNITS=Abs
399.264912  	0.574332 
401.193728  	0.557459 
403.122544  	0.561720 
405.051360  	0.571403 
406.980176  	0.574741 
408.908992  	0.560476 
410.837808  	0.562103 
412.766624  	0.554089 
414.695440  	0.558464 
416.624256  	0.552643 
418.553072  	0.553121 
420.481888  	0.533650 
422.410704  	0.529671 
424.339520  	0.526898 
426.268336  	0.530721 
428.197152  	0.529530 
430.125968  	0.529218 
432.054784  	0.523050 
433.983600  	0.523766 
435.912416  	0.518328 
437.841232  	0.512540 
439.770048  	0.506373 
441.698864  	0.510526 
443.627680  	0.509234 
445.556496  	0.510935 
447.485312  	0.500896 
449.414128  	0.498640 
451.342944  	0.498658 
453.271760  	0.497221 
455.200576  	0.492790 
457.129392  	0.496181 
459.058208  	0.491899 
460.987024  	0.491630 
462.915840  	0.489148 
464.844656  	0.494017 
466.773472  	0.493922 
468.702288  	0.487440 
470.631104  	0.477190 
472.559920  	0.481458 
474.488736  	0.483645 
476.417552  	0.485596 
478.346368  	0.481773 
480.275184  	0.480790 
482.204000  	0.479131 
484.132816  	0.479872 
486.061632  	0.477180 
487.990448  	0.471821 
489.919264  	0.468600 
491.848080  	0.473645 
493.776896  	0.474458 
495.705712  	0.472060 
497.634528  	0.467537 
499.563344  	0.468406 
501.492160  	0.466614 
503.420976  	0.466760 
505.349792  	0.464619 
507.278608  	0.463661 
509.207424  	0.459854 
511.136240  	0.462288 
513.065056  	0.461361 
514.993872  	0.458915 
516.922688  	0.456320 
518.851504  	0.459639 
520.780320  	0.460480 
522.709136  	0.459646 
524.637952  	0.456736 
526.566768  	0.455786 
528.495584  	0.452782 
530.424400  	0.452014 
532.353216  	0.450185 
534.282032  	0.447405 
536.210848  	0.443755 
538.139664  	0.440676 
540.068480  	0.437857 
541.997296  	0.436942 
543.926112  	0.434095 
545.854928  	0.432411 
547.783744  	0.428567 
549.712560  	0.426626 
551.641376  	0.423269 
553.570192  	0.422245 
555.499008  	0.419204 
557.427824  	0.417950 
559.356640  	0.415457 
561.285456  	0.413884 
563.214272  	0.411957 
565.143088  	0.409360 
567.071904  	0.405527 
569.000720  	0.403306 
570.929536  	0.401318 
572.858352  	0.398216 
574.787168  	0.394680 
576.715984  	0.393735 
578.644800  	0.391726 
580.573616  	0.388730 
582.502432  	0.384650 
584.431248  	0.382736 
586.360064  	0.380122 
588.288880  	0.378423 
590.217696  	0.376220 
592.146512  	0.375035 
594.075328  	0.372542 
596.004144  	0.370776 
597.932960  	0.368817 
599.861776  	0.367421 
601.790592  	0.365516 
603.719408  	0.363866 
605.648224  	0.361906 
607.577040  	0.360511 
609.505856  	0.358810 
611.434672  	0.357245 
613.363488  	0.354875 
615.292304  	0.354004 
617.221120  	0.352167 
619.149936  	0.350153 
621.078752  	0.347743 
623.007568  	0.346425 
624.936384  	0.344768 
626.865200  	0.343706 
628.794016  	0.341919 
630.722832  	0.341317 
632.651648  	0.340442 
634.580464  	0.339190 
636.509280  	0.338023 
638.438096  	0.336569 
640.366912  	0.334601 
642.295728  	0.332575 
644.224544  	0.330170 
646.153360  	0.328293 
648.082176  	0.325082 
650.010992  	0.322793 
651.939808  	0.319888 
653.868624  	0.317263 
655.797440  	0.314187 
657.726256  	0.311889 
659.655072  	0.309047 
661.583888  	0.306132 
663.512704  	0.302846 
665.441520  	0.300267 
667.370336  	0.298213 
669.299152  	0.295493 
671.227968  	0.291648 
673.156784  	0.288549 
675.085600  	0.285863 
677.014416  	0.283508 
678.943232  	0.281259 
680.872048  	0.279557 
682.800864  	0.277283 
684.729680  	0.275719 
686.658496  	0.273799 
688.587312  	0.272320 
690.516128  	0.270299 
692.444944  	0.268561 
694.373760  	0.266539 
696.302576  	0.264952 
698.231392  	0.262591 
700.160208  	0.260399 
702.089024  	0.258411 
704.017840  	0.255771 
705.946656  	0.252962 
707.875472  	0.251144 
709.804288  	0.249535 
711.733104  	0.247664 
713.661920  	0.245656 
715.590736  	0.243822 
717.519552  	0.242037 
719.448368  	0.241303 
721.377184  	0.240600 
723.306000  	0.239615 
725.234816  	0.238447 
727.163632  	0.237079 
729.092448  	0.234586 
731.021264  	0.232232 
732.950080  	0.229933 
734.878896  	0.227643 
736.807712  	0.225217 
738.736528  	0.223053 
740.665344  	0.221479 
742.594160  	0.220241 
744.522976  	0.218545 
746.451792  	0.216891 
748.380608  	0.215049 
750.309424  	0.213637 
752.238240  	0.211803 
754.167056  	0.210221 
756.095872  	0.209041 
758.024688  	0.207822 
759.953504  	0.206149 
761.882320  	0.205351 
763.811136  	0.204496 
765.739952  	0.202610 
767.668768  	0.199966 
769.597584  	0.197650 
771.526400  	0.195536 
773.455216  	0.194658 
775.384032  	0.195120 
777.312848  	0.196470 
779.241664  	0.196965 
781.170480  	0.195351 
783.099296  	0.192002 
785.028112  	0.188312 
786.956928  	0.184419 
788.885744  	0.181100 
790.814560  	0.178579 
792.743376  	0.177010 
794.672192  	0.175602 
796.601008  	0.174117 
798.529824  	0.171407 
800.458640  	0.168159 
802.387456  	0.165415 
804.316272  	0.163413 
806.245088  	0.161846 
808.173904  	0.160359 
810.102720  	0.158860 
812.031536  	0.157439 
813.960352  	0.156045 
815.889168  	0.154842 
817.817984  	0.153941 
819.746800  	0.153441 
821.675616  	0.152663 
823.604432  	0.151820 
825.533248  	0.150790 
827.462064  	0.149865 
829.390880  	0.148709 
831.319696  	0.147468 
833.248512  	0.146123 
835.177328  	0.144568 
837.106144  	0.142475 
839.034960  	0.140617 
840.963776  	0.138001 
842.892592  	0.135282 
844.821408  	0.132913 
846.750224  	0.130621 
848.679040  	0.128464 
850.607856  	0.126787 
852.536672  	0.125494 
854.465488  	0.124333 
856.394304  	0.123166 
858.323120  	0.121663 
860.251936  	0.120239 
862.180752  	0.119259 
864.109568  	0.117612 
866.038384  	0.115670 
867.967200  	0.114004 
869.896016  	0.112672 
871.824832  	0.111487 
873.753648  	0.111049 
875.682464  	0.110621 
877.611280  	0.110311 
879.540096  	0.110517 
881.468912  	0.111201 
883.397728  	0.111970 
885.326544  	0.112494 
887.255360  	0.112645 
889.184176  	0.112178 
891.112992  	0.111593 
893.041808  	0.110655 
894.970624  	0.108942 
896.899440  	0.106641 
898.828256  	0.104068 
900.757072  	0.101635 
902.685888  	0.099317 
904.614704  	0.097620 
906.543520  	0.096686 
908.472336  	0.096673 
910.401152  	0.096849 
912.329968  	0.097291 
914.258784  	0.097853 
916.187600  	0.098617 
918.116416  	0.099132 
920.045232  	0.099312 
921.974048  	0.099121 
923.902864  	0.098887 
925.831680  	0.098619 
927.760496  	0.098106 
929.689312  	0.097833 
931.618128  	0.097894 
933.546944  	0.097699 
935.475760  	0.097137 
937.404576  	0.096518 
939.333392  	0.095783 
941.262208  	0.094964 
943.191024  	0.094553 
945.119840  	0.094732 
947.048656  	0.095802 
948.977472  	0.098144 
950.906288  	0.101202 
952.835104  	0.105010 
954.763920  	0.109693 
956.692736  	0.114624 
958.621552  	0.119494 
960.550368  	0.123338 
962.479184  	0.125837 
964.408000  	0.126533 
966.336816  	0.125307 
968.265632  	0.121900 
970.194448  	0.116893 
972.123264  	0.110416 
974.052080  	0.103419 
975.980896  	0.096153 
977.909712  	0.089145 
979.838528  	0.082967 
981.767344  	0.077810 
983.696160  	0.073714 
985.624976  	0.070867 
987.553792  	0.069541 
989.482608  	0.069513 
991.411424  	0.070734 
993.340240  	0.072875 
995.269056  	0.075460 
997.197872  	0.078382 
999.126688  	0.081473 
1001.055504  	0.084858 
1002.984320  	0.088009 
1004.913136  	0.091238 
1006.841952  	0.094242 
1008.770768  	0.096857 
1010.699584  	0.099267 
1012.628400  	0.101427 
1014.557216  	0.103078 
1016.486032  	0.104205 
1018.414848  	0.104977 
1020.343664  	0.105392 
1022.272480  	0.105778 
1024.201296  	0.105878 
1026.130112  	0.105664 
1028.058928  	0.105820 
1029.987744  	0.106761 
1031.916560  	0.107908 
1033.845376  	0.109091 
1035.774192  	0.110543 
1037.703008  	0.112634 
1039.631824  	0.116338 
1041.560640  	0.121263 
1043.489456  	0.127673 
1045.418272  	0.135438 
1047.347088  	0.144140 
1049.275904  	0.151704 
1051.204720  	0.157592 
1053.133536  	0.161589 
1055.062352  	0.163517 
1056.991168  	0.163953 
1058.919984  	0.164534 
1060.848800  	0.164734 
1062.777616  	0.164918 
1064.706432  	0.164734 
1066.635248  	0.164354 
1068.564064  	0.163453 
1070.492880  	0.161354 
1072.421696  	0.158424 
1074.350512  	0.156636 
1076.279328  	0.156393 
1078.208144  	0.158143 
1080.136960  	0.161231 
1082.065776  	0.164308 
1083.994592  	0.165877 
1085.923408  	0.165645 
1087.852224  	0.163076 
1089.781040  	0.159082 
1091.709856  	0.153533 
1093.638672  	0.146777 
1095.567488  	0.139024 
1097.496304  	0.131292 
1099.425120  	0.123181 
1101.353936  	0.115306 
1103.282752  	0.108028 
1105.211568  	0.101220 
1107.140384  	0.094856 
1109.069200  	0.089014 
1110.998016  	0.083648 
1112.926832  	0.078879 
1114.855648  	0.074695 
1116.784464  	0.070491 
1118.713280  	0.066376 
1120.642096  	0.062486 
1122.570912  	0.058844 
1124.499728  	0.055675 
1126.428544  	0.053054 
1128.357360  	0.050455 
1130.286176  	0.048075 
1132.214992  	0.046175 
1134.143808  	0.044780 
1136.072624  	0.043536 
1138.001440  	0.042228 
1139.930256  	0.041160 
1141.859072  	0.040344 
1143.787888  	0.039492 
1145.716704  	0.038753 
1147.645520  	0.038161 
1149.574336  	0.038003 
1151.503152  	0.037839 
1153.431968  	0.037563 
1155.360784  	0.037402 
1157.289600  	0.037629 
1159.218416  	0.037920 
1161.147232  	0.038036 
1163.076048  	0.038341 
1165.004864  	0.038858 
1166.933680  	0.039376 
1168.862496  	0.039987 
1170.791312  	0.040669 
1172.720128  	0.041583 
1174.648944  	0.042625 
1176.577760  	0.043741 
1178.506576  	0.045052 
1180.435392  	0.046316 
1182.364208  	0.047440 
1184.293024  	0.048828 
1186.221840  	0.050669 
1188.150656  	0.052816 
1190.079472  	0.055066 
1192.008288  	0.057826 
1193.937104  	0.061111 
1195.865920  	0.064678 
1197.794736  	0.068483 
1199.723552  	0.072674 
1201.652368  	0.077025 
1203.581184  	0.081334 
1205.510000  	0.085584 
1207.438816  	0.089494 
1209.367632  	0.093026 
1211.296448  	0.096065 
1213.225264  	0.098522 
1215.154080  	0.100275 
1217.082896  	0.101593 
1219.011712  	0.102071 
1220.940528  	0.102110 
1222.869344  	0.101656 
1224.798160  	0.101127 
1226.726976  	0.099956 
1228.655792  	0.098233 
1230.584608  	0.096293 
1232.513424  	0.093914 
1234.442240  	0.091243 
1236.371056  	0.088381 
1238.299872  	0.085109 
1240.228688  	0.081415 
1242.157504  	0.077766 
1244.086320  	0.074265 
1246.015136  	0.070542 
1247.943952  	0.066938 
1249.872768  	0.063373 
1251.801584  	0.059911 
1253.730400  	0.056640 
1255.659216  	0.053439 
1257.588032  	0.050289 
1259.516848  	0.047476 
1261.445664  	0.044919 
1263.374480  	0.042521 
1265.303296  	0.040399 
1267.232112  	0.038718 
1269.160928  	0.037583 
1271.089744  	0.036794 
1273.018560  	0.036383 
1274.947376  	0.036563 
1276.876192  	0.037052 
1278.805008  	0.037323 
1280.733824  	0.037149 
1282.662640  	0.036488 
1284.591456  	0.035528 
1286.520272  	0.034532 
1288.449088  	0.033864 
1290.377904  	0.033735 
1292.306720  	0.034090 
1294.235536  	0.034476 
1296.164352  	0.034404 
1298.093168  	0.033530 
1300.021984  	0.032271 
1301.950800  	0.030873 
1303.879616  	0.029264 
1305.808432  	0.027672 
1307.737248  	0.026080 
1309.666064  	0.024527 
1311.594880  	0.023299 
1313.523696  	0.022366 
1315.452512  	0.021758 
1317.381328  	0.021545 
1319.310144  	0.021643 
1321.238960  	0.021867 
1323.167776  	0.022251 
1325.096592  	0.022525 
1327.025408  	0.022578 
1328.954224  	0.022445 
1330.883040  	0.022061 
1332.811856  	0.021326 
1334.740672  	0.020584 
1336.669488  	0.020132 
1338.598304  	0.020087 
1340.527120  	0.019986 
1342.455936  	0.019469 
1344.384752  	0.019250 
1346.313568  	0.019355 
1348.242384  	0.019692 
1350.171200  	0.020234 
1352.100016  	0.021040 
1354.028832  	0.021980 
1355.957648  	0.022932 
1357.886464  	0.023865 
1359.815280  	0.024806 
1361.744096  	0.025943 
1363.672912  	0.027090 
1365.601728  	0.027775 
1367.530544  	0.028529 
1369.459360  	0.029419 
1371.388176  	0.029886 
1373.316992  	0.029978 
1375.245808  	0.029645 
1377.174624  	0.028579 
1379.103440  	0.027398 
1381.032256  	0.026143 
1382.961072  	0.024803 
1384.889888  	0.023727 
1386.818704  	0.023180 
1388.747520  	0.022374 
1390.676336  	0.021109 
1392.605152  	0.020008 
1394.533968  	0.019475 
1396.462784  	0.019671 
1398.391600  	0.019552 
1400.320416  	0.019543 
1402.249232  	0.019357 
1404.178048  	0.019581 
1406.106864  	0.020154 
1408.035680  	0.020845 
1409.964496  	0.021631 
1411.893312  	0.022684 
1413.822128  	0.023797 
1415.750944  	0.024833 
1417.679760  	0.025566 
1419.608576  	0.026559 
1421.537392  	0.026604 
1423.466208  	0.026183 
1425.395024  	0.025530 
1427.323840  	0.024482 
1429.252656  	0.023518 
1431.181472  	0.022629 
1433.110288  	0.021926 
1435.039104  	0.021732 
1436.967920  	0.022275 
1438.896736  	0.022910 
1440.825552  	0.023323 
1442.754368  	0.023622 
1444.683184  	0.023546 
1446.612000  	0.023596 
1448.540816  	0.023703 
1450.469632  	0.023741 
1452.398448  	0.023734 
1454.327264  	0.023655 
1456.256080  	0.024016 
1458.184896  	0.025245 
1460.113712  	0.024713 
1462.042528  	0.024110 
1463.971344  	0.023815 
1465.900160  	0.024246 
1467.828976  	0.024346 
1469.757792  	0.024537 
1471.686608  	0.025812 
1473.615424  	0.029451 
1475.544240  	0.031453 
1477.473056  	0.033601 
1479.401872  	0.034860 
1481.330688  	0.036452 
1483.259504  	0.037758 
1485.188320  	0.038319 
1487.117136  	0.038782 
1489.045952  	0.039387 
1490.974768  	0.039068 
1492.903584  	0.037826 
1494.832400  	0.035747 
1496.761216  	0.033604 
1498.690032  	0.031128 
1500.618848  	0.028564 
1502.547664  	0.026326 
1504.476480  	0.024696 
1506.405296  	0.023365 
1508.334112  	0.023435 
1510.262928  	0.022231 
1512.191744  	0.021183 
1514.120560  	0.020819 
1516.049376  	0.021341 
1517.978192  	0.022530 
1519.907008  	0.022974 
1521.835824  	0.024987 
1523.764640  	0.026374 
1525.693456  	0.027677 
1527.622272  	0.029228 
1529.551088  	0.029351 
1531.479904  	0.028644 
1533.408720  	0.028118 
1535.337536  	0.027279 
1537.266352  	0.025760 
1539.195168  	0.024478 
1541.123984  	0.023916 
1543.052800  	0.023329 
1544.981616  	0.022575 
1546.910432  	0.021544 
1548.839248  	0.020985 
1550.768064  	0.021205 
1552.696880  	0.020719 
1554.625696  	0.020876 
1556.554512  	0.020846 
1558.483328  	0.022007 
1560.412144  	0.024031 
1562.340960  	0.023935 
1564.269776  	0.024622 
1566.198592  	0.026412 
1568.127408  	0.027493 
1570.056224  	0.030731 
1571.985040  	0.032502 
1573.913856  	0.033176 
1575.842672  	0.034876 
1577.771488  	0.036864 
1579.700304  	0.036025 
1581.629120  	0.035405 
1583.557936  	0.034984 
1585.486752  	0.035420 
1587.415568  	0.036240 
1589.344384  	0.037854 
1591.273200  	0.040046 
1593.202016  	0.042968 
1595.130832  	0.046077 
1597.059648  	0.049297 
1598.988464  	0.052021 
1600.917280  	0.054808 
1602.846096  	0.057018 
1604.774912  	0.058696 
1606.703728  	0.059415 
1608.632544  	0.059883 
1610.561360  	0.059476 
1612.490176  	0.058944 
1614.418992  	0.057673 
1616.347808  	0.058289 
1618.276624  	0.060263 
1620.205440  	0.060644 
1622.134256  	0.061489 
1624.063072  	0.065533 
1625.991888  	0.068046 
1627.920704  	0.071763 
1629.849520  	0.075762 
1631.778336  	0.078628 
1633.707152  	0.080658 
1635.635968  	0.086782 
1637.564784  	0.093396 
1639.493600  	0.095133 
1641.422416  	0.097210 
1643.351232  	0.098802 
1645.280048  	0.099166 
1647.208864  	0.103320 
1649.137680  	0.104427 
1651.066496  	0.101596 
1652.995312  	0.102317 
1654.924128  	0.107225 
1656.852944  	0.104359 
1658.781760  	0.102745 
1660.710576  	0.101242 
1662.639392  	0.100660 
1664.568208  	0.099324 
1666.497024  	0.096422 
1668.425840  	0.093681 
1670.354656  	0.092095 
1672.283472  	0.089681 
1674.212288  	0.087131 
1676.141104  	0.086127 
1678.069920  	0.084154 
1679.998736  	0.082682 
1681.927552  	0.081061 
1683.856368  	0.080498 
1685.785184  	0.082390 
1687.714000  	0.080547 
1689.642816  	0.080337 
1691.571632  	0.079817 
1693.500448  	0.078181 
1695.429264  	0.077635 
1697.358080  	0.078598 
1699.286896  	0.076452 
1701.215712  	0.078019 
1703.144528  	0.076325 
1705.073344  	0.074778 
1707.002160  	0.073707 
1708.930976  	0.071417 
1710.859792  	0.068651 
1712.788608  	0.065434 
1714.717424  	0.061266 
1716.646240  	0.056431 
1718.575056  	0.050308 
1720.503872  	0.044860 
1722.432688  	0.039550 
1724.361504  	0.033883 
1726.290320  	0.028971 
1728.219136  	0.024861 
1730.147952  	0.021340 
1732.076768  	0.018303 
1734.005584  	0.015292 
1735.934400  	0.013007 
1737.863216  	0.011672 
1739.792032  	0.009935 
1741.720848  	0.008692 
1743.649664  	0.007754 
1745.578480  	0.006967 
1747.507296  	0.006220 
1749.436112  	0.005751 
1751.364928  	0.004902 
1753.293744  	0.004360 
1755.222560  	0.003789 
1757.151376  	0.003739 
1759.080192  	0.003437 
1761.009008  	0.003046 
1762.937824  	0.002627 
1764.866640  	0.002440 
1766.795456  	0.002276 
1768.724272  	0.002334 
1770.653088  	0.001851 
1772.581904  	0.001898 
1774.510720  	0.001941 
1776.439536  	0.001586 
1778.368352  	0.000954 
1780.297168  	0.000795 
1782.225984  	0.000638 
1784.154800  	0.000500 
1786.083616  	0.000294 
1788.012432  	0.000323 
1789.941248  	0.000397 
1791.870064  	0.000449 
1793.798880  	0.000120 
1795.727696  	0.000100 
1797.656512  	-0.000207 
1799.585328  	-0.000351 
1801.514144  	-0.000192 
1803.442960  	-0.000157 
1805.371776  	-0.000279 
1807.300592  	-0.000488 
1809.229408  	-0.000769 
1811.158224  	-0.000693 
1813.087040  	-0.000843 
1815.015856  	-0.001077 
1816.944672  	-0.000939 
1818.873488  	-0.000596 
1820.802304  	-0.000674 
1822.731120  	-0.000709 
1824.659936  	-0.001051 
1826.588752  	-0.000922 
1828.517568  	-0.001185 
1830.446384  	-0.001235 
1832.375200  	-0.001253 
1834.304016  	-0.001121 
1836.232832  	-0.001300 
1838.161648  	-0.001271 
1840.090464  	-0.001357 
1842.019280  	-0.001695 
1843.948096  	-0.001948 
1845.876912  	-0.001556 
1847.805728  	-0.001787 
1849.734544  	-0.001878 
1851.663360  	-0.001656 
1853.592176  	-0.001337 
1855.520992  	-0.001512 
1857.449808  	-0.001526 
1859.378624  	-0.001929 
1861.307440  	-0.001967 
1863.236256  	-0.001880 
1865.165072  	-0.001810 
1867.093888  	-0.002171 
1869.022704  	-0.001503 
1870.951520  	-0.001362 
1872.880336  	-0.001624 
1874.809152  	-0.001997 
1876.737968  	-0.002154 
1878.666784  	-0.002206 
1880.595600  	-0.002290 
1882.524416  	-0.002233 
1884.453232  	-0.001969 
1886.382048  	-0.002368 
1888.310864  	-0.002402 
1890.239680  	-0.002359 
1892.168496  	-0.001818 
1894.097312  	-0.001345 
1896.026128  	-0.001515 
1897.954944  	-0.001847 
1899.883760  	-0.002172 
1901.812576  	-0.002531 
1903.741392  	-0.002427 
1905.670208  	-0.002773 
1907.599024  	-0.003120 
1909.527840  	-0.002776 
1911.456656  	-0.001758 
1913.385472  	-0.001594 
1915.314288  	-0.001810 
1917.243104  	-0.001983 
1919.171920  	-0.001777 
1921.100736  	-0.002252 
1923.029552  	-0.002855 
1924.958368  	-0.003375 
1926.887184  	-0.003040 
1928.816000  	-0.003454 
1930.744816  	-0.003317 
1932.673632  	-0.003073 
1934.602448  	-0.002567 
1936.531264  	-0.002423 
1938.460080  	-0.002171 
1940.388896  	-0.002022 
1942.317712  	-0.001865 
1944.246528  	-0.002861 
1946.175344  	-0.002924 
1948.104160  	-0.002463 
1950.032976  	-0.002228 
1951.961792  	-0.002722 
1953.890608  	-0.003041 
1955.819424  	-0.003751 
1957.748240  	-0.003680 
1959.677056  	-0.003216 
1961.605872  	-0.002706 
1963.534688  	-0.002742 
1965.463504  	-0.001745 
1967.392320  	-0.002131 
1969.321136  	-0.002981 
1971.249952  	-0.004540 
1973.178768  	-0.004564 
1975.107584  	-0.003727 
1977.036400  	-0.003244 
1978.965216  	-0.002718 
1980.894032  	-0.002029 
1982.822848  	-0.001832 
1984.751664  	-0.001631 
1986.680480  	-0.001721 
1988.609296  	-0.001461 
1990.538112  	-0.001393 
1992.466928  	-0.000891 
1994.395744  	-0.001781 
1996.324560  	-0.001660 
1998.253376  	-0.002186 
2000.182192  	-0.003229 
2002.111008  	-0.003381 
2004.039824  	-0.002291 
2005.968640  	-0.001763 
2007.897456  	-0.001266 
2009.826272  	-0.001560 
2011.755088  	-0.001770 
2013.683904  	-0.002492 
2015.612720  	-0.002487 
2017.541536  	-0.002255 
2019.470352  	-0.002013 
2021.399168  	-0.002408 
2023.327984  	-0.001788 
2025.256800  	-0.001804 
2027.185616  	-0.000692 
2029.114432  	-0.000084 
2031.043248  	-0.000008 
2032.972064  	-0.000950 
2034.900880  	-0.000975 
2036.829696  	-0.000869 
2038.758512  	-0.000829 
2040.687328  	-0.001700 
2042.616144  	-0.000881 
2044.544960  	-0.001061 
2046.473776  	-0.000698 
2048.402592  	0.000252 
2050.331408  	0.000407 
2052.260224  	0.000167 
2054.189040  	0.000150 
2056.117856  	-0.000346 
2058.046672  	-0.000518 
2059.975488  	-0.000905 
2061.904304  	-0.000509 
2063.833120  	0.000019 
2065.761936  	0.000417 
2067.690752  	0.000014 
2069.619568  	-0.000624 
2071.548384  	-0.001275 
2073.477200  	-0.000553 
2075.406016  	0.000274 
2077.334832  	0.000282 
2079.263648  	0.000303 
2081.192464  	0.000657 
2083.121280  	0.000380 
2085.050096  	-0.000397 
2086.978912  	-0.000893 
2088.907728  	-0.000190 
2090.836544  	0.000564 
2092.765360  	0.000320 
2094.694176  	-0.000356 
2096.622992  	0.000174 
2098.551808  	0.000454 
2100.480624  	0.000538 
2102.409440  	0.000430 
2104.338256  	0.000439 
2106.267072  	0.000399 
2108.195888  	0.000481 
2110.124704  	0.000369 
2112.053520  	0.000476 
2113.982336  	0.000580 
2115.911152  	0.000299 
2117.839968  	-0.000422 
2119.768784  	-0.000744 
2121.697600  	-0.000379 
2123.626416  	-0.000191 
2125.555232  	-0.000481 
2127.484048  	-0.001026 
2129.412864  	-0.000742 
2131.341680  	-0.000142 
2133.270496  	-0.000236 
2135.199312  	-0.000185 
2137.128128  	0.000005 
2139.056944  	0.000630 
2140.985760  	0.001236 
2142.914576  	0.001642 
2144.843392  	0.000462 
2146.772208  	0.000203 
2148.701024  	0.000638 
2150.629840  	0.000222 
2152.558656  	-0.000214 
2154.487472  	0.000272 
2156.416288  	0.000569 
2158.345104  	0.002645 
2160.273920  	0.005248 
2162.202736  	0.004388 
2164.131552  	0.002463 
2166.060368  	0.002399 
2167.989184  	0.001686 
2169.918000  	0.001628 
2171.846816  	0.002827 
2173.775632  	0.002832 
2175.704448  	0.001723 
2177.633264  	0.001475 
2179.562080  	0.000865 
2181.490896  	0.001020 
2183.419712  	0.001891 
2185.348528  	0.002130 
2187.277344  	0.001160 
2189.206160  	0.001210 
2191.134976  	0.001644 
2193.063792  	0.001840 
2194.992608  	0.001497 
2196.921424  	0.000831 
2198.850240  	-0.000404 
2200.779056  	-0.000738 
2202.707872  	-0.000009 
2204.636688  	0.001017 
2206.565504  	0.000351 
2208.494320  	-0.000331 
2210.423136  	0.000022 
2212.351952  	0.000242 
2214.280768  	-0.000083 
2216.209584  	-0.000364 
2218.138400  	-0.000682 
2220.067216  	-0.000879 
2221.996032  	-0.000987 
2223.924848  	-0.000341 
2225.853664  	0.000111 
2227.782480  	0.000481 
2229.711296  	0.000240 
2231.640112  	-0.000108 
2233.568928  	-0.000533 
2235.497744  	-0.000726 
2237.426560  	-0.000411 
2239.355376  	-0.000200 
2241.284192  	-0.001104 
2243.213008  	-0.001505 
2245.141824  	-0.001022 
2247.070640  	-0.000868 
2248.999456  	-0.000463 
2250.928272  	-0.000156 
2252.857088  	-0.000285 
2254.785904  	0.000037 
2256.714720  	0.000378 
2258.643536  	0.000270 
2260.572352  	0.000254 
2262.501168  	0.000354 
2264.429984  	0.000484 
2266.358800  	0.000583 
2268.287616  	0.000282 
2270.216432  	0.000020 
2272.145248  	-0.000131 
2274.074064  	0.000142 
2276.002880  	0.000189 
2277.931696  	0.000073 
2279.860512  	0.000049 
2281.789328  	0.000155 
2283.718144  	0.000261 
2285.646960  	0.000543 
2287.575776  	0.000452 
2289.504592  	0.000467 
2291.433408  	0.000383 
2293.362224  	0.000477 
2295.291040  	0.000300 
2297.219856  	0.000237 
2299.148672  	0.000313 
2301.077488  	0.000314 
2303.006304  	0.000545 
2304.935120  	0.000763 
2306.863936  	0.000471 
2308.792752  	0.000513 
2310.721568  	0.000405 
2312.650384  	0.000204 
2314.579200  	0.000079 
2316.508016  	0.000263 
2318.436832  	0.000540 
2320.365648  	0.000886 
2322.294464  	0.000683 
2324.223280  	0.000409 
2326.152096  	-0.000393 
2328.080912  	-0.001083 
2330.009728  	-0.001308 
2331.938544  	-0.001294 
2333.867360  	-0.001133 
2335.796176  	-0.001394 
2337.724992  	-0.001890 
2339.653808  	-0.001842 
2341.582624  	-0.001555 
2343.511440  	-0.001248 
2345.440256  	-0.000806 
2347.369072  	-0.000495 
2349.297888  	-0.000607 
2351.226704  	-0.000980 
2353.155520  	-0.001827 
2355.084336  	-0.002291 
2357.013152  	-0.001750 
2358.941968  	-0.001476 
2360.870784  	-0.002136 
2362.799600  	-0.002168 
2364.728416  	-0.001863 
2366.657232  	-0.001430 
2368.586048  	-0.001294 
2370.514864  	-0.001188 
2372.443680  	-0.001156 
2374.372496  	-0.000674 
2376.301312  	-0.000265 
2378.230128  	-0.000140 
2380.158944  	-0.000204 
2382.087760  	-0.000117 
2384.016576  	-0.000099 
2385.945392  	-0.000048 
2387.874208  	-0.000037 
2389.803024  	-0.000344 
2391.731840  	-0.000673 
2393.660656  	-0.000456 
2395.589472  	-0.000214 
2397.518288  	-0.000282 
2399.447104  	-0.000398 
2401.375920  	-0.000279 
2403.304736  	-0.000437 
2405.233552  	-0.000770 
2407.162368  	-0.000745 
2409.091184  	-0.000587 
2411.020000  	-0.000653 
2412.948816  	-0.000759 
2414.877632  	-0.000640 
2416.806448  	-0.000356 
2418.735264  	-0.000240 
2420.664080  	-0.000215 
2422.592896  	-0.000248 
2424.521712  	-0.000184 
2426.450528  	-0.000180 
2428.379344  	-0.000210 
2430.308160  	-0.000215 
2432.236976  	-0.000236 
2434.165792  	0.000002 
2436.094608  	0.000284 
2438.023424  	0.000176 
2439.952240  	0.000156 
2441.881056  	0.000025 
2443.809872  	-0.000124 
2445.738688  	-0.000033 
2447.667504  	0.000236 
2449.596320  	0.000312 
2451.525136  	0.000256 
2453.453952  	0.000323 
2455.382768  	0.000414 
2457.311584  	0.000333 
2459.240400  	0.000130 
2461.169216  	0.000242 
2463.098032  	0.000544 
2465.026848  	0.000491 
2466.955664  	0.000355 
2468.884480  	0.000240 
2470.813296  	0.000212 
2472.742112  	0.000340 
2474.670928  	0.000619 
2476.599744  	0.000967 
2478.528560  	0.001150 
2480.457376  	0.001128 
2482.386192  	0.001233 
2484.315008  	0.001084 
2486.243824  	0.001217 
2488.172640  	0.001445 
2490.101456  	0.001457 
2492.030272  	0.001433 
2493.959088  	0.001367 
2495.887904  	0.001284 
2497.816720  	0.001450 
2499.745536  	0.001542 
2501.674352  	0.001369 
2503.603168  	0.001248 
2505.531984  	0.001369 
2507.460800  	0.001344 
2509.389616  	0.001347 
2511.318432  	0.001297 
2513.247248  	0.001381 
2515.176064  	0.001505 
2517.104880  	0.001574 
2519.033696  	0.001352 
2520.962512  	0.001516 
2522.891328  	0.001714 
2524.820144  	0.001974 
2526.748960  	0.002088 
2528.677776  	0.002132 
2530.606592  	0.002120 
2532.535408  	0.002261 
2534.464224  	0.002102 
2536.393040  	0.001915 
2538.321856  	0.002096 
2540.250672  	0.002361 
2542.179488  	0.002407 
2544.108304  	0.002401 
2546.037120  	0.002522 
2547.965936  	0.002650 
2549.894752  	0.002691 
2551.823568  	0.002772 
2553.752384  	0.002926 
2555.681200  	0.002864 
2557.610016  	0.002593 
2559.538832  	0.002568 
2561.467648  	0.002864 
2563.396464  	0.003161 
2565.325280  	0.003250 
2567.254096  	0.003221 
2569.182912  	0.003103 
2571.111728  	0.003046 
2573.040544  	0.003260 
2574.969360  	0.003383 
2576.898176  	0.003330 
2578.826992  	0.003329 
2580.755808  	0.003263 
2582.684624  	0.003421 
2584.613440  	0.003590 
2586.542256  	0.003652 
2588.471072  	0.003666 
2590.399888  	0.003743 
2592.328704  	0.003793 
2594.257520  	0.003868 
2596.186336  	0.003747 
2598.115152  	0.003819 
2600.043968  	0.004177 
2601.972784  	0.004245 
2603.901600  	0.004269 
2605.830416  	0.004125 
2607.759232  	0.004130 
2609.688048  	0.004230 
2611.616864  	0.004358 
2613.545680  	0.004422 
2615.474496  	0.004421 
2617.403312  	0.004602 
2619.332128  	0.004640 
2621.260944  	0.004553 
2623.189760  	0.004613 
2625.118576  	0.004777 
2627.047392  	0.004838 
2628.976208  	0.005051 
2630.905024  	0.005163 
2632.833840  	0.005204 
2634.762656  	0.005128 
2636.691472  	0.005197 
2638.620288  	0.005347 
2640.549104  	0.005531 
2642.477920  	0.005689 
2644.406736  	0.005635 
2646.335552  	0.005598 
2648.264368  	0.005756 
2650.193184  	0.005953 
2652.122000  	0.006101 
2654.050816  	0.006163 
2655.979632  	0.006124 
2657.908448  	0.006155 
2659.837264  	0.006278 
2661.766080  	0.006373 
2663.694896  	0.006390 
2665.623712  	0.006463 
2667.552528  	0.006554 
2669.481344  	0.006542 
2671.410160  	0.006506 
2673.338976  	0.006595 
2675.267792  	0.006817 
2677.196608  	0.007005 
2679.125424  	0.006990 
2681.054240  	0.006949 
2682.983056  	0.007017 
2684.911872  	0.007119 
2686.840688  	0.007190 
2688.769504  	0.007197 
2690.698320  	0.007218 
2692.627136  	0.007279 
2694.555952  	0.007356 
2696.484768  	0.007448 
2698.413584  	0.007532 
2700.342400  	0.007535 
2702.271216  	0.007745 
2704.200032  	0.007889 
2706.128848  	0.007949 
2708.057664  	0.008059 
2709.986480  	0.008071 
2711.915296  	0.008095 
2713.844112  	0.008184 
2715.772928  	0.008336 
2717.701744  	0.008394 
2719.630560  	0.008422 
2721.559376  	0.008465 
2723.488192  	0.008496 
2725.417008  	0.008559 
2727.345824  	0.008679 
2729.274640  	0.008901 
2731.203456  	0.008970 
2733.132272  	0.008897 
2735.061088  	0.008885 
2736.989904  	0.008914 
2738.918720  	0.008985 
2740.847536  	0.009067 
2742.776352  	0.009261 
2744.705168  	0.009457 
2746.633984  	0.009477 
2748.562800  	0.009548 
2750.491616  	0.009622 
2752.420432  	0.009576 
2754.349248  	0.009610 
2756.278064  	0.009668 
2758.206880  	0.009642 
2760.135696  	0.009578 
2762.064512  	0.009616 
2763.993328  	0.009712 
2765.922144  	0.009813 
2767.850960  	0.009840 
2769.779776  	0.009814 
2771.708592  	0.009842 
2773.637408  	0.009852 
2775.566224  	0.009849 
2777.495040  	0.009759 
2779.423856  	0.009746 
2781.352672  	0.009880 
2783.281488  	0.009892 
2785.210304  	0.009911 
2787.139120  	0.010030 
2789.067936  	0.009970 
2790.996752  	0.009917 
2792.925568  	0.010001 
2794.854384  	0.009977 
2796.783200  	0.009992 
2798.712016  	0.010078 
2800.640832  	0.010102 
2802.569648  	0.010201 
2804.498464  	0.010259 
2806.427280  	0.010358 
2808.356096  	0.010430 
2810.284912  	0.010386 
2812.213728  	0.010373 
2814.142544  	0.010513 
2816.071360  	0.010549 
2818.000176  	0.010621 
2819.928992  	0.010740 
2821.857808  	0.010695 
2823.786624  	0.010610 
2825.715440  	0.010669 
2827.644256  	0.010713 
2829.573072  	0.010694 
2831.501888  	0.010761 
2833.430704  	0.010842 
2835.359520  	0.010798 
2837.288336  	0.010659 
2839.217152  	0.010642 
2841.145968  	0.010583 
2843.074784  	0.010525 
2845.003600  	0.010637 
2846.932416  	0.010720 
2848.861232  	0.010792 
2850.790048  	0.010740 
2852.718864  	0.010693 
2854.647680  	0.010686 
2856.576496  	0.010787 
2858.505312  	0.010787 
2860.434128  	0.010845 
2862.362944  	0.010922 
2864.291760  	0.010948 
2866.220576  	0.010924 
2868.149392  	0.010851 
2870.078208  	0.010916 
2872.007024  	0.011110 
2873.935840  	0.011378 
2875.864656  	0.011499 
2877.793472  	0.011588 
2879.722288  	0.011824 
2881.651104  	0.012048 
2883.579920  	0.012240 
2885.508736  	0.012403 
2887.437552  	0.012473 
2889.366368  	0.012417 
2891.295184  	0.012463 
2893.224000  	0.012519 
2895.152816  	0.012575 
2897.081632  	0.012549 
2899.010448  	0.012186 
2900.939264  	0.011867 
2902.868080  	0.012079 
2904.796896  	0.012256 
2906.725712  	0.012326 
2908.654528  	0.012548 
2910.583344  	0.012812 
2912.512160  	0.012954 
2914.440976  	0.013095 
2916.369792  	0.013504 
2918.298608  	0.013814 
2920.227424  	0.014020 
2922.156240  	0.014306 
2924.085056  	0.014617 
2926.013872  	0.014810 
2927.942688  	0.015252 
2929.871504  	0.015758 
2931.800320  	0.016046 
2933.729136  	0.016325 
2935.657952  	0.016624 
2937.586768  	0.017031 
2939.515584  	0.017298 
2941.444400  	0.017285 
2943.373216  	0.017396 
2945.302032  	0.017714 
2947.230848  	0.017912 
2949.159664  	0.017805 
2951.088480  	0.017746 
2953.017296  	0.017771 
2954.946112  	0.017564 
2956.874928  	0.017365 
2958.803744  	0.017182 
2960.732560  	0.017060 
2962.661376  	0.016880 
2964.590192  	0.016617 
2966.519008  	0.016395 
2968.447824  	0.016103 
2970.376640  	0.015916 
2972.305456  	0.015660 
2974.234272  	0.015633 
2976.163088  	0.015609 
2978.091904  	0.015538 
2980.020720  	0.015394 
2981.949536  	0.015343 
2983.878352  	0.015381 
2985.807168  	0.015226 
2987.735984  	0.015259 
2989.664800  	0.015418 
2991.593616  	0.015794 
2993.522432  	0.016035 
2995.451248  	0.016084 
2997.380064  	0.016392 
2999.308880  	0.016882 
3001.237696  	0.017267 
3003.166512  	0.017559 
3005.095328  	0.017685 
3007.024144  	0.017862 
3008.952960  	0.018322 
3010.881776  	0.018864 
3012.810592  	0.019264 
3014.739408  	0.019570 
3016.668224  	0.019835 
3018.597040  	0.020104 
3020.525856  	0.020466 
3022.454672  	0.020701 
3024.383488  	0.020943 
3026.312304  	0.021367 
3028.241120  	0.021667 
3030.169936  	0.022055 
3032.098752  	0.022583 
3034.027568  	0.022753 
3035.956384  	0.022966 
3037.885200  	0.023286 
3039.814016  	0.023560 
3041.742832  	0.023918 
3043.671648  	0.024259 
3045.600464  	0.024534 
3047.529280  	0.024762 
3049.458096  	0.025154 
3051.386912  	0.025469 
3053.315728  	0.025701 
3055.244544  	0.025944 
3057.173360  	0.026276 
3059.102176  	0.026716 
3061.030992  	0.027147 
3062.959808  	0.027428 
3064.888624  	0.027796 
3066.817440  	0.028336 
3068.746256  	0.028813 
3070.675072  	0.029023 
3072.603888  	0.029323 
3074.532704  	0.029691 
3076.461520  	0.030110 
3078.390336  	0.030633 
3080.319152  	0.031108 
3082.247968  	0.031522 
3084.176784  	0.031928 
3086.105600  	0.032432 
3088.034416  	0.032847 
3089.963232  	0.033043 
3091.892048  	0.033340 
3093.820864  	0.033669 
3095.749680  	0.034155 
3097.678496  	0.034687 
3099.607312  	0.035142 
3101.536128  	0.035803 
3103.464944  	0.036250 
3105.393760  	0.036492 
3107.322576  	0.036937 
3109.251392  	0.037466 
3111.180208  	0.037758 
3113.109024  	0.037964 
3115.037840  	0.038301 
3116.966656  	0.038797 
3118.895472  	0.039243 
3120.824288  	0.039632 
3122.753104  	0.040099 
3124.681920  	0.040434 
3126.610736  	0.040668 
3128.539552  	0.041114 
3130.468368  	0.041466 
3132.397184  	0.041862 
3134.326000  	0.042203 
3136.254816  	0.042485 
3138.183632  	0.042934 
3140.112448  	0.043154 
3142.041264  	0.043532 
3143.970080  	0.044073 
3145.898896  	0.044406 
3147.827712  	0.044611 
3149.756528  	0.045041 
3151.685344  	0.045440 
3153.614160  	0.045703 
3155.542976  	0.046107 
3157.471792  	0.046636 
3159.400608  	0.047093 
3161.329424  	0.047515 
3163.258240  	0.047913 
3165.187056  	0.048263 
3167.115872  	0.048466 
3169.044688  	0.048868 
3170.973504  	0.049372 
3172.902320  	0.049537 
3174.831136  	0.049686 
3176.759952  	0.050109 
3178.688768  	0.050562 
3180.617584  	0.050744 
3182.546400  	0.050962 
3184.475216  	0.051185 
3186.404032  	0.051450 
3188.332848  	0.051663 
3190.261664  	0.051719 
3192.190480  	0.051819 
3194.119296  	0.052089 
3196.048112  	0.052032 
3197.976928  	0.052260 
3199.905744  	0.052558 
3201.834560  	0.052603 
3203.763376  	0.052498 
3205.692192  	0.052254 
3207.621008  	0.052186 
3209.549824  	0.052442 
3211.478640  	0.052526 
3213.407456  	0.052394 
3215.336272  	0.052288 
3217.265088  	0.052258 
3219.193904  	0.052419 
3221.122720  	0.052520 
3223.051536  	0.052378 
3224.980352  	0.052316 
3226.909168  	0.052314 
3228.837984  	0.052179 
3230.766800  	0.051989 
3232.695616  	0.052127 
3234.624432  	0.052160 
3236.553248  	0.052223 
3238.482064  	0.052288 
3240.410880  	0.052185 
3242.339696  	0.052125 
3244.268512  	0.052290 
3246.197328  	0.052464 
3248.126144  	0.052271 
3250.054960  	0.052384 
3251.983776  	0.052583 
3253.912592  	0.052753 
3255.841408  	0.052822 
3257.770224  	0.052918 
3259.699040  	0.053178 
3261.627856  	0.053432 
3263.556672  	0.053533 
3265.485488  	0.053621 
3267.414304  	0.053611 
3269.343120  	0.053670 
3271.271936  	0.053873 
3273.200752  	0.054059 
3275.129568  	0.054122 
3277.058384  	0.054139 
3278.987200  	0.054128 
3280.916016  	0.054241 
3282.844832  	0.054453 
3284.773648  	0.054607 
3286.702464  	0.054757 
3288.631280  	0.054948 
3290.560096  	0.054903 
3292.488912  	0.054800 
3294.417728  	0.054973 
3296.346544  	0.055240 
3298.275360  	0.055522 
3300.204176  	0.055799 
3302.132992  	0.055988 
3304.061808  	0.056291 
3305.990624  	0.056498 
3307.919440  	0.056644 
3309.848256  	0.056842 
3311.777072  	0.056997 
3313.705888  	0.057196 
3315.634704  	0.057502 
3317.563520  	0.057767 
3319.492336  	0.057857 
3321.421152  	0.057960 
3323.349968  	0.058270 
3325.278784  	0.058530 
3327.207600  	0.058707 
3329.136416  	0.058556 
3331.065232  	0.058421 
3332.994048  	0.058544 
3334.922864  	0.058818 
3336.851680  	0.058970 
3338.780496  	0.059021 
3340.709312  	0.058831 
3342.638128  	0.058902 
3344.566944  	0.058843 
3346.495760  	0.058689 
3348.424576  	0.058773 
3350.353392  	0.058750 
3352.282208  	0.058488 
3354.211024  	0.058277 
3356.139840  	0.058189 
3358.068656  	0.058218 
3359.997472  	0.057958 
3361.926288  	0.057744 
3363.855104  	0.057567 
3365.783920  	0.057369 
3367.712736  	0.057262 
3369.641552  	0.057193 
3371.570368  	0.057043 
3373.499184  	0.056952 
3375.428000  	0.056926 
3377.356816  	0.056767 
3379.285632  	0.056547 
3381.214448  	0.056289 
3383.143264  	0.056140 
3385.072080  	0.056105 
3387.000896  	0.055735 
3388.929712  	0.055274 
3390.858528  	0.054963 
3392.787344  	0.054996 
3394.716160  	0.054948 
3396.644976  	0.054893 
3398.573792  	0.054571 
3400.502608  	0.054022 
3402.431424  	0.053703 
3404.360240  	0.053518 
3406.289056  	0.053159 
3408.217872  	0.052863 
3410.146688  	0.052554 
3412.075504  	0.052189 
3414.004320  	0.052019 
3415.933136  	0.051863 
3417.861952  	0.051539 
3419.790768  	0.051332 
3421.719584  	0.051226 
3423.648400  	0.050856 
3425.577216  	0.050348 
3427.506032  	0.050082 
3429.434848  	0.049736 
3431.363664  	0.049457 
3433.292480  	0.049076 
3435.221296  	0.048671 
3437.150112  	0.048155 
3439.078928  	0.047711 
3441.007744  	0.047329 
3442.936560  	0.047120 
3444.865376  	0.046404 
3446.794192  	0.046343 
3448.723008  	0.046591 
3450.651824  	0.045850 
3452.580640  	0.045320 
3454.509456  	0.044806 
3456.438272  	0.044286 
3458.367088  	0.043997 
3460.295904  	0.043655 
3462.224720  	0.043164 
3464.153536  	0.042578 
3466.082352  	0.041902 
3468.011168  	0.041544 
3469.939984  	0.041210 
3471.868800  	0.040538 
3473.797616  	0.039758 
3475.726432  	0.039389 
3477.655248  	0.038841 
3479.584064  	0.038191 
3481.512880  	0.038042 
3483.441696  	0.037734 
3485.370512  	0.036925 
3487.299328  	0.036447 
3489.228144  	0.036124 
3491.156960  	0.035443 
3493.085776  	0.034936 
3495.014592  	0.034433 
3496.943408  	0.033969 
3498.872224  	0.033429 
3500.801040  	0.032772 
3502.729856  	0.032423 
3504.658672  	0.032257 
3506.587488  	0.031490 
3508.516304  	0.030818 
3510.445120  	0.030626 
3512.373936  	0.030255 
3514.302752  	0.029770 
3516.231568  	0.029318 
3518.160384  	0.028766 
3520.089200  	0.028164 
3522.018016  	0.027514 
3523.946832  	0.027351 
3525.875648  	0.027114 
3527.804464  	0.026586 
3529.733280  	0.026254 
3531.662096  	0.025670 
3533.590912  	0.025090 
3535.519728  	0.024908 
3537.448544  	0.024641 
3539.377360  	0.024053 
3541.306176  	0.023467 
3543.234992  	0.022962 
3545.163808  	0.022824 
3547.092624  	0.022924 
3549.021440  	0.022193 
3550.950256  	0.021236 
3552.879072  	0.021043 
3554.807888  	0.020454 
3556.736704  	0.019714 
3558.665520  	0.019321 
3560.594336  	0.018878 
3562.523152  	0.018325 
3564.451968  	0.017759 
3566.380784  	0.017876 
3568.309600  	0.018339 
3570.238416  	0.017588 
3572.167232  	0.016713 
3574.096048  	0.016136 
3576.024864  	0.015728 
3577.953680  	0.015143 
3579.882496  	0.014353 
3581.811312  	0.013832 
3583.740128  	0.013455 
3585.668944  	0.012885 
3587.597760  	0.012801 
3589.526576  	0.012802 
3591.455392  	0.011797 
3593.384208  	0.011182 
3595.313024  	0.010982 
3597.241840  	0.010351 
3599.170656  	0.009578 
3601.099472  	0.009180 
3603.028288  	0.008594 
3604.957104  	0.007954 
3606.885920  	0.007653 
3608.814736  	0.007740 
3610.743552  	0.006845 
3612.672368  	0.006109 
3614.601184  	0.005968 
3616.530000  	0.005359 
3618.458816  	0.004629 
3620.387632  	0.004282 
3622.316448  	0.003708 
3624.245264  	0.003196 
3626.174080  	0.002517 
3628.102896  	0.001517 
3630.031712  	0.001616 
3631.960528  	0.001431 
3633.889344  	0.000733 
3635.818160  	0.000345 
3637.746976  	-0.000246 
3639.675792  	-0.000749 
3641.604608  	-0.001308 
3643.533424  	-0.001810 
3645.462240  	-0.002215 
3647.391056  	-0.002521 
3649.319872  	-0.003021 
3651.248688  	-0.003071 
3653.177504  	-0.003474 
3655.106320  	-0.004307 
3657.035136  	-0.004667 
3658.963952  	-0.004714 
3660.892768  	-0.005048 
3662.821584  	-0.005650 
3664.750400  	-0.005868 
3666.679216  	-0.005597 
3668.608032  	-0.005831 
3670.536848  	-0.006271 
3672.465664  	-0.006380 
3674.394480  	-0.007064 
3676.323296  	-0.007458 
3678.252112  	-0.006880 
3680.180928  	-0.006981 
3682.109744  	-0.007203 
3684.038560  	-0.007204 
3685.967376  	-0.007309 
3687.896192  	-0.007386 
3689.825008  	-0.007270 
3691.753824  	-0.007368 
3693.682640  	-0.007402 
3695.611456  	-0.007563 
3697.540272  	-0.007594 
3699.469088  	-0.007946 
3701.397904  	-0.008258 
3703.326720  	-0.008109 
3705.255536  	-0.007811 
3707.184352  	-0.007218 
3709.113168  	-0.006989 
3711.041984  	-0.007466 
3712.970800  	-0.007760 
3714.899616  	-0.007690 
3716.828432  	-0.007631 
3718.757248  	-0.007602 
3720.686064  	-0.007672 
3722.614880  	-0.007824 
3724.543696  	-0.007576 
3726.472512  	-0.007200 
3728.401328  	-0.007343 
3730.330144  	-0.007796 
3732.258960  	-0.008177 
3734.187776  	-0.008009 
3736.116592  	-0.007803 
3738.045408  	-0.007509 
3739.974224  	-0.007211 
3741.903040  	-0.007288 
3743.831856  	-0.008507 
3745.760672  	-0.008324 
3747.689488  	-0.007774 
3749.618304  	-0.007559 
3751.547120  	-0.007375 
3753.475936  	-0.007619 
3755.404752  	-0.007469 
3757.333568  	-0.007585 
3759.262384  	-0.007489 
3761.191200  	-0.007397 
3763.120016  	-0.007583 
3765.048832  	-0.007799 
3766.977648  	-0.007683 
3768.906464  	-0.007659 
3770.835280  	-0.007671 
3772.764096  	-0.007677 
3774.692912  	-0.007648 
3776.621728  	-0.007538 
3778.550544  	-0.007640 
3780.479360  	-0.007821 
3782.408176  	-0.007874 
3784.336992  	-0.008059 
3786.265808  	-0.007936 
3788.194624  	-0.007817 
3790.123440  	-0.007753 
3792.052256  	-0.007825 
3793.981072  	-0.007948 
3795.909888  	-0.007730 
3797.838704  	-0.007392 
3799.767520  	-0.007557 
3801.696336  	-0.007651 
3803.625152  	-0.007500 
3805.553968  	-0.007743 
3807.482784  	-0.007941 
3809.411600  	-0.007699 
3811.340416  	-0.007712 
3813.269232  	-0.007803 
3815.198048  	-0.007783 
3817.126864  	-0.007533 
3819.055680  	-0.007563 
3820.984496  	-0.007913 
3822.913312  	-0.007617 
3824.842128  	-0.007702 
3826.770944  	-0.007949 
3828.699760  	-0.007759 
3830.628576  	-0.007834 
3832.557392  	-0.008040 
3834.486208  	-0.008159 
3836.415024  	-0.008243 
3838.343840  	-0.008338 
3840.272656  	-0.008041 
3842.201472  	-0.007770 
3844.130288  	-0.007650 
3846.059104  	-0.007583 
3847.987920  	-0.007788 
3849.916736  	-0.007929 
3851.845552  	-0.007950 
3853.774368  	-0.007907 
3855.703184  	-0.007425 
3857.632000  	-0.007509 
3859.560816  	-0.007730 
3861.489632  	-0.007874 
3863.418448  	-0.007690 
3865.347264  	-0.007513 
3867.276080  	-0.007443 
3869.204896  	-0.007619 
3871.133712  	-0.007614 
3873.062528  	-0.007926 
3874.991344  	-0.008222 
3876.920160  	-0.008098 
3878.848976  	-0.007981 
3880.777792  	-0.007712 
3882.706608  	-0.007537 
3884.635424  	-0.007882 
3886.564240  	-0.008213 
3888.493056  	-0.008099 
3890.421872  	-0.008109 
3892.350688  	-0.008124 
3894.279504  	-0.007976 
3896.208320  	-0.007919 
3898.137136  	-0.007902 
3900.065952  	-0.007620 
3901.994768  	-0.007864 
3903.923584  	-0.008288 
3905.852400  	-0.007996 
3907.781216  	-0.007911 
3909.710032  	-0.008166 
3911.638848  	-0.008377 
3913.567664  	-0.008180 
3915.496480  	-0.007993 
3917.425296  	-0.007823 
3919.354112  	-0.007951 
3921.282928  	-0.007907 
3923.211744  	-0.007807 
3925.140560  	-0.008121 
3927.069376  	-0.008120 
3928.998192  	-0.007902 
3930.927008  	-0.007935 
3932.855824  	-0.008066 
3934.784640  	-0.007994 
3936.713456  	-0.007815 
3938.642272  	-0.007973 
3940.571088  	-0.008072 
3942.499904  	-0.007894 
3944.428720  	-0.007910 
3946.357536  	-0.008084 
3948.286352  	-0.008105 
3950.215168  	-0.008237 
3952.143984  	-0.008307 
3954.072800  	-0.008247 
3956.001616  	-0.008160 
3957.930432  	-0.007953 
3959.859248  	-0.007875 
3961.788064  	-0.007989 
3963.716880  	-0.008097 
3965.645696  	-0.008217 
3967.574512  	-0.008474 
3969.503328  	-0.008552 
3971.432144  	-0.008380 
3973.360960  	-0.008172 
3975.289776  	-0.007929 
3977.218592  	-0.007940 
3979.147408  	-0.008134 
3981.076224  	-0.008269 
3983.005040  	-0.008356 
3984.933856  	-0.008140 
3986.862672  	-0.008008 
3988.791488  	-0.008155 
3990.720304  	-0.008166 
3992.649120  	-0.008210 
3994.577936  	-0.008407 
3996.506752  	-0.008527 
3998.435568  	-0.008302 
4000.364384  	-0.008109 