##TITLE=No Description
##DATA TYPE=INFRARED SPECTRUM
##XUNITS=1/CM
##YUNITS=Abs
399.264912  	0.672820 
401.193728  	0.641713 
403.122544  	0.636344 
405.051360  	0.634704 
406.980176  	0.617047 
408.908992  	0.617255 
410.837808  	0.632122 
412.766624  	0.610215 
414.695440  	0.604518 
416.624256  	0.586002 
418.553072  	0.588463 
420.481888  	0.601011 
422.410704  	0.602608 
424.339520  	0.590943 
426.268336  	0.587938 
428.197152  	0.583259 
430.125968  	0.584221 
432.054784  	0.582369 
433.983600  	0.583317 
435.912416  	0.572970 
437.841232  	0.568331 
439.770048  	0.568458 
441.698864  	0.571313 
443.627680  	0.566260 
445.556496  	0.566079 
447.485312  	0.556773 
449.414128  	0.557497 
451.342944  	0.557614 
453.271760  	0.556924 
455.200576  	0.552052 
457.129392  	0.550438 
459.058208  	0.546801 
460.987024  	0.551819 
462.915840  	0.552308 
464.844656  	0.553688 
466.773472  	0.554818 
468.702288  	0.553197 
470.631104  	0.545328 
472.559920  	0.544810 
474.488736  	0.537457 
476.417552  	0.535351 
478.346368  	0.533772 
480.275184  	0.541871 
482.204000  	0.544571 
484.132816  	0.539309 
486.061632  	0.537370 
487.990448  	0.539341 
489.919264  	0.532792 
491.848080  	0.533155 
493.776896  	0.530133 
495.705712  	0.527963 
497.634528  	0.526816 
499.563344  	0.526507 
501.492160  	0.522816 
503.420976  	0.524089 
505.349792  	0.521084 
507.278608  	0.521373 
509.207424  	0.520525 
511.136240  	0.520248 
513.065056  	0.519631 
514.993872  	0.522427 
516.922688  	0.520409 
518.851504  	0.519958 
520.780320  	0.519663 
522.709136  	0.521185 
524.637952  	0.518663 
526.566768  	0.516953 
528.495584  	0.513110 
530.424400  	0.512382 
532.353216  	0.509259 
534.282032  	0.506978 
536.210848  	0.502341 
538.139664  	0.499247 
540.068480  	0.495413 
541.997296  	0.493242 
543.926112  	0.489824 
545.854928  	0.487666 
547.783744  	0.484473 
549.712560  	0.481960 
551.641376  	0.478862 
553.570192  	0.478309 
555.499008  	0.474819 
557.427824  	0.472174 
559.356640  	0.469809 
561.285456  	0.469044 
563.214272  	0.465809 
565.143088  	0.461505 
567.071904  	0.458503 
569.000720  	0.456819 
570.929536  	0.454047 
572.858352  	0.451852 
574.787168  	0.448619 
576.715984  	0.446197 
578.644800  	0.442063 
580.573616  	0.438049 
582.502432  	0.434385 
584.431248  	0.432402 
586.360064  	0.429675 
588.288880  	0.427314 
590.217696  	0.424397 
592.146512  	0.422546 
594.075328  	0.420724 
596.004144  	0.419019 
597.932960  	0.416234 
599.861776  	0.413550 
601.790592  	0.411697 
603.719408  	0.411368 
605.648224  	0.409680 
607.577040  	0.407896 
609.505856  	0.406493 
611.434672  	0.405651 
613.363488  	0.402748 
615.292304  	0.399920 
617.221120  	0.397475 
619.149936  	0.396328 
621.078752  	0.394103 
623.007568  	0.392604 
624.936384  	0.390748 
626.865200  	0.389078 
628.794016  	0.387082 
630.722832  	0.385935 
632.651648  	0.385044 
634.580464  	0.384065 
636.509280  	0.382561 
638.438096  	0.381492 
640.366912  	0.379565 
642.295728  	0.378336 
644.224544  	0.376154 
646.153360  	0.373185 
648.082176  	0.369196 
650.010992  	0.366211 
651.939808  	0.363357 
653.868624  	0.360886 
655.797440  	0.357349 
657.726256  	0.354359 
659.655072  	0.350499 
661.583888  	0.347170 
663.512704  	0.343449 
665.441520  	0.340453 
667.370336  	0.336650 
669.299152  	0.331855 
671.227968  	0.328518 
673.156784  	0.325814 
675.085600  	0.323067 
677.014416  	0.320484 
678.943232  	0.317768 
680.872048  	0.315970 
682.800864  	0.314175 
684.729680  	0.312560 
686.658496  	0.310415 
688.587312  	0.308327 
690.516128  	0.305918 
692.444944  	0.304033 
694.373760  	0.301835 
696.302576  	0.299790 
698.231392  	0.297414 
700.160208  	0.295468 
702.089024  	0.293214 
704.017840  	0.290591 
705.946656  	0.287889 
707.875472  	0.285614 
709.804288  	0.283211 
711.733104  	0.281222 
713.661920  	0.279059 
715.590736  	0.277401 
717.519552  	0.275848 
719.448368  	0.274901 
721.377184  	0.273944 
723.306000  	0.272969 
725.234816  	0.271962 
727.163632  	0.270486 
729.092448  	0.268035 
731.021264  	0.265125 
732.950080  	0.261969 
734.878896  	0.258907 
736.807712  	0.256146 
738.736528  	0.254132 
740.665344  	0.252200 
742.594160  	0.250922 
744.522976  	0.249021 
746.451792  	0.247154 
748.380608  	0.244859 
750.309424  	0.242909 
752.238240  	0.241654 
754.167056  	0.240704 
756.095872  	0.239101 
758.024688  	0.237456 
759.953504  	0.236092 
761.882320  	0.235646 
763.811136  	0.235027 
765.739952  	0.233093 
767.668768  	0.230011 
769.597584  	0.227262 
771.526400  	0.225228 
773.455216  	0.224630 
775.384032  	0.225250 
777.312848  	0.226913 
779.241664  	0.227890 
781.170480  	0.226504 
783.099296  	0.222437 
785.028112  	0.217630 
786.956928  	0.213147 
788.885744  	0.209594 
790.814560  	0.206356 
792.743376  	0.204089 
794.672192  	0.202554 
796.601008  	0.201032 
798.529824  	0.197918 
800.458640  	0.194212 
802.387456  	0.191031 
804.316272  	0.189061 
806.245088  	0.187272 
808.173904  	0.185517 
810.102720  	0.184134 
812.031536  	0.182920 
813.960352  	0.181704 
815.889168  	0.180615 
817.817984  	0.180151 
819.746800  	0.179888 
821.675616  	0.179230 
823.604432  	0.178477 
825.533248  	0.177667 
827.462064  	0.176779 
829.390880  	0.175531 
831.319696  	0.174462 
833.248512  	0.173091 
835.177328  	0.171200 
837.106144  	0.168830 
839.034960  	0.166419 
840.963776  	0.163526 
842.892592  	0.160430 
844.821408  	0.157564 
846.750224  	0.154969 
848.679040  	0.152420 
850.607856  	0.150113 
852.536672  	0.148302 
854.465488  	0.147065 
856.394304  	0.146031 
858.323120  	0.144333 
860.251936  	0.142695 
862.180752  	0.141326 
864.109568  	0.139710 
866.038384  	0.137892 
867.967200  	0.135880 
869.896016  	0.134277 
871.824832  	0.133330 
873.753648  	0.132811 
875.682464  	0.132639 
877.611280  	0.133019 
879.540096  	0.133687 
881.468912  	0.134575 
883.397728  	0.135526 
885.326544  	0.136336 
887.255360  	0.136635 
889.184176  	0.136575 
891.112992  	0.135792 
893.041808  	0.134375 
894.970624  	0.132352 
896.899440  	0.129652 
898.828256  	0.126425 
900.757072  	0.123175 
902.685888  	0.120253 
904.614704  	0.118083 
906.543520  	0.116822 
908.472336  	0.116688 
910.401152  	0.117228 
912.329968  	0.118349 
914.258784  	0.119475 
916.187600  	0.120397 
918.116416  	0.120941 
920.045232  	0.121202 
921.974048  	0.121213 
923.902864  	0.121229 
925.831680  	0.121150 
927.760496  	0.121030 
929.689312  	0.120928 
931.618128  	0.121183 
933.546944  	0.121110 
935.475760  	0.120515 
937.404576  	0.119846 
939.333392  	0.118933 
941.262208  	0.117847 
943.191024  	0.117621 
945.119840  	0.118410 
947.048656  	0.120150 
948.977472  	0.123241 
950.906288  	0.127620 
952.835104  	0.133332 
954.763920  	0.140102 
956.692736  	0.147163 
958.621552  	0.154016 
960.550368  	0.159546 
962.479184  	0.163286 
964.408000  	0.164426 
966.336816  	0.162717 
968.265632  	0.158279 
970.194448  	0.151748 
972.123264  	0.143184 
974.052080  	0.133653 
975.980896  	0.123876 
977.909712  	0.114654 
979.838528  	0.106489 
981.767344  	0.099693 
983.696160  	0.094574 
985.624976  	0.091144 
987.553792  	0.089519 
989.482608  	0.089525 
991.411424  	0.091202 
993.340240  	0.094413 
995.269056  	0.098322 
997.197872  	0.102544 
999.126688  	0.106752 
1001.055504  	0.111364 
1002.984320  	0.115582 
1004.913136  	0.119858 
1006.841952  	0.124147 
1008.770768  	0.128163 
1010.699584  	0.131669 
1012.628400  	0.134663 
1014.557216  	0.136838 
1016.486032  	0.138272 
1018.414848  	0.139302 
1020.343664  	0.139984 
1022.272480  	0.140631 
1024.201296  	0.141032 
1026.130112  	0.141005 
1028.058928  	0.141420 
1029.987744  	0.142661 
1031.916560  	0.144297 
1033.845376  	0.146284 
1035.774192  	0.148843 
1037.703008  	0.152205 
1039.631824  	0.157470 
1041.560640  	0.164734 
1043.489456  	0.173955 
1045.418272  	0.184912 
1047.347088  	0.197225 
1049.275904  	0.208081 
1051.204720  	0.216128 
1053.133536  	0.221010 
1055.062352  	0.223025 
1056.991168  	0.223235 
1058.919984  	0.223602 
1060.848800  	0.223910 
1062.777616  	0.224337 
1064.706432  	0.224125 
1066.635248  	0.223558 
1068.564064  	0.221899 
1070.492880  	0.218860 
1072.421696  	0.215100 
1074.350512  	0.212690 
1076.279328  	0.212299 
1078.208144  	0.214729 
1080.136960  	0.218783 
1082.065776  	0.223115 
1083.994592  	0.224995 
1085.923408  	0.224127 
1087.852224  	0.219829 
1089.781040  	0.213683 
1091.709856  	0.205558 
1093.638672  	0.196196 
1095.567488  	0.185442 
1097.496304  	0.174604 
1099.425120  	0.164079 
1101.353936  	0.153687 
1103.282752  	0.143641 
1105.211568  	0.134218 
1107.140384  	0.125855 
1109.069200  	0.118319 
1110.998016  	0.111329 
1112.926832  	0.104932 
1114.855648  	0.099070 
1116.784464  	0.093791 
1118.713280  	0.088423 
1120.642096  	0.083182 
1122.570912  	0.078405 
1124.499728  	0.073965 
1126.428544  	0.070041 
1128.357360  	0.066806 
1130.286176  	0.063986 
1132.214992  	0.061567 
1134.143808  	0.059611 
1136.072624  	0.057767 
1138.001440  	0.056061 
1139.930256  	0.054939 
1141.859072  	0.054061 
1143.787888  	0.052898 
1145.716704  	0.051898 
1147.645520  	0.051161 
1149.574336  	0.050786 
1151.503152  	0.050432 
1153.431968  	0.050205 
1155.360784  	0.050016 
1157.289600  	0.050455 
1159.218416  	0.051029 
1161.147232  	0.051382 
1163.076048  	0.052090 
1165.004864  	0.052837 
1166.933680  	0.053365 
1168.862496  	0.054211 
1170.791312  	0.055121 
1172.720128  	0.056356 
1174.648944  	0.057850 
1176.577760  	0.059288 
1178.506576  	0.060985 
1180.435392  	0.063038 
1182.364208  	0.064924 
1184.293024  	0.066831 
1186.221840  	0.069223 
1188.150656  	0.071824 
1190.079472  	0.074946 
1192.008288  	0.078862 
1193.937104  	0.083281 
1195.865920  	0.088130 
1197.794736  	0.093546 
1199.723552  	0.099589 
1201.652368  	0.105754 
1203.581184  	0.111730 
1205.510000  	0.117547 
1207.438816  	0.122991 
1209.367632  	0.127960 
1211.296448  	0.132164 
1213.225264  	0.135676 
1215.154080  	0.138263 
1217.082896  	0.139940 
1219.011712  	0.140436 
1220.940528  	0.140624 
1222.869344  	0.140181 
1224.798160  	0.139354 
1226.726976  	0.137742 
1228.655792  	0.135496 
1230.584608  	0.132847 
1232.513424  	0.129698 
1234.442240  	0.125860 
1236.371056  	0.121828 
1238.299872  	0.117461 
1240.228688  	0.112593 
1242.157504  	0.107569 
1244.086320  	0.102695 
1246.015136  	0.097631 
1247.943952  	0.092811 
1249.872768  	0.087966 
1251.801584  	0.083339 
1253.730400  	0.078915 
1255.659216  	0.074649 
1257.588032  	0.070492 
1259.516848  	0.066762 
1261.445664  	0.063277 
1263.374480  	0.059980 
1265.303296  	0.057079 
1267.232112  	0.054839 
1269.160928  	0.053229 
1271.089744  	0.052136 
1273.018560  	0.051617 
1274.947376  	0.051735 
1276.876192  	0.052307 
1278.805008  	0.052762 
1280.733824  	0.052683 
1282.662640  	0.051774 
1284.591456  	0.050434 
1286.520272  	0.049170 
1288.449088  	0.048311 
1290.377904  	0.048114 
1292.306720  	0.048629 
1294.235536  	0.049228 
1296.164352  	0.049244 
1298.093168  	0.048134 
1300.021984  	0.046440 
1301.950800  	0.044513 
1303.879616  	0.042350 
1305.808432  	0.040133 
1307.737248  	0.037977 
1309.666064  	0.035869 
1311.594880  	0.034127 
1313.523696  	0.032850 
1315.452512  	0.032073 
1317.381328  	0.031707 
1319.310144  	0.031754 
1321.238960  	0.032010 
1323.167776  	0.032516 
1325.096592  	0.033089 
1327.025408  	0.033259 
1328.954224  	0.033055 
1330.883040  	0.032576 
1332.811856  	0.031689 
1334.740672  	0.030688 
1336.669488  	0.030070 
1338.598304  	0.029835 
1340.527120  	0.029595 
1342.455936  	0.029119 
1344.384752  	0.028930 
1346.313568  	0.029117 
1348.242384  	0.029575 
1350.171200  	0.030405 
1352.100016  	0.031339 
1354.028832  	0.032460 
1355.957648  	0.033802 
1357.886464  	0.035064 
1359.815280  	0.036308 
1361.744096  	0.037827 
1363.672912  	0.039542 
1365.601728  	0.040687 
1367.530544  	0.041889 
1369.459360  	0.043177 
1371.388176  	0.043708 
1373.316992  	0.043890 
1375.245808  	0.043669 
1377.174624  	0.042272 
1379.103440  	0.040590 
1381.032256  	0.038900 
1382.961072  	0.037396 
1384.889888  	0.036106 
1386.818704  	0.035207 
1388.747520  	0.034002 
1390.676336  	0.032374 
1392.605152  	0.030922 
1394.533968  	0.030314 
1396.462784  	0.030370 
1398.391600  	0.030204 
1400.320416  	0.030200 
1402.249232  	0.030020 
1404.178048  	0.030459 
1406.106864  	0.031176 
1408.035680  	0.031952 
1409.964496  	0.032925 
1411.893312  	0.034340 
1413.822128  	0.035776 
1415.750944  	0.037099 
1417.679760  	0.038315 
1419.608576  	0.039798 
1421.537392  	0.039646 
1423.466208  	0.039024 
1425.395024  	0.037988 
1427.323840  	0.036541 
1429.252656  	0.035242 
1431.181472  	0.034050 
1433.110288  	0.033195 
1435.039104  	0.033123 
1436.967920  	0.034318 
1438.896736  	0.034976 
1440.825552  	0.035202 
1442.754368  	0.035587 
1444.683184  	0.035558 
1446.612000  	0.035706 
1448.540816  	0.036056 
1450.469632  	0.036215 
1452.398448  	0.036320 
1454.327264  	0.036335 
1456.256080  	0.036728 
1458.184896  	0.037758 
1460.113712  	0.036867 
1462.042528  	0.036100 
1463.971344  	0.035949 
1465.900160  	0.036515 
1467.828976  	0.036500 
1469.757792  	0.036794 
1471.686608  	0.038555 
1473.615424  	0.043076 
1475.544240  	0.045716 
1477.473056  	0.048769 
1479.401872  	0.050766 
1481.330688  	0.053139 
1483.259504  	0.054920 
1485.188320  	0.055846 
1487.117136  	0.056682 
1489.045952  	0.057729 
1490.974768  	0.057236 
1492.903584  	0.055352 
1494.832400  	0.052880 
1496.761216  	0.050065 
1498.690032  	0.046383 
1500.618848  	0.042830 
1502.547664  	0.039687 
1504.476480  	0.037483 
1506.405296  	0.036437 
1508.334112  	0.035578 
1510.262928  	0.033626 
1512.191744  	0.032607 
1514.120560  	0.032281 
1516.049376  	0.032914 
1517.978192  	0.034115 
1519.907008  	0.034616 
1521.835824  	0.037824 
1523.764640  	0.039839 
1525.693456  	0.041650 
1527.622272  	0.043610 
1529.551088  	0.043761 
1531.479904  	0.042889 
1533.408720  	0.042191 
1535.337536  	0.040498 
1537.266352  	0.038483 
1539.195168  	0.037150 
1541.123984  	0.036239 
1543.052800  	0.035054 
1544.981616  	0.033915 
1546.910432  	0.032559 
1548.839248  	0.031774 
1550.768064  	0.032006 
1552.696880  	0.031630 
1554.625696  	0.032111 
1556.554512  	0.031839 
1558.483328  	0.033607 
1560.412144  	0.036758 
1562.340960  	0.036416 
1564.269776  	0.037319 
1566.198592  	0.039575 
1568.127408  	0.041171 
1570.056224  	0.045543 
1571.985040  	0.047830 
1573.913856  	0.049025 
1575.842672  	0.051486 
1577.771488  	0.053837 
1579.700304  	0.052843 
1581.629120  	0.052206 
1583.557936  	0.051736 
1585.486752  	0.052169 
1587.415568  	0.053245 
1589.344384  	0.055592 
1591.273200  	0.058626 
1593.202016  	0.062514 
1595.130832  	0.066908 
1597.059648  	0.071592 
1598.988464  	0.075441 
1600.917280  	0.079476 
1602.846096  	0.082654 
1604.774912  	0.085093 
1606.703728  	0.086157 
1608.632544  	0.086788 
1610.561360  	0.086283 
1612.490176  	0.085711 
1614.418992  	0.084457 
1616.347808  	0.085235 
1618.276624  	0.086952 
1620.205440  	0.087723 
1622.134256  	0.089379 
1624.063072  	0.094523 
1625.991888  	0.097871 
1627.920704  	0.102946 
1629.849520  	0.108506 
1631.778336  	0.112958 
1633.707152  	0.116537 
1635.635968  	0.124855 
1637.564784  	0.132617 
1639.493600  	0.135492 
1641.422416  	0.138517 
1643.351232  	0.141099 
1645.280048  	0.142513 
1647.208864  	0.147074 
1649.137680  	0.148011 
1651.066496  	0.146191 
1652.995312  	0.147223 
1654.924128  	0.150314 
1656.852944  	0.147499 
1658.781760  	0.145730 
1660.710576  	0.143837 
1662.639392  	0.142530 
1664.568208  	0.140114 
1666.497024  	0.136894 
1668.425840  	0.133754 
1670.354656  	0.130559 
1672.283472  	0.126783 
1674.212288  	0.123569 
1676.141104  	0.120932 
1678.069920  	0.118326 
1679.998736  	0.116415 
1681.927552  	0.114610 
1683.856368  	0.114212 
1685.785184  	0.114988 
1687.714000  	0.113104 
1689.642816  	0.112775 
1691.571632  	0.112069 
1693.500448  	0.110752 
1695.429264  	0.110242 
1697.358080  	0.110693 
1699.286896  	0.109121 
1701.215712  	0.110187 
1703.144528  	0.108248 
1705.073344  	0.106585 
1707.002160  	0.104686 
1708.930976  	0.101843 
1710.859792  	0.098098 
1712.788608  	0.093915 
1714.717424  	0.088496 
1716.646240  	0.082225 
1718.575056  	0.072959 
1720.503872  	0.064830 
1722.432688  	0.057751 
1724.361504  	0.049854 
1726.290320  	0.042984 
1728.219136  	0.037314 
1730.147952  	0.032462 
1732.076768  	0.028296 
1734.005584  	0.024964 
1735.934400  	0.021452 
1737.863216  	0.019431 
1739.792032  	0.017199 
1741.720848  	0.015408 
1743.649664  	0.014183 
1745.578480  	0.013088 
1747.507296  	0.012104 
1749.436112  	0.011590 
1751.364928  	0.010488 
1753.293744  	0.009500 
1755.222560  	0.008666 
1757.151376  	0.008702 
1759.080192  	0.008119 
1761.009008  	0.007758 
1762.937824  	0.007358 
1764.866640  	0.006906 
1766.795456  	0.006441 
1768.724272  	0.006440 
1770.653088  	0.006018 
1772.581904  	0.006348 
1774.510720  	0.005897 
1776.439536  	0.005549 
1778.368352  	0.005017 
1780.297168  	0.005058 
1782.225984  	0.004814 
1784.154800  	0.004661 
1786.083616  	0.004382 
1788.012432  	0.004140 
1789.941248  	0.003983 
1791.870064  	0.004469 
1793.798880  	0.004210 
1795.727696  	0.003870 
1797.656512  	0.003452 
1799.585328  	0.003478 
1801.514144  	0.003599 
1803.442960  	0.003430 
1805.371776  	0.003057 
1807.300592  	0.002913 
1809.229408  	0.002798 
1811.158224  	0.002776 
1813.087040  	0.002581 
1815.015856  	0.002320 
1816.944672  	0.002349 
1818.873488  	0.002672 
1820.802304  	0.002587 
1822.731120  	0.002548 
1824.659936  	0.002293 
1826.588752  	0.002317 
1828.517568  	0.002025 
1830.446384  	0.002345 
1832.375200  	0.002151 
1834.304016  	0.002046 
1836.232832  	0.002048 
1838.161648  	0.002261 
1840.090464  	0.001900 
1842.019280  	0.001482 
1843.948096  	0.001841 
1845.876912  	0.002442 
1847.805728  	0.001931 
1849.734544  	0.001688 
1851.663360  	0.001588 
1853.592176  	0.001825 
1855.520992  	0.001771 
1857.449808  	0.001801 
1859.378624  	0.001424 
1861.307440  	0.001610 
1863.236256  	0.001442 
1865.165072  	0.001305 
1867.093888  	0.001392 
1869.022704  	0.002097 
1870.951520  	0.001883 
1872.880336  	0.001707 
1874.809152  	0.001493 
1876.737968  	0.001359 
1878.666784  	0.001023 
1880.595600  	0.001013 
1882.524416  	0.001315 
1884.453232  	0.001643 
1886.382048  	0.001348 
1888.310864  	0.001347 
1890.239680  	0.001272 
1892.168496  	0.001342 
1894.097312  	0.001371 
1896.026128  	0.001160 
1897.954944  	0.000944 
1899.883760  	0.001275 
1901.812576  	0.001193 
1903.741392  	0.001333 
1905.670208  	0.000985 
1907.599024  	0.000672 
1909.527840  	0.000689 
1911.456656  	0.001333 
1913.385472  	0.001533 
1915.314288  	0.001631 
1917.243104  	0.001212 
1919.171920  	0.001702 
1921.100736  	0.001383 
1923.029552  	0.000993 
1924.958368  	0.000459 
1926.887184  	0.000669 
1928.816000  	0.000414 
1930.744816  	0.000653 
1932.673632  	0.000927 
1934.602448  	0.001172 
1936.531264  	0.000976 
1938.460080  	0.001068 
1940.388896  	0.001162 
1942.317712  	0.001447 
1944.246528  	0.000708 
1946.175344  	0.000792 
1948.104160  	0.000737 
1950.032976  	0.000778 
1951.961792  	0.000654 
1953.890608  	0.000863 
1955.819424  	-0.000021 
1957.748240  	-0.000073 
1959.677056  	0.000382 
1961.605872  	0.000913 
1963.534688  	0.000742 
1965.463504  	0.000995 
1967.392320  	0.000652 
1969.321136  	0.000742 
1971.249952  	-0.000811 
1973.178768  	-0.000603 
1975.107584  	0.001041 
1977.036400  	0.002868 
1978.965216  	0.002573 
1980.894032  	0.002204 
1982.822848  	0.001966 
1984.751664  	0.002338 
1986.680480  	0.001810 
1988.609296  	0.002334 
1990.538112  	0.002744 
1992.466928  	0.003215 
1994.395744  	0.002382 
1996.324560  	0.001404 
1998.253376  	0.001017 
2000.182192  	0.001453 
2002.111008  	0.001266 
2004.039824  	0.001961 
2005.968640  	0.001426 
2007.897456  	0.001825 
2009.826272  	0.002217 
2011.755088  	0.002704 
2013.683904  	0.002386 
2015.612720  	0.002257 
2017.541536  	0.002928 
2019.470352  	0.003460 
2021.399168  	0.001312 
2023.327984  	0.000695 
2025.256800  	0.002270 
2027.185616  	0.003646 
2029.114432  	0.003665 
2031.043248  	0.004168 
2032.972064  	0.004013 
2034.900880  	0.005004 
2036.829696  	0.004470 
2038.758512  	0.003671 
2040.687328  	0.002931 
2042.616144  	0.003413 
2044.544960  	0.002764 
2046.473776  	0.002948 
2048.402592  	0.004371 
2050.331408  	0.005122 
2052.260224  	0.004643 
2054.189040  	0.004533 
2056.117856  	0.003274 
2058.046672  	0.002610 
2059.975488  	0.002949 
2061.904304  	0.003886 
2063.833120  	0.003888 
2065.761936  	0.003753 
2067.690752  	0.003657 
2069.619568  	0.003250 
2071.548384  	0.002568 
2073.477200  	0.003089 
2075.406016  	0.003243 
2077.334832  	0.003383 
2079.263648  	0.004090 
2081.192464  	0.004457 
2083.121280  	0.003684 
2085.050096  	0.003292 
2086.978912  	0.002997 
2088.907728  	0.003366 
2090.836544  	0.003633 
2092.765360  	0.003459 
2094.694176  	0.003433 
2096.622992  	0.003851 
2098.551808  	0.003703 
2100.480624  	0.003732 
2102.409440  	0.003946 
2104.338256  	0.004419 
2106.267072  	0.004169 
2108.195888  	0.003956 
2110.124704  	0.004040 
2112.053520  	0.004315 
2113.982336  	0.004302 
2115.911152  	0.003664 
2117.839968  	0.003186 
2119.768784  	0.003509 
2121.697600  	0.003716 
2123.626416  	0.003514 
2125.555232  	0.002968 
2127.484048  	0.002991 
2129.412864  	0.003048 
2131.341680  	0.003137 
2133.270496  	0.003007 
2135.199312  	0.003350 
2137.128128  	0.003914 
2139.056944  	0.004498 
2140.985760  	0.004493 
2142.914576  	0.004652 
2144.843392  	0.003865 
2146.772208  	0.003625 
2148.701024  	0.003705 
2150.629840  	0.004033 
2152.558656  	0.003751 
2154.487472  	0.003437 
2156.416288  	0.003535 
2158.345104  	0.006231 
2160.273920  	0.008055 
2162.202736  	0.007899 
2164.131552  	0.007890 
2166.060368  	0.008390 
2167.989184  	0.007149 
2169.918000  	0.005886 
2171.846816  	0.005938 
2173.775632  	0.006520 
2175.704448  	0.005894 
2177.633264  	0.005941 
2179.562080  	0.005089 
2181.490896  	0.005389 
2183.419712  	0.005855 
2185.348528  	0.005694 
2187.277344  	0.005236 
2189.206160  	0.005059 
2191.134976  	0.004905 
2193.063792  	0.004700 
2194.992608  	0.004928 
2196.921424  	0.005519 
2198.850240  	0.005142 
2200.779056  	0.004744 
2202.707872  	0.004861 
2204.636688  	0.005281 
2206.565504  	0.004935 
2208.494320  	0.004270 
2210.423136  	0.003654 
2212.351952  	0.004145 
2214.280768  	0.004203 
2216.209584  	0.004307 
2218.138400  	0.003704 
2220.067216  	0.003730 
2221.996032  	0.003355 
2223.924848  	0.003972 
2225.853664  	0.004616 
2227.782480  	0.004816 
2229.711296  	0.004208 
2231.640112  	0.004042 
2233.568928  	0.003757 
2235.497744  	0.003649 
2237.426560  	0.003589 
2239.355376  	0.003628 
2241.284192  	0.003190 
2243.213008  	0.003337 
2245.141824  	0.003422 
2247.070640  	0.003408 
2248.999456  	0.003588 
2250.928272  	0.003848 
2252.857088  	0.003383 
2254.785904  	0.003514 
2256.714720  	0.003988 
2258.643536  	0.004357 
2260.572352  	0.004047 
2262.501168  	0.003929 
2264.429984  	0.003992 
2266.358800  	0.003752 
2268.287616  	0.003524 
2270.216432  	0.003498 
2272.145248  	0.003502 
2274.074064  	0.003741 
2276.002880  	0.003819 
2277.931696  	0.004276 
2279.860512  	0.004148 
2281.789328  	0.003891 
2283.718144  	0.004011 
2285.646960  	0.004410 
2287.575776  	0.004352 
2289.504592  	0.004296 
2291.433408  	0.004222 
2293.362224  	0.004309 
2295.291040  	0.004035 
2297.219856  	0.003979 
2299.148672  	0.004037 
2301.077488  	0.004069 
2303.006304  	0.004280 
2304.935120  	0.004570 
2306.863936  	0.004109 
2308.792752  	0.003845 
2310.721568  	0.003832 
2312.650384  	0.003728 
2314.579200  	0.003663 
2316.508016  	0.004128 
2318.436832  	0.004397 
2320.365648  	0.004578 
2322.294464  	0.004712 
2324.223280  	0.004514 
2326.152096  	0.003393 
2328.080912  	0.002495 
2330.009728  	0.002367 
2331.938544  	0.002687 
2333.867360  	0.002976 
2335.796176  	0.002925 
2337.724992  	0.002446 
2339.653808  	0.002480 
2341.582624  	0.002554 
2343.511440  	0.002667 
2345.440256  	0.003029 
2347.369072  	0.003258 
2349.297888  	0.002749 
2351.226704  	0.002193 
2353.155520  	0.001702 
2355.084336  	0.001820 
2357.013152  	0.002055 
2358.941968  	0.002021 
2360.870784  	0.001438 
2362.799600  	0.001560 
2364.728416  	0.002357 
2366.657232  	0.002383 
2368.586048  	0.002009 
2370.514864  	0.002433 
2372.443680  	0.002951 
2374.372496  	0.003228 
2376.301312  	0.003491 
2378.230128  	0.003544 
2380.158944  	0.003409 
2382.087760  	0.003487 
2384.016576  	0.003453 
2385.945392  	0.003428 
2387.874208  	0.003504 
2389.803024  	0.003593 
2391.731840  	0.003415 
2393.660656  	0.003268 
2395.589472  	0.003376 
2397.518288  	0.003519 
2399.447104  	0.003499 
2401.375920  	0.003433 
2403.304736  	0.003282 
2405.233552  	0.003373 
2407.162368  	0.003472 
2409.091184  	0.003615 
2411.020000  	0.003578 
2412.948816  	0.003406 
2414.877632  	0.003327 
2416.806448  	0.003634 
2418.735264  	0.003839 
2420.664080  	0.003895 
2422.592896  	0.003778 
2424.521712  	0.003709 
2426.450528  	0.003705 
2428.379344  	0.003885 
2430.308160  	0.004086 
2432.236976  	0.004118 
2434.165792  	0.004113 
2436.094608  	0.004179 
2438.023424  	0.004322 
2439.952240  	0.004350 
2441.881056  	0.004305 
2443.809872  	0.004406 
2445.738688  	0.004370 
2447.667504  	0.004359 
2449.596320  	0.004789 
2451.525136  	0.004980 
2453.453952  	0.004856 
2455.382768  	0.005001 
2457.311584  	0.005088 
2459.240400  	0.004787 
2461.169216  	0.004764 
2463.098032  	0.004987 
2465.026848  	0.004965 
2466.955664  	0.005002 
2468.884480  	0.004944 
2470.813296  	0.004871 
2472.742112  	0.005039 
2474.670928  	0.005356 
2476.599744  	0.005479 
2478.528560  	0.005545 
2480.457376  	0.005716 
2482.386192  	0.005810 
2484.315008  	0.005534 
2486.243824  	0.005446 
2488.172640  	0.005676 
2490.101456  	0.005872 
2492.030272  	0.005943 
2493.959088  	0.005945 
2495.887904  	0.005938 
2497.816720  	0.006210 
2499.745536  	0.006280 
2501.674352  	0.006292 
2503.603168  	0.006380 
2505.531984  	0.006506 
2507.460800  	0.006500 
2509.389616  	0.006413 
2511.318432  	0.006420 
2513.247248  	0.006571 
2515.176064  	0.006606 
2517.104880  	0.006612 
2519.033696  	0.006612 
2520.962512  	0.006823 
2522.891328  	0.006944 
2524.820144  	0.007171 
2526.748960  	0.007224 
2528.677776  	0.007189 
2530.606592  	0.007289 
2532.535408  	0.007497 
2534.464224  	0.007538 
2536.393040  	0.007417 
2538.321856  	0.007353 
2540.250672  	0.007496 
2542.179488  	0.007734 
2544.108304  	0.007810 
2546.037120  	0.007783 
2547.965936  	0.008059 
2549.894752  	0.008197 
2551.823568  	0.008305 
2553.752384  	0.008358 
2555.681200  	0.008256 
2557.610016  	0.007993 
2559.538832  	0.007992 
2561.467648  	0.008294 
2563.396464  	0.008546 
2565.325280  	0.008457 
2567.254096  	0.008425 
2569.182912  	0.008658 
2571.111728  	0.008934 
2573.040544  	0.009011 
2574.969360  	0.009116 
2576.898176  	0.009251 
2578.826992  	0.009354 
2580.755808  	0.009305 
2582.684624  	0.009465 
2584.613440  	0.009633 
2586.542256  	0.009736 
2588.471072  	0.009750 
2590.399888  	0.009896 
2592.328704  	0.010047 
2594.257520  	0.010178 
2596.186336  	0.010016 
2598.115152  	0.010017 
2600.043968  	0.010270 
2601.972784  	0.010405 
2603.901600  	0.010469 
2605.830416  	0.010391 
2607.759232  	0.010372 
2609.688048  	0.010498 
2611.616864  	0.010648 
2613.545680  	0.010827 
2615.474496  	0.010892 
2617.403312  	0.011062 
2619.332128  	0.011134 
2621.260944  	0.011077 
2623.189760  	0.011032 
2625.118576  	0.011232 
2627.047392  	0.011264 
2628.976208  	0.011474 
2630.905024  	0.011793 
2632.833840  	0.011860 
2634.762656  	0.011799 
2636.691472  	0.011938 
2638.620288  	0.012148 
2640.549104  	0.012389 
2642.477920  	0.012545 
2644.406736  	0.012527 
2646.335552  	0.012579 
2648.264368  	0.012693 
2650.193184  	0.012842 
2652.122000  	0.012995 
2654.050816  	0.013077 
2655.979632  	0.013212 
2657.908448  	0.013298 
2659.837264  	0.013314 
2661.766080  	0.013397 
2663.694896  	0.013499 
2665.623712  	0.013578 
2667.552528  	0.013729 
2669.481344  	0.013758 
2671.410160  	0.013727 
2673.338976  	0.013881 
2675.267792  	0.014103 
2677.196608  	0.014284 
2679.125424  	0.014362 
2681.054240  	0.014358 
2682.983056  	0.014510 
2684.911872  	0.014649 
2686.840688  	0.014795 
2688.769504  	0.014897 
2690.698320  	0.015039 
2692.627136  	0.015208 
2694.555952  	0.015278 
2696.484768  	0.015372 
2698.413584  	0.015483 
2700.342400  	0.015511 
2702.271216  	0.015646 
2704.200032  	0.015891 
2706.128848  	0.016010 
2708.057664  	0.016067 
2709.986480  	0.016135 
2711.915296  	0.016173 
2713.844112  	0.016325 
2715.772928  	0.016521 
2717.701744  	0.016604 
2719.630560  	0.016736 
2721.559376  	0.016857 
2723.488192  	0.016928 
2725.417008  	0.017025 
2727.345824  	0.017081 
2729.274640  	0.017289 
2731.203456  	0.017377 
2733.132272  	0.017439 
2735.061088  	0.017656 
2736.989904  	0.017761 
2738.918720  	0.017908 
2740.847536  	0.017981 
2742.776352  	0.018026 
2744.705168  	0.018102 
2746.633984  	0.018218 
2748.562800  	0.018409 
2750.491616  	0.018582 
2752.420432  	0.018606 
2754.349248  	0.018614 
2756.278064  	0.018665 
2758.206880  	0.018647 
2760.135696  	0.018684 
2762.064512  	0.018726 
2763.993328  	0.018801 
2765.922144  	0.018925 
2767.850960  	0.018967 
2769.779776  	0.019026 
2771.708592  	0.019087 
2773.637408  	0.019056 
2775.566224  	0.019070 
2777.495040  	0.019079 
2779.423856  	0.019119 
2781.352672  	0.019268 
2783.281488  	0.019350 
2785.210304  	0.019302 
2787.139120  	0.019358 
2789.067936  	0.019298 
2790.996752  	0.019286 
2792.925568  	0.019353 
2794.854384  	0.019378 
2796.783200  	0.019369 
2798.712016  	0.019390 
2800.640832  	0.019436 
2802.569648  	0.019590 
2804.498464  	0.019681 
2806.427280  	0.019751 
2808.356096  	0.019806 
2810.284912  	0.019798 
2812.213728  	0.019749 
2814.142544  	0.019873 
2816.071360  	0.019926 
2818.000176  	0.020134 
2819.928992  	0.020259 
2821.857808  	0.020296 
2823.786624  	0.020316 
2825.715440  	0.020331 
2827.644256  	0.020299 
2829.573072  	0.020288 
2831.501888  	0.020351 
2833.430704  	0.020342 
2835.359520  	0.020292 
2837.288336  	0.020253 
2839.217152  	0.020294 
2841.145968  	0.020347 
2843.074784  	0.020412 
2845.003600  	0.020438 
2846.932416  	0.020375 
2848.861232  	0.020522 
2850.790048  	0.020636 
2852.718864  	0.020641 
2854.647680  	0.020634 
2856.576496  	0.020770 
2858.505312  	0.020864 
2860.434128  	0.020898 
2862.362944  	0.020995 
2864.291760  	0.021155 
2866.220576  	0.021202 
2868.149392  	0.021259 
2870.078208  	0.021424 
2872.007024  	0.021758 
2873.935840  	0.022095 
2875.864656  	0.022302 
2877.793472  	0.022535 
2879.722288  	0.022938 
2881.651104  	0.023186 
2883.579920  	0.023406 
2885.508736  	0.023619 
2887.437552  	0.023793 
2889.366368  	0.023841 
2891.295184  	0.023975 
2893.224000  	0.024009 
2895.152816  	0.024039 
2897.081632  	0.024024 
2899.010448  	0.023689 
2900.939264  	0.023327 
2902.868080  	0.023528 
2904.796896  	0.023837 
2906.725712  	0.023972 
2908.654528  	0.024176 
2910.583344  	0.024419 
2912.512160  	0.024551 
2914.440976  	0.024929 
2916.369792  	0.025562 
2918.298608  	0.025919 
2920.227424  	0.026106 
2922.156240  	0.026496 
2924.085056  	0.026965 
2926.013872  	0.027397 
2927.942688  	0.027989 
2929.871504  	0.028565 
2931.800320  	0.028986 
2933.729136  	0.029462 
2935.657952  	0.030053 
2937.586768  	0.030549 
2939.515584  	0.030913 
2941.444400  	0.031109 
2943.373216  	0.031263 
2945.302032  	0.031569 
2947.230848  	0.031834 
2949.159664  	0.031780 
2951.088480  	0.031689 
2953.017296  	0.031702 
2954.946112  	0.031462 
2956.874928  	0.031179 
2958.803744  	0.031021 
2960.732560  	0.030909 
2962.661376  	0.030634 
2964.590192  	0.030320 
2966.519008  	0.030149 
2968.447824  	0.029904 
2970.376640  	0.029641 
2972.305456  	0.029297 
2974.234272  	0.029341 
2976.163088  	0.029371 
2978.091904  	0.029203 
2980.020720  	0.029137 
2981.949536  	0.029129 
2983.878352  	0.028987 
2985.807168  	0.028883 
2987.735984  	0.028809 
2989.664800  	0.028914 
2991.593616  	0.029208 
2993.522432  	0.029436 
2995.451248  	0.029717 
2997.380064  	0.030037 
2999.308880  	0.030449 
3001.237696  	0.030914 
3003.166512  	0.031395 
3005.095328  	0.031752 
3007.024144  	0.032088 
3008.952960  	0.032539 
3010.881776  	0.032987 
3012.810592  	0.033445 
3014.739408  	0.033913 
3016.668224  	0.034307 
3018.597040  	0.034721 
3020.525856  	0.035121 
3022.454672  	0.035507 
3024.383488  	0.035912 
3026.312304  	0.036340 
3028.241120  	0.036779 
3030.169936  	0.037230 
3032.098752  	0.037714 
3034.027568  	0.038093 
3035.956384  	0.038614 
3037.885200  	0.039050 
3039.814016  	0.039481 
3041.742832  	0.039902 
3043.671648  	0.040325 
3045.600464  	0.040770 
3047.529280  	0.041145 
3049.458096  	0.041637 
3051.386912  	0.041994 
3053.315728  	0.042463 
3055.244544  	0.042937 
3057.173360  	0.043478 
3059.102176  	0.044086 
3061.030992  	0.044704 
3062.959808  	0.045305 
3064.888624  	0.045930 
3066.817440  	0.046566 
3068.746256  	0.047091 
3070.675072  	0.047606 
3072.603888  	0.048251 
3074.532704  	0.048922 
3076.461520  	0.049518 
3078.390336  	0.050192 
3080.319152  	0.050993 
3082.247968  	0.051639 
3084.176784  	0.052121 
3086.105600  	0.052762 
3088.034416  	0.053463 
3089.963232  	0.053913 
3091.892048  	0.054416 
3093.820864  	0.054948 
3095.749680  	0.055670 
3097.678496  	0.056464 
3099.607312  	0.057275 
3101.536128  	0.058041 
3103.464944  	0.058652 
3105.393760  	0.059091 
3107.322576  	0.059732 
3109.251392  	0.060495 
3111.180208  	0.061098 
3113.109024  	0.061673 
3115.037840  	0.062274 
3116.966656  	0.062814 
3118.895472  	0.063493 
3120.824288  	0.064347 
3122.753104  	0.065011 
3124.681920  	0.065311 
3126.610736  	0.065706 
3128.539552  	0.066249 
3130.468368  	0.066662 
3132.397184  	0.067176 
3134.326000  	0.067732 
3136.254816  	0.068344 
3138.183632  	0.068861 
3140.112448  	0.069183 
3142.041264  	0.069858 
3143.970080  	0.070538 
3145.898896  	0.071126 
3147.827712  	0.071652 
3149.756528  	0.072330 
3151.685344  	0.072954 
3153.614160  	0.073496 
3155.542976  	0.073924 
3157.471792  	0.074553 
3159.400608  	0.075234 
3161.329424  	0.075832 
3163.258240  	0.076405 
3165.187056  	0.076969 
3167.115872  	0.077407 
3169.044688  	0.077971 
3170.973504  	0.078538 
3172.902320  	0.078913 
3174.831136  	0.079286 
3176.759952  	0.079642 
3178.688768  	0.080225 
3180.617584  	0.080700 
3182.546400  	0.080941 
3184.475216  	0.081250 
3186.404032  	0.081790 
3188.332848  	0.082100 
3190.261664  	0.082286 
3192.190480  	0.082530 
3194.119296  	0.082821 
3196.048112  	0.082805 
3197.976928  	0.082975 
3199.905744  	0.083159 
3201.834560  	0.083193 
3203.763376  	0.083135 
3205.692192  	0.082924 
3207.621008  	0.083007 
3209.549824  	0.083272 
3211.478640  	0.083271 
3213.407456  	0.083061 
3215.336272  	0.083085 
3217.265088  	0.082918 
3219.193904  	0.082839 
3221.122720  	0.082848 
3223.051536  	0.082691 
3224.980352  	0.082607 
3226.909168  	0.082720 
3228.837984  	0.082617 
3230.766800  	0.082380 
3232.695616  	0.082361 
3234.624432  	0.082405 
3236.553248  	0.082646 
3238.482064  	0.082910 
3240.410880  	0.082739 
3242.339696  	0.082544 
3244.268512  	0.082765 
3246.197328  	0.082818 
3248.126144  	0.082665 
3250.054960  	0.082979 
3251.983776  	0.083201 
3253.912592  	0.083441 
3255.841408  	0.083682 
3257.770224  	0.083756 
3259.699040  	0.083999 
3261.627856  	0.084424 
3263.556672  	0.084599 
3265.485488  	0.084663 
3267.414304  	0.084675 
3269.343120  	0.084889 
3271.271936  	0.085095 
3273.200752  	0.085318 
3275.129568  	0.085483 
3277.058384  	0.085522 
3278.987200  	0.085540 
3280.916016  	0.085600 
3282.844832  	0.085802 
3284.773648  	0.086160 
3286.702464  	0.086360 
3288.631280  	0.086532 
3290.560096  	0.086748 
3292.488912  	0.086867 
3294.417728  	0.087063 
3296.346544  	0.087405 
3298.275360  	0.087691 
3300.204176  	0.087913 
3302.132992  	0.088122 
3304.061808  	0.088451 
3305.990624  	0.088773 
3307.919440  	0.089131 
3309.848256  	0.089329 
3311.777072  	0.089473 
3313.705888  	0.089805 
3315.634704  	0.090200 
3317.563520  	0.090473 
3319.492336  	0.090884 
3321.421152  	0.091244 
3323.349968  	0.091376 
3325.278784  	0.091628 
3327.207600  	0.091886 
3329.136416  	0.091736 
3331.065232  	0.091617 
3332.994048  	0.091804 
3334.922864  	0.092073 
3336.851680  	0.092179 
3338.780496  	0.092144 
3340.709312  	0.092088 
3342.638128  	0.092218 
3344.566944  	0.092221 
3346.495760  	0.091963 
3348.424576  	0.091875 
3350.353392  	0.091777 
3352.282208  	0.091474 
3354.211024  	0.091322 
3356.139840  	0.091136 
3358.068656  	0.090916 
3359.997472  	0.090460 
3361.926288  	0.090067 
3363.855104  	0.089945 
3365.783920  	0.089995 
3367.712736  	0.089833 
3369.641552  	0.089330 
3371.570368  	0.088851 
3373.499184  	0.088825 
3375.428000  	0.088849 
3377.356816  	0.088711 
3379.285632  	0.088482 
3381.214448  	0.088105 
3383.143264  	0.087694 
3385.072080  	0.087581 
3387.000896  	0.087208 
3388.929712  	0.086878 
3390.858528  	0.086475 
3392.787344  	0.086350 
3394.716160  	0.086265 
3396.644976  	0.086086 
3398.573792  	0.085478 
3400.502608  	0.084613 
3402.431424  	0.084113 
3404.360240  	0.083865 
3406.289056  	0.083266 
3408.217872  	0.082843 
3410.146688  	0.082630 
3412.075504  	0.082159 
3414.004320  	0.081781 
3415.933136  	0.081556 
3417.861952  	0.081203 
3419.790768  	0.080792 
3421.719584  	0.080406 
3423.648400  	0.079829 
3425.577216  	0.079200 
3427.506032  	0.078602 
3429.434848  	0.078120 
3431.363664  	0.077813 
3433.292480  	0.077253 
3435.221296  	0.076786 
3437.150112  	0.076129 
3439.078928  	0.075514 
3441.007744  	0.075017 
3442.936560  	0.074519 
3444.865376  	0.073762 
3446.794192  	0.073461 
3448.723008  	0.073048 
3450.651824  	0.072192 
3452.580640  	0.071524 
3454.509456  	0.070839 
3456.438272  	0.070251 
3458.367088  	0.069786 
3460.295904  	0.069083 
3462.224720  	0.068305 
3464.153536  	0.067572 
3466.082352  	0.067011 
3468.011168  	0.066348 
3469.939984  	0.065644 
3471.868800  	0.064760 
3473.797616  	0.063948 
3475.726432  	0.063350 
3477.655248  	0.062534 
3479.584064  	0.061510 
3481.512880  	0.060896 
3483.441696  	0.060362 
3485.370512  	0.059419 
3487.299328  	0.058558 
3489.228144  	0.057650 
3491.156960  	0.056844 
3493.085776  	0.056228 
3495.014592  	0.055567 
3496.943408  	0.054924 
3498.872224  	0.053948 
3500.801040  	0.053241 
3502.729856  	0.052916 
3504.658672  	0.052419 
3506.587488  	0.051398 
3508.516304  	0.050645 
3510.445120  	0.050120 
3512.373936  	0.049422 
3514.302752  	0.048745 
3516.231568  	0.048021 
3518.160384  	0.047185 
3520.089200  	0.046480 
3522.018016  	0.045784 
3523.946832  	0.045365 
3525.875648  	0.044919 
3527.804464  	0.044487 
3529.733280  	0.043894 
3531.662096  	0.042932 
3533.590912  	0.042031 
3535.519728  	0.041320 
3537.448544  	0.040840 
3539.377360  	0.040322 
3541.306176  	0.039536 
3543.234992  	0.038843 
3545.163808  	0.038470 
3547.092624  	0.038100 
3549.021440  	0.037223 
3550.950256  	0.036423 
3552.879072  	0.036104 
3554.807888  	0.035178 
3556.736704  	0.034259 
3558.665520  	0.033825 
3560.594336  	0.033177 
3562.523152  	0.032300 
3564.451968  	0.031582 
3566.380784  	0.031869 
3568.309600  	0.032302 
3570.238416  	0.030725 
3572.167232  	0.029374 
3574.096048  	0.028893 
3576.024864  	0.028186 
3577.953680  	0.027215 
3579.882496  	0.026514 
3581.811312  	0.025716 
3583.740128  	0.024866 
3585.668944  	0.024160 
3587.597760  	0.024430 
3589.526576  	0.023932 
3591.455392  	0.022480 
3593.384208  	0.021730 
3595.313024  	0.021267 
3597.241840  	0.020456 
3599.170656  	0.019578 
3601.099472  	0.019140 
3603.028288  	0.018323 
3604.957104  	0.017254 
3606.885920  	0.016804 
3608.814736  	0.016699 
3610.743552  	0.015414 
3612.672368  	0.014836 
3614.601184  	0.014375 
3616.530000  	0.013051 
3618.458816  	0.012739 
3620.387632  	0.012601 
3622.316448  	0.011578 
3624.245264  	0.010488 
3626.174080  	0.009254 
3628.102896  	0.009088 
3630.031712  	0.009997 
3631.960528  	0.008430 
3633.889344  	0.007420 
3635.818160  	0.006646 
3637.746976  	0.005707 
3639.675792  	0.004855 
3641.604608  	0.004039 
3643.533424  	0.003206 
3645.462240  	0.002245 
3647.391056  	0.002323 
3649.319872  	0.002837 
3651.248688  	0.002717 
3653.177504  	0.001035 
3655.106320  	0.000109 
3657.035136  	0.000061 
3658.963952  	-0.000821 
3660.892768  	-0.001487 
3662.821584  	-0.002079 
3664.750400  	-0.002392 
3666.679216  	-0.002833 
3668.608032  	-0.003254 
3670.536848  	-0.002592 
3672.465664  	-0.003502 
3674.394480  	-0.003894 
3676.323296  	-0.002568 
3678.252112  	-0.003223 
3680.180928  	-0.003798 
3682.109744  	-0.004425 
3684.038560  	-0.004621 
3685.967376  	-0.004955 
3687.896192  	-0.004693 
3689.825008  	-0.003867 
3691.753824  	-0.003952 
3693.682640  	-0.004412 
3695.611456  	-0.004898 
3697.540272  	-0.005006 
3699.469088  	-0.005496 
3701.397904  	-0.005458 
3703.326720  	-0.005221 
3705.255536  	-0.005258 
3707.184352  	-0.005271 
3709.113168  	-0.005243 
3711.041984  	-0.004499 
3712.970800  	-0.004119 
3714.899616  	-0.005037 
3716.828432  	-0.005580 
3718.757248  	-0.005493 
3720.686064  	-0.005463 
3722.614880  	-0.005524 
3724.543696  	-0.005593 
3726.472512  	-0.005108 
3728.401328  	-0.005314 
3730.330144  	-0.006083 
3732.258960  	-0.005828 
3734.187776  	-0.005044 
3736.116592  	-0.003953 
3738.045408  	-0.004612 
3739.974224  	-0.005200 
3741.903040  	-0.005798 
3743.831856  	-0.005845 
3745.760672  	-0.005075 
3747.689488  	-0.006065 
3749.618304  	-0.005686 
3751.547120  	-0.004834 
3753.475936  	-0.004965 
3755.404752  	-0.005518 
3757.333568  	-0.005661 
3759.262384  	-0.005325 
3761.191200  	-0.005076 
3763.120016  	-0.005596 
3765.048832  	-0.005489 
3766.977648  	-0.005573 
3768.906464  	-0.005585 
3770.835280  	-0.005192 
3772.764096  	-0.005547 
3774.692912  	-0.005909 
3776.621728  	-0.005950 
3778.550544  	-0.005568 
3780.479360  	-0.005278 
3782.408176  	-0.005726 
3784.336992  	-0.005749 
3786.265808  	-0.005577 
3788.194624  	-0.005894 
3790.123440  	-0.006013 
3792.052256  	-0.006173 
3793.981072  	-0.006561 
3795.909888  	-0.006038 
3797.838704  	-0.005564 
3799.767520  	-0.006082 
3801.696336  	-0.005038 
3803.625152  	-0.005152 
3805.553968  	-0.005947 
3807.482784  	-0.005282 
3809.411600  	-0.005545 
3811.340416  	-0.006125 
3813.269232  	-0.006505 
3815.198048  	-0.005800 
3817.126864  	-0.004907 
3819.055680  	-0.005872 
3820.984496  	-0.005226 
3822.913312  	-0.005002 
3824.842128  	-0.005842 
3826.770944  	-0.005702 
3828.699760  	-0.005825 
3830.628576  	-0.005940 
3832.557392  	-0.005970 
3834.486208  	-0.006416 
3836.415024  	-0.006229 
3838.343840  	-0.005450 
3840.272656  	-0.005086 
3842.201472  	-0.005336 
3844.130288  	-0.005274 
3846.059104  	-0.005597 
3847.987920  	-0.006306 
3849.916736  	-0.006674 
3851.845552  	-0.006403 
3853.774368  	-0.004213 
3855.703184  	-0.004382 
3857.632000  	-0.005304 
3859.560816  	-0.005828 
3861.489632  	-0.005953 
3863.418448  	-0.005793 
3865.347264  	-0.005177 
3867.276080  	-0.005952 
3869.204896  	-0.005840 
3871.133712  	-0.004948 
3873.062528  	-0.005818 
3874.991344  	-0.005672 
3876.920160  	-0.006180 
3878.848976  	-0.006403 
3880.777792  	-0.005525 
3882.706608  	-0.005522 
3884.635424  	-0.005906 
3886.564240  	-0.005490 
3888.493056  	-0.006374 
3890.421872  	-0.006485 
3892.350688  	-0.005675 
3894.279504  	-0.005753 
3896.208320  	-0.006381 
3898.137136  	-0.006491 
3900.065952  	-0.005758 
3901.994768  	-0.005562 
3903.923584  	-0.005323 
3905.852400  	-0.005156 
3907.781216  	-0.005680 
3909.710032  	-0.006173 
3911.638848  	-0.006349 
3913.567664  	-0.006241 
3915.496480  	-0.006093 
3917.425296  	-0.005612 
3919.354112  	-0.005653 
3921.282928  	-0.005763 
3923.211744  	-0.005901 
3925.140560  	-0.005918 
3927.069376  	-0.006228 
3928.998192  	-0.006265 
3930.927008  	-0.005947 
3932.855824  	-0.005706 
3934.784640  	-0.005796 
3936.713456  	-0.006028 
3938.642272  	-0.006340 
3940.571088  	-0.006416 
3942.499904  	-0.005915 
3944.428720  	-0.005696 
3946.357536  	-0.006026 
3948.286352  	-0.005948 
3950.215168  	-0.005994 
3952.143984  	-0.006321 
3954.072800  	-0.006474 
3956.001616  	-0.006195 
3957.930432  	-0.005960 
3959.859248  	-0.005897 
3961.788064  	-0.005815 
3963.716880  	-0.005851 
3965.645696  	-0.006086 
3967.574512  	-0.006314 
3969.503328  	-0.006351 
3971.432144  	-0.006321 
3973.360960  	-0.006220 
3975.289776  	-0.005942 
3977.218592  	-0.005950 
3979.147408  	-0.006176 
3981.076224  	-0.006094 
3983.005040  	-0.006121 
3984.933856  	-0.006138 
3986.862672  	-0.006055 
3988.791488  	-0.006178 
3990.720304  	-0.006157 
3992.649120  	-0.006267 
3994.577936  	-0.006341 
3996.506752  	-0.006173 
3998.435568  	-0.006080 
4000.364384  	-0.006112 