##TITLE=No Description
##DATA TYPE=INFRARED SPECTRUM
##XUNITS=1/CM
##YUNITS=Abs
399.264912  	0.643385 
401.193728  	0.641641 
403.122544  	0.647588 
405.051360  	0.639395 
406.980176  	0.635107 
408.908992  	0.644600 
410.837808  	0.649866 
412.766624  	0.620519 
414.695440  	0.607430 
416.624256  	0.595534 
418.553072  	0.592525 
420.481888  	0.599120 
422.410704  	0.603706 
424.339520  	0.597091 
426.268336  	0.596804 
428.197152  	0.589968 
430.125968  	0.583235 
432.054784  	0.574169 
433.983600  	0.575352 
435.912416  	0.574677 
437.841232  	0.573084 
439.770048  	0.567622 
441.698864  	0.569879 
443.627680  	0.565829 
445.556496  	0.564137 
447.485312  	0.554668 
449.414128  	0.555750 
451.342944  	0.561457 
453.271760  	0.561517 
455.200576  	0.550735 
457.129392  	0.546582 
459.058208  	0.546537 
460.987024  	0.554571 
462.915840  	0.552000 
464.844656  	0.552083 
466.773472  	0.551312 
468.702288  	0.550408 
470.631104  	0.546072 
472.559920  	0.549035 
474.488736  	0.543174 
476.417552  	0.543483 
478.346368  	0.542254 
480.275184  	0.542736 
482.204000  	0.536754 
484.132816  	0.535295 
486.061632  	0.533121 
487.990448  	0.535075 
489.919264  	0.535174 
491.848080  	0.535012 
493.776896  	0.531144 
495.705712  	0.531157 
497.634528  	0.527993 
499.563344  	0.526579 
501.492160  	0.523065 
503.420976  	0.525154 
505.349792  	0.522689 
507.278608  	0.519364 
509.207424  	0.515185 
511.136240  	0.519480 
513.065056  	0.521399 
514.993872  	0.523335 
516.922688  	0.523751 
518.851504  	0.527127 
520.780320  	0.522696 
522.709136  	0.520515 
524.637952  	0.519725 
526.566768  	0.520245 
528.495584  	0.515546 
530.424400  	0.512692 
532.353216  	0.508628 
534.282032  	0.506174 
536.210848  	0.502322 
538.139664  	0.499120 
540.068480  	0.494951 
541.997296  	0.492602 
543.926112  	0.489846 
545.854928  	0.487403 
547.783744  	0.483162 
549.712560  	0.482196 
551.641376  	0.479943 
553.570192  	0.478113 
555.499008  	0.474633 
557.427824  	0.472372 
559.356640  	0.469082 
561.285456  	0.467153 
563.214272  	0.464421 
565.143088  	0.461374 
567.071904  	0.458566 
569.000720  	0.456959 
570.929536  	0.453777 
572.858352  	0.451529 
574.787168  	0.449457 
576.715984  	0.447495 
578.644800  	0.443822 
580.573616  	0.440486 
582.502432  	0.436055 
584.431248  	0.433126 
586.360064  	0.430333 
588.288880  	0.428462 
590.217696  	0.425311 
592.146512  	0.423603 
594.075328  	0.420728 
596.004144  	0.418510 
597.932960  	0.417180 
599.861776  	0.416113 
601.790592  	0.413872 
603.719408  	0.412656 
605.648224  	0.410167 
607.577040  	0.408460 
609.505856  	0.406628 
611.434672  	0.404801 
613.363488  	0.401737 
615.292304  	0.400556 
617.221120  	0.398706 
619.149936  	0.396583 
621.078752  	0.394546 
623.007568  	0.393637 
624.936384  	0.391744 
626.865200  	0.389829 
628.794016  	0.388023 
630.722832  	0.386956 
632.651648  	0.385491 
634.580464  	0.384250 
636.509280  	0.383411 
638.438096  	0.382550 
640.366912  	0.380895 
642.295728  	0.379270 
644.224544  	0.376824 
646.153360  	0.374359 
648.082176  	0.370550 
650.010992  	0.367091 
651.939808  	0.364020 
653.868624  	0.361704 
655.797440  	0.358377 
657.726256  	0.355474 
659.655072  	0.351640 
661.583888  	0.347879 
663.512704  	0.344774 
665.441520  	0.342229 
667.370336  	0.338900 
669.299152  	0.333319 
671.227968  	0.329234 
673.156784  	0.326277 
675.085600  	0.323261 
677.014416  	0.321056 
678.943232  	0.318423 
680.872048  	0.316572 
682.800864  	0.314536 
684.729680  	0.312731 
686.658496  	0.310143 
688.587312  	0.307590 
690.516128  	0.305885 
692.444944  	0.304707 
694.373760  	0.302577 
696.302576  	0.300545 
698.231392  	0.298243 
700.160208  	0.295649 
702.089024  	0.292548 
704.017840  	0.290156 
705.946656  	0.287721 
707.875472  	0.285660 
709.804288  	0.283185 
711.733104  	0.281230 
713.661920  	0.279133 
715.590736  	0.277174 
717.519552  	0.275489 
719.448368  	0.274617 
721.377184  	0.273585 
723.306000  	0.272622 
725.234816  	0.271445 
727.163632  	0.269867 
729.092448  	0.267263 
731.021264  	0.264579 
732.950080  	0.261772 
734.878896  	0.258943 
736.807712  	0.256394 
738.736528  	0.254213 
740.665344  	0.251913 
742.594160  	0.250225 
744.522976  	0.248307 
746.451792  	0.246420 
748.380608  	0.244168 
750.309424  	0.242514 
752.238240  	0.241017 
754.167056  	0.239703 
756.095872  	0.238264 
758.024688  	0.236685 
759.953504  	0.235261 
761.882320  	0.234845 
763.811136  	0.233980 
765.739952  	0.231737 
767.668768  	0.228707 
769.597584  	0.226106 
771.526400  	0.224361 
773.455216  	0.223792 
775.384032  	0.224326 
777.312848  	0.225998 
779.241664  	0.227132 
781.170480  	0.225632 
783.099296  	0.221340 
785.028112  	0.216497 
786.956928  	0.211765 
788.885744  	0.207972 
790.814560  	0.204787 
792.743376  	0.202589 
794.672192  	0.201234 
796.601008  	0.199750 
798.529824  	0.196563 
800.458640  	0.192933 
802.387456  	0.189770 
804.316272  	0.187748 
806.245088  	0.186078 
808.173904  	0.184208 
810.102720  	0.182367 
812.031536  	0.181061 
813.960352  	0.179869 
815.889168  	0.178896 
817.817984  	0.178335 
819.746800  	0.177850 
821.675616  	0.177077 
823.604432  	0.176284 
825.533248  	0.175697 
827.462064  	0.174982 
829.390880  	0.173687 
831.319696  	0.172251 
833.248512  	0.170667 
835.177328  	0.168753 
837.106144  	0.166334 
839.034960  	0.163836 
840.963776  	0.160632 
842.892592  	0.157803 
844.821408  	0.154989 
846.750224  	0.152093 
848.679040  	0.149541 
850.607856  	0.147500 
852.536672  	0.145936 
854.465488  	0.144533 
856.394304  	0.143076 
858.323120  	0.141542 
860.251936  	0.140125 
862.180752  	0.138892 
864.109568  	0.137060 
866.038384  	0.135073 
867.967200  	0.133271 
869.896016  	0.131617 
871.824832  	0.130260 
873.753648  	0.129832 
875.682464  	0.129518 
877.611280  	0.129745 
879.540096  	0.130605 
881.468912  	0.131562 
883.397728  	0.132479 
885.326544  	0.133123 
887.255360  	0.133303 
889.184176  	0.133108 
891.112992  	0.132473 
893.041808  	0.131163 
894.970624  	0.129221 
896.899440  	0.126582 
898.828256  	0.123305 
900.757072  	0.119962 
902.685888  	0.117005 
904.614704  	0.114832 
906.543520  	0.113849 
908.472336  	0.113905 
910.401152  	0.114452 
912.329968  	0.115134 
914.258784  	0.115774 
916.187600  	0.117044 
918.116416  	0.117963 
920.045232  	0.118371 
921.974048  	0.118506 
923.902864  	0.118327 
925.831680  	0.117985 
927.760496  	0.117879 
929.689312  	0.117707 
931.618128  	0.117818 
933.546944  	0.117834 
935.475760  	0.117314 
937.404576  	0.116610 
939.333392  	0.115821 
941.262208  	0.114956 
943.191024  	0.114626 
945.119840  	0.115279 
947.048656  	0.117093 
948.977472  	0.120308 
950.906288  	0.124512 
952.835104  	0.129856 
954.763920  	0.136314 
956.692736  	0.143083 
958.621552  	0.149880 
960.550368  	0.155248 
962.479184  	0.158864 
964.408000  	0.159957 
966.336816  	0.158360 
968.265632  	0.153857 
970.194448  	0.147101 
972.123264  	0.138663 
974.052080  	0.129486 
975.980896  	0.120045 
977.909712  	0.111007 
979.838528  	0.103047 
981.767344  	0.096429 
983.696160  	0.091268 
985.624976  	0.087716 
987.553792  	0.086015 
989.482608  	0.086212 
991.411424  	0.087902 
993.340240  	0.090754 
995.269056  	0.094371 
997.197872  	0.098444 
999.126688  	0.102707 
1001.055504  	0.107165 
1002.984320  	0.111205 
1004.913136  	0.115333 
1006.841952  	0.119483 
1008.770768  	0.123353 
1010.699584  	0.126659 
1012.628400  	0.129383 
1014.557216  	0.131718 
1016.486032  	0.133315 
1018.414848  	0.134267 
1020.343664  	0.134949 
1022.272480  	0.135399 
1024.201296  	0.135768 
1026.130112  	0.135907 
1028.058928  	0.136363 
1029.987744  	0.137475 
1031.916560  	0.138965 
1033.845376  	0.140725 
1035.774192  	0.143127 
1037.703008  	0.146417 
1039.631824  	0.151363 
1041.560640  	0.158198 
1043.489456  	0.167340 
1045.418272  	0.178225 
1047.347088  	0.190191 
1049.275904  	0.200789 
1051.204720  	0.208860 
1053.133536  	0.213592 
1055.062352  	0.215603 
1056.991168  	0.215852 
1058.919984  	0.216212 
1060.848800  	0.216725 
1062.777616  	0.217047 
1064.706432  	0.216715 
1066.635248  	0.216020 
1068.564064  	0.214736 
1070.492880  	0.211988 
1072.421696  	0.208141 
1074.350512  	0.205444 
1076.279328  	0.205104 
1078.208144  	0.207730 
1080.136960  	0.211882 
1082.065776  	0.215968 
1083.994592  	0.217646 
1085.923408  	0.216738 
1087.852224  	0.212848 
1089.781040  	0.206869 
1091.709856  	0.199118 
1093.638672  	0.189939 
1095.567488  	0.179444 
1097.496304  	0.168869 
1099.425120  	0.158055 
1101.353936  	0.147715 
1103.282752  	0.138023 
1105.211568  	0.129132 
1107.140384  	0.120906 
1109.069200  	0.113334 
1110.998016  	0.106571 
1112.926832  	0.100461 
1114.855648  	0.094665 
1116.784464  	0.089116 
1118.713280  	0.083736 
1120.642096  	0.078726 
1122.570912  	0.074126 
1124.499728  	0.069986 
1126.428544  	0.066197 
1128.357360  	0.062787 
1130.286176  	0.059925 
1132.214992  	0.057516 
1134.143808  	0.055687 
1136.072624  	0.054092 
1138.001440  	0.052493 
1139.930256  	0.051127 
1141.859072  	0.050027 
1143.787888  	0.049088 
1145.716704  	0.048321 
1147.645520  	0.047497 
1149.574336  	0.047117 
1151.503152  	0.046829 
1153.431968  	0.046523 
1155.360784  	0.046441 
1157.289600  	0.046897 
1159.218416  	0.047368 
1161.147232  	0.047715 
1163.076048  	0.048293 
1165.004864  	0.048988 
1166.933680  	0.049516 
1168.862496  	0.050277 
1170.791312  	0.051341 
1172.720128  	0.052610 
1174.648944  	0.054061 
1176.577760  	0.055394 
1178.506576  	0.056924 
1180.435392  	0.058753 
1182.364208  	0.060520 
1184.293024  	0.062509 
1186.221840  	0.064887 
1188.150656  	0.067646 
1190.079472  	0.070802 
1192.008288  	0.074445 
1193.937104  	0.078409 
1195.865920  	0.082925 
1197.794736  	0.088344 
1199.723552  	0.094350 
1201.652368  	0.100444 
1203.581184  	0.106228 
1205.510000  	0.111734 
1207.438816  	0.117157 
1209.367632  	0.122321 
1211.296448  	0.126557 
1213.225264  	0.129887 
1215.154080  	0.132100 
1217.082896  	0.133787 
1219.011712  	0.134742 
1220.940528  	0.135133 
1222.869344  	0.134679 
1224.798160  	0.133812 
1226.726976  	0.132261 
1228.655792  	0.130169 
1230.584608  	0.127501 
1232.513424  	0.124412 
1234.442240  	0.120853 
1236.371056  	0.117107 
1238.299872  	0.112758 
1240.228688  	0.107816 
1242.157504  	0.102969 
1244.086320  	0.098273 
1246.015136  	0.093286 
1247.943952  	0.088476 
1249.872768  	0.083802 
1251.801584  	0.079414 
1253.730400  	0.075061 
1255.659216  	0.070767 
1257.588032  	0.066738 
1259.516848  	0.063068 
1261.445664  	0.059479 
1263.374480  	0.056190 
1265.303296  	0.053362 
1267.232112  	0.051225 
1269.160928  	0.049751 
1271.089744  	0.048720 
1273.018560  	0.048264 
1274.947376  	0.048449 
1276.876192  	0.048943 
1278.805008  	0.049217 
1280.733824  	0.049061 
1282.662640  	0.048183 
1284.591456  	0.046905 
1286.520272  	0.045767 
1288.449088  	0.045046 
1290.377904  	0.044828 
1292.306720  	0.045319 
1294.235536  	0.045877 
1296.164352  	0.045708 
1298.093168  	0.044541 
1300.021984  	0.042904 
1301.950800  	0.041037 
1303.879616  	0.039032 
1305.808432  	0.036952 
1307.737248  	0.034791 
1309.666064  	0.032687 
1311.594880  	0.031048 
1313.523696  	0.029792 
1315.452512  	0.029039 
1317.381328  	0.028812 
1319.310144  	0.028864 
1321.238960  	0.029094 
1323.167776  	0.029666 
1325.096592  	0.030076 
1327.025408  	0.030227 
1328.954224  	0.030157 
1330.883040  	0.029586 
1332.811856  	0.028528 
1334.740672  	0.027580 
1336.669488  	0.027064 
1338.598304  	0.027003 
1340.527120  	0.026752 
1342.455936  	0.026067 
1344.384752  	0.025890 
1346.313568  	0.026231 
1348.242384  	0.026673 
1350.171200  	0.027290 
1352.100016  	0.028292 
1354.028832  	0.029554 
1355.957648  	0.030859 
1357.886464  	0.032121 
1359.815280  	0.033424 
1361.744096  	0.035010 
1363.672912  	0.036571 
1365.601728  	0.037566 
1367.530544  	0.038693 
1369.459360  	0.039899 
1371.388176  	0.040575 
1373.316992  	0.040799 
1375.245808  	0.040209 
1377.174624  	0.038788 
1379.103440  	0.037223 
1381.032256  	0.035528 
1382.961072  	0.033997 
1384.889888  	0.032847 
1386.818704  	0.032042 
1388.747520  	0.030777 
1390.676336  	0.029248 
1392.605152  	0.027922 
1394.533968  	0.027193 
1396.462784  	0.027287 
1398.391600  	0.027050 
1400.320416  	0.026894 
1402.249232  	0.026902 
1404.178048  	0.027329 
1406.106864  	0.027945 
1408.035680  	0.028766 
1409.964496  	0.029747 
1411.893312  	0.031035 
1413.822128  	0.032521 
1415.750944  	0.034060 
1417.679760  	0.035226 
1419.608576  	0.036224 
1421.537392  	0.036231 
1423.466208  	0.035808 
1425.395024  	0.034714 
1427.323840  	0.033389 
1429.252656  	0.032031 
1431.181472  	0.030800 
1433.110288  	0.030026 
1435.039104  	0.029956 
1436.967920  	0.030736 
1438.896736  	0.031509 
1440.825552  	0.032000 
1442.754368  	0.032433 
1444.683184  	0.032446 
1446.612000  	0.032543 
1448.540816  	0.032658 
1450.469632  	0.032864 
1452.398448  	0.033084 
1454.327264  	0.033291 
1456.256080  	0.033870 
1458.184896  	0.034477 
1460.113712  	0.033479 
1462.042528  	0.032878 
1463.971344  	0.032726 
1465.900160  	0.033028 
1467.828976  	0.033094 
1469.757792  	0.033618 
1471.686608  	0.035434 
1473.615424  	0.039559 
1475.544240  	0.042194 
1477.473056  	0.045110 
1479.401872  	0.047097 
1481.330688  	0.049404 
1483.259504  	0.051125 
1485.188320  	0.052207 
1487.117136  	0.052940 
1489.045952  	0.053708 
1490.974768  	0.052980 
1492.903584  	0.051272 
1494.832400  	0.049028 
1496.761216  	0.046120 
1498.690032  	0.042364 
1500.618848  	0.039033 
1502.547664  	0.036154 
1504.476480  	0.034083 
1506.405296  	0.032517 
1508.334112  	0.031738 
1510.262928  	0.030280 
1512.191744  	0.029153 
1514.120560  	0.028856 
1516.049376  	0.029702 
1517.978192  	0.030822 
1519.907008  	0.031519 
1521.835824  	0.034151 
1523.764640  	0.036097 
1525.693456  	0.037980 
1527.622272  	0.039801 
1529.551088  	0.040066 
1531.479904  	0.039388 
1533.408720  	0.038389 
1535.337536  	0.036876 
1537.266352  	0.035404 
1539.195168  	0.033994 
1541.123984  	0.032402 
1543.052800  	0.031417 
1544.981616  	0.030348 
1546.910432  	0.029026 
1548.839248  	0.028565 
1550.768064  	0.028822 
1552.696880  	0.028365 
1554.625696  	0.028676 
1556.554512  	0.028635 
1558.483328  	0.029838 
1560.412144  	0.031976 
1562.340960  	0.032464 
1564.269776  	0.033712 
1566.198592  	0.036054 
1568.127408  	0.037639 
1570.056224  	0.041407 
1571.985040  	0.043849 
1573.913856  	0.045331 
1575.842672  	0.047295 
1577.771488  	0.049475 
1579.700304  	0.048912 
1581.629120  	0.048334 
1583.557936  	0.047863 
1585.486752  	0.048223 
1587.415568  	0.049255 
1589.344384  	0.051603 
1591.273200  	0.054596 
1593.202016  	0.058505 
1595.130832  	0.062748 
1597.059648  	0.067219 
1598.988464  	0.071123 
1600.917280  	0.075048 
1602.846096  	0.078160 
1604.774912  	0.080554 
1606.703728  	0.081585 
1608.632544  	0.082210 
1610.561360  	0.081633 
1612.490176  	0.080955 
1614.418992  	0.079933 
1616.347808  	0.080510 
1618.276624  	0.081900 
1620.205440  	0.082982 
1622.134256  	0.084620 
1624.063072  	0.089315 
1625.991888  	0.092791 
1627.920704  	0.097893 
1629.849520  	0.103352 
1631.778336  	0.107836 
1633.707152  	0.111425 
1635.635968  	0.119064 
1637.564784  	0.126671 
1639.493600  	0.129885 
1641.422416  	0.133105 
1643.351232  	0.135814 
1645.280048  	0.137156 
1647.208864  	0.141249 
1649.137680  	0.142325 
1651.066496  	0.140799 
1652.995312  	0.140913 
1654.924128  	0.144154 
1656.852944  	0.141884 
1658.781760  	0.140478 
1660.710576  	0.138997 
1662.639392  	0.137648 
1664.568208  	0.135200 
1666.497024  	0.132154 
1668.425840  	0.128616 
1670.354656  	0.125129 
1672.283472  	0.121824 
1674.212288  	0.118959 
1676.141104  	0.116359 
1678.069920  	0.114204 
1679.998736  	0.112648 
1681.927552  	0.110968 
1683.856368  	0.109507 
1685.785184  	0.110126 
1687.714000  	0.109068 
1689.642816  	0.108833 
1691.571632  	0.108117 
1693.500448  	0.106933 
1695.429264  	0.106218 
1697.358080  	0.106871 
1699.286896  	0.105226 
1701.215712  	0.105145 
1703.144528  	0.103767 
1705.073344  	0.102414 
1707.002160  	0.100419 
1708.930976  	0.097758 
1710.859792  	0.094261 
1712.788608  	0.090184 
1714.717424  	0.084756 
1716.646240  	0.078086 
1718.575056  	0.068542 
1720.503872  	0.061063 
1722.432688  	0.054338 
1724.361504  	0.046687 
1726.290320  	0.040058 
1728.219136  	0.034564 
1730.147952  	0.029787 
1732.076768  	0.025590 
1734.005584  	0.021446 
1735.934400  	0.018035 
1737.863216  	0.016639 
1739.792032  	0.014293 
1741.720848  	0.012515 
1743.649664  	0.011268 
1745.578480  	0.010275 
1747.507296  	0.009217 
1749.436112  	0.008549 
1751.364928  	0.007442 
1753.293744  	0.006647 
1755.222560  	0.006209 
1757.151376  	0.006250 
1759.080192  	0.005694 
1761.009008  	0.005320 
1762.937824  	0.004520 
1764.866640  	0.004164 
1766.795456  	0.003980 
1768.724272  	0.003938 
1770.653088  	0.003387 
1772.581904  	0.003484 
1774.510720  	0.003347 
1776.439536  	0.003103 
1778.368352  	0.002569 
1780.297168  	0.002411 
1782.225984  	0.001977 
1784.154800  	0.001865 
1786.083616  	0.001481 
1788.012432  	0.001435 
1789.941248  	0.001656 
1791.870064  	0.001760 
1793.798880  	0.001262 
1795.727696  	0.001287 
1797.656512  	0.000919 
1799.585328  	0.000831 
1801.514144  	0.000887 
1803.442960  	0.000828 
1805.371776  	0.000701 
1807.300592  	0.000664 
1809.229408  	0.000356 
1811.158224  	0.000168 
1813.087040  	-0.000137 
1815.015856  	-0.000297 
1816.944672  	-0.000086 
1818.873488  	0.000256 
1820.802304  	0.000148 
1822.731120  	0.000188 
1824.659936  	-0.000165 
1826.588752  	-0.000157 
1828.517568  	-0.000353 
1830.446384  	-0.000446 
1832.375200  	-0.000737 
1834.304016  	-0.000610 
1836.232832  	-0.000541 
1838.161648  	-0.000371 
1840.090464  	-0.000611 
1842.019280  	-0.000863 
1843.948096  	-0.001053 
1845.876912  	-0.000798 
1847.805728  	-0.000884 
1849.734544  	-0.000859 
1851.663360  	-0.000875 
1853.592176  	-0.000631 
1855.520992  	-0.000557 
1857.449808  	-0.000579 
1859.378624  	-0.001103 
1861.307440  	-0.001208 
1863.236256  	-0.001307 
1865.165072  	-0.001060 
1867.093888  	-0.000999 
1869.022704  	-0.000501 
1870.951520  	-0.000837 
1872.880336  	-0.001002 
1874.809152  	-0.001229 
1876.737968  	-0.001517 
1878.666784  	-0.001738 
1880.595600  	-0.001705 
1882.524416  	-0.001588 
1884.453232  	-0.001331 
1886.382048  	-0.001710 
1888.310864  	-0.001485 
1890.239680  	-0.001620 
1892.168496  	-0.001392 
1894.097312  	-0.001470 
1896.026128  	-0.001646 
1897.954944  	-0.001688 
1899.883760  	-0.001634 
1901.812576  	-0.001805 
1903.741392  	-0.001487 
1905.670208  	-0.001741 
1907.599024  	-0.002065 
1909.527840  	-0.002128 
1911.456656  	-0.001597 
1913.385472  	-0.001296 
1915.314288  	-0.001137 
1917.243104  	-0.001550 
1919.171920  	-0.001146 
1921.100736  	-0.001348 
1923.029552  	-0.001609 
1924.958368  	-0.002389 
1926.887184  	-0.002414 
1928.816000  	-0.002803 
1930.744816  	-0.002416 
1932.673632  	-0.002053 
1934.602448  	-0.001863 
1936.531264  	-0.002108 
1938.460080  	-0.001478 
1940.388896  	-0.001310 
1942.317712  	-0.001791 
1944.246528  	-0.002806 
1946.175344  	-0.002453 
1948.104160  	-0.002264 
1950.032976  	-0.001737 
1951.961792  	-0.002007 
1953.890608  	-0.002674 
1955.819424  	-0.003422 
1957.748240  	-0.003127 
1959.677056  	-0.003809 
1961.605872  	-0.003402 
1963.534688  	-0.002678 
1965.463504  	-0.001650 
1967.392320  	-0.002272 
1969.321136  	-0.002677 
1971.249952  	-0.003759 
1973.178768  	-0.003975 
1975.107584  	-0.003200 
1977.036400  	-0.001568 
1978.965216  	-0.000993 
1980.894032  	-0.001498 
1982.822848  	-0.001924 
1984.751664  	-0.001295 
1986.680480  	-0.001151 
1988.609296  	-0.000471 
1990.538112  	-0.000442 
1992.466928  	0.000117 
1994.395744  	-0.001030 
1996.324560  	-0.001917 
1998.253376  	-0.001806 
2000.182192  	-0.002252 
2002.111008  	-0.002786 
2004.039824  	-0.002159 
2005.968640  	-0.003459 
2007.897456  	-0.003572 
2009.826272  	-0.002326 
2011.755088  	-0.001199 
2013.683904  	-0.001653 
2015.612720  	-0.001959 
2017.541536  	-0.002420 
2019.470352  	-0.001901 
2021.399168  	-0.002705 
2023.327984  	-0.002249 
2025.256800  	-0.001345 
2027.185616  	-0.000750 
2029.114432  	-0.001170 
2031.043248  	-0.000902 
2032.972064  	-0.001743 
2034.900880  	-0.000543 
2036.829696  	0.000107 
2038.758512  	-0.000370 
2040.687328  	-0.001534 
2042.616144  	-0.000379 
2044.544960  	-0.000390 
2046.473776  	-0.000713 
2048.402592  	-0.000094 
2050.331408  	0.000543 
2052.260224  	0.000046 
2054.189040  	0.000158 
2056.117856  	-0.000263 
2058.046672  	-0.000163 
2059.975488  	-0.000310 
2061.904304  	0.000189 
2063.833120  	0.000314 
2065.761936  	0.000528 
2067.690752  	0.000641 
2069.619568  	0.000482 
2071.548384  	0.000413 
2073.477200  	0.000868 
2075.406016  	0.000907 
2077.334832  	0.000961 
2079.263648  	0.001092 
2081.192464  	0.001374 
2083.121280  	0.000881 
2085.050096  	0.000442 
2086.978912  	0.000230 
2088.907728  	0.000850 
2090.836544  	0.001208 
2092.765360  	0.001032 
2094.694176  	0.000525 
2096.622992  	0.000854 
2098.551808  	0.000981 
2100.480624  	0.001461 
2102.409440  	0.001685 
2104.338256  	0.001610 
2106.267072  	0.001266 
2108.195888  	0.001346 
2110.124704  	0.001235 
2112.053520  	0.001333 
2113.982336  	0.001303 
2115.911152  	0.001061 
2117.839968  	0.000556 
2119.768784  	0.000774 
2121.697600  	0.001001 
2123.626416  	0.000997 
2125.555232  	0.000520 
2127.484048  	0.000119 
2129.412864  	0.000123 
2131.341680  	0.000486 
2133.270496  	0.000481 
2135.199312  	0.000518 
2137.128128  	0.000973 
2139.056944  	0.002347 
2140.985760  	0.002178 
2142.914576  	0.001859 
2144.843392  	0.001249 
2146.772208  	0.000622 
2148.701024  	0.000163 
2150.629840  	0.000065 
2152.558656  	-0.000084 
2154.487472  	0.000462 
2156.416288  	-0.000513 
2158.345104  	0.001983 
2160.273920  	0.005656 
2162.202736  	0.005531 
2164.131552  	0.004273 
2166.060368  	0.004581 
2167.989184  	0.003956 
2169.918000  	0.002659 
2171.846816  	0.002212 
2173.775632  	0.002931 
2175.704448  	0.002744 
2177.633264  	0.002940 
2179.562080  	0.002125 
2181.490896  	0.002966 
2183.419712  	0.003708 
2185.348528  	0.003021 
2187.277344  	0.002025 
2189.206160  	0.001862 
2191.134976  	0.001618 
2193.063792  	0.001499 
2194.992608  	0.001422 
2196.921424  	0.001770 
2198.850240  	0.001294 
2200.779056  	0.000513 
2202.707872  	-0.000055 
2204.636688  	0.000431 
2206.565504  	0.000318 
2208.494320  	0.000293 
2210.423136  	-0.000073 
2212.351952  	0.000256 
2214.280768  	0.000634 
2216.209584  	0.000830 
2218.138400  	0.000223 
2220.067216  	-0.000219 
2221.996032  	-0.000135 
2223.924848  	0.000606 
2225.853664  	0.000946 
2227.782480  	0.000684 
2229.711296  	-0.000075 
2231.640112  	-0.000174 
2233.568928  	-0.000086 
2235.497744  	0.000388 
2237.426560  	0.000413 
2239.355376  	0.000380 
2241.284192  	-0.000027 
2243.213008  	-0.000153 
2245.141824  	-0.000085 
2247.070640  	0.000134 
2248.999456  	0.000249 
2250.928272  	0.000495 
2252.857088  	0.000485 
2254.785904  	0.000641 
2256.714720  	0.000753 
2258.643536  	0.001156 
2260.572352  	0.001414 
2262.501168  	0.001490 
2264.429984  	0.001453 
2266.358800  	0.001359 
2268.287616  	0.001131 
2270.216432  	0.001215 
2272.145248  	0.001242 
2274.074064  	0.001419 
2276.002880  	0.001459 
2277.931696  	0.001795 
2279.860512  	0.001678 
2281.789328  	0.001535 
2283.718144  	0.001396 
2285.646960  	0.001828 
2287.575776  	0.001910 
2289.504592  	0.001644 
2291.433408  	0.001579 
2293.362224  	0.001658 
2295.291040  	0.001510 
2297.219856  	0.001729 
2299.148672  	0.001860 
2301.077488  	0.002000 
2303.006304  	0.002221 
2304.935120  	0.002516 
2306.863936  	0.002586 
2308.792752  	0.002708 
2310.721568  	0.002689 
2312.650384  	0.002641 
2314.579200  	0.002668 
2316.508016  	0.002896 
2318.436832  	0.003089 
2320.365648  	0.003419 
2322.294464  	0.003720 
2324.223280  	0.003829 
2326.152096  	0.003008 
2328.080912  	0.002167 
2330.009728  	0.001886 
2331.938544  	0.001802 
2333.867360  	0.001718 
2335.796176  	0.001830 
2337.724992  	0.001468 
2339.653808  	0.001463 
2341.582624  	0.001596 
2343.511440  	0.001915 
2345.440256  	0.002056 
2347.369072  	0.001901 
2349.297888  	0.001738 
2351.226704  	0.001645 
2353.155520  	0.001414 
2355.084336  	0.001371 
2357.013152  	0.001502 
2358.941968  	0.001769 
2360.870784  	0.001406 
2362.799600  	0.001002 
2364.728416  	0.001419 
2366.657232  	0.001681 
2368.586048  	0.001660 
2370.514864  	0.001964 
2372.443680  	0.001962 
2374.372496  	0.002012 
2376.301312  	0.001988 
2378.230128  	0.001805 
2380.158944  	0.001559 
2382.087760  	0.001338 
2384.016576  	0.001033 
2385.945392  	0.000874 
2387.874208  	0.000797 
2389.803024  	0.000700 
2391.731840  	0.000611 
2393.660656  	0.000624 
2395.589472  	0.000587 
2397.518288  	0.000678 
2399.447104  	0.000589 
2401.375920  	0.000529 
2403.304736  	0.000435 
2405.233552  	0.000354 
2407.162368  	0.000461 
2409.091184  	0.000586 
2411.020000  	0.000422 
2412.948816  	0.000368 
2414.877632  	0.000519 
2416.806448  	0.000895 
2418.735264  	0.000973 
2420.664080  	0.000981 
2422.592896  	0.000850 
2424.521712  	0.000863 
2426.450528  	0.000861 
2428.379344  	0.000969 
2430.308160  	0.001009 
2432.236976  	0.000967 
2434.165792  	0.001059 
2436.094608  	0.001342 
2438.023424  	0.001557 
2439.952240  	0.001551 
2441.881056  	0.001362 
2443.809872  	0.001297 
2445.738688  	0.001321 
2447.667504  	0.001597 
2449.596320  	0.001941 
2451.525136  	0.002132 
2453.453952  	0.002051 
2455.382768  	0.001862 
2457.311584  	0.001777 
2459.240400  	0.001789 
2461.169216  	0.001829 
2463.098032  	0.002098 
2465.026848  	0.002277 
2466.955664  	0.002121 
2468.884480  	0.001958 
2470.813296  	0.001958 
2472.742112  	0.002018 
2474.670928  	0.002159 
2476.599744  	0.002283 
2478.528560  	0.002648 
2480.457376  	0.002874 
2482.386192  	0.003046 
2484.315008  	0.003036 
2486.243824  	0.003046 
2488.172640  	0.003151 
2490.101456  	0.003544 
2492.030272  	0.003650 
2493.959088  	0.003393 
2495.887904  	0.003019 
2497.816720  	0.003300 
2499.745536  	0.003442 
2501.674352  	0.003410 
2503.603168  	0.003439 
2505.531984  	0.003422 
2507.460800  	0.003390 
2509.389616  	0.003338 
2511.318432  	0.003300 
2513.247248  	0.003627 
2515.176064  	0.003811 
2517.104880  	0.003756 
2519.033696  	0.003555 
2520.962512  	0.003702 
2522.891328  	0.003728 
2524.820144  	0.003909 
2526.748960  	0.004106 
2528.677776  	0.004234 
2530.606592  	0.004285 
2532.535408  	0.004357 
2534.464224  	0.004275 
2536.393040  	0.004117 
2538.321856  	0.004137 
2540.250672  	0.004324 
2542.179488  	0.004510 
2544.108304  	0.004696 
2546.037120  	0.004896 
2547.965936  	0.005155 
2549.894752  	0.005202 
2551.823568  	0.005340 
2553.752384  	0.005271 
2555.681200  	0.005056 
2557.610016  	0.005137 
2559.538832  	0.005249 
2561.467648  	0.005357 
2563.396464  	0.005576 
2565.325280  	0.005624 
2567.254096  	0.005616 
2569.182912  	0.005749 
2571.111728  	0.005873 
2573.040544  	0.005980 
2574.969360  	0.006106 
2576.898176  	0.006061 
2578.826992  	0.005867 
2580.755808  	0.005882 
2582.684624  	0.006284 
2584.613440  	0.006472 
2586.542256  	0.006575 
2588.471072  	0.006551 
2590.399888  	0.006608 
2592.328704  	0.006804 
2594.257520  	0.007008 
2596.186336  	0.006811 
2598.115152  	0.006770 
2600.043968  	0.007106 
2601.972784  	0.007345 
2603.901600  	0.007382 
2605.830416  	0.007331 
2607.759232  	0.007277 
2609.688048  	0.007366 
2611.616864  	0.007515 
2613.545680  	0.007655 
2615.474496  	0.007707 
2617.403312  	0.007824 
2619.332128  	0.008030 
2621.260944  	0.008095 
2623.189760  	0.008155 
2625.118576  	0.008271 
2627.047392  	0.008309 
2628.976208  	0.008533 
2630.905024  	0.008671 
2632.833840  	0.008643 
2634.762656  	0.008665 
2636.691472  	0.008896 
2638.620288  	0.008989 
2640.549104  	0.009207 
2642.477920  	0.009480 
2644.406736  	0.009453 
2646.335552  	0.009450 
2648.264368  	0.009641 
2650.193184  	0.009818 
2652.122000  	0.009934 
2654.050816  	0.009993 
2655.979632  	0.010073 
2657.908448  	0.010229 
2659.837264  	0.010423 
2661.766080  	0.010447 
2663.694896  	0.010467 
2665.623712  	0.010595 
2667.552528  	0.010658 
2669.481344  	0.010636 
2671.410160  	0.010663 
2673.338976  	0.010833 
2675.267792  	0.011049 
2677.196608  	0.011203 
2679.125424  	0.011294 
2681.054240  	0.011367 
2682.983056  	0.011586 
2684.911872  	0.011681 
2686.840688  	0.011726 
2688.769504  	0.011811 
2690.698320  	0.011915 
2692.627136  	0.012031 
2694.555952  	0.012075 
2696.484768  	0.012262 
2698.413584  	0.012460 
2700.342400  	0.012470 
2702.271216  	0.012616 
2704.200032  	0.012809 
2706.128848  	0.012892 
2708.057664  	0.012936 
2709.986480  	0.013037 
2711.915296  	0.013215 
2713.844112  	0.013358 
2715.772928  	0.013492 
2717.701744  	0.013529 
2719.630560  	0.013656 
2721.559376  	0.013747 
2723.488192  	0.013839 
2725.417008  	0.013976 
2727.345824  	0.014077 
2729.274640  	0.014353 
2731.203456  	0.014399 
2733.132272  	0.014382 
2735.061088  	0.014498 
2736.989904  	0.014602 
2738.918720  	0.014734 
2740.847536  	0.014749 
2742.776352  	0.014837 
2744.705168  	0.015009 
2746.633984  	0.015088 
2748.562800  	0.015232 
2750.491616  	0.015308 
2752.420432  	0.015352 
2754.349248  	0.015376 
2756.278064  	0.015402 
2758.206880  	0.015471 
2760.135696  	0.015615 
2762.064512  	0.015636 
2763.993328  	0.015539 
2765.922144  	0.015535 
2767.850960  	0.015645 
2769.779776  	0.015739 
2771.708592  	0.015777 
2773.637408  	0.015762 
2775.566224  	0.015821 
2777.495040  	0.015889 
2779.423856  	0.015940 
2781.352672  	0.015918 
2783.281488  	0.015948 
2785.210304  	0.015962 
2787.139120  	0.016047 
2789.067936  	0.016089 
2790.996752  	0.016059 
2792.925568  	0.016003 
2794.854384  	0.015970 
2796.783200  	0.016025 
2798.712016  	0.016099 
2800.640832  	0.016113 
2802.569648  	0.016332 
2804.498464  	0.016455 
2806.427280  	0.016469 
2808.356096  	0.016569 
2810.284912  	0.016661 
2812.213728  	0.016629 
2814.142544  	0.016659 
2816.071360  	0.016684 
2818.000176  	0.016784 
2819.928992  	0.016984 
2821.857808  	0.017005 
2823.786624  	0.016888 
2825.715440  	0.016951 
2827.644256  	0.016952 
2829.573072  	0.016917 
2831.501888  	0.017010 
2833.430704  	0.017049 
2835.359520  	0.016981 
2837.288336  	0.016922 
2839.217152  	0.016958 
2841.145968  	0.016972 
2843.074784  	0.017030 
2845.003600  	0.017164 
2846.932416  	0.017200 
2848.861232  	0.017319 
2850.790048  	0.017318 
2852.718864  	0.017282 
2854.647680  	0.017278 
2856.576496  	0.017336 
2858.505312  	0.017406 
2860.434128  	0.017603 
2862.362944  	0.017749 
2864.291760  	0.017766 
2866.220576  	0.017818 
2868.149392  	0.017906 
2870.078208  	0.018041 
2872.007024  	0.018362 
2873.935840  	0.018658 
2875.864656  	0.018860 
2877.793472  	0.019050 
2879.722288  	0.019401 
2881.651104  	0.019728 
2883.579920  	0.019987 
2885.508736  	0.020138 
2887.437552  	0.020262 
2889.366368  	0.020392 
2891.295184  	0.020436 
2893.224000  	0.020316 
2895.152816  	0.020334 
2897.081632  	0.020446 
2899.010448  	0.020221 
2900.939264  	0.019918 
2902.868080  	0.020035 
2904.796896  	0.020297 
2906.725712  	0.020458 
2908.654528  	0.020610 
2910.583344  	0.020837 
2912.512160  	0.021000 
2914.440976  	0.021334 
2916.369792  	0.021979 
2918.298608  	0.022348 
2920.227424  	0.022543 
2922.156240  	0.022906 
2924.085056  	0.023353 
2926.013872  	0.023784 
2927.942688  	0.024345 
2929.871504  	0.024963 
2931.800320  	0.025398 
2933.729136  	0.025882 
2935.657952  	0.026356 
2937.586768  	0.026814 
2939.515584  	0.027227 
2941.444400  	0.027355 
2943.373216  	0.027556 
2945.302032  	0.027902 
2947.230848  	0.028112 
2949.159664  	0.028139 
2951.088480  	0.028055 
2953.017296  	0.027871 
2954.946112  	0.027634 
2956.874928  	0.027499 
2958.803744  	0.027291 
2960.732560  	0.027147 
2962.661376  	0.026898 
2964.590192  	0.026536 
2966.519008  	0.026206 
2968.447824  	0.025854 
2970.376640  	0.025672 
2972.305456  	0.025543 
2974.234272  	0.025498 
2976.163088  	0.025458 
2978.091904  	0.025350 
2980.020720  	0.025209 
2981.949536  	0.025202 
2983.878352  	0.025128 
2985.807168  	0.024844 
2987.735984  	0.024783 
2989.664800  	0.025027 
2991.593616  	0.025446 
2993.522432  	0.025671 
2995.451248  	0.025852 
2997.380064  	0.026239 
2999.308880  	0.026643 
3001.237696  	0.027068 
3003.166512  	0.027538 
3005.095328  	0.027755 
3007.024144  	0.028089 
3008.952960  	0.028703 
3010.881776  	0.029232 
3012.810592  	0.029669 
3014.739408  	0.030112 
3016.668224  	0.030483 
3018.597040  	0.030815 
3020.525856  	0.031289 
3022.454672  	0.031705 
3024.383488  	0.032057 
3026.312304  	0.032522 
3028.241120  	0.032943 
3030.169936  	0.033355 
3032.098752  	0.033805 
3034.027568  	0.034163 
3035.956384  	0.034615 
3037.885200  	0.034976 
3039.814016  	0.035408 
3041.742832  	0.035750 
3043.671648  	0.036170 
3045.600464  	0.036609 
3047.529280  	0.037014 
3049.458096  	0.037507 
3051.386912  	0.037887 
3053.315728  	0.038282 
3055.244544  	0.038707 
3057.173360  	0.039230 
3059.102176  	0.039824 
3061.030992  	0.040338 
3062.959808  	0.040869 
3064.888624  	0.041607 
3066.817440  	0.042256 
3068.746256  	0.042826 
3070.675072  	0.043403 
3072.603888  	0.043963 
3074.532704  	0.044588 
3076.461520  	0.045167 
3078.390336  	0.045779 
3080.319152  	0.046394 
3082.247968  	0.046851 
3084.176784  	0.047414 
3086.105600  	0.048104 
3088.034416  	0.048782 
3089.963232  	0.049278 
3091.892048  	0.049722 
3093.820864  	0.050295 
3095.749680  	0.051049 
3097.678496  	0.051780 
3099.607312  	0.052489 
3101.536128  	0.053234 
3103.464944  	0.053814 
3105.393760  	0.054469 
3107.322576  	0.055154 
3109.251392  	0.055791 
3111.180208  	0.056239 
3113.109024  	0.056752 
3115.037840  	0.057392 
3116.966656  	0.058085 
3118.895472  	0.058764 
3120.824288  	0.059256 
3122.753104  	0.059831 
3124.681920  	0.060334 
3126.610736  	0.060785 
3128.539552  	0.061304 
3130.468368  	0.061729 
3132.397184  	0.062281 
3134.326000  	0.062871 
3136.254816  	0.063391 
3138.183632  	0.063936 
3140.112448  	0.064388 
3142.041264  	0.064908 
3143.970080  	0.065547 
3145.898896  	0.066059 
3147.827712  	0.066419 
3149.756528  	0.067133 
3151.685344  	0.067815 
3153.614160  	0.068348 
3155.542976  	0.068746 
3157.471792  	0.069324 
3159.400608  	0.069947 
3161.329424  	0.070543 
3163.258240  	0.071243 
3165.187056  	0.071774 
3167.115872  	0.072159 
3169.044688  	0.072726 
3170.973504  	0.073299 
3172.902320  	0.073646 
3174.831136  	0.073986 
3176.759952  	0.074534 
3178.688768  	0.075041 
3180.617584  	0.075507 
3182.546400  	0.075910 
3184.475216  	0.076085 
3186.404032  	0.076235 
3188.332848  	0.076566 
3190.261664  	0.076806 
3192.190480  	0.076985 
3194.119296  	0.077187 
3196.048112  	0.077208 
3197.976928  	0.077588 
3199.905744  	0.077777 
3201.834560  	0.077678 
3203.763376  	0.077509 
3205.692192  	0.077301 
3207.621008  	0.077375 
3209.549824  	0.077632 
3211.478640  	0.077651 
3213.407456  	0.077583 
3215.336272  	0.077671 
3217.265088  	0.077657 
3219.193904  	0.077703 
3221.122720  	0.077720 
3223.051536  	0.077527 
3224.980352  	0.077307 
3226.909168  	0.077181 
3228.837984  	0.077038 
3230.766800  	0.076993 
3232.695616  	0.077122 
3234.624432  	0.077061 
3236.553248  	0.077080 
3238.482064  	0.077304 
3240.410880  	0.077410 
3242.339696  	0.077357 
3244.268512  	0.077333 
3246.197328  	0.077253 
3248.126144  	0.077465 
3250.054960  	0.077819 
3251.983776  	0.077967 
3253.912592  	0.078182 
3255.841408  	0.078414 
3257.770224  	0.078508 
3259.699040  	0.078672 
3261.627856  	0.078936 
3263.556672  	0.079128 
3265.485488  	0.079300 
3267.414304  	0.079330 
3269.343120  	0.079457 
3271.271936  	0.079683 
3273.200752  	0.079899 
3275.129568  	0.079979 
3277.058384  	0.079977 
3278.987200  	0.080104 
3280.916016  	0.080426 
3282.844832  	0.080569 
3284.773648  	0.080685 
3286.702464  	0.080904 
3288.631280  	0.081105 
3290.560096  	0.081361 
3292.488912  	0.081515 
3294.417728  	0.081680 
3296.346544  	0.081981 
3298.275360  	0.082328 
3300.204176  	0.082559 
3302.132992  	0.082740 
3304.061808  	0.083146 
3305.990624  	0.083498 
3307.919440  	0.083859 
3309.848256  	0.084022 
3311.777072  	0.084283 
3313.705888  	0.084651 
3315.634704  	0.084922 
3317.563520  	0.085253 
3319.492336  	0.085556 
3321.421152  	0.085823 
3323.349968  	0.086023 
3325.278784  	0.086261 
3327.207600  	0.086591 
3329.136416  	0.086530 
3331.065232  	0.086320 
3332.994048  	0.086399 
3334.922864  	0.086835 
3336.851680  	0.087037 
3338.780496  	0.087011 
3340.709312  	0.086733 
3342.638128  	0.086692 
3344.566944  	0.086701 
3346.495760  	0.086626 
3348.424576  	0.086573 
3350.353392  	0.086489 
3352.282208  	0.086168 
3354.211024  	0.085860 
3356.139840  	0.085767 
3358.068656  	0.085748 
3359.997472  	0.085556 
3361.926288  	0.085229 
3363.855104  	0.084859 
3365.783920  	0.084613 
3367.712736  	0.084474 
3369.641552  	0.084254 
3371.570368  	0.083889 
3373.499184  	0.083738 
3375.428000  	0.083642 
3377.356816  	0.083485 
3379.285632  	0.083564 
3381.214448  	0.083219 
3383.143264  	0.082770 
3385.072080  	0.082605 
3387.000896  	0.082098 
3388.929712  	0.081504 
3390.858528  	0.081260 
3392.787344  	0.081295 
3394.716160  	0.081076 
3396.644976  	0.080870 
3398.573792  	0.080582 
3400.502608  	0.079786 
3402.431424  	0.079093 
3404.360240  	0.078804 
3406.289056  	0.078454 
3408.217872  	0.077972 
3410.146688  	0.077501 
3412.075504  	0.077099 
3414.004320  	0.076911 
3415.933136  	0.076622 
3417.861952  	0.076168 
3419.790768  	0.075813 
3421.719584  	0.075593 
3423.648400  	0.075060 
3425.577216  	0.074286 
3427.506032  	0.073807 
3429.434848  	0.073407 
3431.363664  	0.073099 
3433.292480  	0.072552 
3435.221296  	0.071756 
3437.150112  	0.071048 
3439.078928  	0.070494 
3441.007744  	0.069945 
3442.936560  	0.069610 
3444.865376  	0.068984 
3446.794192  	0.068632 
3448.723008  	0.068405 
3450.651824  	0.067696 
3452.580640  	0.066941 
3454.509456  	0.066215 
3456.438272  	0.065459 
3458.367088  	0.064927 
3460.295904  	0.064385 
3462.224720  	0.063801 
3464.153536  	0.063037 
3466.082352  	0.062249 
3468.011168  	0.061585 
3469.939984  	0.061059 
3471.868800  	0.060352 
3473.797616  	0.059481 
3475.726432  	0.058561 
3477.655248  	0.057759 
3479.584064  	0.057108 
3481.512880  	0.056632 
3483.441696  	0.055946 
3485.370512  	0.054939 
3487.299328  	0.054113 
3489.228144  	0.053302 
3491.156960  	0.052375 
3493.085776  	0.051773 
3495.014592  	0.051332 
3496.943408  	0.050665 
3498.872224  	0.049755 
3500.801040  	0.049068 
3502.729856  	0.048440 
3504.658672  	0.047902 
3506.587488  	0.047056 
3508.516304  	0.046255 
3510.445120  	0.045689 
3512.373936  	0.045034 
3514.302752  	0.044359 
3516.231568  	0.043748 
3518.160384  	0.043156 
3520.089200  	0.042311 
3522.018016  	0.041379 
3523.946832  	0.041085 
3525.875648  	0.040654 
3527.804464  	0.039950 
3529.733280  	0.039406 
3531.662096  	0.038738 
3533.590912  	0.037826 
3535.519728  	0.037238 
3537.448544  	0.036809 
3539.377360  	0.036282 
3541.306176  	0.035573 
3543.234992  	0.034952 
3545.163808  	0.034211 
3547.092624  	0.033707 
3549.021440  	0.033017 
3550.950256  	0.032250 
3552.879072  	0.031864 
3554.807888  	0.031120 
3556.736704  	0.030390 
3558.665520  	0.029994 
3560.594336  	0.029498 
3562.523152  	0.028596 
3564.451968  	0.027767 
3566.380784  	0.027787 
3568.309600  	0.027889 
3570.238416  	0.026829 
3572.167232  	0.025760 
3574.096048  	0.024934 
3576.024864  	0.024258 
3577.953680  	0.023564 
3579.882496  	0.022811 
3581.811312  	0.022087 
3583.740128  	0.021426 
3585.668944  	0.020757 
3587.597760  	0.020447 
3589.526576  	0.019911 
3591.455392  	0.018691 
3593.384208  	0.017975 
3595.313024  	0.017505 
3597.241840  	0.016769 
3599.170656  	0.015923 
3601.099472  	0.015344 
3603.028288  	0.014544 
3604.957104  	0.013566 
3606.885920  	0.013368 
3608.814736  	0.013087 
3610.743552  	0.011820 
3612.672368  	0.011142 
3614.601184  	0.010500 
3616.530000  	0.009817 
3618.458816  	0.009518 
3620.387632  	0.008806 
3622.316448  	0.007751 
3624.245264  	0.006926 
3626.174080  	0.006088 
3628.102896  	0.005487 
3630.031712  	0.005092 
3631.960528  	0.004353 
3633.889344  	0.003589 
3635.818160  	0.002905 
3637.746976  	0.002220 
3639.675792  	0.001525 
3641.604608  	0.000792 
3643.533424  	0.000182 
3645.462240  	-0.000416 
3647.391056  	-0.000621 
3649.319872  	-0.001119 
3651.248688  	-0.001905 
3653.177504  	-0.002894 
3655.106320  	-0.003380 
3657.035136  	-0.003797 
3658.963952  	-0.004427 
3660.892768  	-0.004836 
3662.821584  	-0.005329 
3664.750400  	-0.005780 
3666.679216  	-0.005981 
3668.608032  	-0.006331 
3670.536848  	-0.006653 
3672.465664  	-0.006929 
3674.394480  	-0.007097 
3676.323296  	-0.007277 
3678.252112  	-0.007489 
3680.180928  	-0.007641 
3682.109744  	-0.007782 
3684.038560  	-0.007868 
3685.967376  	-0.008214 
3687.896192  	-0.008213 
3689.825008  	-0.008106 
3691.753824  	-0.008317 
3693.682640  	-0.008462 
3695.611456  	-0.008701 
3697.540272  	-0.008675 
3699.469088  	-0.008791 
3701.397904  	-0.008643 
3703.326720  	-0.008439 
3705.255536  	-0.008320 
3707.184352  	-0.008251 
3709.113168  	-0.008286 
3711.041984  	-0.008127 
3712.970800  	-0.008304 
3714.899616  	-0.008804 
3716.828432  	-0.008725 
3718.757248  	-0.008371 
3720.686064  	-0.008319 
3722.614880  	-0.008700 
3724.543696  	-0.008900 
3726.472512  	-0.008269 
3728.401328  	-0.008251 
3730.330144  	-0.008795 
3732.258960  	-0.008881 
3734.187776  	-0.008447 
3736.116592  	-0.008255 
3738.045408  	-0.008466 
3739.974224  	-0.008391 
3741.903040  	-0.008560 
3743.831856  	-0.009142 
3745.760672  	-0.009394 
3747.689488  	-0.009403 
3749.618304  	-0.008856 
3751.547120  	-0.008418 
3753.475936  	-0.008813 
3755.404752  	-0.008786 
3757.333568  	-0.008690 
3759.262384  	-0.008414 
3761.191200  	-0.008607 
3763.120016  	-0.008774 
3765.048832  	-0.008633 
3766.977648  	-0.008758 
3768.906464  	-0.008647 
3770.835280  	-0.008577 
3772.764096  	-0.008694 
3774.692912  	-0.008892 
3776.621728  	-0.008931 
3778.550544  	-0.008661 
3780.479360  	-0.008855 
3782.408176  	-0.009145 
3784.336992  	-0.008944 
3786.265808  	-0.008874 
3788.194624  	-0.008888 
3790.123440  	-0.008831 
3792.052256  	-0.009023 
3793.981072  	-0.009203 
3795.909888  	-0.008758 
3797.838704  	-0.008495 
3799.767520  	-0.008604 
3801.696336  	-0.008504 
3803.625152  	-0.009030 
3805.553968  	-0.009109 
3807.482784  	-0.008965 
3809.411600  	-0.008951 
3811.340416  	-0.009039 
3813.269232  	-0.009290 
3815.198048  	-0.009115 
3817.126864  	-0.008888 
3819.055680  	-0.009031 
3820.984496  	-0.008843 
3822.913312  	-0.008913 
3824.842128  	-0.008996 
3826.770944  	-0.009052 
3828.699760  	-0.009109 
3830.628576  	-0.008958 
3832.557392  	-0.009038 
3834.486208  	-0.009370 
3836.415024  	-0.009535 
3838.343840  	-0.009415 
3840.272656  	-0.009155 
3842.201472  	-0.008866 
3844.130288  	-0.008694 
3846.059104  	-0.008892 
3847.987920  	-0.009092 
3849.916736  	-0.009286 
3851.845552  	-0.009326 
3853.774368  	-0.008786 
3855.703184  	-0.008430 
3857.632000  	-0.008643 
3859.560816  	-0.008973 
3861.489632  	-0.009167 
3863.418448  	-0.008962 
3865.347264  	-0.008603 
3867.276080  	-0.009074 
3869.204896  	-0.009084 
3871.133712  	-0.008797 
3873.062528  	-0.008890 
3874.991344  	-0.008973 
3876.920160  	-0.009275 
3878.848976  	-0.009162 
3880.777792  	-0.008789 
3882.706608  	-0.008693 
3884.635424  	-0.008782 
3886.564240  	-0.009148 
3888.493056  	-0.009512 
3890.421872  	-0.009461 
3892.350688  	-0.009480 
3894.279504  	-0.009342 
3896.208320  	-0.009398 
3898.137136  	-0.009234 
3900.065952  	-0.008917 
3901.994768  	-0.008974 
3903.923584  	-0.009010 
3905.852400  	-0.009016 
3907.781216  	-0.009220 
3909.710032  	-0.009464 
3911.638848  	-0.009700 
3913.567664  	-0.009543 
3915.496480  	-0.009184 
3917.425296  	-0.008888 
3919.354112  	-0.009003 
3921.282928  	-0.008995 
3923.211744  	-0.008859 
3925.140560  	-0.009028 
3927.069376  	-0.009213 
3928.998192  	-0.009098 
3930.927008  	-0.009057 
3932.855824  	-0.009243 
3934.784640  	-0.009338 
3936.713456  	-0.009120 
3938.642272  	-0.009200 
3940.571088  	-0.009353 
3942.499904  	-0.008984 
3944.428720  	-0.009027 
3946.357536  	-0.009254 
3948.286352  	-0.009024 
3950.215168  	-0.009244 
3952.143984  	-0.009497 
3954.072800  	-0.009490 
3956.001616  	-0.009322 
3957.930432  	-0.009070 
3959.859248  	-0.008991 
3961.788064  	-0.009022 
3963.716880  	-0.009134 
3965.645696  	-0.009320 
3967.574512  	-0.009513 
3969.503328  	-0.009651 
3971.432144  	-0.009477 
3973.360960  	-0.009163 
3975.289776  	-0.008962 
3977.218592  	-0.009020 
3979.147408  	-0.009132 
3981.076224  	-0.009228 
3983.005040  	-0.009355 
3984.933856  	-0.009275 
3986.862672  	-0.009247 
3988.791488  	-0.009477 
3990.720304  	-0.009377 
3992.649120  	-0.009285 
3994.577936  	-0.009212 
3996.506752  	-0.009239 
3998.435568  	-0.009388 
4000.364384  	-0.009377 