##TITLE=No Description
##DATA TYPE=INFRARED SPECTRUM
##XUNITS=1/CM
##YUNITS=Abs
399.264912  	0.692364 
401.193728  	0.673779 
403.122544  	0.648882 
405.051360  	0.628124 
406.980176  	0.613735 
408.908992  	0.607654 
410.837808  	0.625028 
412.766624  	0.625015 
414.695440  	0.629855 
416.624256  	0.626791 
418.553072  	0.637947 
420.481888  	0.623592 
422.410704  	0.619528 
424.339520  	0.605286 
426.268336  	0.591694 
428.197152  	0.576474 
430.125968  	0.574877 
432.054784  	0.572004 
433.983600  	0.576337 
435.912416  	0.570186 
437.841232  	0.566684 
439.770048  	0.560946 
441.698864  	0.561246 
443.627680  	0.558306 
445.556496  	0.563331 
447.485312  	0.556634 
449.414128  	0.553931 
451.342944  	0.547748 
453.271760  	0.552270 
455.200576  	0.549409 
457.129392  	0.551733 
459.058208  	0.545845 
460.987024  	0.547897 
462.915840  	0.544108 
464.844656  	0.541604 
466.773472  	0.541097 
468.702288  	0.546378 
470.631104  	0.545746 
472.559920  	0.547837 
474.488736  	0.540503 
476.417552  	0.537172 
478.346368  	0.537402 
480.275184  	0.536097 
482.204000  	0.529515 
484.132816  	0.532648 
486.061632  	0.531173 
487.990448  	0.531311 
489.919264  	0.531513 
491.848080  	0.529499 
493.776896  	0.527557 
495.705712  	0.527498 
497.634528  	0.520561 
499.563344  	0.519393 
501.492160  	0.518386 
503.420976  	0.522204 
505.349792  	0.520164 
507.278608  	0.522078 
509.207424  	0.520516 
511.136240  	0.520880 
513.065056  	0.518176 
514.993872  	0.520223 
516.922688  	0.519273 
518.851504  	0.518750 
520.780320  	0.516122 
522.709136  	0.516875 
524.637952  	0.517307 
526.566768  	0.515059 
528.495584  	0.509714 
530.424400  	0.510840 
532.353216  	0.510997 
534.282032  	0.505949 
536.210848  	0.500436 
538.139664  	0.497107 
540.068480  	0.492048 
541.997296  	0.490264 
543.926112  	0.487188 
545.854928  	0.485431 
547.783744  	0.483922 
549.712560  	0.484375 
551.641376  	0.479979 
553.570192  	0.476072 
555.499008  	0.472608 
557.427824  	0.471339 
559.356640  	0.468166 
561.285456  	0.467157 
563.214272  	0.464899 
565.143088  	0.461512 
567.071904  	0.458910 
569.000720  	0.457903 
570.929536  	0.453520 
572.858352  	0.451154 
574.787168  	0.448220 
576.715984  	0.446151 
578.644800  	0.442184 
580.573616  	0.438656 
582.502432  	0.435152 
584.431248  	0.432367 
586.360064  	0.428972 
588.288880  	0.426982 
590.217696  	0.425229 
592.146512  	0.423556 
594.075328  	0.420988 
596.004144  	0.419892 
597.932960  	0.417051 
599.861776  	0.414397 
601.790592  	0.413758 
603.719408  	0.413581 
605.648224  	0.410867 
607.577040  	0.408382 
609.505856  	0.405739 
611.434672  	0.404513 
613.363488  	0.402749 
615.292304  	0.401433 
617.221120  	0.398214 
619.149936  	0.395824 
621.078752  	0.393090 
623.007568  	0.391899 
624.936384  	0.390576 
626.865200  	0.389057 
628.794016  	0.387488 
630.722832  	0.386469 
632.651648  	0.385124 
634.580464  	0.383649 
636.509280  	0.382377 
638.438096  	0.381731 
640.366912  	0.380071 
642.295728  	0.378109 
644.224544  	0.375198 
646.153360  	0.372716 
648.082176  	0.369519 
650.010992  	0.366769 
651.939808  	0.363930 
653.868624  	0.361390 
655.797440  	0.357242 
657.726256  	0.353871 
659.655072  	0.350804 
661.583888  	0.347801 
663.512704  	0.344210 
665.441520  	0.341030 
667.370336  	0.337975 
669.299152  	0.334741 
671.227968  	0.330102 
673.156784  	0.326489 
675.085600  	0.323362 
677.014416  	0.320863 
678.943232  	0.318098 
680.872048  	0.316736 
682.800864  	0.314716 
684.729680  	0.311991 
686.658496  	0.309701 
688.587312  	0.308547 
690.516128  	0.306461 
692.444944  	0.304709 
694.373760  	0.302109 
696.302576  	0.299974 
698.231392  	0.297807 
700.160208  	0.295747 
702.089024  	0.293012 
704.017840  	0.290538 
705.946656  	0.287696 
707.875472  	0.285184 
709.804288  	0.282809 
711.733104  	0.281196 
713.661920  	0.278990 
715.590736  	0.276728 
717.519552  	0.274956 
719.448368  	0.273966 
721.377184  	0.273059 
723.306000  	0.271721 
725.234816  	0.270316 
727.163632  	0.268777 
729.092448  	0.266424 
731.021264  	0.263760 
732.950080  	0.261109 
734.878896  	0.258156 
736.807712  	0.255109 
738.736528  	0.253079 
740.665344  	0.251286 
742.594160  	0.249901 
744.522976  	0.247837 
746.451792  	0.246071 
748.380608  	0.243792 
750.309424  	0.242043 
752.238240  	0.240558 
754.167056  	0.239347 
756.095872  	0.237993 
758.024688  	0.236705 
759.953504  	0.235086 
761.882320  	0.234102 
763.811136  	0.233276 
765.739952  	0.231482 
767.668768  	0.228446 
769.597584  	0.225292 
771.526400  	0.223138 
773.455216  	0.222642 
775.384032  	0.222978 
777.312848  	0.224111 
779.241664  	0.224597 
781.170480  	0.223289 
783.099296  	0.219153 
785.028112  	0.214359 
786.956928  	0.210019 
788.885744  	0.206262 
790.814560  	0.203128 
792.743376  	0.201106 
794.672192  	0.199641 
796.601008  	0.198081 
798.529824  	0.195042 
800.458640  	0.191519 
802.387456  	0.188424 
804.316272  	0.186281 
806.245088  	0.184578 
808.173904  	0.182852 
810.102720  	0.181283 
812.031536  	0.179751 
813.960352  	0.178357 
815.889168  	0.177485 
817.817984  	0.176713 
819.746800  	0.176112 
821.675616  	0.175558 
823.604432  	0.174731 
825.533248  	0.173695 
827.462064  	0.172959 
829.390880  	0.171653 
831.319696  	0.170500 
833.248512  	0.168970 
835.177328  	0.167171 
837.106144  	0.164829 
839.034960  	0.162467 
840.963776  	0.159335 
842.892592  	0.156345 
844.821408  	0.153226 
846.750224  	0.150591 
848.679040  	0.148523 
850.607856  	0.146445 
852.536672  	0.144811 
854.465488  	0.143468 
856.394304  	0.142286 
858.323120  	0.140815 
860.251936  	0.139296 
862.180752  	0.137980 
864.109568  	0.136325 
866.038384  	0.134816 
867.967200  	0.132988 
869.896016  	0.131501 
871.824832  	0.130248 
873.753648  	0.129743 
875.682464  	0.129575 
877.611280  	0.129938 
879.540096  	0.130623 
881.468912  	0.131540 
883.397728  	0.132371 
885.326544  	0.133011 
887.255360  	0.133288 
889.184176  	0.133083 
891.112992  	0.132327 
893.041808  	0.131172 
894.970624  	0.129294 
896.899440  	0.126544 
898.828256  	0.123482 
900.757072  	0.120403 
902.685888  	0.117596 
904.614704  	0.115701 
906.543520  	0.114378 
908.472336  	0.113927 
910.401152  	0.114139 
912.329968  	0.114942 
914.258784  	0.115808 
916.187600  	0.116734 
918.116416  	0.117250 
920.045232  	0.117360 
921.974048  	0.117388 
923.902864  	0.117394 
925.831680  	0.117102 
927.760496  	0.116834 
929.689312  	0.116743 
931.618128  	0.116884 
933.546944  	0.116687 
935.475760  	0.115990 
937.404576  	0.115143 
939.333392  	0.114090 
941.262208  	0.113066 
943.191024  	0.112454 
945.119840  	0.112634 
947.048656  	0.113851 
948.977472  	0.116557 
950.906288  	0.120285 
952.835104  	0.125097 
954.763920  	0.131065 
956.692736  	0.137225 
958.621552  	0.143249 
960.550368  	0.148020 
962.479184  	0.151295 
964.408000  	0.152201 
966.336816  	0.150753 
968.265632  	0.146511 
970.194448  	0.140268 
972.123264  	0.132332 
974.052080  	0.123541 
975.980896  	0.114751 
977.909712  	0.106373 
979.838528  	0.098899 
981.767344  	0.092637 
983.696160  	0.087782 
985.624976  	0.084262 
987.553792  	0.082586 
989.482608  	0.082647 
991.411424  	0.084274 
993.340240  	0.087093 
995.269056  	0.090396 
997.197872  	0.094086 
999.126688  	0.097729 
1001.055504  	0.101797 
1002.984320  	0.105470 
1004.913136  	0.109295 
1006.841952  	0.113149 
1008.770768  	0.116703 
1010.699584  	0.119618 
1012.628400  	0.122324 
1014.557216  	0.124475 
1016.486032  	0.125785 
1018.414848  	0.126606 
1020.343664  	0.127249 
1022.272480  	0.127831 
1024.201296  	0.128091 
1026.130112  	0.127862 
1028.058928  	0.128184 
1029.987744  	0.129420 
1031.916560  	0.130782 
1033.845376  	0.132245 
1035.774192  	0.134444 
1037.703008  	0.137484 
1039.631824  	0.142133 
1041.560640  	0.148594 
1043.489456  	0.156997 
1045.418272  	0.166964 
1047.347088  	0.178101 
1049.275904  	0.187700 
1051.204720  	0.194999 
1053.133536  	0.199758 
1055.062352  	0.201832 
1056.991168  	0.201908 
1058.919984  	0.202003 
1060.848800  	0.202243 
1062.777616  	0.202694 
1064.706432  	0.202388 
1066.635248  	0.201956 
1068.564064  	0.200922 
1070.492880  	0.198202 
1072.421696  	0.194565 
1074.350512  	0.192311 
1076.279328  	0.191918 
1078.208144  	0.194368 
1080.136960  	0.198433 
1082.065776  	0.202475 
1083.994592  	0.204560 
1085.923408  	0.204184 
1087.852224  	0.200792 
1089.781040  	0.195471 
1091.709856  	0.188282 
1093.638672  	0.179698 
1095.567488  	0.170020 
1097.496304  	0.160146 
1099.425120  	0.149853 
1101.353936  	0.140258 
1103.282752  	0.131230 
1105.211568  	0.122821 
1107.140384  	0.115209 
1109.069200  	0.107983 
1110.998016  	0.101508 
1112.926832  	0.095814 
1114.855648  	0.090584 
1116.784464  	0.085421 
1118.713280  	0.080415 
1120.642096  	0.075589 
1122.570912  	0.071084 
1124.499728  	0.067181 
1126.428544  	0.063702 
1128.357360  	0.060581 
1130.286176  	0.057907 
1132.214992  	0.055773 
1134.143808  	0.053926 
1136.072624  	0.052489 
1138.001440  	0.051205 
1139.930256  	0.050126 
1141.859072  	0.049091 
1143.787888  	0.048051 
1145.716704  	0.047122 
1147.645520  	0.046409 
1149.574336  	0.046174 
1151.503152  	0.045991 
1153.431968  	0.045945 
1155.360784  	0.045891 
1157.289600  	0.046177 
1159.218416  	0.046452 
1161.147232  	0.046773 
1163.076048  	0.047560 
1165.004864  	0.048167 
1166.933680  	0.048589 
1168.862496  	0.049290 
1170.791312  	0.050146 
1172.720128  	0.051025 
1174.648944  	0.052395 
1176.577760  	0.053797 
1178.506576  	0.055385 
1180.435392  	0.056955 
1182.364208  	0.058550 
1184.293024  	0.060252 
1186.221840  	0.062364 
1188.150656  	0.064942 
1190.079472  	0.067890 
1192.008288  	0.071245 
1193.937104  	0.075189 
1195.865920  	0.079599 
1197.794736  	0.084416 
1199.723552  	0.089918 
1201.652368  	0.095532 
1203.581184  	0.100844 
1205.510000  	0.106117 
1207.438816  	0.110985 
1209.367632  	0.115537 
1211.296448  	0.119602 
1213.225264  	0.122932 
1215.154080  	0.125424 
1217.082896  	0.127074 
1219.011712  	0.127645 
1220.940528  	0.127858 
1222.869344  	0.127508 
1224.798160  	0.126841 
1226.726976  	0.125314 
1228.655792  	0.123342 
1230.584608  	0.120855 
1232.513424  	0.117898 
1234.442240  	0.114477 
1236.371056  	0.110943 
1238.299872  	0.106971 
1240.228688  	0.102324 
1242.157504  	0.097609 
1244.086320  	0.093158 
1246.015136  	0.088646 
1247.943952  	0.084202 
1249.872768  	0.079657 
1251.801584  	0.075469 
1253.730400  	0.071492 
1255.659216  	0.067636 
1257.588032  	0.063797 
1259.516848  	0.060301 
1261.445664  	0.057058 
1263.374480  	0.054177 
1265.303296  	0.051568 
1267.232112  	0.049524 
1269.160928  	0.048061 
1271.089744  	0.047126 
1273.018560  	0.046691 
1274.947376  	0.046788 
1276.876192  	0.047362 
1278.805008  	0.047817 
1280.733824  	0.047762 
1282.662640  	0.046951 
1284.591456  	0.045712 
1286.520272  	0.044572 
1288.449088  	0.043892 
1290.377904  	0.043700 
1292.306720  	0.044067 
1294.235536  	0.044572 
1296.164352  	0.044537 
1298.093168  	0.043538 
1300.021984  	0.041905 
1301.950800  	0.040131 
1303.879616  	0.038188 
1305.808432  	0.036196 
1307.737248  	0.034205 
1309.666064  	0.032240 
1311.594880  	0.030635 
1313.523696  	0.029586 
1315.452512  	0.028783 
1317.381328  	0.028451 
1319.310144  	0.028659 
1321.238960  	0.028937 
1323.167776  	0.029251 
1325.096592  	0.029675 
1327.025408  	0.029865 
1328.954224  	0.029732 
1330.883040  	0.029235 
1332.811856  	0.028318 
1334.740672  	0.027310 
1336.669488  	0.026708 
1338.598304  	0.026825 
1340.527120  	0.026983 
1342.455936  	0.026137 
1344.384752  	0.025759 
1346.313568  	0.025915 
1348.242384  	0.026343 
1350.171200  	0.026949 
1352.100016  	0.027766 
1354.028832  	0.028777 
1355.957648  	0.030017 
1357.886464  	0.031058 
1359.815280  	0.032054 
1361.744096  	0.033669 
1363.672912  	0.035746 
1365.601728  	0.036384 
1367.530544  	0.037241 
1369.459360  	0.038606 
1371.388176  	0.038980 
1373.316992  	0.039259 
1375.245808  	0.039437 
1377.174624  	0.037861 
1379.103440  	0.036314 
1381.032256  	0.034678 
1382.961072  	0.033202 
1384.889888  	0.031761 
1386.818704  	0.031445 
1388.747520  	0.030879 
1390.676336  	0.028956 
1392.605152  	0.027042 
1394.533968  	0.026751 
1396.462784  	0.027233 
1398.391600  	0.026961 
1400.320416  	0.027214 
1402.249232  	0.026422 
1404.178048  	0.026820 
1406.106864  	0.027823 
1408.035680  	0.028229 
1409.964496  	0.028986 
1411.893312  	0.030351 
1413.822128  	0.031494 
1415.750944  	0.032421 
1417.679760  	0.033445 
1419.608576  	0.035893 
1421.537392  	0.035516 
1423.466208  	0.034770 
1425.395024  	0.034131 
1427.323840  	0.032219 
1429.252656  	0.031141 
1431.181472  	0.030401 
1433.110288  	0.029261 
1435.039104  	0.028585 
1436.967920  	0.031032 
1438.896736  	0.031815 
1440.825552  	0.031511 
1442.754368  	0.031709 
1444.683184  	0.031547 
1446.612000  	0.031632 
1448.540816  	0.032478 
1450.469632  	0.032408 
1452.398448  	0.032200 
1454.327264  	0.031505 
1456.256080  	0.032065 
1458.184896  	0.035720 
1460.113712  	0.034201 
1462.042528  	0.032091 
1463.971344  	0.031641 
1465.900160  	0.032933 
1467.828976  	0.032378 
1469.757792  	0.031690 
1471.686608  	0.033252 
1473.615424  	0.038800 
1475.544240  	0.041085 
1477.473056  	0.043710 
1479.401872  	0.044939 
1481.330688  	0.047170 
1483.259504  	0.048775 
1485.188320  	0.049148 
1487.117136  	0.049822 
1489.045952  	0.051458 
1490.974768  	0.052147 
1492.903584  	0.049645 
1494.832400  	0.046422 
1496.761216  	0.044516 
1498.690032  	0.041840 
1500.618848  	0.038624 
1502.547664  	0.034863 
1504.476480  	0.031263 
1506.405296  	0.031339 
1508.334112  	0.034179 
1510.262928  	0.031181 
1512.191744  	0.029396 
1514.120560  	0.028272 
1516.049376  	0.028847 
1517.978192  	0.030636 
1519.907008  	0.030099 
1521.835824  	0.034385 
1523.764640  	0.036263 
1525.693456  	0.037733 
1527.622272  	0.039906 
1529.551088  	0.039444 
1531.479904  	0.037703 
1533.408720  	0.037832 
1535.337536  	0.036606 
1537.266352  	0.032961 
1539.195168  	0.031742 
1541.123984  	0.033729 
1543.052800  	0.032497 
1544.981616  	0.031579 
1546.910432  	0.029681 
1548.839248  	0.028423 
1550.768064  	0.029166 
1552.696880  	0.027925 
1554.625696  	0.028040 
1556.554512  	0.026490 
1558.483328  	0.028527 
1560.412144  	0.035442 
1562.340960  	0.033011 
1564.269776  	0.033050 
1566.198592  	0.034911 
1568.127408  	0.035689 
1570.056224  	0.040825 
1571.985040  	0.042646 
1573.913856  	0.042318 
1575.842672  	0.044956 
1577.771488  	0.048653 
1579.700304  	0.047065 
1581.629120  	0.046230 
1583.557936  	0.045753 
1585.486752  	0.046180 
1587.415568  	0.047023 
1589.344384  	0.049130 
1591.273200  	0.051777 
1593.202016  	0.055273 
1595.130832  	0.059341 
1597.059648  	0.063648 
1598.988464  	0.067050 
1600.917280  	0.070641 
1602.846096  	0.073706 
1604.774912  	0.075877 
1606.703728  	0.076666 
1608.632544  	0.077601 
1610.561360  	0.077380 
1612.490176  	0.076520 
1614.418992  	0.074568 
1616.347808  	0.075857 
1618.276624  	0.078341 
1620.205440  	0.078156 
1622.134256  	0.079198 
1624.063072  	0.084560 
1625.991888  	0.087255 
1627.920704  	0.091980 
1629.849520  	0.097180 
1631.778336  	0.100490 
1633.707152  	0.102909 
1635.635968  	0.111202 
1637.564784  	0.119644 
1639.493600  	0.121642 
1641.422416  	0.124278 
1643.351232  	0.126064 
1645.280048  	0.126874 
1647.208864  	0.132904 
1649.137680  	0.133760 
1651.066496  	0.130118 
1652.995312  	0.132670 
1654.924128  	0.138294 
1656.852944  	0.134341 
1658.781760  	0.132248 
1660.710576  	0.130417 
1662.639392  	0.130018 
1664.568208  	0.128259 
1666.497024  	0.124285 
1668.425840  	0.121018 
1670.354656  	0.119212 
1672.283472  	0.115690 
1674.212288  	0.112356 
1676.141104  	0.111026 
1678.069920  	0.107960 
1679.998736  	0.105980 
1681.927552  	0.103540 
1683.856368  	0.103783 
1685.785184  	0.106477 
1687.714000  	0.103678 
1689.642816  	0.103239 
1691.571632  	0.102328 
1693.500448  	0.100008 
1695.429264  	0.099948 
1697.358080  	0.101482 
1699.286896  	0.099293 
1701.215712  	0.102269 
1703.144528  	0.099569 
1705.073344  	0.098126 
1707.002160  	0.097268 
1708.930976  	0.094370 
1710.859792  	0.090810 
1712.788608  	0.086440 
1714.717424  	0.081084 
1716.646240  	0.075539 
1718.575056  	0.068857 
1720.503872  	0.060911 
1722.432688  	0.053495 
1724.361504  	0.046247 
1726.290320  	0.039644 
1728.219136  	0.033968 
1730.147952  	0.029447 
1732.076768  	0.024789 
1734.005584  	0.022829 
1735.934400  	0.020593 
1737.863216  	0.017086 
1739.792032  	0.015440 
1741.720848  	0.013820 
1743.649664  	0.012537 
1745.578480  	0.011114 
1747.507296  	0.009838 
1749.436112  	0.009758 
1751.364928  	0.009777 
1753.293744  	0.008661 
1755.222560  	0.006946 
1757.151376  	0.007590 
1759.080192  	0.006786 
1761.009008  	0.006305 
1762.937824  	0.006700 
1764.866640  	0.005652 
1766.795456  	0.004773 
1768.724272  	0.004978 
1770.653088  	0.003835 
1772.581904  	0.005593 
1774.510720  	0.005893 
1776.439536  	0.004769 
1778.368352  	0.003642 
1780.297168  	0.003816 
1782.225984  	0.003605 
1784.154800  	0.003168 
1786.083616  	0.003107 
1788.012432  	0.002477 
1789.941248  	0.002048 
1791.870064  	0.003194 
1793.798880  	0.003707 
1795.727696  	0.002971 
1797.656512  	0.002106 
1799.585328  	0.001812 
1801.514144  	0.002695 
1803.442960  	0.002804 
1805.371776  	0.002293 
1807.300592  	0.001722 
1809.229408  	0.001375 
1811.158224  	0.001813 
1813.087040  	0.001803 
1815.015856  	0.000962 
1816.944672  	0.001073 
1818.873488  	0.001540 
1820.802304  	0.001486 
1822.731120  	0.001226 
1824.659936  	0.001189 
1826.588752  	0.001326 
1828.517568  	0.000501 
1830.446384  	0.001817 
1832.375200  	0.001368 
1834.304016  	0.000637 
1836.232832  	0.000847 
1838.161648  	0.001230 
1840.090464  	0.000702 
1842.019280  	-0.000319 
1843.948096  	0.000298 
1845.876912  	0.001417 
1847.805728  	0.000816 
1849.734544  	0.000602 
1851.663360  	0.000330 
1853.592176  	0.000532 
1855.520992  	0.000340 
1857.449808  	0.000359 
1859.378624  	0.000016 
1861.307440  	0.000154 
1863.236256  	-0.000122 
1865.165072  	-0.000494 
1867.093888  	-0.000675 
1869.022704  	0.000943 
1870.951520  	0.001330 
1872.880336  	0.000748 
1874.809152  	0.000179 
1876.737968  	-0.000130 
1878.666784  	-0.000160 
1880.595600  	-0.000210 
1882.524416  	-0.000170 
1884.453232  	0.000177 
1886.382048  	-0.000410 
1888.310864  	-0.000401 
1890.239680  	0.000387 
1892.168496  	0.000203 
1894.097312  	-0.000163 
1896.026128  	-0.000157 
1897.954944  	-0.000422 
1899.883760  	-0.000460 
1901.812576  	-0.000717 
1903.741392  	-0.000679 
1905.670208  	-0.001112 
1907.599024  	-0.001431 
1909.527840  	-0.000982 
1911.456656  	-0.000075 
1913.385472  	-0.000080 
1915.314288  	-0.000569 
1917.243104  	-0.000875 
1919.171920  	0.000237 
1921.100736  	-0.000281 
1923.029552  	-0.000575 
1924.958368  	-0.000966 
1926.887184  	-0.001350 
1928.816000  	-0.001753 
1930.744816  	-0.001465 
1932.673632  	-0.001188 
1934.602448  	-0.001105 
1936.531264  	-0.001616 
1938.460080  	-0.001475 
1940.388896  	-0.001348 
1942.317712  	-0.000688 
1944.246528  	-0.001035 
1946.175344  	-0.001159 
1948.104160  	-0.000937 
1950.032976  	-0.000794 
1951.961792  	-0.001479 
1953.890608  	-0.002318 
1955.819424  	-0.003053 
1957.748240  	-0.002848 
1959.677056  	-0.002767 
1961.605872  	-0.002411 
1963.534688  	-0.002380 
1965.463504  	-0.001706 
1967.392320  	-0.001690 
1969.321136  	-0.001722 
1971.249952  	-0.002432 
1973.178768  	-0.002620 
1975.107584  	-0.002318 
1977.036400  	-0.000880 
1978.965216  	-0.000037 
1980.894032  	-0.001067 
1982.822848  	-0.001829 
1984.751664  	-0.000776 
1986.680480  	-0.000201 
1988.609296  	-0.000240 
1990.538112  	-0.000600 
1992.466928  	0.000136 
1994.395744  	-0.000599 
1996.324560  	-0.000606 
1998.253376  	-0.000555 
2000.182192  	-0.001245 
2002.111008  	-0.002168 
2004.039824  	-0.002213 
2005.968640  	-0.002297 
2007.897456  	-0.001568 
2009.826272  	-0.000976 
2011.755088  	-0.000698 
2013.683904  	-0.000977 
2015.612720  	-0.001126 
2017.541536  	-0.000554 
2019.470352  	0.000052 
2021.399168  	-0.000505 
2023.327984  	-0.000172 
2025.256800  	0.000254 
2027.185616  	0.001089 
2029.114432  	0.001042 
2031.043248  	-0.000096 
2032.972064  	-0.000338 
2034.900880  	0.001054 
2036.829696  	0.001706 
2038.758512  	0.001584 
2040.687328  	0.000348 
2042.616144  	0.000810 
2044.544960  	0.001051 
2046.473776  	0.001037 
2048.402592  	0.002029 
2050.331408  	0.002226 
2052.260224  	0.001597 
2054.189040  	0.001773 
2056.117856  	0.001090 
2058.046672  	0.000675 
2059.975488  	0.001141 
2061.904304  	0.001722 
2063.833120  	0.001706 
2065.761936  	0.002020 
2067.690752  	0.002141 
2069.619568  	0.001994 
2071.548384  	0.001424 
2073.477200  	0.001498 
2075.406016  	0.002201 
2077.334832  	0.002938 
2079.263648  	0.002952 
2081.192464  	0.002880 
2083.121280  	0.002568 
2085.050096  	0.002058 
2086.978912  	0.001886 
2088.907728  	0.002359 
2090.836544  	0.002548 
2092.765360  	0.002104 
2094.694176  	0.002215 
2096.622992  	0.002958 
2098.551808  	0.002634 
2100.480624  	0.002512 
2102.409440  	0.002396 
2104.338256  	0.002399 
2106.267072  	0.002682 
2108.195888  	0.002820 
2110.124704  	0.002846 
2112.053520  	0.003179 
2113.982336  	0.003131 
2115.911152  	0.003054 
2117.839968  	0.002489 
2119.768784  	0.002286 
2121.697600  	0.002484 
2123.626416  	0.002441 
2125.555232  	0.002138 
2127.484048  	0.001624 
2129.412864  	0.001342 
2131.341680  	0.001564 
2133.270496  	0.002146 
2135.199312  	0.002212 
2137.128128  	0.002399 
2139.056944  	0.003004 
2140.985760  	0.003023 
2142.914576  	0.003062 
2144.843392  	0.002815 
2146.772208  	0.002807 
2148.701024  	0.002384 
2150.629840  	0.001602 
2152.558656  	0.001391 
2154.487472  	0.001604 
2156.416288  	0.001204 
2158.345104  	0.004149 
2160.273920  	0.008027 
2162.202736  	0.007570 
2164.131552  	0.005801 
2166.060368  	0.006211 
2167.989184  	0.005677 
2169.918000  	0.004344 
2171.846816  	0.004220 
2173.775632  	0.004484 
2175.704448  	0.004005 
2177.633264  	0.003647 
2179.562080  	0.002675 
2181.490896  	0.003115 
2183.419712  	0.004696 
2185.348528  	0.005279 
2187.277344  	0.004313 
2189.206160  	0.003923 
2191.134976  	0.004157 
2193.063792  	0.004261 
2194.992608  	0.003287 
2196.921424  	0.003168 
2198.850240  	0.003580 
2200.779056  	0.002952 
2202.707872  	0.002779 
2204.636688  	0.003695 
2206.565504  	0.003925 
2208.494320  	0.003607 
2210.423136  	0.003311 
2212.351952  	0.003220 
2214.280768  	0.002945 
2216.209584  	0.003249 
2218.138400  	0.002681 
2220.067216  	0.002291 
2221.996032  	0.002216 
2223.924848  	0.003065 
2225.853664  	0.003268 
2227.782480  	0.002724 
2229.711296  	0.002108 
2231.640112  	0.002152 
2233.568928  	0.002406 
2235.497744  	0.002639 
2237.426560  	0.002549 
2239.355376  	0.002791 
2241.284192  	0.002542 
2243.213008  	0.002165 
2245.141824  	0.001963 
2247.070640  	0.002202 
2248.999456  	0.002420 
2250.928272  	0.002609 
2252.857088  	0.002561 
2254.785904  	0.002691 
2256.714720  	0.002976 
2258.643536  	0.003047 
2260.572352  	0.003276 
2262.501168  	0.003617 
2264.429984  	0.003586 
2266.358800  	0.003565 
2268.287616  	0.003212 
2270.216432  	0.002864 
2272.145248  	0.003082 
2274.074064  	0.003547 
2276.002880  	0.003465 
2277.931696  	0.003675 
2279.860512  	0.003545 
2281.789328  	0.003543 
2283.718144  	0.003780 
2285.646960  	0.003950 
2287.575776  	0.003872 
2289.504592  	0.004001 
2291.433408  	0.004108 
2293.362224  	0.004158 
2295.291040  	0.003835 
2297.219856  	0.003869 
2299.148672  	0.003875 
2301.077488  	0.003941 
2303.006304  	0.004274 
2304.935120  	0.004640 
2306.863936  	0.004599 
2308.792752  	0.004441 
2310.721568  	0.004424 
2312.650384  	0.004299 
2314.579200  	0.004098 
2316.508016  	0.004500 
2318.436832  	0.004899 
2320.365648  	0.005212 
2322.294464  	0.005406 
2324.223280  	0.005581 
2326.152096  	0.004452 
2328.080912  	0.003130 
2330.009728  	0.003320 
2331.938544  	0.003883 
2333.867360  	0.003518 
2335.796176  	0.002971 
2337.724992  	0.002542 
2339.653808  	0.002766 
2341.582624  	0.003423 
2343.511440  	0.004319 
2345.440256  	0.005354 
2347.369072  	0.005084 
2349.297888  	0.003325 
2351.226704  	0.002165 
2353.155520  	0.001945 
2355.084336  	0.002120 
2357.013152  	0.002494 
2358.941968  	0.003004 
2360.870784  	0.003083 
2362.799600  	0.003438 
2364.728416  	0.004161 
2366.657232  	0.004316 
2368.586048  	0.004139 
2370.514864  	0.004697 
2372.443680  	0.004919 
2374.372496  	0.005055 
2376.301312  	0.005126 
2378.230128  	0.004867 
2380.158944  	0.004433 
2382.087760  	0.004128 
2384.016576  	0.003810 
2385.945392  	0.003414 
2387.874208  	0.003261 
2389.803024  	0.003139 
2391.731840  	0.002975 
2393.660656  	0.002846 
2395.589472  	0.002903 
2397.518288  	0.003012 
2399.447104  	0.002950 
2401.375920  	0.002891 
2403.304736  	0.002835 
2405.233552  	0.002765 
2407.162368  	0.002707 
2409.091184  	0.002765 
2411.020000  	0.002780 
2412.948816  	0.002677 
2414.877632  	0.002787 
2416.806448  	0.002992 
2418.735264  	0.003048 
2420.664080  	0.003167 
2422.592896  	0.003222 
2424.521712  	0.003183 
2426.450528  	0.003166 
2428.379344  	0.003118 
2430.308160  	0.003327 
2432.236976  	0.003514 
2434.165792  	0.003530 
2436.094608  	0.003622 
2438.023424  	0.003697 
2439.952240  	0.003797 
2441.881056  	0.003893 
2443.809872  	0.003797 
2445.738688  	0.003750 
2447.667504  	0.004065 
2449.596320  	0.004266 
2451.525136  	0.004152 
2453.453952  	0.004027 
2455.382768  	0.004089 
2457.311584  	0.004292 
2459.240400  	0.004369 
2461.169216  	0.004400 
2463.098032  	0.004554 
2465.026848  	0.004499 
2466.955664  	0.004468 
2468.884480  	0.004257 
2470.813296  	0.004286 
2472.742112  	0.004573 
2474.670928  	0.004725 
2476.599744  	0.004962 
2478.528560  	0.005061 
2480.457376  	0.005137 
2482.386192  	0.005294 
2484.315008  	0.005230 
2486.243824  	0.005212 
2488.172640  	0.005494 
2490.101456  	0.005762 
2492.030272  	0.005686 
2493.959088  	0.005377 
2495.887904  	0.005203 
2497.816720  	0.005567 
2499.745536  	0.005769 
2501.674352  	0.005794 
2503.603168  	0.005730 
2505.531984  	0.005582 
2507.460800  	0.005460 
2509.389616  	0.005454 
2511.318432  	0.005511 
2513.247248  	0.005743 
2515.176064  	0.005906 
2517.104880  	0.005872 
2519.033696  	0.005869 
2520.962512  	0.006234 
2522.891328  	0.006409 
2524.820144  	0.006573 
2526.748960  	0.006512 
2528.677776  	0.006496 
2530.606592  	0.006545 
2532.535408  	0.006706 
2534.464224  	0.006775 
2536.393040  	0.006615 
2538.321856  	0.006707 
2540.250672  	0.006891 
2542.179488  	0.006879 
2544.108304  	0.006869 
2546.037120  	0.007022 
2547.965936  	0.007263 
2549.894752  	0.007378 
2551.823568  	0.007362 
2553.752384  	0.007315 
2555.681200  	0.007353 
2557.610016  	0.007325 
2559.538832  	0.007363 
2561.467648  	0.007668 
2563.396464  	0.007918 
2565.325280  	0.007856 
2567.254096  	0.007716 
2569.182912  	0.007693 
2571.111728  	0.007741 
2573.040544  	0.007797 
2574.969360  	0.008081 
2576.898176  	0.008315 
2578.826992  	0.008382 
2580.755808  	0.008391 
2582.684624  	0.008593 
2584.613440  	0.008593 
2586.542256  	0.008735 
2588.471072  	0.008845 
2590.399888  	0.008836 
2592.328704  	0.008931 
2594.257520  	0.009111 
2596.186336  	0.009030 
2598.115152  	0.009059 
2600.043968  	0.009342 
2601.972784  	0.009376 
2603.901600  	0.009360 
2605.830416  	0.009382 
2607.759232  	0.009420 
2609.688048  	0.009385 
2611.616864  	0.009581 
2613.545680  	0.009748 
2615.474496  	0.009880 
2617.403312  	0.010073 
2619.332128  	0.010086 
2621.260944  	0.010119 
2623.189760  	0.010189 
2625.118576  	0.010266 
2627.047392  	0.010314 
2628.976208  	0.010511 
2630.905024  	0.010684 
2632.833840  	0.010732 
2634.762656  	0.010763 
2636.691472  	0.010963 
2638.620288  	0.011112 
2640.549104  	0.011181 
2642.477920  	0.011334 
2644.406736  	0.011404 
2646.335552  	0.011470 
2648.264368  	0.011612 
2650.193184  	0.011760 
2652.122000  	0.011922 
2654.050816  	0.011982 
2655.979632  	0.012032 
2657.908448  	0.012179 
2659.837264  	0.012277 
2661.766080  	0.012285 
2663.694896  	0.012330 
2665.623712  	0.012400 
2667.552528  	0.012508 
2669.481344  	0.012446 
2671.410160  	0.012430 
2673.338976  	0.012608 
2675.267792  	0.012772 
2677.196608  	0.012956 
2679.125424  	0.013031 
2681.054240  	0.013084 
2682.983056  	0.013300 
2684.911872  	0.013396 
2686.840688  	0.013395 
2688.769504  	0.013518 
2690.698320  	0.013707 
2692.627136  	0.013796 
2694.555952  	0.013798 
2696.484768  	0.013830 
2698.413584  	0.014011 
2700.342400  	0.014105 
2702.271216  	0.014199 
2704.200032  	0.014354 
2706.128848  	0.014400 
2708.057664  	0.014476 
2709.986480  	0.014584 
2711.915296  	0.014745 
2713.844112  	0.014860 
2715.772928  	0.014941 
2717.701744  	0.015046 
2719.630560  	0.015196 
2721.559376  	0.015297 
2723.488192  	0.015365 
2725.417008  	0.015452 
2727.345824  	0.015528 
2729.274640  	0.015752 
2731.203456  	0.015878 
2733.132272  	0.015801 
2735.061088  	0.015797 
2736.989904  	0.015854 
2738.918720  	0.016031 
2740.847536  	0.016154 
2742.776352  	0.016341 
2744.705168  	0.016519 
2746.633984  	0.016541 
2748.562800  	0.016702 
2750.491616  	0.016721 
2752.420432  	0.016651 
2754.349248  	0.016692 
2756.278064  	0.016829 
2758.206880  	0.016842 
2760.135696  	0.016861 
2762.064512  	0.016897 
2763.993328  	0.016905 
2765.922144  	0.017044 
2767.850960  	0.017123 
2769.779776  	0.017059 
2771.708592  	0.017152 
2773.637408  	0.017170 
2775.566224  	0.017108 
2777.495040  	0.017074 
2779.423856  	0.017122 
2781.352672  	0.017205 
2783.281488  	0.017293 
2785.210304  	0.017308 
2787.139120  	0.017311 
2789.067936  	0.017257 
2790.996752  	0.017214 
2792.925568  	0.017232 
2794.854384  	0.017288 
2796.783200  	0.017269 
2798.712016  	0.017227 
2800.640832  	0.017234 
2802.569648  	0.017292 
2804.498464  	0.017397 
2806.427280  	0.017563 
2808.356096  	0.017758 
2810.284912  	0.017786 
2812.213728  	0.017678 
2814.142544  	0.017740 
2816.071360  	0.017818 
2818.000176  	0.017903 
2819.928992  	0.017936 
2821.857808  	0.017950 
2823.786624  	0.017985 
2825.715440  	0.018094 
2827.644256  	0.018127 
2829.573072  	0.018065 
2831.501888  	0.018128 
2833.430704  	0.018190 
2835.359520  	0.018113 
2837.288336  	0.018078 
2839.217152  	0.018056 
2841.145968  	0.018030 
2843.074784  	0.018074 
2845.003600  	0.018194 
2846.932416  	0.018220 
2848.861232  	0.018332 
2850.790048  	0.018318 
2852.718864  	0.018399 
2854.647680  	0.018472 
2856.576496  	0.018513 
2858.505312  	0.018485 
2860.434128  	0.018565 
2862.362944  	0.018643 
2864.291760  	0.018577 
2866.220576  	0.018619 
2868.149392  	0.018807 
2870.078208  	0.018985 
2872.007024  	0.019155 
2873.935840  	0.019386 
2875.864656  	0.019628 
2877.793472  	0.019851 
2879.722288  	0.020139 
2881.651104  	0.020344 
2883.579920  	0.020565 
2885.508736  	0.020765 
2887.437552  	0.020855 
2889.366368  	0.020916 
2891.295184  	0.021062 
2893.224000  	0.021018 
2895.152816  	0.021037 
2897.081632  	0.021090 
2899.010448  	0.020735 
2900.939264  	0.020386 
2902.868080  	0.020584 
2904.796896  	0.020830 
2906.725712  	0.021043 
2908.654528  	0.021241 
2910.583344  	0.021396 
2912.512160  	0.021625 
2914.440976  	0.021992 
2916.369792  	0.022502 
2918.298608  	0.022825 
2920.227424  	0.023073 
2922.156240  	0.023415 
2924.085056  	0.023780 
2926.013872  	0.024113 
2927.942688  	0.024652 
2929.871504  	0.025323 
2931.800320  	0.025726 
2933.729136  	0.026180 
2935.657952  	0.026659 
2937.586768  	0.026955 
2939.515584  	0.027328 
2941.444400  	0.027617 
2943.373216  	0.027798 
2945.302032  	0.028036 
2947.230848  	0.028181 
2949.159664  	0.028127 
2951.088480  	0.027982 
2953.017296  	0.027788 
2954.946112  	0.027565 
2956.874928  	0.027471 
2958.803744  	0.027326 
2960.732560  	0.027033 
2962.661376  	0.026822 
2964.590192  	0.026684 
2966.519008  	0.026527 
2968.447824  	0.026186 
2970.376640  	0.025901 
2972.305456  	0.025681 
2974.234272  	0.025689 
2976.163088  	0.025705 
2978.091904  	0.025554 
2980.020720  	0.025421 
2981.949536  	0.025419 
2983.878352  	0.025408 
2985.807168  	0.025158 
2987.735984  	0.024985 
2989.664800  	0.025156 
2991.593616  	0.025725 
2993.522432  	0.026020 
2995.451248  	0.026114 
2997.380064  	0.026353 
2999.308880  	0.026838 
3001.237696  	0.027249 
3003.166512  	0.027619 
3005.095328  	0.027918 
3007.024144  	0.028186 
3008.952960  	0.028539 
3010.881776  	0.029164 
3012.810592  	0.029750 
3014.739408  	0.030156 
3016.668224  	0.030552 
3018.597040  	0.030815 
3020.525856  	0.031168 
3022.454672  	0.031522 
3024.383488  	0.031830 
3026.312304  	0.032344 
3028.241120  	0.032722 
3030.169936  	0.033165 
3032.098752  	0.033788 
3034.027568  	0.034064 
3035.956384  	0.034418 
3037.885200  	0.034766 
3039.814016  	0.035133 
3041.742832  	0.035535 
3043.671648  	0.036133 
3045.600464  	0.036506 
3047.529280  	0.036658 
3049.458096  	0.037172 
3051.386912  	0.037573 
3053.315728  	0.037873 
3055.244544  	0.038225 
3057.173360  	0.038937 
3059.102176  	0.039469 
3061.030992  	0.039909 
3062.959808  	0.040458 
3064.888624  	0.041111 
3066.817440  	0.041719 
3068.746256  	0.042218 
3070.675072  	0.042619 
3072.603888  	0.043142 
3074.532704  	0.043754 
3076.461520  	0.044350 
3078.390336  	0.044827 
3080.319152  	0.045443 
3082.247968  	0.045960 
3084.176784  	0.046624 
3086.105600  	0.047268 
3088.034416  	0.047790 
3089.963232  	0.048085 
3091.892048  	0.048448 
3093.820864  	0.048993 
3095.749680  	0.049770 
3097.678496  	0.050568 
3099.607312  	0.051199 
3101.536128  	0.051921 
3103.464944  	0.052457 
3105.393760  	0.052948 
3107.322576  	0.053539 
3109.251392  	0.054215 
3111.180208  	0.054746 
3113.109024  	0.055027 
3115.037840  	0.055544 
3116.966656  	0.056342 
3118.895472  	0.056974 
3120.824288  	0.057493 
3122.753104  	0.058102 
3124.681920  	0.058481 
3126.610736  	0.058930 
3128.539552  	0.059405 
3130.468368  	0.059609 
3132.397184  	0.060174 
3134.326000  	0.060717 
3136.254816  	0.061106 
3138.183632  	0.061509 
3140.112448  	0.061948 
3142.041264  	0.062679 
3143.970080  	0.063405 
3145.898896  	0.063853 
3147.827712  	0.064300 
3149.756528  	0.065009 
3151.685344  	0.065481 
3153.614160  	0.065899 
3155.542976  	0.066358 
3157.471792  	0.066931 
3159.400608  	0.067493 
3161.329424  	0.068025 
3163.258240  	0.068812 
3165.187056  	0.069492 
3167.115872  	0.069794 
3169.044688  	0.070256 
3170.973504  	0.070764 
3172.902320  	0.071107 
3174.831136  	0.071304 
3176.759952  	0.071719 
3178.688768  	0.072355 
3180.617584  	0.072723 
3182.546400  	0.072938 
3184.475216  	0.073234 
3186.404032  	0.073603 
3188.332848  	0.073777 
3190.261664  	0.073950 
3192.190480  	0.074178 
3194.119296  	0.074351 
3196.048112  	0.074382 
3197.976928  	0.074902 
3199.905744  	0.075121 
3201.834560  	0.075037 
3203.763376  	0.074982 
3205.692192  	0.074735 
3207.621008  	0.074658 
3209.549824  	0.074879 
3211.478640  	0.074946 
3213.407456  	0.074963 
3215.336272  	0.075064 
3217.265088  	0.074914 
3219.193904  	0.074930 
3221.122720  	0.075060 
3223.051536  	0.074916 
3224.980352  	0.074731 
3226.909168  	0.074617 
3228.837984  	0.074525 
3230.766800  	0.074370 
3232.695616  	0.074575 
3234.624432  	0.074720 
3236.553248  	0.074832 
3238.482064  	0.074981 
3240.410880  	0.074895 
3242.339696  	0.074832 
3244.268512  	0.074964 
3246.197328  	0.075119 
3248.126144  	0.075114 
3250.054960  	0.075182 
3251.983776  	0.075325 
3253.912592  	0.075733 
3255.841408  	0.075907 
3257.770224  	0.075825 
3259.699040  	0.076016 
3261.627856  	0.076375 
3263.556672  	0.076504 
3265.485488  	0.076850 
3267.414304  	0.076952 
3269.343120  	0.076938 
3271.271936  	0.076969 
3273.200752  	0.077165 
3275.129568  	0.077304 
3277.058384  	0.077430 
3278.987200  	0.077582 
3280.916016  	0.077804 
3282.844832  	0.078049 
3284.773648  	0.078122 
3286.702464  	0.078313 
3288.631280  	0.078746 
3290.560096  	0.078877 
3292.488912  	0.078796 
3294.417728  	0.078906 
3296.346544  	0.079255 
3298.275360  	0.079605 
3300.204176  	0.079842 
3302.132992  	0.079916 
3304.061808  	0.080260 
3305.990624  	0.080620 
3307.919440  	0.080949 
3309.848256  	0.081224 
3311.777072  	0.081509 
3313.705888  	0.081778 
3315.634704  	0.082049 
3317.563520  	0.082347 
3319.492336  	0.082711 
3321.421152  	0.083086 
3323.349968  	0.083166 
3325.278784  	0.083172 
3327.207600  	0.083349 
3329.136416  	0.083393 
3331.065232  	0.083473 
3332.994048  	0.083618 
3334.922864  	0.083791 
3336.851680  	0.083990 
3338.780496  	0.084221 
3340.709312  	0.084025 
3342.638128  	0.083849 
3344.566944  	0.083784 
3346.495760  	0.083675 
3348.424576  	0.083652 
3350.353392  	0.083510 
3352.282208  	0.083241 
3354.211024  	0.083074 
3356.139840  	0.082932 
3358.068656  	0.082760 
3359.997472  	0.082699 
3361.926288  	0.082671 
3363.855104  	0.082494 
3365.783920  	0.082314 
3367.712736  	0.081981 
3369.641552  	0.081629 
3371.570368  	0.081349 
3373.499184  	0.081305 
3375.428000  	0.081269 
3377.356816  	0.081068 
3379.285632  	0.080963 
3381.214448  	0.080670 
3383.143264  	0.080341 
3385.072080  	0.080275 
3387.000896  	0.079769 
3388.929712  	0.079226 
3390.858528  	0.079048 
3392.787344  	0.079267 
3394.716160  	0.078931 
3396.644976  	0.078716 
3398.573792  	0.078415 
3400.502608  	0.077657 
3402.431424  	0.077150 
3404.360240  	0.076861 
3406.289056  	0.076312 
3408.217872  	0.075829 
3410.146688  	0.075438 
3412.075504  	0.075127 
3414.004320  	0.075003 
3415.933136  	0.074636 
3417.861952  	0.073955 
3419.790768  	0.073941 
3421.719584  	0.073958 
3423.648400  	0.073268 
3425.577216  	0.072572 
3427.506032  	0.072170 
3429.434848  	0.071618 
3431.363664  	0.071342 
3433.292480  	0.070937 
3435.221296  	0.070452 
3437.150112  	0.069881 
3439.078928  	0.069254 
3441.007744  	0.068694 
3442.936560  	0.068456 
3444.865376  	0.067652 
3446.794192  	0.067480 
3448.723008  	0.067433 
3450.651824  	0.066421 
3452.580640  	0.065665 
3454.509456  	0.065182 
3456.438272  	0.064466 
3458.367088  	0.063748 
3460.295904  	0.063294 
3462.224720  	0.063018 
3464.153536  	0.062321 
3466.082352  	0.061415 
3468.011168  	0.060852 
3469.939984  	0.060298 
3471.868800  	0.059443 
3473.797616  	0.058576 
3475.726432  	0.057974 
3477.655248  	0.057254 
3479.584064  	0.056378 
3481.512880  	0.056129 
3483.441696  	0.055658 
3485.370512  	0.054507 
3487.299328  	0.053748 
3489.228144  	0.053110 
3491.156960  	0.052160 
3493.085776  	0.051456 
3495.014592  	0.050964 
3496.943408  	0.050526 
3498.872224  	0.049539 
3500.801040  	0.048642 
3502.729856  	0.048738 
3504.658672  	0.048697 
3506.587488  	0.047283 
3508.516304  	0.046389 
3510.445120  	0.046319 
3512.373936  	0.045551 
3514.302752  	0.044764 
3516.231568  	0.044098 
3518.160384  	0.043490 
3520.089200  	0.042595 
3522.018016  	0.041694 
3523.946832  	0.041639 
3525.875648  	0.041084 
3527.804464  	0.040810 
3529.733280  	0.040652 
3531.662096  	0.039714 
3533.590912  	0.038306 
3535.519728  	0.037706 
3537.448544  	0.037582 
3539.377360  	0.036595 
3541.306176  	0.035657 
3543.234992  	0.035115 
3545.163808  	0.035373 
3547.092624  	0.035760 
3549.021440  	0.034397 
3550.950256  	0.033056 
3552.879072  	0.033355 
3554.807888  	0.032586 
3556.736704  	0.031136 
3558.665520  	0.030573 
3560.594336  	0.030336 
3562.523152  	0.029281 
3564.451968  	0.027952 
3566.380784  	0.029342 
3568.309600  	0.031538 
3570.238416  	0.029055 
3572.167232  	0.026948 
3574.096048  	0.026326 
3576.024864  	0.025751 
3577.953680  	0.024958 
3579.882496  	0.024413 
3581.811312  	0.023540 
3583.740128  	0.022036 
3585.668944  	0.021195 
3587.597760  	0.023616 
3589.526576  	0.023610 
3591.455392  	0.020512 
3593.384208  	0.019511 
3595.313024  	0.019941 
3597.241840  	0.019013 
3599.170656  	0.017754 
3601.099472  	0.017956 
3603.028288  	0.017002 
3604.957104  	0.014895 
3606.885920  	0.014398 
3608.814736  	0.015635 
3610.743552  	0.014265 
3612.672368  	0.013406 
3614.601184  	0.013268 
3616.530000  	0.011333 
3618.458816  	0.011784 
3620.387632  	0.013119 
3622.316448  	0.011094 
3624.245264  	0.008551 
3626.174080  	0.006156 
3628.102896  	0.007370 
3630.031712  	0.012347 
3631.960528  	0.008716 
3633.889344  	0.007055 
3635.818160  	0.006293 
3637.746976  	0.005081 
3639.675792  	0.004101 
3641.604608  	0.003086 
3643.533424  	0.001794 
3645.462240  	-0.000412 
3647.391056  	0.000309 
3649.319872  	0.004152 
3651.248688  	0.006046 
3653.177504  	0.001394 
3655.106320  	-0.001208 
3657.035136  	0.000651 
3658.963952  	-0.000317 
3660.892768  	-0.001508 
3662.821584  	-0.002303 
3664.750400  	-0.003242 
3666.679216  	-0.004871 
3668.608032  	-0.005350 
3670.536848  	-0.001667 
3672.465664  	-0.004173 
3674.394480  	-0.006159 
3676.323296  	0.000051 
3678.252112  	-0.001435 
3680.180928  	-0.002656 
3682.109744  	-0.003966 
3684.038560  	-0.005117 
3685.967376  	-0.006948 
3687.896192  	-0.006625 
3689.825008  	-0.002877 
3691.753824  	-0.002008 
3693.682640  	-0.003490 
3695.611456  	-0.004645 
3697.540272  	-0.004915 
3699.469088  	-0.006134 
3701.397904  	-0.005005 
3703.326720  	-0.003730 
3705.255536  	-0.005084 
3707.184352  	-0.006400 
3709.113168  	-0.006790 
3711.041984  	-0.004363 
3712.970800  	-0.001785 
3714.899616  	-0.003676 
3716.828432  	-0.005475 
3718.757248  	-0.005507 
3720.686064  	-0.005560 
3722.614880  	-0.005042 
3724.543696  	-0.005042 
3726.472512  	-0.004025 
3728.401328  	-0.004721 
3730.330144  	-0.007176 
3732.258960  	-0.006961 
3734.187776  	-0.005627 
3736.116592  	-0.001729 
3738.045408  	-0.002295 
3739.974224  	-0.004922 
3741.903040  	-0.007693 
3743.831856  	-0.007176 
3745.760672  	-0.002712 
3747.689488  	-0.006486 
3749.618304  	-0.005877 
3751.547120  	-0.001357 
3753.475936  	-0.001218 
3755.404752  	-0.004465 
3757.333568  	-0.005670 
3759.262384  	-0.004500 
3761.191200  	-0.003434 
3763.120016  	-0.005664 
3765.048832  	-0.005580 
3766.977648  	-0.005132 
3768.906464  	-0.005180 
3770.835280  	-0.003248 
3772.764096  	-0.004199 
3774.692912  	-0.005435 
3776.621728  	-0.006297 
3778.550544  	-0.005574 
3780.479360  	-0.003783 
3782.408176  	-0.005171 
3784.336992  	-0.005113 
3786.265808  	-0.004363 
3788.194624  	-0.004879 
3790.123440  	-0.005229 
3792.052256  	-0.005634 
3793.981072  	-0.006827 
3795.909888  	-0.005952 
3797.838704  	-0.005107 
3799.767520  	-0.006906 
3801.696336  	-0.002856 
3803.625152  	-0.003008 
3805.553968  	-0.006033 
3807.482784  	-0.003374 
3809.411600  	-0.003837 
3811.340416  	-0.005635 
3813.269232  	-0.007199 
3815.198048  	-0.006349 
3817.126864  	-0.003860 
3819.055680  	-0.006839 
3820.984496  	-0.003917 
3822.913312  	-0.001818 
3824.842128  	-0.005005 
3826.770944  	-0.004716 
3828.699760  	-0.005370 
3830.628576  	-0.006331 
3832.557392  	-0.005858 
3834.486208  	-0.006931 
3836.415024  	-0.006920 
3838.343840  	-0.004218 
3840.272656  	-0.002798 
3842.201472  	-0.003586 
3844.130288  	-0.003501 
3846.059104  	-0.004523 
3847.987920  	-0.006472 
3849.916736  	-0.008466 
3851.845552  	-0.009148 
3853.774368  	-0.001033 
3855.703184  	-0.000084 
3857.632000  	-0.002935 
3859.560816  	-0.005237 
3861.489632  	-0.006194 
3863.418448  	-0.005489 
3865.347264  	-0.003493 
3867.276080  	-0.005855 
3869.204896  	-0.005764 
3871.133712  	-0.002584 
3873.062528  	-0.004553 
3874.991344  	-0.003521 
3876.920160  	-0.005649 
3878.848976  	-0.007102 
3880.777792  	-0.004345 
3882.706608  	-0.004713 
3884.635424  	-0.005646 
3886.564240  	-0.003110 
3888.493056  	-0.005636 
3890.421872  	-0.006294 
3892.350688  	-0.003961 
3894.279504  	-0.004723 
3896.208320  	-0.006732 
3898.137136  	-0.007215 
3900.065952  	-0.005441 
3901.994768  	-0.004617 
3903.923584  	-0.003175 
3905.852400  	-0.002544 
3907.781216  	-0.004308 
3909.710032  	-0.005492 
3911.638848  	-0.005846 
3913.567664  	-0.006190 
3915.496480  	-0.006114 
3917.425296  	-0.004761 
3919.354112  	-0.004463 
3921.282928  	-0.004731 
3923.211744  	-0.005166 
3925.140560  	-0.004240 
3927.069376  	-0.005003 
3928.998192  	-0.005768 
3930.927008  	-0.005217 
3932.855824  	-0.004219 
3934.784640  	-0.004500 
3936.713456  	-0.005266 
3938.642272  	-0.005649 
3940.571088  	-0.006114 
3942.499904  	-0.004903 
3944.428720  	-0.004454 
3946.357536  	-0.005573 
3948.286352  	-0.005119 
3950.215168  	-0.004697 
3952.143984  	-0.005079 
3954.072800  	-0.005432 
3956.001616  	-0.005438 
3957.930432  	-0.005165 
3959.859248  	-0.005116 
3961.788064  	-0.004994 
3963.716880  	-0.004928 
3965.645696  	-0.005351 
3967.574512  	-0.005629 
3969.503328  	-0.005695 
3971.432144  	-0.005620 
3973.360960  	-0.005222 
3975.289776  	-0.004920 
3977.218592  	-0.005080 
3979.147408  	-0.005256 
3981.076224  	-0.005311 
3983.005040  	-0.005342 
3984.933856  	-0.005247 
3986.862672  	-0.005030 
3988.791488  	-0.005262 
3990.720304  	-0.005200 
3992.649120  	-0.005344 
3994.577936  	-0.005429 
3996.506752  	-0.005360 
3998.435568  	-0.005285 
4000.364384  	-0.005178 