##TITLE=No Description
##DATA TYPE=INFRARED SPECTRUM
##XUNITS=1/CM
##YUNITS=Abs
399.264912  	0.565098 
401.193728  	0.556026 
403.122544  	0.537545 
405.051360  	0.519653 
406.980176  	0.537739 
408.908992  	0.545073 
410.837808  	0.537427 
412.766624  	0.521873 
414.695440  	0.513003 
416.624256  	0.517557 
418.553072  	0.528322 
420.481888  	0.525299 
422.410704  	0.528989 
424.339520  	0.523854 
426.268336  	0.517946 
428.197152  	0.506378 
430.125968  	0.498074 
432.054784  	0.495218 
433.983600  	0.502517 
435.912416  	0.497740 
437.841232  	0.490109 
439.770048  	0.481770 
441.698864  	0.479494 
443.627680  	0.476904 
445.556496  	0.480545 
447.485312  	0.479238 
449.414128  	0.475419 
451.342944  	0.468079 
453.271760  	0.470108 
455.200576  	0.472160 
457.129392  	0.470959 
459.058208  	0.466210 
460.987024  	0.469930 
462.915840  	0.470331 
464.844656  	0.469905 
466.773472  	0.464109 
468.702288  	0.459897 
470.631104  	0.459964 
472.559920  	0.465517 
474.488736  	0.457766 
476.417552  	0.457611 
478.346368  	0.457620 
480.275184  	0.454491 
482.204000  	0.451875 
484.132816  	0.453615 
486.061632  	0.455583 
487.990448  	0.458181 
489.919264  	0.454317 
491.848080  	0.450271 
493.776896  	0.447219 
495.705712  	0.448311 
497.634528  	0.445439 
499.563344  	0.446762 
501.492160  	0.445401 
503.420976  	0.442460 
505.349792  	0.438528 
507.278608  	0.439307 
509.207424  	0.436941 
511.136240  	0.438583 
513.065056  	0.437677 
514.993872  	0.439078 
516.922688  	0.439200 
518.851504  	0.439316 
520.780320  	0.437604 
522.709136  	0.436538 
524.637952  	0.435273 
526.566768  	0.435773 
528.495584  	0.431195 
530.424400  	0.428003 
532.353216  	0.426994 
534.282032  	0.423332 
536.210848  	0.418864 
538.139664  	0.416944 
540.068480  	0.413352 
541.997296  	0.410491 
543.926112  	0.408162 
545.854928  	0.408273 
547.783744  	0.405116 
549.712560  	0.402849 
551.641376  	0.400554 
553.570192  	0.399956 
555.499008  	0.397341 
557.427824  	0.395311 
559.356640  	0.392089 
561.285456  	0.389951 
563.214272  	0.386531 
565.143088  	0.384370 
567.071904  	0.381839 
569.000720  	0.380096 
570.929536  	0.377210 
572.858352  	0.374288 
574.787168  	0.371547 
576.715984  	0.369489 
578.644800  	0.366997 
580.573616  	0.364601 
582.502432  	0.360131 
584.431248  	0.357494 
586.360064  	0.354966 
588.288880  	0.352150 
590.217696  	0.349597 
592.146512  	0.348929 
594.075328  	0.346607 
596.004144  	0.344817 
597.932960  	0.343440 
599.861776  	0.342339 
601.790592  	0.340846 
603.719408  	0.339434 
605.648224  	0.337200 
607.577040  	0.335731 
609.505856  	0.333752 
611.434672  	0.332680 
613.363488  	0.330826 
615.292304  	0.329365 
617.221120  	0.327274 
619.149936  	0.326139 
621.078752  	0.325022 
623.007568  	0.323556 
624.936384  	0.321380 
626.865200  	0.320381 
628.794016  	0.319287 
630.722832  	0.318359 
632.651648  	0.317441 
634.580464  	0.316770 
636.509280  	0.316118 
638.438096  	0.315215 
640.366912  	0.313435 
642.295728  	0.311934 
644.224544  	0.310088 
646.153360  	0.307934 
648.082176  	0.304339 
650.010992  	0.302084 
651.939808  	0.299975 
653.868624  	0.297725 
655.797440  	0.295007 
657.726256  	0.292257 
659.655072  	0.288569 
661.583888  	0.285419 
663.512704  	0.282557 
665.441520  	0.279751 
667.370336  	0.276990 
669.299152  	0.274534 
671.227968  	0.270637 
673.156784  	0.267813 
675.085600  	0.265361 
677.014416  	0.262944 
678.943232  	0.260636 
680.872048  	0.258971 
682.800864  	0.257142 
684.729680  	0.255837 
686.658496  	0.253775 
688.587312  	0.252071 
690.516128  	0.250588 
692.444944  	0.249297 
694.373760  	0.247390 
696.302576  	0.245968 
698.231392  	0.244025 
700.160208  	0.242304 
702.089024  	0.240092 
704.017840  	0.237780 
705.946656  	0.235384 
707.875472  	0.233336 
709.804288  	0.231618 
711.733104  	0.230401 
713.661920  	0.228699 
715.590736  	0.226933 
717.519552  	0.225352 
719.448368  	0.224434 
721.377184  	0.223877 
723.306000  	0.223489 
725.234816  	0.222808 
727.163632  	0.221650 
729.092448  	0.219552 
731.021264  	0.217105 
732.950080  	0.214403 
734.878896  	0.212138 
736.807712  	0.209920 
738.736528  	0.207826 
740.665344  	0.205958 
742.594160  	0.204849 
744.522976  	0.203412 
746.451792  	0.201962 
748.380608  	0.200442 
750.309424  	0.198990 
752.238240  	0.197287 
754.167056  	0.196408 
756.095872  	0.195401 
758.024688  	0.193998 
759.953504  	0.192666 
761.882320  	0.192416 
763.811136  	0.192164 
765.739952  	0.190257 
767.668768  	0.187808 
769.597584  	0.185550 
771.526400  	0.183898 
773.455216  	0.183801 
775.384032  	0.184690 
777.312848  	0.186598 
779.241664  	0.187905 
781.170480  	0.186754 
783.099296  	0.183377 
785.028112  	0.179492 
786.956928  	0.175565 
788.885744  	0.172369 
790.814560  	0.169497 
792.743376  	0.167582 
794.672192  	0.166693 
796.601008  	0.165703 
798.529824  	0.163059 
800.458640  	0.159815 
802.387456  	0.157068 
804.316272  	0.155249 
806.245088  	0.153836 
808.173904  	0.152523 
810.102720  	0.151512 
812.031536  	0.150531 
813.960352  	0.149500 
815.889168  	0.148850 
817.817984  	0.148347 
819.746800  	0.148072 
821.675616  	0.147761 
823.604432  	0.147562 
825.533248  	0.147107 
827.462064  	0.146535 
829.390880  	0.145713 
831.319696  	0.145069 
833.248512  	0.143888 
835.177328  	0.142227 
837.106144  	0.140388 
839.034960  	0.138395 
840.963776  	0.135665 
842.892592  	0.133009 
844.821408  	0.130572 
846.750224  	0.128100 
848.679040  	0.125878 
850.607856  	0.124307 
852.536672  	0.123055 
854.465488  	0.121886 
856.394304  	0.120857 
858.323120  	0.119420 
860.251936  	0.118027 
862.180752  	0.117012 
864.109568  	0.115421 
866.038384  	0.114008 
867.967200  	0.112776 
869.896016  	0.111416 
871.824832  	0.110302 
873.753648  	0.110030 
875.682464  	0.109833 
877.611280  	0.110151 
879.540096  	0.110739 
881.468912  	0.111629 
883.397728  	0.112643 
885.326544  	0.113643 
887.255360  	0.114099 
889.184176  	0.113907 
891.112992  	0.113230 
893.041808  	0.112203 
894.970624  	0.110789 
896.899440  	0.108272 
898.828256  	0.105121 
900.757072  	0.102264 
902.685888  	0.099791 
904.614704  	0.097854 
906.543520  	0.096869 
908.472336  	0.097073 
910.401152  	0.097653 
912.329968  	0.098552 
914.258784  	0.099453 
916.187600  	0.100407 
918.116416  	0.101063 
920.045232  	0.101443 
921.974048  	0.101428 
923.902864  	0.101416 
925.831680  	0.101196 
927.760496  	0.101077 
929.689312  	0.101175 
931.618128  	0.101468 
933.546944  	0.101425 
935.475760  	0.101056 
937.404576  	0.100477 
939.333392  	0.099671 
941.262208  	0.098761 
943.191024  	0.098478 
945.119840  	0.099280 
947.048656  	0.101074 
948.977472  	0.104130 
950.906288  	0.108305 
952.835104  	0.113678 
954.763920  	0.120061 
956.692736  	0.126639 
958.621552  	0.132995 
960.550368  	0.138033 
962.479184  	0.141438 
964.408000  	0.142458 
966.336816  	0.141155 
968.265632  	0.137338 
970.194448  	0.131513 
972.123264  	0.123811 
974.052080  	0.115227 
975.980896  	0.106727 
977.909712  	0.098598 
979.838528  	0.091242 
981.767344  	0.085178 
983.696160  	0.080735 
985.624976  	0.077679 
987.553792  	0.076257 
989.482608  	0.076559 
991.411424  	0.078337 
993.340240  	0.081183 
995.269056  	0.084762 
997.197872  	0.088741 
999.126688  	0.092706 
1001.055504  	0.096817 
1002.984320  	0.100627 
1004.913136  	0.104610 
1006.841952  	0.108384 
1008.770768  	0.112171 
1010.699584  	0.115424 
1012.628400  	0.117966 
1014.557216  	0.120012 
1016.486032  	0.121385 
1018.414848  	0.122118 
1020.343664  	0.122613 
1022.272480  	0.123007 
1024.201296  	0.123177 
1026.130112  	0.123071 
1028.058928  	0.123562 
1029.987744  	0.124733 
1031.916560  	0.125948 
1033.845376  	0.127517 
1035.774192  	0.129856 
1037.703008  	0.132899 
1039.631824  	0.137337 
1041.560640  	0.143470 
1043.489456  	0.151743 
1045.418272  	0.161496 
1047.347088  	0.171906 
1049.275904  	0.180700 
1051.204720  	0.186891 
1053.133536  	0.190476 
1055.062352  	0.191960 
1056.991168  	0.191547 
1058.919984  	0.191237 
1060.848800  	0.191434 
1062.777616  	0.191650 
1064.706432  	0.191162 
1066.635248  	0.190212 
1068.564064  	0.188792 
1070.492880  	0.186566 
1072.421696  	0.183227 
1074.350512  	0.180936 
1076.279328  	0.180643 
1078.208144  	0.182809 
1080.136960  	0.186328 
1082.065776  	0.190062 
1083.994592  	0.191616 
1085.923408  	0.190568 
1087.852224  	0.186616 
1089.781040  	0.181316 
1091.709856  	0.174524 
1093.638672  	0.166557 
1095.567488  	0.157279 
1097.496304  	0.148017 
1099.425120  	0.138875 
1101.353936  	0.129998 
1103.282752  	0.121374 
1105.211568  	0.113556 
1107.140384  	0.106449 
1109.069200  	0.099856 
1110.998016  	0.093923 
1112.926832  	0.088710 
1114.855648  	0.083819 
1116.784464  	0.078781 
1118.713280  	0.074043 
1120.642096  	0.069719 
1122.570912  	0.065620 
1124.499728  	0.061965 
1126.428544  	0.058670 
1128.357360  	0.055659 
1130.286176  	0.053200 
1132.214992  	0.051244 
1134.143808  	0.049637 
1136.072624  	0.048177 
1138.001440  	0.046733 
1139.930256  	0.045750 
1141.859072  	0.044987 
1143.787888  	0.044031 
1145.716704  	0.043162 
1147.645520  	0.042509 
1149.574336  	0.042165 
1151.503152  	0.041801 
1153.431968  	0.041730 
1155.360784  	0.041664 
1157.289600  	0.042096 
1159.218416  	0.042643 
1161.147232  	0.043031 
1163.076048  	0.043562 
1165.004864  	0.044152 
1166.933680  	0.044862 
1168.862496  	0.045734 
1170.791312  	0.046678 
1172.720128  	0.047854 
1174.648944  	0.049181 
1176.577760  	0.050384 
1178.506576  	0.052035 
1180.435392  	0.053896 
1182.364208  	0.055487 
1184.293024  	0.057268 
1186.221840  	0.059469 
1188.150656  	0.061993 
1190.079472  	0.064905 
1192.008288  	0.068254 
1193.937104  	0.072185 
1195.865920  	0.076607 
1197.794736  	0.081372 
1199.723552  	0.086691 
1201.652368  	0.092055 
1203.581184  	0.097132 
1205.510000  	0.102293 
1207.438816  	0.107014 
1209.367632  	0.111238 
1211.296448  	0.114675 
1213.225264  	0.117510 
1215.154080  	0.119374 
1217.082896  	0.120453 
1219.011712  	0.120916 
1220.940528  	0.121222 
1222.869344  	0.120693 
1224.798160  	0.119747 
1226.726976  	0.118184 
1228.655792  	0.116163 
1230.584608  	0.113812 
1232.513424  	0.111101 
1234.442240  	0.107976 
1236.371056  	0.104756 
1238.299872  	0.100960 
1240.228688  	0.096500 
1242.157504  	0.092146 
1244.086320  	0.088126 
1246.015136  	0.083886 
1247.943952  	0.079749 
1249.872768  	0.075615 
1251.801584  	0.071649 
1253.730400  	0.068013 
1255.659216  	0.064436 
1257.588032  	0.060839 
1259.516848  	0.057628 
1261.445664  	0.054588 
1263.374480  	0.051788 
1265.303296  	0.049217 
1267.232112  	0.047423 
1269.160928  	0.046163 
1271.089744  	0.045177 
1273.018560  	0.044595 
1274.947376  	0.044710 
1276.876192  	0.045132 
1278.805008  	0.045551 
1280.733824  	0.045575 
1282.662640  	0.044690 
1284.591456  	0.043537 
1286.520272  	0.042567 
1288.449088  	0.041960 
1290.377904  	0.041825 
1292.306720  	0.042204 
1294.235536  	0.042604 
1296.164352  	0.042389 
1298.093168  	0.041437 
1300.021984  	0.040101 
1301.950800  	0.038464 
1303.879616  	0.036620 
1305.808432  	0.034761 
1307.737248  	0.032740 
1309.666064  	0.030919 
1311.594880  	0.029476 
1313.523696  	0.028351 
1315.452512  	0.027604 
1317.381328  	0.027415 
1319.310144  	0.027522 
1321.238960  	0.027781 
1323.167776  	0.028245 
1325.096592  	0.028611 
1327.025408  	0.028688 
1328.954224  	0.028583 
1330.883040  	0.028092 
1332.811856  	0.027207 
1334.740672  	0.026207 
1336.669488  	0.025639 
1338.598304  	0.025711 
1340.527120  	0.025806 
1342.455936  	0.025211 
1344.384752  	0.024950 
1346.313568  	0.025172 
1348.242384  	0.025572 
1350.171200  	0.026022 
1352.100016  	0.026756 
1354.028832  	0.027869 
1355.957648  	0.029164 
1357.886464  	0.030237 
1359.815280  	0.031155 
1361.744096  	0.032553 
1363.672912  	0.034298 
1365.601728  	0.035028 
1367.530544  	0.035762 
1369.459360  	0.036927 
1371.388176  	0.037398 
1373.316992  	0.037467 
1375.245808  	0.037237 
1377.174624  	0.035865 
1379.103440  	0.034539 
1381.032256  	0.033090 
1382.961072  	0.031490 
1384.889888  	0.030034 
1386.818704  	0.029487 
1388.747520  	0.028830 
1390.676336  	0.027364 
1392.605152  	0.025908 
1394.533968  	0.025264 
1396.462784  	0.025510 
1398.391600  	0.025427 
1400.320416  	0.025537 
1402.249232  	0.025200 
1404.178048  	0.025543 
1406.106864  	0.026372 
1408.035680  	0.027002 
1409.964496  	0.027762 
1411.893312  	0.028905 
1413.822128  	0.030179 
1415.750944  	0.031185 
1417.679760  	0.031906 
1419.608576  	0.033604 
1421.537392  	0.033459 
1423.466208  	0.032872 
1425.395024  	0.032340 
1427.323840  	0.030823 
1429.252656  	0.029753 
1431.181472  	0.028906 
1433.110288  	0.027896 
1435.039104  	0.027427 
1436.967920  	0.028751 
1438.896736  	0.029661 
1440.825552  	0.029939 
1442.754368  	0.030198 
1444.683184  	0.030081 
1446.612000  	0.030196 
1448.540816  	0.030641 
1450.469632  	0.030712 
1452.398448  	0.030561 
1454.327264  	0.030030 
1456.256080  	0.030497 
1458.184896  	0.032921 
1460.113712  	0.031916 
1462.042528  	0.030671 
1463.971344  	0.030322 
1465.900160  	0.031163 
1467.828976  	0.031059 
1469.757792  	0.030921 
1471.686608  	0.032360 
1473.615424  	0.036939 
1475.544240  	0.039288 
1477.473056  	0.041934 
1479.401872  	0.043285 
1481.330688  	0.045307 
1483.259504  	0.046942 
1485.188320  	0.047478 
1487.117136  	0.047948 
1489.045952  	0.048985 
1490.974768  	0.049173 
1492.903584  	0.047113 
1494.832400  	0.044273 
1496.761216  	0.042149 
1498.690032  	0.039462 
1500.618848  	0.036341 
1502.547664  	0.033179 
1504.476480  	0.030610 
1506.405296  	0.029886 
1508.334112  	0.030912 
1510.262928  	0.028695 
1512.191744  	0.027220 
1514.120560  	0.026512 
1516.049376  	0.027259 
1517.978192  	0.028815 
1519.907008  	0.028843 
1521.835824  	0.032030 
1523.764640  	0.033503 
1525.693456  	0.034816 
1527.622272  	0.036743 
1529.551088  	0.036502 
1531.479904  	0.035069 
1533.408720  	0.034697 
1535.337536  	0.033810 
1537.266352  	0.031502 
1539.195168  	0.030745 
1541.123984  	0.031001 
1543.052800  	0.029367 
1544.981616  	0.028370 
1546.910432  	0.026918 
1548.839248  	0.025984 
1550.768064  	0.026575 
1552.696880  	0.025841 
1554.625696  	0.026154 
1556.554512  	0.025900 
1558.483328  	0.027653 
1560.412144  	0.031585 
1562.340960  	0.030389 
1564.269776  	0.030839 
1566.198592  	0.032904 
1568.127408  	0.034018 
1570.056224  	0.038523 
1571.985040  	0.040387 
1573.913856  	0.040397 
1575.842672  	0.042695 
1577.771488  	0.045860 
1579.700304  	0.044594 
1581.629120  	0.043856 
1583.557936  	0.043381 
1585.486752  	0.043948 
1587.415568  	0.044860 
1589.344384  	0.046723 
1591.273200  	0.049266 
1593.202016  	0.052724 
1595.130832  	0.056446 
1597.059648  	0.060277 
1598.988464  	0.063470 
1600.917280  	0.066781 
1602.846096  	0.069440 
1604.774912  	0.071371 
1606.703728  	0.072012 
1608.632544  	0.072626 
1610.561360  	0.072272 
1612.490176  	0.071354 
1614.418992  	0.069502 
1616.347808  	0.070959 
1618.276624  	0.073529 
1620.205440  	0.073076 
1622.134256  	0.073738 
1624.063072  	0.079074 
1625.991888  	0.081728 
1627.920704  	0.086019 
1629.849520  	0.090727 
1631.778336  	0.093360 
1633.707152  	0.094941 
1635.635968  	0.102906 
1637.564784  	0.111179 
1639.493600  	0.111868 
1641.422416  	0.113713 
1643.351232  	0.114840 
1645.280048  	0.114681 
1647.208864  	0.120731 
1649.137680  	0.121214 
1651.066496  	0.115811 
1652.995312  	0.118379 
1654.924128  	0.125392 
1656.852944  	0.120187 
1658.781760  	0.117500 
1660.710576  	0.115514 
1662.639392  	0.115373 
1664.568208  	0.113854 
1666.497024  	0.109447 
1668.425840  	0.106098 
1670.354656  	0.105172 
1672.283472  	0.102104 
1674.212288  	0.098711 
1676.141104  	0.098458 
1678.069920  	0.095662 
1679.998736  	0.093744 
1681.927552  	0.091316 
1683.856368  	0.091568 
1685.785184  	0.094672 
1687.714000  	0.091322 
1689.642816  	0.090951 
1691.571632  	0.090346 
1693.500448  	0.087792 
1695.429264  	0.087459 
1697.358080  	0.089204 
1699.286896  	0.086418 
1701.215712  	0.089445 
1703.144528  	0.086526 
1705.073344  	0.084697 
1707.002160  	0.083759 
1708.930976  	0.080853 
1710.859792  	0.077607 
1712.788608  	0.073625 
1714.717424  	0.068874 
1716.646240  	0.063850 
1718.575056  	0.058011 
1720.503872  	0.051449 
1722.432688  	0.045083 
1724.361504  	0.038923 
1726.290320  	0.033484 
1728.219136  	0.028942 
1730.147952  	0.025224 
1732.076768  	0.021683 
1734.005584  	0.019121 
1735.934400  	0.016884 
1737.863216  	0.014789 
1739.792032  	0.013067 
1741.720848  	0.011607 
1743.649664  	0.010553 
1745.578480  	0.009598 
1747.507296  	0.008594 
1749.436112  	0.008379 
1751.364928  	0.007909 
1753.293744  	0.007079 
1755.222560  	0.006238 
1757.151376  	0.006602 
1759.080192  	0.006112 
1761.009008  	0.005530 
1762.937824  	0.005321 
1764.866640  	0.004888 
1766.795456  	0.004539 
1768.724272  	0.004662 
1770.653088  	0.004066 
1772.581904  	0.004812 
1774.510720  	0.004962 
1776.439536  	0.004320 
1778.368352  	0.003413 
1780.297168  	0.003179 
1782.225984  	0.003009 
1784.154800  	0.002894 
1786.083616  	0.002637 
1788.012432  	0.002385 
1789.941248  	0.002425 
1791.870064  	0.003029 
1793.798880  	0.002872 
1795.727696  	0.002493 
1797.656512  	0.002035 
1799.585328  	0.001740 
1801.514144  	0.001884 
1803.442960  	0.002119 
1805.371776  	0.002085 
1807.300592  	0.001710 
1809.229408  	0.001363 
1811.158224  	0.001323 
1813.087040  	0.001086 
1815.015856  	0.000881 
1816.944672  	0.001191 
1818.873488  	0.001441 
1820.802304  	0.001597 
1822.731120  	0.001487 
1824.659936  	0.001001 
1826.588752  	0.001159 
1828.517568  	0.000862 
1830.446384  	0.000978 
1832.375200  	0.000756 
1834.304016  	0.000703 
1836.232832  	0.000807 
1838.161648  	0.001048 
1840.090464  	0.000818 
1842.019280  	0.000152 
1843.948096  	0.000018 
1845.876912  	0.000367 
1847.805728  	0.000053 
1849.734544  	0.000325 
1851.663360  	0.000516 
1853.592176  	0.000692 
1855.520992  	0.000783 
1857.449808  	0.000596 
1859.378624  	0.000082 
1861.307440  	0.000207 
1863.236256  	-0.000122 
1865.165072  	-0.000306 
1867.093888  	-0.000300 
1869.022704  	0.000595 
1870.951520  	0.000709 
1872.880336  	0.000537 
1874.809152  	0.000117 
1876.737968  	-0.000267 
1878.666784  	-0.000495 
1880.595600  	-0.000726 
1882.524416  	-0.000435 
1884.453232  	-0.000158 
1886.382048  	-0.000615 
1888.310864  	-0.000492 
1890.239680  	-0.000366 
1892.168496  	-0.000128 
1894.097312  	-0.000105 
1896.026128  	-0.000635 
1897.954944  	-0.000914 
1899.883760  	-0.000567 
1901.812576  	-0.000709 
1903.741392  	-0.001008 
1905.670208  	-0.001439 
1907.599024  	-0.001782 
1909.527840  	-0.001675 
1911.456656  	-0.000678 
1913.385472  	-0.000114 
1915.314288  	-0.000381 
1917.243104  	-0.000923 
1919.171920  	-0.000341 
1921.100736  	-0.000394 
1923.029552  	-0.000809 
1924.958368  	-0.001330 
1926.887184  	-0.001208 
1928.816000  	-0.001739 
1930.744816  	-0.001490 
1932.673632  	-0.001089 
1934.602448  	-0.001169 
1936.531264  	-0.001072 
1938.460080  	-0.000609 
1940.388896  	-0.000787 
1942.317712  	-0.000981 
1944.246528  	-0.001342 
1946.175344  	-0.000807 
1948.104160  	-0.000416 
1950.032976  	-0.000426 
1951.961792  	-0.000653 
1953.890608  	-0.001102 
1955.819424  	-0.002159 
1957.748240  	-0.002273 
1959.677056  	-0.002575 
1961.605872  	-0.002211 
1963.534688  	-0.001298 
1965.463504  	0.000135 
1967.392320  	-0.000322 
1969.321136  	-0.000800 
1971.249952  	-0.001998 
1973.178768  	-0.001858 
1975.107584  	-0.001210 
1977.036400  	-0.000875 
1978.965216  	-0.000411 
1980.894032  	-0.000185 
1982.822848  	-0.000545 
1984.751664  	-0.000393 
1986.680480  	-0.000573 
1988.609296  	0.000121 
1990.538112  	0.001140 
1992.466928  	0.001300 
1994.395744  	-0.000048 
1996.324560  	-0.000518 
1998.253376  	-0.000828 
2000.182192  	-0.000820 
2002.111008  	-0.001079 
2004.039824  	-0.000760 
2005.968640  	-0.001135 
2007.897456  	-0.000934 
2009.826272  	-0.000682 
2011.755088  	0.000037 
2013.683904  	0.000230 
2015.612720  	0.000173 
2017.541536  	-0.000093 
2019.470352  	-0.000038 
2021.399168  	-0.000973 
2023.327984  	-0.000649 
2025.256800  	-0.000233 
2027.185616  	0.000405 
2029.114432  	0.000191 
2031.043248  	-0.000449 
2032.972064  	0.000088 
2034.900880  	0.000754 
2036.829696  	0.000974 
2038.758512  	0.001808 
2040.687328  	0.000573 
2042.616144  	0.000884 
2044.544960  	0.001453 
2046.473776  	0.001614 
2048.402592  	0.002581 
2050.331408  	0.003001 
2052.260224  	0.002511 
2054.189040  	0.001703 
2056.117856  	0.000770 
2058.046672  	0.001310 
2059.975488  	0.001352 
2061.904304  	0.001350 
2063.833120  	0.001290 
2065.761936  	0.001704 
2067.690752  	0.001849 
2069.619568  	0.001691 
2071.548384  	0.001252 
2073.477200  	0.001469 
2075.406016  	0.001832 
2077.334832  	0.002225 
2079.263648  	0.002392 
2081.192464  	0.002785 
2083.121280  	0.002575 
2085.050096  	0.002317 
2086.978912  	0.001870 
2088.907728  	0.001877 
2090.836544  	0.002214 
2092.765360  	0.002566 
2094.694176  	0.002510 
2096.622992  	0.002716 
2098.551808  	0.002508 
2100.480624  	0.002435 
2102.409440  	0.002447 
2104.338256  	0.002729 
2106.267072  	0.002570 
2108.195888  	0.002704 
2110.124704  	0.002856 
2112.053520  	0.003024 
2113.982336  	0.002853 
2115.911152  	0.002645 
2117.839968  	0.002207 
2119.768784  	0.002183 
2121.697600  	0.002217 
2123.626416  	0.002220 
2125.555232  	0.002289 
2127.484048  	0.002151 
2129.412864  	0.001749 
2131.341680  	0.001438 
2133.270496  	0.001863 
2135.199312  	0.002688 
2137.128128  	0.002961 
2139.056944  	0.003727 
2140.985760  	0.004073 
2142.914576  	0.004457 
2144.843392  	0.003897 
2146.772208  	0.003456 
2148.701024  	0.003343 
2150.629840  	0.002809 
2152.558656  	0.002764 
2154.487472  	0.003675 
2156.416288  	0.004018 
2158.345104  	0.006192 
2160.273920  	0.008822 
2162.202736  	0.008025 
2164.131552  	0.006283 
2166.060368  	0.006626 
2167.989184  	0.006620 
2169.918000  	0.005461 
2171.846816  	0.005573 
2173.775632  	0.006385 
2175.704448  	0.005879 
2177.633264  	0.005406 
2179.562080  	0.004745 
2181.490896  	0.004495 
2183.419712  	0.004670 
2185.348528  	0.004659 
2187.277344  	0.004291 
2189.206160  	0.004388 
2191.134976  	0.004649 
2193.063792  	0.003860 
2194.992608  	0.003338 
2196.921424  	0.003499 
2198.850240  	0.002102 
2200.779056  	0.001915 
2202.707872  	0.002461 
2204.636688  	0.003366 
2206.565504  	0.003091 
2208.494320  	0.002423 
2210.423136  	0.002212 
2212.351952  	0.002778 
2214.280768  	0.002898 
2216.209584  	0.002734 
2218.138400  	0.001704 
2220.067216  	0.001676 
2221.996032  	0.002046 
2223.924848  	0.002772 
2225.853664  	0.003216 
2227.782480  	0.003243 
2229.711296  	0.002195 
2231.640112  	0.001942 
2233.568928  	0.001940 
2235.497744  	0.001650 
2237.426560  	0.001644 
2239.355376  	0.001801 
2241.284192  	0.001234 
2243.213008  	0.001341 
2245.141824  	0.001552 
2247.070640  	0.001399 
2248.999456  	0.001474 
2250.928272  	0.001731 
2252.857088  	0.001950 
2254.785904  	0.002596 
2256.714720  	0.002827 
2258.643536  	0.002912 
2260.572352  	0.003192 
2262.501168  	0.003232 
2264.429984  	0.003495 
2266.358800  	0.003512 
2268.287616  	0.003150 
2270.216432  	0.003183 
2272.145248  	0.003262 
2274.074064  	0.003583 
2276.002880  	0.003587 
2277.931696  	0.003581 
2279.860512  	0.003340 
2281.789328  	0.003227 
2283.718144  	0.003174 
2285.646960  	0.003494 
2287.575776  	0.003180 
2289.504592  	0.003053 
2291.433408  	0.003123 
2293.362224  	0.003283 
2295.291040  	0.002998 
2297.219856  	0.002842 
2299.148672  	0.002913 
2301.077488  	0.002984 
2303.006304  	0.003103 
2304.935120  	0.003250 
2306.863936  	0.002866 
2308.792752  	0.002657 
2310.721568  	0.002594 
2312.650384  	0.002501 
2314.579200  	0.002363 
2316.508016  	0.002531 
2318.436832  	0.002659 
2320.365648  	0.002851 
2322.294464  	0.002901 
2324.223280  	0.002589 
2326.152096  	0.001651 
2328.080912  	0.000904 
2330.009728  	0.000787 
2331.938544  	0.001034 
2333.867360  	0.001125 
2335.796176  	0.000960 
2337.724992  	0.000686 
2339.653808  	0.000706 
2341.582624  	0.001015 
2343.511440  	0.001437 
2345.440256  	0.001838 
2347.369072  	0.002032 
2349.297888  	0.001549 
2351.226704  	0.000894 
2353.155520  	0.000327 
2355.084336  	0.000389 
2357.013152  	0.000706 
2358.941968  	0.000543 
2360.870784  	0.000337 
2362.799600  	0.000397 
2364.728416  	0.000773 
2366.657232  	0.000963 
2368.586048  	0.001214 
2370.514864  	0.001692 
2372.443680  	0.001958 
2374.372496  	0.002329 
2376.301312  	0.002422 
2378.230128  	0.002338 
2380.158944  	0.002293 
2382.087760  	0.002459 
2384.016576  	0.002400 
2385.945392  	0.002342 
2387.874208  	0.002411 
2389.803024  	0.002299 
2391.731840  	0.002087 
2393.660656  	0.002081 
2395.589472  	0.002243 
2397.518288  	0.002372 
2399.447104  	0.002187 
2401.375920  	0.002087 
2403.304736  	0.001993 
2405.233552  	0.002018 
2407.162368  	0.002061 
2409.091184  	0.002138 
2411.020000  	0.002034 
2412.948816  	0.001855 
2414.877632  	0.001929 
2416.806448  	0.002232 
2418.735264  	0.002336 
2420.664080  	0.002333 
2422.592896  	0.002282 
2424.521712  	0.002330 
2426.450528  	0.002376 
2428.379344  	0.002317 
2430.308160  	0.002473 
2432.236976  	0.002512 
2434.165792  	0.002567 
2436.094608  	0.002751 
2438.023424  	0.002866 
2439.952240  	0.003008 
2441.881056  	0.002959 
2443.809872  	0.002891 
2445.738688  	0.003004 
2447.667504  	0.003087 
2449.596320  	0.003180 
2451.525136  	0.003330 
2453.453952  	0.003248 
2455.382768  	0.003272 
2457.311584  	0.003307 
2459.240400  	0.003320 
2461.169216  	0.003467 
2463.098032  	0.003560 
2465.026848  	0.003512 
2466.955664  	0.003488 
2468.884480  	0.003274 
2470.813296  	0.003148 
2472.742112  	0.003385 
2474.670928  	0.003624 
2476.599744  	0.003949 
2478.528560  	0.004394 
2480.457376  	0.004535 
2482.386192  	0.004528 
2484.315008  	0.004281 
2486.243824  	0.004242 
2488.172640  	0.004509 
2490.101456  	0.004678 
2492.030272  	0.004570 
2493.959088  	0.004444 
2495.887904  	0.004417 
2497.816720  	0.004430 
2499.745536  	0.004508 
2501.674352  	0.004615 
2503.603168  	0.004637 
2505.531984  	0.004597 
2507.460800  	0.004388 
2509.389616  	0.004340 
2511.318432  	0.004497 
2513.247248  	0.004710 
2515.176064  	0.004836 
2517.104880  	0.004677 
2519.033696  	0.004657 
2520.962512  	0.004829 
2522.891328  	0.004973 
2524.820144  	0.005278 
2526.748960  	0.005367 
2528.677776  	0.005453 
2530.606592  	0.005535 
2532.535408  	0.005854 
2534.464224  	0.006086 
2536.393040  	0.005965 
2538.321856  	0.005720 
2540.250672  	0.005711 
2542.179488  	0.005986 
2544.108304  	0.006087 
2546.037120  	0.006077 
2547.965936  	0.006081 
2549.894752  	0.006347 
2551.823568  	0.006618 
2553.752384  	0.006679 
2555.681200  	0.006537 
2557.610016  	0.006386 
2559.538832  	0.006468 
2561.467648  	0.006715 
2563.396464  	0.006764 
2565.325280  	0.006627 
2567.254096  	0.006538 
2569.182912  	0.006507 
2571.111728  	0.006718 
2573.040544  	0.006806 
2574.969360  	0.006929 
2576.898176  	0.007157 
2578.826992  	0.007159 
2580.755808  	0.007103 
2582.684624  	0.007201 
2584.613440  	0.007275 
2586.542256  	0.007447 
2588.471072  	0.007309 
2590.399888  	0.007299 
2592.328704  	0.007638 
2594.257520  	0.007951 
2596.186336  	0.007897 
2598.115152  	0.007770 
2600.043968  	0.007852 
2601.972784  	0.007932 
2603.901600  	0.007980 
2605.830416  	0.007908 
2607.759232  	0.007770 
2609.688048  	0.007836 
2611.616864  	0.008028 
2613.545680  	0.008123 
2615.474496  	0.008297 
2617.403312  	0.008444 
2619.332128  	0.008406 
2621.260944  	0.008321 
2623.189760  	0.008359 
2625.118576  	0.008535 
2627.047392  	0.008547 
2628.976208  	0.008755 
2630.905024  	0.008926 
2632.833840  	0.008930 
2634.762656  	0.008860 
2636.691472  	0.008973 
2638.620288  	0.009095 
2640.549104  	0.009262 
2642.477920  	0.009501 
2644.406736  	0.009542 
2646.335552  	0.009523 
2648.264368  	0.009684 
2650.193184  	0.009778 
2652.122000  	0.009848 
2654.050816  	0.009943 
2655.979632  	0.009940 
2657.908448  	0.009993 
2659.837264  	0.010040 
2661.766080  	0.010022 
2663.694896  	0.010083 
2665.623712  	0.010186 
2667.552528  	0.010319 
2669.481344  	0.010390 
2671.410160  	0.010443 
2673.338976  	0.010487 
2675.267792  	0.010595 
2677.196608  	0.010781 
2679.125424  	0.010901 
2681.054240  	0.010940 
2682.983056  	0.011021 
2684.911872  	0.011066 
2686.840688  	0.011139 
2688.769504  	0.011174 
2690.698320  	0.011349 
2692.627136  	0.011465 
2694.555952  	0.011444 
2696.484768  	0.011569 
2698.413584  	0.011745 
2700.342400  	0.011795 
2702.271216  	0.011828 
2704.200032  	0.011875 
2706.128848  	0.012025 
2708.057664  	0.012191 
2709.986480  	0.012264 
2711.915296  	0.012328 
2713.844112  	0.012397 
2715.772928  	0.012394 
2717.701744  	0.012430 
2719.630560  	0.012578 
2721.559376  	0.012631 
2723.488192  	0.012670 
2725.417008  	0.012836 
2727.345824  	0.013028 
2729.274640  	0.013160 
2731.203456  	0.013178 
2733.132272  	0.013192 
2735.061088  	0.013212 
2736.989904  	0.013215 
2738.918720  	0.013351 
2740.847536  	0.013451 
2742.776352  	0.013589 
2744.705168  	0.013682 
2746.633984  	0.013759 
2748.562800  	0.013897 
2750.491616  	0.013906 
2752.420432  	0.013899 
2754.349248  	0.013861 
2756.278064  	0.013909 
2758.206880  	0.013852 
2760.135696  	0.013920 
2762.064512  	0.013986 
2763.993328  	0.014035 
2765.922144  	0.014073 
2767.850960  	0.014089 
2769.779776  	0.014037 
2771.708592  	0.014093 
2773.637408  	0.014123 
2775.566224  	0.014085 
2777.495040  	0.013994 
2779.423856  	0.014012 
2781.352672  	0.014142 
2783.281488  	0.014220 
2785.210304  	0.014264 
2787.139120  	0.014354 
2789.067936  	0.014216 
2790.996752  	0.014141 
2792.925568  	0.014183 
2794.854384  	0.014191 
2796.783200  	0.014162 
2798.712016  	0.014115 
2800.640832  	0.014121 
2802.569648  	0.014250 
2804.498464  	0.014345 
2806.427280  	0.014439 
2808.356096  	0.014575 
2810.284912  	0.014568 
2812.213728  	0.014517 
2814.142544  	0.014624 
2816.071360  	0.014605 
2818.000176  	0.014670 
2819.928992  	0.014803 
2821.857808  	0.014819 
2823.786624  	0.014740 
2825.715440  	0.014775 
2827.644256  	0.014827 
2829.573072  	0.014817 
2831.501888  	0.014855 
2833.430704  	0.014871 
2835.359520  	0.014760 
2837.288336  	0.014736 
2839.217152  	0.014824 
2841.145968  	0.014768 
2843.074784  	0.014764 
2845.003600  	0.014816 
2846.932416  	0.014697 
2848.861232  	0.014829 
2850.790048  	0.014906 
2852.718864  	0.014914 
2854.647680  	0.014992 
2856.576496  	0.015032 
2858.505312  	0.015012 
2860.434128  	0.015084 
2862.362944  	0.015159 
2864.291760  	0.015217 
2866.220576  	0.015280 
2868.149392  	0.015368 
2870.078208  	0.015452 
2872.007024  	0.015572 
2873.935840  	0.015731 
2875.864656  	0.015893 
2877.793472  	0.016077 
2879.722288  	0.016362 
2881.651104  	0.016496 
2883.579920  	0.016745 
2885.508736  	0.017046 
2887.437552  	0.017067 
2889.366368  	0.016961 
2891.295184  	0.016992 
2893.224000  	0.016983 
2895.152816  	0.016988 
2897.081632  	0.016977 
2899.010448  	0.016773 
2900.939264  	0.016521 
2902.868080  	0.016633 
2904.796896  	0.016866 
2906.725712  	0.017062 
2908.654528  	0.017283 
2910.583344  	0.017414 
2912.512160  	0.017497 
2914.440976  	0.017819 
2916.369792  	0.018328 
2918.298608  	0.018660 
2920.227424  	0.018847 
2922.156240  	0.019097 
2924.085056  	0.019459 
2926.013872  	0.019720 
2927.942688  	0.020238 
2929.871504  	0.020762 
2931.800320  	0.021027 
2933.729136  	0.021462 
2935.657952  	0.021920 
2937.586768  	0.022301 
2939.515584  	0.022519 
2941.444400  	0.022623 
2943.373216  	0.022771 
2945.302032  	0.023042 
2947.230848  	0.023239 
2949.159664  	0.023190 
2951.088480  	0.023001 
2953.017296  	0.022882 
2954.946112  	0.022731 
2956.874928  	0.022607 
2958.803744  	0.022346 
2960.732560  	0.022181 
2962.661376  	0.022060 
2964.590192  	0.021805 
2966.519008  	0.021567 
2968.447824  	0.021268 
2970.376640  	0.021029 
2972.305456  	0.020795 
2974.234272  	0.020814 
2976.163088  	0.020938 
2978.091904  	0.020856 
2980.020720  	0.020705 
2981.949536  	0.020588 
2983.878352  	0.020545 
2985.807168  	0.020439 
2987.735984  	0.020361 
2989.664800  	0.020500 
2991.593616  	0.020937 
2993.522432  	0.021200 
2995.451248  	0.021339 
2997.380064  	0.021634 
2999.308880  	0.022053 
3001.237696  	0.022391 
3003.166512  	0.022695 
3005.095328  	0.022987 
3007.024144  	0.023326 
3008.952960  	0.023665 
3010.881776  	0.024019 
3012.810592  	0.024500 
3014.739408  	0.025065 
3016.668224  	0.025369 
3018.597040  	0.025628 
3020.525856  	0.026041 
3022.454672  	0.026298 
3024.383488  	0.026666 
3026.312304  	0.027147 
3028.241120  	0.027331 
3030.169936  	0.027653 
3032.098752  	0.028221 
3034.027568  	0.028418 
3035.956384  	0.028646 
3037.885200  	0.029049 
3039.814016  	0.029447 
3041.742832  	0.029781 
3043.671648  	0.030203 
3045.600464  	0.030668 
3047.529280  	0.030962 
3049.458096  	0.031223 
3051.386912  	0.031452 
3053.315728  	0.031771 
3055.244544  	0.032095 
3057.173360  	0.032622 
3059.102176  	0.033290 
3061.030992  	0.033683 
3062.959808  	0.033908 
3064.888624  	0.034407 
3066.817440  	0.035033 
3068.746256  	0.035620 
3070.675072  	0.036034 
3072.603888  	0.036327 
3074.532704  	0.036858 
3076.461520  	0.037393 
3078.390336  	0.037840 
3080.319152  	0.038312 
3082.247968  	0.038670 
3084.176784  	0.039124 
3086.105600  	0.039843 
3088.034416  	0.040416 
3089.963232  	0.040622 
3091.892048  	0.040826 
3093.820864  	0.041187 
3095.749680  	0.041946 
3097.678496  	0.042659 
3099.607312  	0.043139 
3101.536128  	0.043679 
3103.464944  	0.044203 
3105.393760  	0.044598 
3107.322576  	0.045093 
3109.251392  	0.045562 
3111.180208  	0.045831 
3113.109024  	0.046120 
3115.037840  	0.046698 
3116.966656  	0.047326 
3118.895472  	0.047771 
3120.824288  	0.048129 
3122.753104  	0.048696 
3124.681920  	0.049064 
3126.610736  	0.049357 
3128.539552  	0.049602 
3130.468368  	0.049814 
3132.397184  	0.050344 
3134.326000  	0.050718 
3136.254816  	0.050978 
3138.183632  	0.051466 
3140.112448  	0.051906 
3142.041264  	0.052393 
3143.970080  	0.052818 
3145.898896  	0.053194 
3147.827712  	0.053478 
3149.756528  	0.053963 
3151.685344  	0.054468 
3153.614160  	0.054862 
3155.542976  	0.055308 
3157.471792  	0.055719 
3159.400608  	0.056069 
3161.329424  	0.056509 
3163.258240  	0.057043 
3165.187056  	0.057427 
3167.115872  	0.057595 
3169.044688  	0.058009 
3170.973504  	0.058389 
3172.902320  	0.058538 
3174.831136  	0.058724 
3176.759952  	0.059198 
3178.688768  	0.059764 
3180.617584  	0.059889 
3182.546400  	0.059933 
3184.475216  	0.060247 
3186.404032  	0.060502 
3188.332848  	0.060610 
3190.261664  	0.060618 
3192.190480  	0.060683 
3194.119296  	0.060900 
3196.048112  	0.060891 
3197.976928  	0.061084 
3199.905744  	0.061199 
3201.834560  	0.061162 
3203.763376  	0.061121 
3205.692192  	0.060939 
3207.621008  	0.060916 
3209.549824  	0.061026 
3211.478640  	0.060841 
3213.407456  	0.060654 
3215.336272  	0.060823 
3217.265088  	0.060812 
3219.193904  	0.060911 
3221.122720  	0.060932 
3223.051536  	0.060668 
3224.980352  	0.060529 
3226.909168  	0.060589 
3228.837984  	0.060442 
3230.766800  	0.060361 
3232.695616  	0.060485 
3234.624432  	0.060427 
3236.553248  	0.060640 
3238.482064  	0.060764 
3240.410880  	0.060409 
3242.339696  	0.060265 
3244.268512  	0.060447 
3246.197328  	0.060719 
3248.126144  	0.060604 
3250.054960  	0.060621 
3251.983776  	0.060751 
3253.912592  	0.061010 
3255.841408  	0.061121 
3257.770224  	0.061017 
3259.699040  	0.061191 
3261.627856  	0.061354 
3263.556672  	0.061386 
3265.485488  	0.061648 
3267.414304  	0.061884 
3269.343120  	0.061945 
3271.271936  	0.061895 
3273.200752  	0.062113 
3275.129568  	0.062256 
3277.058384  	0.062421 
3278.987200  	0.062537 
3280.916016  	0.062573 
3282.844832  	0.062545 
3284.773648  	0.062639 
3286.702464  	0.062816 
3288.631280  	0.063068 
3290.560096  	0.063138 
3292.488912  	0.063198 
3294.417728  	0.063254 
3296.346544  	0.063478 
3298.275360  	0.063779 
3300.204176  	0.063886 
3302.132992  	0.063844 
3304.061808  	0.064094 
3305.990624  	0.064315 
3307.919440  	0.064554 
3309.848256  	0.064817 
3311.777072  	0.064919 
3313.705888  	0.065254 
3315.634704  	0.065484 
3317.563520  	0.065499 
3319.492336  	0.065581 
3321.421152  	0.065905 
3323.349968  	0.066136 
3325.278784  	0.066092 
3327.207600  	0.066107 
3329.136416  	0.066118 
3331.065232  	0.066184 
3332.994048  	0.066275 
3334.922864  	0.066367 
3336.851680  	0.066502 
3338.780496  	0.066539 
3340.709312  	0.066316 
3342.638128  	0.066438 
3344.566944  	0.066380 
3346.495760  	0.066036 
3348.424576  	0.065787 
3350.353392  	0.065887 
3352.282208  	0.065795 
3354.211024  	0.065413 
3356.139840  	0.065233 
3358.068656  	0.065226 
3359.997472  	0.065034 
3361.926288  	0.064786 
3363.855104  	0.064503 
3365.783920  	0.064369 
3367.712736  	0.064265 
3369.641552  	0.064101 
3371.570368  	0.063803 
3373.499184  	0.063668 
3375.428000  	0.063544 
3377.356816  	0.063334 
3379.285632  	0.063126 
3381.214448  	0.062672 
3383.143264  	0.062519 
3385.072080  	0.062504 
3387.000896  	0.062006 
3388.929712  	0.061693 
3390.858528  	0.061528 
3392.787344  	0.061647 
3394.716160  	0.061453 
3396.644976  	0.061231 
3398.573792  	0.061053 
3400.502608  	0.060434 
3402.431424  	0.059915 
3404.360240  	0.059625 
3406.289056  	0.059315 
3408.217872  	0.058962 
3410.146688  	0.058657 
3412.075504  	0.058371 
3414.004320  	0.058153 
3415.933136  	0.057896 
3417.861952  	0.057519 
3419.790768  	0.057190 
3421.719584  	0.057169 
3423.648400  	0.056735 
3425.577216  	0.056090 
3427.506032  	0.055842 
3429.434848  	0.055556 
3431.363664  	0.055252 
3433.292480  	0.054854 
3435.221296  	0.054439 
3437.150112  	0.053896 
3439.078928  	0.053487 
3441.007744  	0.053077 
3442.936560  	0.052753 
3444.865376  	0.051841 
3446.794192  	0.051837 
3448.723008  	0.052196 
3450.651824  	0.051427 
3452.580640  	0.050708 
3454.509456  	0.050191 
3456.438272  	0.049698 
3458.367088  	0.049162 
3460.295904  	0.048794 
3462.224720  	0.048544 
3464.153536  	0.047918 
3466.082352  	0.047149 
3468.011168  	0.046811 
3469.939984  	0.046416 
3471.868800  	0.045692 
3473.797616  	0.044927 
3475.726432  	0.044551 
3477.655248  	0.043819 
3479.584064  	0.043004 
3481.512880  	0.042897 
3483.441696  	0.042770 
3485.370512  	0.041742 
3487.299328  	0.041010 
3489.228144  	0.040486 
3491.156960  	0.039721 
3493.085776  	0.039290 
3495.014592  	0.038985 
3496.943408  	0.038489 
3498.872224  	0.037725 
3500.801040  	0.036989 
3502.729856  	0.036999 
3504.658672  	0.037072 
3506.587488  	0.035868 
3508.516304  	0.035127 
3510.445120  	0.035285 
3512.373936  	0.034851 
3514.302752  	0.034287 
3516.231568  	0.033759 
3518.160384  	0.033050 
3520.089200  	0.032414 
3522.018016  	0.031765 
3523.946832  	0.031774 
3525.875648  	0.031270 
3527.804464  	0.030780 
3529.733280  	0.030760 
3531.662096  	0.030283 
3533.590912  	0.029132 
3535.519728  	0.028585 
3537.448544  	0.028721 
3539.377360  	0.028252 
3541.306176  	0.027509 
3543.234992  	0.026868 
3545.163808  	0.026762 
3547.092624  	0.026712 
3549.021440  	0.025744 
3550.950256  	0.024832 
3552.879072  	0.024915 
3554.807888  	0.024382 
3556.736704  	0.023692 
3558.665520  	0.023265 
3560.594336  	0.022888 
3562.523152  	0.022345 
3564.451968  	0.021381 
3566.380784  	0.021479 
3568.309600  	0.022752 
3570.238416  	0.021573 
3572.167232  	0.020232 
3574.096048  	0.019578 
3576.024864  	0.019227 
3577.953680  	0.018749 
3579.882496  	0.018225 
3581.811312  	0.017614 
3583.740128  	0.016653 
3585.668944  	0.015736 
3587.597760  	0.016703 
3589.526576  	0.016663 
3591.455392  	0.014858 
3593.384208  	0.014261 
3595.313024  	0.014445 
3597.241840  	0.013909 
3599.170656  	0.012862 
3601.099472  	0.012663 
3603.028288  	0.012030 
3604.957104  	0.010778 
3606.885920  	0.010468 
3608.814736  	0.011039 
3610.743552  	0.009862 
3612.672368  	0.009103 
3614.601184  	0.009087 
3616.530000  	0.008106 
3618.458816  	0.007965 
3620.387632  	0.008293 
3622.316448  	0.007106 
3624.245264  	0.005888 
3626.174080  	0.004678 
3628.102896  	0.004174 
3630.031712  	0.005967 
3631.960528  	0.004678 
3633.889344  	0.003783 
3635.818160  	0.003309 
3637.746976  	0.002531 
3639.675792  	0.002037 
3641.604608  	0.001459 
3643.533424  	0.000795 
3645.462240  	-0.000348 
3647.391056  	-0.000404 
3649.319872  	0.000772 
3651.248688  	0.001370 
3653.177504  	-0.000454 
3655.106320  	-0.001731 
3657.035136  	-0.001531 
3658.963952  	-0.002005 
3660.892768  	-0.002530 
3662.821584  	-0.003258 
3664.750400  	-0.003662 
3666.679216  	-0.003769 
3668.608032  	-0.003800 
3670.536848  	-0.002907 
3672.465664  	-0.003912 
3674.394480  	-0.004681 
3676.323296  	-0.003218 
3678.252112  	-0.003842 
3680.180928  	-0.004413 
3682.109744  	-0.004834 
3684.038560  	-0.005240 
3685.967376  	-0.005730 
3687.896192  	-0.005137 
3689.825008  	-0.003880 
3691.753824  	-0.004235 
3693.682640  	-0.005094 
3695.611456  	-0.005586 
3697.540272  	-0.005673 
3699.469088  	-0.006248 
3701.397904  	-0.005732 
3703.326720  	-0.004811 
3705.255536  	-0.004972 
3707.184352  	-0.005165 
3709.113168  	-0.005033 
3711.041984  	-0.004501 
3712.970800  	-0.004346 
3714.899616  	-0.005108 
3716.828432  	-0.005552 
3718.757248  	-0.005665 
3720.686064  	-0.005728 
3722.614880  	-0.005539 
3724.543696  	-0.005210 
3726.472512  	-0.004582 
3728.401328  	-0.005012 
3730.330144  	-0.006125 
3732.258960  	-0.006457 
3734.187776  	-0.005541 
3736.116592  	-0.003809 
3738.045408  	-0.004041 
3739.974224  	-0.004990 
3741.903040  	-0.005952 
3743.831856  	-0.006207 
3745.760672  	-0.004948 
3747.689488  	-0.005859 
3749.618304  	-0.005243 
3751.547120  	-0.003771 
3753.475936  	-0.004088 
3755.404752  	-0.004820 
3757.333568  	-0.005080 
3759.262384  	-0.005138 
3761.191200  	-0.005240 
3763.120016  	-0.005794 
3765.048832  	-0.005504 
3766.977648  	-0.005154 
3768.906464  	-0.005229 
3770.835280  	-0.004967 
3772.764096  	-0.005159 
3774.692912  	-0.005407 
3776.621728  	-0.005548 
3778.550544  	-0.005398 
3780.479360  	-0.005127 
3782.408176  	-0.005488 
3784.336992  	-0.005503 
3786.265808  	-0.005307 
3788.194624  	-0.005403 
3790.123440  	-0.005362 
3792.052256  	-0.005455 
3793.981072  	-0.005902 
3795.909888  	-0.005494 
3797.838704  	-0.005044 
3799.767520  	-0.005512 
3801.696336  	-0.004310 
3803.625152  	-0.004710 
3805.553968  	-0.005716 
3807.482784  	-0.005142 
3809.411600  	-0.005062 
3811.340416  	-0.005515 
3813.269232  	-0.005933 
3815.198048  	-0.005482 
3817.126864  	-0.004577 
3819.055680  	-0.005540 
3820.984496  	-0.005264 
3822.913312  	-0.004727 
3824.842128  	-0.005375 
3826.770944  	-0.005421 
3828.699760  	-0.005633 
3830.628576  	-0.005634 
3832.557392  	-0.005070 
3834.486208  	-0.005270 
3836.415024  	-0.005545 
3838.343840  	-0.005085 
3840.272656  	-0.004470 
3842.201472  	-0.004615 
3844.130288  	-0.004639 
3846.059104  	-0.004919 
3847.987920  	-0.005622 
3849.916736  	-0.006337 
3851.845552  	-0.006204 
3853.774368  	-0.003268 
3855.703184  	-0.003198 
3857.632000  	-0.004310 
3859.560816  	-0.005194 
3861.489632  	-0.005515 
3863.418448  	-0.005178 
3865.347264  	-0.004459 
3867.276080  	-0.005194 
3869.204896  	-0.005068 
3871.133712  	-0.004225 
3873.062528  	-0.005077 
3874.991344  	-0.005003 
3876.920160  	-0.005768 
3878.848976  	-0.006073 
3880.777792  	-0.005055 
3882.706608  	-0.004952 
3884.635424  	-0.005255 
3886.564240  	-0.004954 
3888.493056  	-0.005834 
3890.421872  	-0.005923 
3892.350688  	-0.005283 
3894.279504  	-0.005580 
3896.208320  	-0.006101 
3898.137136  	-0.006107 
3900.065952  	-0.005360 
3901.994768  	-0.005134 
3903.923584  	-0.004957 
3905.852400  	-0.004887 
3907.781216  	-0.005472 
3909.710032  	-0.005949 
3911.638848  	-0.006177 
3913.567664  	-0.006300 
3915.496480  	-0.006007 
3917.425296  	-0.005361 
3919.354112  	-0.005404 
3921.282928  	-0.005449 
3923.211744  	-0.005351 
3925.140560  	-0.005222 
3927.069376  	-0.005535 
3928.998192  	-0.005600 
3930.927008  	-0.005445 
3932.855824  	-0.005443 
3934.784640  	-0.005381 
3936.713456  	-0.005347 
3938.642272  	-0.005666 
3940.571088  	-0.005953 
3942.499904  	-0.005356 
3944.428720  	-0.005247 
3946.357536  	-0.005665 
3948.286352  	-0.005611 
3950.215168  	-0.005794 
3952.143984  	-0.006058 
3954.072800  	-0.006014 
3956.001616  	-0.005826 
3957.930432  	-0.005543 
3959.859248  	-0.005375 
3961.788064  	-0.005370 
3963.716880  	-0.005475 
3965.645696  	-0.005778 
3967.574512  	-0.006095 
3969.503328  	-0.006228 
3971.432144  	-0.006032 
3973.360960  	-0.005638 
3975.289776  	-0.005350 
3977.218592  	-0.005466 
3979.147408  	-0.005731 
3981.076224  	-0.005807 
3983.005040  	-0.005828 
3984.933856  	-0.005712 
3986.862672  	-0.005533 
3988.791488  	-0.005729 
3990.720304  	-0.005622 
3992.649120  	-0.005568 
3994.577936  	-0.005632 
3996.506752  	-0.005741 
3998.435568  	-0.005956 
4000.364384  	-0.005786 