##TITLE=No Description
##DATA TYPE=INFRARED SPECTRUM
##XUNITS=1/CM
##YUNITS=Abs
399.264912  	0.660174 
401.193728  	0.631075 
403.122544  	0.635101 
405.051360  	0.639472 
406.980176  	0.643734 
408.908992  	0.641430 
410.837808  	0.645115 
412.766624  	0.625786 
414.695440  	0.613606 
416.624256  	0.590372 
418.553072  	0.611489 
420.481888  	0.613256 
422.410704  	0.605351 
424.339520  	0.595852 
426.268336  	0.589436 
428.197152  	0.585789 
430.125968  	0.596680 
432.054784  	0.582476 
433.983600  	0.574774 
435.912416  	0.576553 
437.841232  	0.583471 
439.770048  	0.576428 
441.698864  	0.571718 
443.627680  	0.567678 
445.556496  	0.568114 
447.485312  	0.562378 
449.414128  	0.567767 
451.342944  	0.569944 
453.271760  	0.571132 
455.200576  	0.565229 
457.129392  	0.556456 
459.058208  	0.550076 
460.987024  	0.557529 
462.915840  	0.552884 
464.844656  	0.552262 
466.773472  	0.554878 
468.702288  	0.558238 
470.631104  	0.551418 
472.559920  	0.550525 
474.488736  	0.542920 
476.417552  	0.548738 
478.346368  	0.546422 
480.275184  	0.543077 
482.204000  	0.540209 
484.132816  	0.539606 
486.061632  	0.537425 
487.990448  	0.539711 
489.919264  	0.542107 
491.848080  	0.544451 
493.776896  	0.543933 
495.705712  	0.543349 
497.634528  	0.535657 
499.563344  	0.531450 
501.492160  	0.529300 
503.420976  	0.529092 
505.349792  	0.529224 
507.278608  	0.532386 
509.207424  	0.531232 
511.136240  	0.531666 
513.065056  	0.531511 
514.993872  	0.535113 
516.922688  	0.534941 
518.851504  	0.533554 
520.780320  	0.530940 
522.709136  	0.530695 
524.637952  	0.527502 
526.566768  	0.526382 
528.495584  	0.523258 
530.424400  	0.522420 
532.353216  	0.519661 
534.282032  	0.517065 
536.210848  	0.513125 
538.139664  	0.508332 
540.068480  	0.503282 
541.997296  	0.501813 
543.926112  	0.498769 
545.854928  	0.495735 
547.783744  	0.491721 
549.712560  	0.492205 
551.641376  	0.489000 
553.570192  	0.485855 
555.499008  	0.483632 
557.427824  	0.482517 
559.356640  	0.479577 
561.285456  	0.476804 
563.214272  	0.472518 
565.143088  	0.470578 
567.071904  	0.467145 
569.000720  	0.464332 
570.929536  	0.460435 
572.858352  	0.458660 
574.787168  	0.456515 
576.715984  	0.455887 
578.644800  	0.452359 
580.573616  	0.447276 
582.502432  	0.442955 
584.431248  	0.441074 
586.360064  	0.437718 
588.288880  	0.435288 
590.217696  	0.433002 
592.146512  	0.430994 
594.075328  	0.428537 
596.004144  	0.427193 
597.932960  	0.425403 
599.861776  	0.423211 
601.790592  	0.420305 
603.719408  	0.419209 
605.648224  	0.417920 
607.577040  	0.415899 
609.505856  	0.413319 
611.434672  	0.411667 
613.363488  	0.409154 
615.292304  	0.408456 
617.221120  	0.406075 
619.149936  	0.403515 
621.078752  	0.401522 
623.007568  	0.400347 
624.936384  	0.397972 
626.865200  	0.396767 
628.794016  	0.395271 
630.722832  	0.394338 
632.651648  	0.393595 
634.580464  	0.392303 
636.509280  	0.391286 
638.438096  	0.390420 
640.366912  	0.388301 
642.295728  	0.387245 
644.224544  	0.384676 
646.153360  	0.381199 
648.082176  	0.377760 
650.010992  	0.375286 
651.939808  	0.372134 
653.868624  	0.369216 
655.797440  	0.365439 
657.726256  	0.361801 
659.655072  	0.357940 
661.583888  	0.354320 
663.512704  	0.351225 
665.441520  	0.348863 
667.370336  	0.345294 
669.299152  	0.339757 
671.227968  	0.336333 
673.156784  	0.333679 
675.085600  	0.330476 
677.014416  	0.327425 
678.943232  	0.323737 
680.872048  	0.321362 
682.800864  	0.319504 
684.729680  	0.317584 
686.658496  	0.315511 
688.587312  	0.314181 
690.516128  	0.312282 
692.444944  	0.310206 
694.373760  	0.308004 
696.302576  	0.306200 
698.231392  	0.304026 
700.160208  	0.301812 
702.089024  	0.299006 
704.017840  	0.296204 
705.946656  	0.293504 
707.875472  	0.291530 
709.804288  	0.288986 
711.733104  	0.287000 
713.661920  	0.284818 
715.590736  	0.283009 
717.519552  	0.281181 
719.448368  	0.280042 
721.377184  	0.279284 
723.306000  	0.278779 
725.234816  	0.277654 
727.163632  	0.275655 
729.092448  	0.273179 
731.021264  	0.270534 
732.950080  	0.267546 
734.878896  	0.264565 
736.807712  	0.261616 
738.736528  	0.259307 
740.665344  	0.257048 
742.594160  	0.255348 
744.522976  	0.253459 
746.451792  	0.252038 
748.380608  	0.249924 
750.309424  	0.247981 
752.238240  	0.246488 
754.167056  	0.245448 
756.095872  	0.244060 
758.024688  	0.242343 
759.953504  	0.241067 
761.882320  	0.241004 
763.811136  	0.240421 
765.739952  	0.238200 
767.668768  	0.234913 
769.597584  	0.231971 
771.526400  	0.230115 
773.455216  	0.229772 
775.384032  	0.230542 
777.312848  	0.232446 
779.241664  	0.233810 
781.170480  	0.232408 
783.099296  	0.228034 
785.028112  	0.222896 
786.956928  	0.218295 
788.885744  	0.214379 
790.814560  	0.210908 
792.743376  	0.208745 
794.672192  	0.207238 
796.601008  	0.205799 
798.529824  	0.203062 
800.458640  	0.199306 
802.387456  	0.195820 
804.316272  	0.193484 
806.245088  	0.191780 
808.173904  	0.190318 
810.102720  	0.188779 
812.031536  	0.187874 
813.960352  	0.186883 
815.889168  	0.185738 
817.817984  	0.184898 
819.746800  	0.184490 
821.675616  	0.184078 
823.604432  	0.183164 
825.533248  	0.182342 
827.462064  	0.181935 
829.390880  	0.180573 
831.319696  	0.179065 
833.248512  	0.177614 
835.177328  	0.175651 
837.106144  	0.173105 
839.034960  	0.170703 
840.963776  	0.167651 
842.892592  	0.164449 
844.821408  	0.161362 
846.750224  	0.158471 
848.679040  	0.155943 
850.607856  	0.153928 
852.536672  	0.152087 
854.465488  	0.150714 
856.394304  	0.149665 
858.323120  	0.148070 
860.251936  	0.146428 
862.180752  	0.145186 
864.109568  	0.143276 
866.038384  	0.141406 
867.967200  	0.139553 
869.896016  	0.137879 
871.824832  	0.136732 
873.753648  	0.136192 
875.682464  	0.136115 
877.611280  	0.136427 
879.540096  	0.137018 
881.468912  	0.137962 
883.397728  	0.139094 
885.326544  	0.139915 
887.255360  	0.140041 
889.184176  	0.139762 
891.112992  	0.139080 
893.041808  	0.137848 
894.970624  	0.135871 
896.899440  	0.133032 
898.828256  	0.129615 
900.757072  	0.126256 
902.685888  	0.123203 
904.614704  	0.120944 
906.543520  	0.119632 
908.472336  	0.119647 
910.401152  	0.120256 
912.329968  	0.121191 
914.258784  	0.122289 
916.187600  	0.123596 
918.116416  	0.124538 
920.045232  	0.124986 
921.974048  	0.125063 
923.902864  	0.124991 
925.831680  	0.124848 
927.760496  	0.124764 
929.689312  	0.124653 
931.618128  	0.124879 
933.546944  	0.125037 
935.475760  	0.124679 
937.404576  	0.123786 
939.333392  	0.122734 
941.262208  	0.121919 
943.191024  	0.121847 
945.119840  	0.122740 
947.048656  	0.124640 
948.977472  	0.128037 
950.906288  	0.132725 
952.835104  	0.138600 
954.763920  	0.145687 
956.692736  	0.153114 
958.621552  	0.160289 
960.550368  	0.166090 
962.479184  	0.169976 
964.408000  	0.171042 
966.336816  	0.169328 
968.265632  	0.164763 
970.194448  	0.157734 
972.123264  	0.148747 
974.052080  	0.138852 
975.980896  	0.128815 
977.909712  	0.119303 
979.838528  	0.110867 
981.767344  	0.103754 
983.696160  	0.098324 
985.624976  	0.094568 
987.553792  	0.092954 
989.482608  	0.093297 
991.411424  	0.095277 
993.340240  	0.098726 
995.269056  	0.102801 
997.197872  	0.107302 
999.126688  	0.112076 
1001.055504  	0.117075 
1002.984320  	0.121623 
1004.913136  	0.126260 
1006.841952  	0.130695 
1008.770768  	0.134791 
1010.699584  	0.138266 
1012.628400  	0.141178 
1014.557216  	0.143818 
1016.486032  	0.145640 
1018.414848  	0.146595 
1020.343664  	0.147278 
1022.272480  	0.147864 
1024.201296  	0.148174 
1026.130112  	0.147964 
1028.058928  	0.148386 
1029.987744  	0.149743 
1031.916560  	0.151338 
1033.845376  	0.153387 
1035.774192  	0.156281 
1037.703008  	0.159872 
1039.631824  	0.165213 
1041.560640  	0.172762 
1043.489456  	0.182572 
1045.418272  	0.194141 
1047.347088  	0.207068 
1049.275904  	0.218747 
1051.204720  	0.227439 
1053.133536  	0.232858 
1055.062352  	0.235547 
1056.991168  	0.235934 
1058.919984  	0.236267 
1060.848800  	0.236619 
1062.777616  	0.236652 
1064.706432  	0.235888 
1066.635248  	0.234823 
1068.564064  	0.232937 
1070.492880  	0.229755 
1072.421696  	0.225426 
1074.350512  	0.222637 
1076.279328  	0.222134 
1078.208144  	0.224538 
1080.136960  	0.228686 
1082.065776  	0.232763 
1083.994592  	0.234340 
1085.923408  	0.233359 
1087.852224  	0.228942 
1089.781040  	0.222365 
1091.709856  	0.213940 
1093.638672  	0.203944 
1095.567488  	0.192569 
1097.496304  	0.181432 
1099.425120  	0.170242 
1101.353936  	0.159367 
1103.282752  	0.149026 
1105.211568  	0.139449 
1107.140384  	0.130656 
1109.069200  	0.122682 
1110.998016  	0.115419 
1112.926832  	0.108892 
1114.855648  	0.102921 
1116.784464  	0.097057 
1118.713280  	0.091222 
1120.642096  	0.085729 
1122.570912  	0.080866 
1124.499728  	0.076397 
1126.428544  	0.072410 
1128.357360  	0.068746 
1130.286176  	0.065661 
1132.214992  	0.063168 
1134.143808  	0.061180 
1136.072624  	0.059403 
1138.001440  	0.057728 
1139.930256  	0.056524 
1141.859072  	0.055364 
1143.787888  	0.054038 
1145.716704  	0.053147 
1147.645520  	0.052424 
1149.574336  	0.051995 
1151.503152  	0.051678 
1153.431968  	0.051563 
1155.360784  	0.051624 
1157.289600  	0.051947 
1159.218416  	0.052359 
1161.147232  	0.052943 
1163.076048  	0.053607 
1165.004864  	0.054221 
1166.933680  	0.054898 
1168.862496  	0.055875 
1170.791312  	0.057032 
1172.720128  	0.058355 
1174.648944  	0.060026 
1176.577760  	0.061602 
1178.506576  	0.063313 
1180.435392  	0.065376 
1182.364208  	0.067236 
1184.293024  	0.069258 
1186.221840  	0.071858 
1188.150656  	0.074767 
1190.079472  	0.078132 
1192.008288  	0.082281 
1193.937104  	0.086882 
1195.865920  	0.092111 
1197.794736  	0.097945 
1199.723552  	0.104280 
1201.652368  	0.110801 
1203.581184  	0.117095 
1205.510000  	0.123453 
1207.438816  	0.129346 
1209.367632  	0.134557 
1211.296448  	0.139026 
1213.225264  	0.142629 
1215.154080  	0.145272 
1217.082896  	0.147155 
1219.011712  	0.147915 
1220.940528  	0.148168 
1222.869344  	0.147539 
1224.798160  	0.146313 
1226.726976  	0.144632 
1228.655792  	0.142339 
1230.584608  	0.139359 
1232.513424  	0.135997 
1234.442240  	0.132309 
1236.371056  	0.128276 
1238.299872  	0.123576 
1240.228688  	0.118133 
1242.157504  	0.112694 
1244.086320  	0.107579 
1246.015136  	0.102236 
1247.943952  	0.097113 
1249.872768  	0.092017 
1251.801584  	0.087175 
1253.730400  	0.082570 
1255.659216  	0.078084 
1257.588032  	0.073686 
1259.516848  	0.069736 
1261.445664  	0.065947 
1263.374480  	0.062394 
1265.303296  	0.059315 
1267.232112  	0.057031 
1269.160928  	0.055465 
1271.089744  	0.054377 
1273.018560  	0.053899 
1274.947376  	0.054138 
1276.876192  	0.054671 
1278.805008  	0.055019 
1280.733824  	0.054946 
1282.662640  	0.053955 
1284.591456  	0.052633 
1286.520272  	0.051361 
1288.449088  	0.050422 
1290.377904  	0.050219 
1292.306720  	0.050746 
1294.235536  	0.051274 
1296.164352  	0.051076 
1298.093168  	0.049901 
1300.021984  	0.048187 
1301.950800  	0.046176 
1303.879616  	0.043941 
1305.808432  	0.041634 
1307.737248  	0.039323 
1309.666064  	0.037060 
1311.594880  	0.035319 
1313.523696  	0.034078 
1315.452512  	0.033310 
1317.381328  	0.032960 
1319.310144  	0.033037 
1321.238960  	0.033389 
1323.167776  	0.033920 
1325.096592  	0.034378 
1327.025408  	0.034589 
1328.954224  	0.034469 
1330.883040  	0.033929 
1332.811856  	0.032904 
1334.740672  	0.031926 
1336.669488  	0.031336 
1338.598304  	0.031222 
1340.527120  	0.030957 
1342.455936  	0.030286 
1344.384752  	0.030058 
1346.313568  	0.030338 
1348.242384  	0.030942 
1350.171200  	0.031731 
1352.100016  	0.032705 
1354.028832  	0.034027 
1355.957648  	0.035477 
1357.886464  	0.036858 
1359.815280  	0.038205 
1361.744096  	0.039937 
1363.672912  	0.041769 
1365.601728  	0.042866 
1367.530544  	0.044091 
1369.459360  	0.045437 
1371.388176  	0.046159 
1373.316992  	0.046378 
1375.245808  	0.045765 
1377.174624  	0.044171 
1379.103440  	0.042429 
1381.032256  	0.040529 
1382.961072  	0.038823 
1384.889888  	0.037528 
1386.818704  	0.036643 
1388.747520  	0.035327 
1390.676336  	0.033732 
1392.605152  	0.032246 
1394.533968  	0.031457 
1396.462784  	0.031581 
1398.391600  	0.031541 
1400.320416  	0.031470 
1402.249232  	0.031356 
1404.178048  	0.031900 
1406.106864  	0.032654 
1408.035680  	0.033473 
1409.964496  	0.034617 
1411.893312  	0.036092 
1413.822128  	0.037566 
1415.750944  	0.039053 
1417.679760  	0.040229 
1419.608576  	0.041525 
1421.537392  	0.041479 
1423.466208  	0.041013 
1425.395024  	0.039878 
1427.323840  	0.038321 
1429.252656  	0.036846 
1431.181472  	0.035451 
1433.110288  	0.034581 
1435.039104  	0.034576 
1436.967920  	0.035634 
1438.896736  	0.036306 
1440.825552  	0.036659 
1442.754368  	0.037105 
1444.683184  	0.037173 
1446.612000  	0.037288 
1448.540816  	0.037471 
1450.469632  	0.037517 
1452.398448  	0.037625 
1454.327264  	0.037856 
1456.256080  	0.038520 
1458.184896  	0.039460 
1460.113712  	0.038473 
1462.042528  	0.037758 
1463.971344  	0.037537 
1465.900160  	0.037914 
1467.828976  	0.038130 
1469.757792  	0.038741 
1471.686608  	0.040801 
1473.615424  	0.045558 
1475.544240  	0.048483 
1477.473056  	0.051716 
1479.401872  	0.053806 
1481.330688  	0.056303 
1483.259504  	0.058074 
1485.188320  	0.059080 
1487.117136  	0.059924 
1489.045952  	0.060795 
1490.974768  	0.059871 
1492.903584  	0.057943 
1494.832400  	0.055455 
1496.761216  	0.052355 
1498.690032  	0.048428 
1500.618848  	0.044797 
1502.547664  	0.041574 
1504.476480  	0.039337 
1506.405296  	0.038080 
1508.334112  	0.037112 
1510.262928  	0.035212 
1512.191744  	0.033932 
1514.120560  	0.033339 
1516.049376  	0.034038 
1517.978192  	0.035436 
1519.907008  	0.036181 
1521.835824  	0.039310 
1523.764640  	0.041413 
1525.693456  	0.043359 
1527.622272  	0.045339 
1529.551088  	0.045576 
1531.479904  	0.044830 
1533.408720  	0.044087 
1535.337536  	0.042299 
1537.266352  	0.040519 
1539.195168  	0.039368 
1541.123984  	0.037962 
1543.052800  	0.036571 
1544.981616  	0.035368 
1546.910432  	0.033836 
1548.839248  	0.033104 
1550.768064  	0.033355 
1552.696880  	0.032909 
1554.625696  	0.033337 
1556.554512  	0.033315 
1558.483328  	0.035283 
1560.412144  	0.037818 
1562.340960  	0.037848 
1564.269776  	0.039067 
1566.198592  	0.041604 
1568.127408  	0.043384 
1570.056224  	0.047848 
1571.985040  	0.050435 
1573.913856  	0.051916 
1575.842672  	0.054360 
1577.771488  	0.056785 
1579.700304  	0.056051 
1581.629120  	0.055449 
1583.557936  	0.054852 
1585.486752  	0.055269 
1587.415568  	0.056424 
1589.344384  	0.058910 
1591.273200  	0.062149 
1593.202016  	0.066489 
1595.130832  	0.071329 
1597.059648  	0.076288 
1598.988464  	0.080488 
1600.917280  	0.084734 
1602.846096  	0.088052 
1604.774912  	0.090497 
1606.703728  	0.091545 
1608.632544  	0.092301 
1610.561360  	0.091722 
1612.490176  	0.091047 
1614.418992  	0.089858 
1616.347808  	0.090510 
1618.276624  	0.092224 
1620.205440  	0.093468 
1622.134256  	0.095273 
1624.063072  	0.100537 
1625.991888  	0.104384 
1627.920704  	0.109971 
1629.849520  	0.115951 
1631.778336  	0.120979 
1633.707152  	0.125147 
1635.635968  	0.133581 
1637.564784  	0.141608 
1639.493600  	0.145030 
1641.422416  	0.148496 
1643.351232  	0.151501 
1645.280048  	0.152935 
1647.208864  	0.157123 
1649.137680  	0.158138 
1651.066496  	0.156979 
1652.995312  	0.157551 
1654.924128  	0.159574 
1656.852944  	0.156979 
1658.781760  	0.155394 
1660.710576  	0.153591 
1662.639392  	0.151866 
1664.568208  	0.148871 
1666.497024  	0.145741 
1668.425840  	0.142106 
1670.354656  	0.137990 
1672.283472  	0.134357 
1674.212288  	0.131379 
1676.141104  	0.128290 
1678.069920  	0.125864 
1679.998736  	0.124223 
1681.927552  	0.122734 
1683.856368  	0.121762 
1685.785184  	0.121633 
1687.714000  	0.120117 
1689.642816  	0.119907 
1691.571632  	0.119158 
1693.500448  	0.117930 
1695.429264  	0.117326 
1697.358080  	0.117706 
1699.286896  	0.115888 
1701.215712  	0.114966 
1703.144528  	0.113351 
1705.073344  	0.111714 
1707.002160  	0.109229 
1708.930976  	0.106083 
1710.859792  	0.102089 
1712.788608  	0.097772 
1714.717424  	0.092068 
1716.646240  	0.084897 
1718.575056  	0.074619 
1720.503872  	0.066597 
1722.432688  	0.059556 
1724.361504  	0.051315 
1726.290320  	0.044259 
1728.219136  	0.038427 
1730.147952  	0.033331 
1732.076768  	0.029034 
1734.005584  	0.025347 
1735.934400  	0.021552 
1737.863216  	0.019696 
1739.792032  	0.017410 
1741.720848  	0.015629 
1743.649664  	0.014344 
1745.578480  	0.013076 
1747.507296  	0.011884 
1749.436112  	0.011340 
1751.364928  	0.010220 
1753.293744  	0.009328 
1755.222560  	0.008614 
1757.151376  	0.008646 
1759.080192  	0.007965 
1761.009008  	0.007603 
1762.937824  	0.007122 
1764.866640  	0.006723 
1766.795456  	0.006416 
1768.724272  	0.006484 
1770.653088  	0.005827 
1772.581904  	0.006033 
1774.510720  	0.005835 
1776.439536  	0.005468 
1778.368352  	0.004825 
1780.297168  	0.004817 
1782.225984  	0.004398 
1784.154800  	0.004144 
1786.083616  	0.003895 
1788.012432  	0.003792 
1789.941248  	0.003854 
1791.870064  	0.004390 
1793.798880  	0.004085 
1795.727696  	0.003771 
1797.656512  	0.003125 
1799.585328  	0.003090 
1801.514144  	0.003339 
1803.442960  	0.003263 
1805.371776  	0.003094 
1807.300592  	0.002886 
1809.229408  	0.002478 
1811.158224  	0.002478 
1813.087040  	0.002092 
1815.015856  	0.001907 
1816.944672  	0.002196 
1818.873488  	0.002684 
1820.802304  	0.002584 
1822.731120  	0.002509 
1824.659936  	0.002315 
1826.588752  	0.002302 
1828.517568  	0.001978 
1830.446384  	0.002190 
1832.375200  	0.001750 
1834.304016  	0.001760 
1836.232832  	0.001918 
1838.161648  	0.002107 
1840.090464  	0.001658 
1842.019280  	0.001295 
1843.948096  	0.001394 
1845.876912  	0.001759 
1847.805728  	0.001381 
1849.734544  	0.001267 
1851.663360  	0.001304 
1853.592176  	0.001737 
1855.520992  	0.001703 
1857.449808  	0.001534 
1859.378624  	0.001061 
1861.307440  	0.001232 
1863.236256  	0.000946 
1865.165072  	0.000899 
1867.093888  	0.000950 
1869.022704  	0.001790 
1870.951520  	0.001838 
1872.880336  	0.001538 
1874.809152  	0.000977 
1876.737968  	0.000784 
1878.666784  	0.000633 
1880.595600  	0.000639 
1882.524416  	0.000785 
1884.453232  	0.001048 
1886.382048  	0.000602 
1888.310864  	0.000627 
1890.239680  	0.000519 
1892.168496  	0.000646 
1894.097312  	0.000865 
1896.026128  	0.000799 
1897.954944  	0.000642 
1899.883760  	0.000891 
1901.812576  	0.000436 
1903.741392  	0.000449 
1905.670208  	0.000230 
1907.599024  	0.000101 
1909.527840  	0.000331 
1911.456656  	0.001325 
1913.385472  	0.001551 
1915.314288  	0.001314 
1917.243104  	0.000908 
1919.171920  	0.001201 
1921.100736  	0.000955 
1923.029552  	0.000701 
1924.958368  	-0.000211 
1926.887184  	-0.000126 
1928.816000  	-0.000202 
1930.744816  	0.000233 
1932.673632  	0.000342 
1934.602448  	0.000667 
1936.531264  	0.000377 
1938.460080  	0.000842 
1940.388896  	0.001001 
1942.317712  	0.001024 
1944.246528  	0.000179 
1946.175344  	0.000969 
1948.104160  	0.001338 
1950.032976  	0.001576 
1951.961792  	0.001063 
1953.890608  	0.000536 
1955.819424  	-0.000173 
1957.748240  	-0.000204 
1959.677056  	-0.000192 
1961.605872  	0.000552 
1963.534688  	0.000229 
1965.463504  	0.000496 
1967.392320  	0.000589 
1969.321136  	0.000112 
1971.249952  	-0.001033 
1973.178768  	0.000293 
1975.107584  	0.001351 
1977.036400  	0.002321 
1978.965216  	0.002593 
1980.894032  	0.001772 
1982.822848  	0.000754 
1984.751664  	0.001623 
1986.680480  	0.001682 
1988.609296  	0.002228 
1990.538112  	0.002353 
1992.466928  	0.002236 
1994.395744  	0.000788 
1996.324560  	0.000768 
1998.253376  	0.000970 
2000.182192  	0.001158 
2002.111008  	0.000867 
2004.039824  	0.000628 
2005.968640  	-0.000510 
2007.897456  	-0.000307 
2009.826272  	0.000607 
2011.755088  	0.001526 
2013.683904  	0.001144 
2015.612720  	0.000608 
2017.541536  	0.001234 
2019.470352  	0.001941 
2021.399168  	0.000839 
2023.327984  	0.001706 
2025.256800  	0.001752 
2027.185616  	0.002586 
2029.114432  	0.002662 
2031.043248  	0.002445 
2032.972064  	0.002282 
2034.900880  	0.003054 
2036.829696  	0.002398 
2038.758512  	0.002063 
2040.687328  	0.001672 
2042.616144  	0.001974 
2044.544960  	0.001902 
2046.473776  	0.002673 
2048.402592  	0.003446 
2050.331408  	0.003554 
2052.260224  	0.003158 
2054.189040  	0.003254 
2056.117856  	0.003012 
2058.046672  	0.003030 
2059.975488  	0.002973 
2061.904304  	0.003367 
2063.833120  	0.002926 
2065.761936  	0.002947 
2067.690752  	0.003324 
2069.619568  	0.003312 
2071.548384  	0.002632 
2073.477200  	0.002885 
2075.406016  	0.003271 
2077.334832  	0.003741 
2079.263648  	0.004016 
2081.192464  	0.004368 
2083.121280  	0.003834 
2085.050096  	0.003194 
2086.978912  	0.003008 
2088.907728  	0.003613 
2090.836544  	0.003759 
2092.765360  	0.003754 
2094.694176  	0.003566 
2096.622992  	0.004061 
2098.551808  	0.003954 
2100.480624  	0.004092 
2102.409440  	0.004098 
2104.338256  	0.004121 
2106.267072  	0.003938 
2108.195888  	0.003867 
2110.124704  	0.004052 
2112.053520  	0.004535 
2113.982336  	0.004378 
2115.911152  	0.004059 
2117.839968  	0.003950 
2119.768784  	0.003946 
2121.697600  	0.003730 
2123.626416  	0.003644 
2125.555232  	0.002910 
2127.484048  	0.002283 
2129.412864  	0.002563 
2131.341680  	0.003070 
2133.270496  	0.003263 
2135.199312  	0.004053 
2137.128128  	0.004455 
2139.056944  	0.004976 
2140.985760  	0.005276 
2142.914576  	0.005347 
2144.843392  	0.004487 
2146.772208  	0.003633 
2148.701024  	0.003629 
2150.629840  	0.003693 
2152.558656  	0.003345 
2154.487472  	0.004283 
2156.416288  	0.004875 
2158.345104  	0.007336 
2160.273920  	0.010069 
2162.202736  	0.008694 
2164.131552  	0.006818 
2166.060368  	0.007743 
2167.989184  	0.007319 
2169.918000  	0.005988 
2171.846816  	0.005947 
2173.775632  	0.006456 
2175.704448  	0.005719 
2177.633264  	0.005819 
2179.562080  	0.004970 
2181.490896  	0.006479 
2183.419712  	0.007262 
2185.348528  	0.006287 
2187.277344  	0.006014 
2189.206160  	0.006077 
2191.134976  	0.005060 
2193.063792  	0.004151 
2194.992608  	0.004393 
2196.921424  	0.005148 
2198.850240  	0.004279 
2200.779056  	0.003832 
2202.707872  	0.004269 
2204.636688  	0.004445 
2206.565504  	0.003596 
2208.494320  	0.003020 
2210.423136  	0.003026 
2212.351952  	0.003921 
2214.280768  	0.003495 
2216.209584  	0.002808 
2218.138400  	0.002405 
2220.067216  	0.002833 
2221.996032  	0.003046 
2223.924848  	0.003443 
2225.853664  	0.003741 
2227.782480  	0.003862 
2229.711296  	0.002905 
2231.640112  	0.002429 
2233.568928  	0.002557 
2235.497744  	0.002803 
2237.426560  	0.003013 
2239.355376  	0.003362 
2241.284192  	0.002849 
2243.213008  	0.002913 
2245.141824  	0.003132 
2247.070640  	0.003048 
2248.999456  	0.002999 
2250.928272  	0.003276 
2252.857088  	0.002917 
2254.785904  	0.003159 
2256.714720  	0.003704 
2258.643536  	0.003950 
2260.572352  	0.003664 
2262.501168  	0.003689 
2264.429984  	0.004012 
2266.358800  	0.004080 
2268.287616  	0.003890 
2270.216432  	0.003912 
2272.145248  	0.003918 
2274.074064  	0.004116 
2276.002880  	0.003904 
2277.931696  	0.004043 
2279.860512  	0.003996 
2281.789328  	0.003918 
2283.718144  	0.003974 
2285.646960  	0.004378 
2287.575776  	0.004442 
2289.504592  	0.004529 
2291.433408  	0.004620 
2293.362224  	0.004784 
2295.291040  	0.004600 
2297.219856  	0.004563 
2299.148672  	0.004639 
2301.077488  	0.005032 
2303.006304  	0.005439 
2304.935120  	0.005575 
2306.863936  	0.005623 
2308.792752  	0.006064 
2310.721568  	0.006117 
2312.650384  	0.005940 
2314.579200  	0.005830 
2316.508016  	0.006456 
2318.436832  	0.007119 
2320.365648  	0.007714 
2322.294464  	0.008055 
2324.223280  	0.008163 
2326.152096  	0.007531 
2328.080912  	0.006963 
2330.009728  	0.006739 
2331.938544  	0.006755 
2333.867360  	0.006899 
2335.796176  	0.007044 
2337.724992  	0.006803 
2339.653808  	0.006868 
2341.582624  	0.007342 
2343.511440  	0.007757 
2345.440256  	0.007610 
2347.369072  	0.007050 
2349.297888  	0.006448 
2351.226704  	0.006628 
2353.155520  	0.007137 
2355.084336  	0.007883 
2357.013152  	0.008384 
2358.941968  	0.008700 
2360.870784  	0.008569 
2362.799600  	0.008724 
2364.728416  	0.008845 
2366.657232  	0.008318 
2368.586048  	0.007693 
2370.514864  	0.007450 
2372.443680  	0.006673 
2374.372496  	0.006399 
2376.301312  	0.006096 
2378.230128  	0.005557 
2380.158944  	0.004911 
2382.087760  	0.004435 
2384.016576  	0.003769 
2385.945392  	0.003382 
2387.874208  	0.003467 
2389.803024  	0.003431 
2391.731840  	0.003190 
2393.660656  	0.003124 
2395.589472  	0.003060 
2397.518288  	0.003092 
2399.447104  	0.003104 
2401.375920  	0.003106 
2403.304736  	0.002941 
2405.233552  	0.003055 
2407.162368  	0.003194 
2409.091184  	0.003172 
2411.020000  	0.003069 
2412.948816  	0.003098 
2414.877632  	0.003132 
2416.806448  	0.003318 
2418.735264  	0.003447 
2420.664080  	0.003671 
2422.592896  	0.003790 
2424.521712  	0.003675 
2426.450528  	0.003576 
2428.379344  	0.003744 
2430.308160  	0.003907 
2432.236976  	0.004014 
2434.165792  	0.004025 
2436.094608  	0.004240 
2438.023424  	0.004282 
2439.952240  	0.004225 
2441.881056  	0.004124 
2443.809872  	0.004122 
2445.738688  	0.004170 
2447.667504  	0.004260 
2449.596320  	0.004437 
2451.525136  	0.004579 
2453.453952  	0.004731 
2455.382768  	0.004734 
2457.311584  	0.004562 
2459.240400  	0.004552 
2461.169216  	0.004772 
2463.098032  	0.004947 
2465.026848  	0.004789 
2466.955664  	0.004802 
2468.884480  	0.004706 
2470.813296  	0.004515 
2472.742112  	0.004839 
2474.670928  	0.005330 
2476.599744  	0.005488 
2478.528560  	0.005632 
2480.457376  	0.005668 
2482.386192  	0.005808 
2484.315008  	0.005729 
2486.243824  	0.005828 
2488.172640  	0.006118 
2490.101456  	0.006352 
2492.030272  	0.006447 
2493.959088  	0.006360 
2495.887904  	0.006126 
2497.816720  	0.006351 
2499.745536  	0.006420 
2501.674352  	0.006441 
2503.603168  	0.006464 
2505.531984  	0.006545 
2507.460800  	0.006376 
2509.389616  	0.006305 
2511.318432  	0.006416 
2513.247248  	0.006586 
2515.176064  	0.006718 
2517.104880  	0.006796 
2519.033696  	0.006574 
2520.962512  	0.006656 
2522.891328  	0.006943 
2524.820144  	0.007262 
2526.748960  	0.007317 
2528.677776  	0.007368 
2530.606592  	0.007460 
2532.535408  	0.007569 
2534.464224  	0.007498 
2536.393040  	0.007421 
2538.321856  	0.007445 
2540.250672  	0.007641 
2542.179488  	0.007895 
2544.108304  	0.007988 
2546.037120  	0.008028 
2547.965936  	0.008182 
2549.894752  	0.008247 
2551.823568  	0.008430 
2553.752384  	0.008546 
2555.681200  	0.008437 
2557.610016  	0.008416 
2559.538832  	0.008543 
2561.467648  	0.008607 
2563.396464  	0.008679 
2565.325280  	0.008593 
2567.254096  	0.008574 
2569.182912  	0.008647 
2571.111728  	0.008735 
2573.040544  	0.008724 
2574.969360  	0.009064 
2576.898176  	0.009290 
2578.826992  	0.009241 
2580.755808  	0.009153 
2582.684624  	0.009354 
2584.613440  	0.009422 
2586.542256  	0.009521 
2588.471072  	0.009551 
2590.399888  	0.009583 
2592.328704  	0.009888 
2594.257520  	0.010165 
2596.186336  	0.009989 
2598.115152  	0.009929 
2600.043968  	0.010168 
2601.972784  	0.010204 
2603.901600  	0.010267 
2605.830416  	0.010362 
2607.759232  	0.010408 
2609.688048  	0.010389 
2611.616864  	0.010549 
2613.545680  	0.010893 
2615.474496  	0.011127 
2617.403312  	0.011211 
2619.332128  	0.011086 
2621.260944  	0.011056 
2623.189760  	0.011095 
2625.118576  	0.011375 
2627.047392  	0.011507 
2628.976208  	0.011626 
2630.905024  	0.011767 
2632.833840  	0.011859 
2634.762656  	0.011900 
2636.691472  	0.012009 
2638.620288  	0.012154 
2640.549104  	0.012398 
2642.477920  	0.012583 
2644.406736  	0.012599 
2646.335552  	0.012673 
2648.264368  	0.012850 
2650.193184  	0.013058 
2652.122000  	0.013197 
2654.050816  	0.013233 
2655.979632  	0.013362 
2657.908448  	0.013490 
2659.837264  	0.013598 
2661.766080  	0.013716 
2663.694896  	0.013712 
2665.623712  	0.013724 
2667.552528  	0.013911 
2669.481344  	0.013978 
2671.410160  	0.014070 
2673.338976  	0.014268 
2675.267792  	0.014408 
2677.196608  	0.014501 
2679.125424  	0.014621 
2681.054240  	0.014798 
2682.983056  	0.014982 
2684.911872  	0.015047 
2686.840688  	0.015103 
2688.769504  	0.015254 
2690.698320  	0.015408 
2692.627136  	0.015487 
2694.555952  	0.015583 
2696.484768  	0.015704 
2698.413584  	0.015807 
2700.342400  	0.015809 
2702.271216  	0.015967 
2704.200032  	0.016219 
2706.128848  	0.016399 
2708.057664  	0.016487 
2709.986480  	0.016566 
2711.915296  	0.016714 
2713.844112  	0.016902 
2715.772928  	0.017064 
2717.701744  	0.017190 
2719.630560  	0.017308 
2721.559376  	0.017378 
2723.488192  	0.017533 
2725.417008  	0.017774 
2727.345824  	0.017932 
2729.274640  	0.018065 
2731.203456  	0.018046 
2733.132272  	0.018016 
2735.061088  	0.018071 
2736.989904  	0.018173 
2738.918720  	0.018445 
2740.847536  	0.018620 
2742.776352  	0.018740 
2744.705168  	0.018906 
2746.633984  	0.018943 
2748.562800  	0.019099 
2750.491616  	0.019212 
2752.420432  	0.019275 
2754.349248  	0.019274 
2756.278064  	0.019328 
2758.206880  	0.019362 
2760.135696  	0.019375 
2762.064512  	0.019426 
2763.993328  	0.019571 
2765.922144  	0.019698 
2767.850960  	0.019674 
2769.779776  	0.019587 
2771.708592  	0.019559 
2773.637408  	0.019592 
2775.566224  	0.019720 
2777.495040  	0.019649 
2779.423856  	0.019656 
2781.352672  	0.019790 
2783.281488  	0.019889 
2785.210304  	0.019907 
2787.139120  	0.019927 
2789.067936  	0.019899 
2790.996752  	0.019982 
2792.925568  	0.020083 
2794.854384  	0.020061 
2796.783200  	0.020065 
2798.712016  	0.020090 
2800.640832  	0.020138 
2802.569648  	0.020274 
2804.498464  	0.020406 
2806.427280  	0.020587 
2808.356096  	0.020732 
2810.284912  	0.020743 
2812.213728  	0.020682 
2814.142544  	0.020716 
2816.071360  	0.020705 
2818.000176  	0.020807 
2819.928992  	0.021012 
2821.857808  	0.021076 
2823.786624  	0.021052 
2825.715440  	0.021229 
2827.644256  	0.021283 
2829.573072  	0.021129 
2831.501888  	0.021154 
2833.430704  	0.021263 
2835.359520  	0.021251 
2837.288336  	0.021257 
2839.217152  	0.021270 
2841.145968  	0.021271 
2843.074784  	0.021323 
2845.003600  	0.021346 
2846.932416  	0.021326 
2848.861232  	0.021411 
2850.790048  	0.021478 
2852.718864  	0.021621 
2854.647680  	0.021758 
2856.576496  	0.021858 
2858.505312  	0.021940 
2860.434128  	0.022041 
2862.362944  	0.022110 
2864.291760  	0.022144 
2866.220576  	0.022236 
2868.149392  	0.022343 
2870.078208  	0.022525 
2872.007024  	0.022815 
2873.935840  	0.023119 
2875.864656  	0.023415 
2877.793472  	0.023704 
2879.722288  	0.024068 
2881.651104  	0.024322 
2883.579920  	0.024634 
2885.508736  	0.025046 
2887.437552  	0.025249 
2889.366368  	0.025351 
2891.295184  	0.025419 
2893.224000  	0.025412 
2895.152816  	0.025452 
2897.081632  	0.025396 
2899.010448  	0.025074 
2900.939264  	0.024709 
2902.868080  	0.024895 
2904.796896  	0.025165 
2906.725712  	0.025273 
2908.654528  	0.025470 
2910.583344  	0.025753 
2912.512160  	0.026033 
2914.440976  	0.026435 
2916.369792  	0.026981 
2918.298608  	0.027333 
2920.227424  	0.027631 
2922.156240  	0.028033 
2924.085056  	0.028410 
2926.013872  	0.028804 
2927.942688  	0.029423 
2929.871504  	0.030041 
2931.800320  	0.030696 
2933.729136  	0.031399 
2935.657952  	0.031985 
2937.586768  	0.032361 
2939.515584  	0.032656 
2941.444400  	0.032841 
2943.373216  	0.033101 
2945.302032  	0.033421 
2947.230848  	0.033638 
2949.159664  	0.033635 
2951.088480  	0.033462 
2953.017296  	0.033449 
2954.946112  	0.033403 
2956.874928  	0.033169 
2958.803744  	0.032821 
2960.732560  	0.032649 
2962.661376  	0.032504 
2964.590192  	0.032243 
2966.519008  	0.031970 
2968.447824  	0.031582 
2970.376640  	0.031208 
2972.305456  	0.030973 
2974.234272  	0.031016 
2976.163088  	0.031008 
2978.091904  	0.030858 
2980.020720  	0.030818 
2981.949536  	0.030740 
2983.878352  	0.030543 
2985.807168  	0.030406 
2987.735984  	0.030436 
2989.664800  	0.030557 
2991.593616  	0.031080 
2993.522432  	0.031502 
2995.451248  	0.031596 
2997.380064  	0.031829 
2999.308880  	0.032307 
3001.237696  	0.032779 
3003.166512  	0.033155 
3005.095328  	0.033488 
3007.024144  	0.033877 
3008.952960  	0.034428 
3010.881776  	0.034943 
3012.810592  	0.035393 
3014.739408  	0.035859 
3016.668224  	0.036383 
3018.597040  	0.036886 
3020.525856  	0.037278 
3022.454672  	0.037476 
3024.383488  	0.037848 
3026.312304  	0.038386 
3028.241120  	0.038884 
3030.169936  	0.039351 
3032.098752  	0.039797 
3034.027568  	0.040152 
3035.956384  	0.040607 
3037.885200  	0.041145 
3039.814016  	0.041673 
3041.742832  	0.042152 
3043.671648  	0.042610 
3045.600464  	0.043076 
3047.529280  	0.043473 
3049.458096  	0.043889 
3051.386912  	0.044335 
3053.315728  	0.044812 
3055.244544  	0.045209 
3057.173360  	0.045777 
3059.102176  	0.046496 
3061.030992  	0.047123 
3062.959808  	0.047713 
3064.888624  	0.048390 
3066.817440  	0.049141 
3068.746256  	0.049771 
3070.675072  	0.050342 
3072.603888  	0.050864 
3074.532704  	0.051480 
3076.461520  	0.052341 
3078.390336  	0.053203 
3080.319152  	0.053806 
3082.247968  	0.054188 
3084.176784  	0.054877 
3086.105600  	0.055712 
3088.034416  	0.056440 
3089.963232  	0.056868 
3091.892048  	0.057446 
3093.820864  	0.058050 
3095.749680  	0.058725 
3097.678496  	0.059537 
3099.607312  	0.060291 
3101.536128  	0.061149 
3103.464944  	0.061911 
3105.393760  	0.062549 
3107.322576  	0.063285 
3109.251392  	0.064102 
3111.180208  	0.064716 
3113.109024  	0.065145 
3115.037840  	0.065660 
3116.966656  	0.066421 
3118.895472  	0.067080 
3120.824288  	0.067653 
3122.753104  	0.068219 
3124.681920  	0.068730 
3126.610736  	0.069373 
3128.539552  	0.069876 
3130.468368  	0.070256 
3132.397184  	0.070899 
3134.326000  	0.071593 
3136.254816  	0.072148 
3138.183632  	0.072749 
3140.112448  	0.073242 
3142.041264  	0.073808 
3143.970080  	0.074547 
3145.898896  	0.075425 
3147.827712  	0.075909 
3149.756528  	0.076482 
3151.685344  	0.077112 
3153.614160  	0.077610 
3155.542976  	0.078030 
3157.471792  	0.078600 
3159.400608  	0.079285 
3161.329424  	0.079857 
3163.258240  	0.080628 
3165.187056  	0.081377 
3167.115872  	0.081794 
3169.044688  	0.082380 
3170.973504  	0.083052 
3172.902320  	0.083513 
3174.831136  	0.083823 
3176.759952  	0.084485 
3178.688768  	0.085088 
3180.617584  	0.085379 
3182.546400  	0.085751 
3184.475216  	0.086184 
3186.404032  	0.086569 
3188.332848  	0.086829 
3190.261664  	0.087004 
3192.190480  	0.087185 
3194.119296  	0.087392 
3196.048112  	0.087424 
3197.976928  	0.087659 
3199.905744  	0.087898 
3201.834560  	0.088061 
3203.763376  	0.088002 
3205.692192  	0.087803 
3207.621008  	0.087811 
3209.549824  	0.087851 
3211.478640  	0.087793 
3213.407456  	0.087550 
3215.336272  	0.087628 
3217.265088  	0.087870 
3219.193904  	0.088038 
3221.122720  	0.088047 
3223.051536  	0.087769 
3224.980352  	0.087637 
3226.909168  	0.087539 
3228.837984  	0.087201 
3230.766800  	0.087067 
3232.695616  	0.087278 
3234.624432  	0.087349 
3236.553248  	0.087455 
3238.482064  	0.087444 
3240.410880  	0.087420 
3242.339696  	0.087598 
3244.268512  	0.087734 
3246.197328  	0.087809 
3248.126144  	0.087805 
3250.054960  	0.087990 
3251.983776  	0.088231 
3253.912592  	0.088412 
3255.841408  	0.088639 
3257.770224  	0.088812 
3259.699040  	0.088967 
3261.627856  	0.089135 
3263.556672  	0.089147 
3265.485488  	0.089371 
3267.414304  	0.089530 
3269.343120  	0.089799 
3271.271936  	0.090093 
3273.200752  	0.090147 
3275.129568  	0.090152 
3277.058384  	0.090402 
3278.987200  	0.090542 
3280.916016  	0.090779 
3282.844832  	0.090911 
3284.773648  	0.091085 
3286.702464  	0.091361 
3288.631280  	0.091662 
3290.560096  	0.091741 
3292.488912  	0.091734 
3294.417728  	0.092083 
3296.346544  	0.092588 
3298.275360  	0.092795 
3300.204176  	0.092966 
3302.132992  	0.093296 
3304.061808  	0.093670 
3305.990624  	0.093863 
3307.919440  	0.094186 
3309.848256  	0.094594 
3311.777072  	0.094901 
3313.705888  	0.095111 
3315.634704  	0.095543 
3317.563520  	0.095831 
3319.492336  	0.096178 
3321.421152  	0.096596 
3323.349968  	0.096809 
3325.278784  	0.096898 
3327.207600  	0.097163 
3329.136416  	0.097131 
3331.065232  	0.097105 
3332.994048  	0.097202 
3334.922864  	0.097467 
3336.851680  	0.097725 
3338.780496  	0.097818 
3340.709312  	0.097650 
3342.638128  	0.097718 
3344.566944  	0.097769 
3346.495760  	0.097475 
3348.424576  	0.097320 
3350.353392  	0.097180 
3352.282208  	0.096751 
3354.211024  	0.096612 
3356.139840  	0.096433 
3358.068656  	0.096165 
3359.997472  	0.095930 
3361.926288  	0.095752 
3363.855104  	0.095558 
3365.783920  	0.095414 
3367.712736  	0.095071 
3369.641552  	0.094659 
3371.570368  	0.094464 
3373.499184  	0.094266 
3375.428000  	0.093999 
3377.356816  	0.093924 
3379.285632  	0.093817 
3381.214448  	0.093349 
3383.143264  	0.092975 
3385.072080  	0.092744 
3387.000896  	0.092433 
3388.929712  	0.091903 
3390.858528  	0.091360 
3392.787344  	0.091129 
3394.716160  	0.090847 
3396.644976  	0.090651 
3398.573792  	0.090190 
3400.502608  	0.089509 
3402.431424  	0.088920 
3404.360240  	0.088457 
3406.289056  	0.088013 
3408.217872  	0.087698 
3410.146688  	0.087612 
3412.075504  	0.087216 
3414.004320  	0.086747 
3415.933136  	0.086344 
3417.861952  	0.085593 
3419.790768  	0.085293 
3421.719584  	0.085065 
3423.648400  	0.084473 
3425.577216  	0.083742 
3427.506032  	0.083091 
3429.434848  	0.082471 
3431.363664  	0.082195 
3433.292480  	0.081749 
3435.221296  	0.081142 
3437.150112  	0.080483 
3439.078928  	0.079833 
3441.007744  	0.079214 
3442.936560  	0.078799 
3444.865376  	0.078136 
3446.794192  	0.077812 
3448.723008  	0.077513 
3450.651824  	0.076521 
3452.580640  	0.075575 
3454.509456  	0.075008 
3456.438272  	0.074282 
3458.367088  	0.073503 
3460.295904  	0.072777 
3462.224720  	0.072204 
3464.153536  	0.071429 
3466.082352  	0.070607 
3468.011168  	0.069976 
3469.939984  	0.069377 
3471.868800  	0.068407 
3473.797616  	0.067327 
3475.726432  	0.066627 
3477.655248  	0.065873 
3479.584064  	0.064950 
3481.512880  	0.064469 
3483.441696  	0.063801 
3485.370512  	0.062765 
3487.299328  	0.061825 
3489.228144  	0.060780 
3491.156960  	0.059813 
3493.085776  	0.059307 
3495.014592  	0.058767 
3496.943408  	0.057821 
3498.872224  	0.056818 
3500.801040  	0.056234 
3502.729856  	0.055816 
3504.658672  	0.055115 
3506.587488  	0.054054 
3508.516304  	0.053354 
3510.445120  	0.052812 
3512.373936  	0.052182 
3514.302752  	0.051623 
3516.231568  	0.050885 
3518.160384  	0.049872 
3520.089200  	0.048973 
3522.018016  	0.048327 
3523.946832  	0.047852 
3525.875648  	0.047159 
3527.804464  	0.046614 
3529.733280  	0.046111 
3531.662096  	0.045307 
3533.590912  	0.044540 
3535.519728  	0.043884 
3537.448544  	0.043021 
3539.377360  	0.042264 
3541.306176  	0.041517 
3543.234992  	0.041018 
3545.163808  	0.040706 
3547.092624  	0.040121 
3549.021440  	0.039262 
3550.950256  	0.038577 
3552.879072  	0.037959 
3554.807888  	0.037057 
3556.736704  	0.036191 
3558.665520  	0.035718 
3560.594336  	0.035209 
3562.523152  	0.034331 
3564.451968  	0.033732 
3566.380784  	0.033611 
3568.309600  	0.033270 
3570.238416  	0.032020 
3572.167232  	0.030875 
3574.096048  	0.030313 
3576.024864  	0.029745 
3577.953680  	0.029077 
3579.882496  	0.028141 
3581.811312  	0.027311 
3583.740128  	0.026614 
3585.668944  	0.026026 
3587.597760  	0.025853 
3589.526576  	0.024924 
3591.455392  	0.023739 
3593.384208  	0.023188 
3595.313024  	0.022785 
3597.241840  	0.021793 
3599.170656  	0.020661 
3601.099472  	0.020068 
3603.028288  	0.019150 
3604.957104  	0.018269 
3606.885920  	0.017979 
3608.814736  	0.017646 
3610.743552  	0.016212 
3612.672368  	0.015510 
3614.601184  	0.015054 
3616.530000  	0.014073 
3618.458816  	0.013572 
3620.387632  	0.012853 
3622.316448  	0.011846 
3624.245264  	0.010985 
3626.174080  	0.010005 
3628.102896  	0.009780 
3630.031712  	0.010221 
3631.960528  	0.008664 
3633.889344  	0.007461 
3635.818160  	0.006671 
3637.746976  	0.005863 
3639.675792  	0.005012 
3641.604608  	0.004261 
3643.533424  	0.003573 
3645.462240  	0.002963 
3647.391056  	0.003255 
3649.319872  	0.003322 
3651.248688  	0.002591 
3653.177504  	0.000626 
3655.106320  	-0.000298 
3657.035136  	-0.000197 
3658.963952  	-0.000928 
3660.892768  	-0.001819 
3662.821584  	-0.002513 
3664.750400  	-0.003035 
3666.679216  	-0.003359 
3668.608032  	-0.003497 
3670.536848  	-0.003067 
3672.465664  	-0.003882 
3674.394480  	-0.004149 
3676.323296  	-0.003352 
3678.252112  	-0.003817 
3680.180928  	-0.004272 
3682.109744  	-0.005003 
3684.038560  	-0.005340 
3685.967376  	-0.005631 
3687.896192  	-0.005301 
3689.825008  	-0.004688 
3691.753824  	-0.004881 
3693.682640  	-0.005178 
3695.611456  	-0.005431 
3697.540272  	-0.005671 
3699.469088  	-0.006110 
3701.397904  	-0.005703 
3703.326720  	-0.005402 
3705.255536  	-0.005526 
3707.184352  	-0.005553 
3709.113168  	-0.005403 
3711.041984  	-0.004962 
3712.970800  	-0.004909 
3714.899616  	-0.005643 
3716.828432  	-0.005876 
3718.757248  	-0.005774 
3720.686064  	-0.005863 
3722.614880  	-0.006052 
3724.543696  	-0.005963 
3726.472512  	-0.005268 
3728.401328  	-0.005514 
3730.330144  	-0.006338 
3732.258960  	-0.006569 
3734.187776  	-0.005846 
3736.116592  	-0.004852 
3738.045408  	-0.005393 
3739.974224  	-0.005713 
3741.903040  	-0.006147 
3743.831856  	-0.006343 
3745.760672  	-0.006085 
3747.689488  	-0.006798 
3749.618304  	-0.006066 
3751.547120  	-0.004684 
3753.475936  	-0.005209 
3755.404752  	-0.006016 
3757.333568  	-0.006240 
3759.262384  	-0.005803 
3761.191200  	-0.005703 
3763.120016  	-0.006343 
3765.048832  	-0.006251 
3766.977648  	-0.006386 
3768.906464  	-0.006326 
3770.835280  	-0.005941 
3772.764096  	-0.006198 
3774.692912  	-0.006562 
3776.621728  	-0.006728 
3778.550544  	-0.006380 
3780.479360  	-0.006227 
3782.408176  	-0.006530 
3784.336992  	-0.006462 
3786.265808  	-0.006448 
3788.194624  	-0.006601 
3790.123440  	-0.006431 
3792.052256  	-0.006568 
3793.981072  	-0.007019 
3795.909888  	-0.006481 
3797.838704  	-0.006022 
3799.767520  	-0.006383 
3801.696336  	-0.005684 
3803.625152  	-0.006183 
3805.553968  	-0.006667 
3807.482784  	-0.006053 
3809.411600  	-0.006167 
3811.340416  	-0.006712 
3813.269232  	-0.007046 
3815.198048  	-0.006346 
3817.126864  	-0.005960 
3819.055680  	-0.006679 
3820.984496  	-0.005862 
3822.913312  	-0.005743 
3824.842128  	-0.006584 
3826.770944  	-0.006567 
3828.699760  	-0.006509 
3830.628576  	-0.006593 
3832.557392  	-0.006612 
3834.486208  	-0.006901 
3836.415024  	-0.006840 
3838.343840  	-0.006233 
3840.272656  	-0.005754 
3842.201472  	-0.005747 
3844.130288  	-0.005774 
3846.059104  	-0.006193 
3847.987920  	-0.006657 
3849.916736  	-0.007042 
3851.845552  	-0.006864 
3853.774368  	-0.005144 
3855.703184  	-0.005274 
3857.632000  	-0.005846 
3859.560816  	-0.006261 
3861.489632  	-0.006527 
3863.418448  	-0.006372 
3865.347264  	-0.005702 
3867.276080  	-0.006388 
3869.204896  	-0.006181 
3871.133712  	-0.005442 
3873.062528  	-0.006189 
3874.991344  	-0.006226 
3876.920160  	-0.006778 
3878.848976  	-0.006786 
3880.777792  	-0.006001 
3882.706608  	-0.006220 
3884.635424  	-0.006442 
3886.564240  	-0.006236 
3888.493056  	-0.006889 
3890.421872  	-0.006764 
3892.350688  	-0.006155 
3894.279504  	-0.006606 
3896.208320  	-0.007174 
3898.137136  	-0.007078 
3900.065952  	-0.006523 
3901.994768  	-0.006422 
3903.923584  	-0.006270 
3905.852400  	-0.006107 
3907.781216  	-0.006404 
3909.710032  	-0.006846 
3911.638848  	-0.007152 
3913.567664  	-0.007033 
3915.496480  	-0.006748 
3917.425296  	-0.006371 
3919.354112  	-0.006366 
3921.282928  	-0.006395 
3923.211744  	-0.006369 
3925.140560  	-0.006294 
3927.069376  	-0.006569 
3928.998192  	-0.006588 
3930.927008  	-0.006444 
3932.855824  	-0.006354 
3934.784640  	-0.006537 
3936.713456  	-0.006596 
3938.642272  	-0.006772 
3940.571088  	-0.006844 
3942.499904  	-0.006236 
3944.428720  	-0.006343 
3946.357536  	-0.006815 
3948.286352  	-0.006493 
3950.215168  	-0.006500 
3952.143984  	-0.006739 
3954.072800  	-0.006882 
3956.001616  	-0.006834 
3957.930432  	-0.006568 
3959.859248  	-0.006517 
3961.788064  	-0.006511 
3963.716880  	-0.006607 
3965.645696  	-0.006979 
3967.574512  	-0.007150 
3969.503328  	-0.007100 
3971.432144  	-0.006951 
3973.360960  	-0.006612 
3975.289776  	-0.006323 
3977.218592  	-0.006525 
3979.147408  	-0.006723 
3981.076224  	-0.006761 
3983.005040  	-0.006884 
3984.933856  	-0.006705 
3986.862672  	-0.006415 
3988.791488  	-0.006659 
3990.720304  	-0.006737 
3992.649120  	-0.006676 
3994.577936  	-0.006649 
3996.506752  	-0.006787 
3998.435568  	-0.006876 
4000.364384  	-0.006692 