##TITLE=No Description
##DATA TYPE=INFRARED SPECTRUM
##XUNITS=1/CM
##YUNITS=Abs
399.264912  	0.367929 
401.193728  	0.370405 
403.122544  	0.375164 
405.051360  	0.379527 
406.980176  	0.375242 
408.908992  	0.374714 
410.837808  	0.371047 
412.766624  	0.363911 
414.695440  	0.366360 
416.624256  	0.372113 
418.553072  	0.385882 
420.481888  	0.373790 
422.410704  	0.361401 
424.339520  	0.350080 
426.268336  	0.343319 
428.197152  	0.341944 
430.125968  	0.345380 
432.054784  	0.347295 
433.983600  	0.348079 
435.912416  	0.344539 
437.841232  	0.339569 
439.770048  	0.335701 
441.698864  	0.340508 
443.627680  	0.339549 
445.556496  	0.339280 
447.485312  	0.336377 
449.414128  	0.334871 
451.342944  	0.335463 
453.271760  	0.338230 
455.200576  	0.334530 
457.129392  	0.331915 
459.058208  	0.329434 
460.987024  	0.330818 
462.915840  	0.332657 
464.844656  	0.334151 
466.773472  	0.331499 
468.702288  	0.331594 
470.631104  	0.331326 
472.559920  	0.336250 
474.488736  	0.334733 
476.417552  	0.332270 
478.346368  	0.330111 
480.275184  	0.329983 
482.204000  	0.330813 
484.132816  	0.332765 
486.061632  	0.330612 
487.990448  	0.327298 
489.919264  	0.326966 
491.848080  	0.325855 
493.776896  	0.324768 
495.705712  	0.326303 
497.634528  	0.320996 
499.563344  	0.319014 
501.492160  	0.317411 
503.420976  	0.318121 
505.349792  	0.318395 
507.278608  	0.320865 
509.207424  	0.320052 
511.136240  	0.320909 
513.065056  	0.320020 
514.993872  	0.321612 
516.922688  	0.324065 
518.851504  	0.325407 
520.780320  	0.323262 
522.709136  	0.322392 
524.637952  	0.321637 
526.566768  	0.321907 
528.495584  	0.320328 
530.424400  	0.317455 
532.353216  	0.314289 
534.282032  	0.309840 
536.210848  	0.306611 
538.139664  	0.302983 
540.068480  	0.298429 
541.997296  	0.296061 
543.926112  	0.294000 
545.854928  	0.291225 
547.783744  	0.289202 
549.712560  	0.288214 
551.641376  	0.285188 
553.570192  	0.283015 
555.499008  	0.280390 
557.427824  	0.278981 
559.356640  	0.276498 
561.285456  	0.274633 
563.214272  	0.271542 
565.143088  	0.268393 
567.071904  	0.265804 
569.000720  	0.263947 
570.929536  	0.261286 
572.858352  	0.259010 
574.787168  	0.256387 
576.715984  	0.254528 
578.644800  	0.251840 
580.573616  	0.248566 
582.502432  	0.245109 
584.431248  	0.242297 
586.360064  	0.239504 
588.288880  	0.237602 
590.217696  	0.235850 
592.146512  	0.235240 
594.075328  	0.233892 
596.004144  	0.232313 
597.932960  	0.231121 
599.861776  	0.230548 
601.790592  	0.229518 
603.719408  	0.228773 
605.648224  	0.228094 
607.577040  	0.227445 
609.505856  	0.226271 
611.434672  	0.225624 
613.363488  	0.224344 
615.292304  	0.223228 
617.221120  	0.221649 
619.149936  	0.221037 
621.078752  	0.220259 
623.007568  	0.219604 
624.936384  	0.218824 
626.865200  	0.218152 
628.794016  	0.217474 
630.722832  	0.217657 
632.651648  	0.217891 
634.580464  	0.217658 
636.509280  	0.218206 
638.438096  	0.218300 
640.366912  	0.218162 
642.295728  	0.217293 
644.224544  	0.215642 
646.153360  	0.213465 
648.082176  	0.210779 
650.010992  	0.208648 
651.939808  	0.206130 
653.868624  	0.203694 
655.797440  	0.200834 
657.726256  	0.198297 
659.655072  	0.195872 
661.583888  	0.193240 
663.512704  	0.190080 
665.441520  	0.186132 
667.370336  	0.185036 
669.299152  	0.185724 
671.227968  	0.179828 
673.156784  	0.176493 
675.085600  	0.174704 
677.014416  	0.173050 
678.943232  	0.171903 
680.872048  	0.171006 
682.800864  	0.170106 
684.729680  	0.168938 
686.658496  	0.167970 
688.587312  	0.167241 
690.516128  	0.166377 
692.444944  	0.165966 
694.373760  	0.164793 
696.302576  	0.163673 
698.231392  	0.162348 
700.160208  	0.160938 
702.089024  	0.159111 
704.017840  	0.157591 
705.946656  	0.155895 
707.875472  	0.153959 
709.804288  	0.152597 
711.733104  	0.151801 
713.661920  	0.150887 
715.590736  	0.149869 
717.519552  	0.149593 
719.448368  	0.150576 
721.377184  	0.151514 
723.306000  	0.152017 
725.234816  	0.152945 
727.163632  	0.152665 
729.092448  	0.150983 
731.021264  	0.148777 
732.950080  	0.146210 
734.878896  	0.143702 
736.807712  	0.141608 
738.736528  	0.140184 
740.665344  	0.138715 
742.594160  	0.137979 
744.522976  	0.137033 
746.451792  	0.136366 
748.380608  	0.135254 
750.309424  	0.134645 
752.238240  	0.134073 
754.167056  	0.133666 
756.095872  	0.133334 
758.024688  	0.132749 
759.953504  	0.132828 
761.882320  	0.133583 
763.811136  	0.134394 
765.739952  	0.133659 
767.668768  	0.131701 
769.597584  	0.130319 
771.526400  	0.130300 
773.455216  	0.132110 
775.384032  	0.135223 
777.312848  	0.139381 
779.241664  	0.142347 
781.170480  	0.142365 
783.099296  	0.139387 
785.028112  	0.135330 
786.956928  	0.131315 
788.885744  	0.128328 
790.814560  	0.125810 
792.743376  	0.124636 
794.672192  	0.124307 
796.601008  	0.123771 
798.529824  	0.121792 
800.458640  	0.118759 
802.387456  	0.116278 
804.316272  	0.115129 
806.245088  	0.114932 
808.173904  	0.114654 
810.102720  	0.114653 
812.031536  	0.114979 
813.960352  	0.115675 
815.889168  	0.116374 
817.817984  	0.117123 
819.746800  	0.117844 
821.675616  	0.118484 
823.604432  	0.119294 
825.533248  	0.119832 
827.462064  	0.120440 
829.390880  	0.120145 
831.319696  	0.119954 
833.248512  	0.119342 
835.177328  	0.118281 
837.106144  	0.116483 
839.034960  	0.114586 
840.963776  	0.111649 
842.892592  	0.108590 
844.821408  	0.106165 
846.750224  	0.104024 
848.679040  	0.102024 
850.607856  	0.100409 
852.536672  	0.099545 
854.465488  	0.098881 
856.394304  	0.098520 
858.323120  	0.097871 
860.251936  	0.096782 
862.180752  	0.095860 
864.109568  	0.094525 
866.038384  	0.093126 
867.967200  	0.091741 
869.896016  	0.090883 
871.824832  	0.090460 
873.753648  	0.090675 
875.682464  	0.091192 
877.611280  	0.092760 
879.540096  	0.094491 
881.468912  	0.096330 
883.397728  	0.098081 
885.326544  	0.099506 
887.255360  	0.100378 
889.184176  	0.100438 
891.112992  	0.100034 
893.041808  	0.098923 
894.970624  	0.097204 
896.899440  	0.094600 
898.828256  	0.091482 
900.757072  	0.088516 
902.685888  	0.086104 
904.614704  	0.084826 
906.543520  	0.084740 
908.472336  	0.086168 
910.401152  	0.088383 
912.329968  	0.090911 
914.258784  	0.093233 
916.187600  	0.095798 
918.116416  	0.097708 
920.045232  	0.099067 
921.974048  	0.099839 
923.902864  	0.100433 
925.831680  	0.100961 
927.760496  	0.101698 
929.689312  	0.102510 
931.618128  	0.103478 
933.546944  	0.104142 
935.475760  	0.104483 
937.404576  	0.104511 
939.333392  	0.104267 
941.262208  	0.104449 
943.191024  	0.105670 
945.119840  	0.108439 
947.048656  	0.112879 
948.977472  	0.119187 
950.906288  	0.126858 
952.835104  	0.135606 
954.763920  	0.145027 
956.692736  	0.153701 
958.621552  	0.161039 
960.550368  	0.165497 
962.479184  	0.167358 
964.408000  	0.165806 
966.336816  	0.161659 
968.265632  	0.154901 
970.194448  	0.146472 
972.123264  	0.136792 
974.052080  	0.126754 
975.980896  	0.117093 
977.909712  	0.107941 
979.838528  	0.100128 
981.767344  	0.093808 
983.696160  	0.089570 
985.624976  	0.087334 
987.553792  	0.087407 
989.482608  	0.089522 
991.411424  	0.093702 
993.340240  	0.099461 
995.269056  	0.105758 
997.197872  	0.112196 
999.126688  	0.118347 
1001.055504  	0.124973 
1002.984320  	0.130712 
1004.913136  	0.136163 
1006.841952  	0.141093 
1008.770768  	0.145567 
1010.699584  	0.148696 
1012.628400  	0.150819 
1014.557216  	0.152231 
1016.486032  	0.152918 
1018.414848  	0.152894 
1020.343664  	0.152536 
1022.272480  	0.152391 
1024.201296  	0.152279 
1026.130112  	0.152056 
1028.058928  	0.152568 
1029.987744  	0.154128 
1031.916560  	0.156003 
1033.845376  	0.158352 
1035.774192  	0.161526 
1037.703008  	0.165418 
1039.631824  	0.171373 
1041.560640  	0.178603 
1043.489456  	0.187235 
1045.418272  	0.195583 
1047.347088  	0.202877 
1049.275904  	0.206921 
1051.204720  	0.207942 
1053.133536  	0.206576 
1055.062352  	0.203685 
1056.991168  	0.200125 
1058.919984  	0.197583 
1060.848800  	0.195463 
1062.777616  	0.193063 
1064.706432  	0.189666 
1066.635248  	0.185992 
1068.564064  	0.182244 
1070.492880  	0.178023 
1072.421696  	0.173935 
1074.350512  	0.171434 
1076.279328  	0.170601 
1078.208144  	0.171588 
1080.136960  	0.172789 
1082.065776  	0.173262 
1083.994592  	0.171806 
1085.923408  	0.168384 
1087.852224  	0.163164 
1089.781040  	0.157481 
1091.709856  	0.150591 
1093.638672  	0.143218 
1095.567488  	0.135189 
1097.496304  	0.127161 
1099.425120  	0.119003 
1101.353936  	0.111122 
1103.282752  	0.103619 
1105.211568  	0.096650 
1107.140384  	0.090391 
1109.069200  	0.084631 
1110.998016  	0.079427 
1112.926832  	0.074673 
1114.855648  	0.070336 
1116.784464  	0.065953 
1118.713280  	0.061666 
1120.642096  	0.057629 
1122.570912  	0.053947 
1124.499728  	0.050720 
1126.428544  	0.047703 
1128.357360  	0.045182 
1130.286176  	0.042950 
1132.214992  	0.041246 
1134.143808  	0.039934 
1136.072624  	0.038814 
1138.001440  	0.037631 
1139.930256  	0.036622 
1141.859072  	0.035685 
1143.787888  	0.034721 
1145.716704  	0.033746 
1147.645520  	0.032962 
1149.574336  	0.032725 
1151.503152  	0.032411 
1153.431968  	0.032482 
1155.360784  	0.032897 
1157.289600  	0.033768 
1159.218416  	0.034728 
1161.147232  	0.035933 
1163.076048  	0.037411 
1165.004864  	0.038688 
1166.933680  	0.040209 
1168.862496  	0.041916 
1170.791312  	0.043733 
1172.720128  	0.045727 
1174.648944  	0.048000 
1176.577760  	0.050057 
1178.506576  	0.052462 
1180.435392  	0.055048 
1182.364208  	0.057511 
1184.293024  	0.060113 
1186.221840  	0.063255 
1188.150656  	0.066965 
1190.079472  	0.071040 
1192.008288  	0.075567 
1193.937104  	0.080749 
1195.865920  	0.086372 
1197.794736  	0.092164 
1199.723552  	0.098284 
1201.652368  	0.104296 
1203.581184  	0.109467 
1205.510000  	0.114324 
1207.438816  	0.118503 
1209.367632  	0.121764 
1211.296448  	0.124047 
1213.225264  	0.125739 
1215.154080  	0.126149 
1217.082896  	0.125945 
1219.011712  	0.125018 
1220.940528  	0.123851 
1222.869344  	0.122157 
1224.798160  	0.120514 
1226.726976  	0.118155 
1228.655792  	0.115469 
1230.584608  	0.112567 
1232.513424  	0.109453 
1234.442240  	0.106019 
1236.371056  	0.102539 
1238.299872  	0.098672 
1240.228688  	0.094277 
1242.157504  	0.090081 
1244.086320  	0.086112 
1246.015136  	0.081940 
1247.943952  	0.077950 
1249.872768  	0.073924 
1251.801584  	0.070108 
1253.730400  	0.066491 
1255.659216  	0.062961 
1257.588032  	0.059459 
1259.516848  	0.056529 
1261.445664  	0.053686 
1263.374480  	0.051061 
1265.303296  	0.048628 
1267.232112  	0.046864 
1269.160928  	0.045735 
1271.089744  	0.045102 
1273.018560  	0.044726 
1274.947376  	0.044872 
1276.876192  	0.045383 
1278.805008  	0.045734 
1280.733824  	0.045594 
1282.662640  	0.044582 
1284.591456  	0.043385 
1286.520272  	0.042498 
1288.449088  	0.042103 
1290.377904  	0.042013 
1292.306720  	0.042308 
1294.235536  	0.042643 
1296.164352  	0.042341 
1298.093168  	0.041145 
1300.021984  	0.039458 
1301.950800  	0.037675 
1303.879616  	0.035693 
1305.808432  	0.033741 
1307.737248  	0.031719 
1309.666064  	0.029687 
1311.594880  	0.028233 
1313.523696  	0.027356 
1315.452512  	0.026549 
1317.381328  	0.026448 
1319.310144  	0.026788 
1321.238960  	0.027037 
1323.167776  	0.027448 
1325.096592  	0.027892 
1327.025408  	0.028020 
1328.954224  	0.028001 
1330.883040  	0.027610 
1332.811856  	0.026716 
1334.740672  	0.025767 
1336.669488  	0.025527 
1338.598304  	0.026277 
1340.527120  	0.026651 
1342.455936  	0.025326 
1344.384752  	0.024789 
1346.313568  	0.025005 
1348.242384  	0.025609 
1350.171200  	0.026395 
1352.100016  	0.027440 
1354.028832  	0.028813 
1355.957648  	0.030426 
1357.886464  	0.031660 
1359.815280  	0.032826 
1361.744096  	0.034990 
1363.672912  	0.037371 
1365.601728  	0.037441 
1367.530544  	0.037968 
1369.459360  	0.039210 
1371.388176  	0.039148 
1373.316992  	0.039053 
1375.245808  	0.038896 
1377.174624  	0.036768 
1379.103440  	0.034942 
1381.032256  	0.033074 
1382.961072  	0.031309 
1384.889888  	0.029621 
1386.818704  	0.029653 
1388.747520  	0.029183 
1390.676336  	0.027045 
1392.605152  	0.025186 
1394.533968  	0.025429 
1396.462784  	0.026325 
1398.391600  	0.026130 
1400.320416  	0.026406 
1402.249232  	0.025500 
1404.178048  	0.026212 
1406.106864  	0.027551 
1408.035680  	0.027951 
1409.964496  	0.028886 
1411.893312  	0.030452 
1413.822128  	0.031717 
1415.750944  	0.032785 
1417.679760  	0.033938 
1419.608576  	0.036682 
1421.537392  	0.035799 
1423.466208  	0.034798 
1425.395024  	0.034122 
1427.323840  	0.031676 
1429.252656  	0.030647 
1431.181472  	0.030046 
1433.110288  	0.028801 
1435.039104  	0.028050 
1436.967920  	0.030944 
1438.896736  	0.031582 
1440.825552  	0.031070 
1442.754368  	0.031257 
1444.683184  	0.030957 
1446.612000  	0.031068 
1448.540816  	0.032169 
1450.469632  	0.032028 
1452.398448  	0.031711 
1454.327264  	0.030803 
1456.256080  	0.032006 
1458.184896  	0.036975 
1460.113712  	0.034762 
1462.042528  	0.032021 
1463.971344  	0.031787 
1465.900160  	0.034026 
1467.828976  	0.033744 
1469.757792  	0.033131 
1471.686608  	0.035680 
1473.615424  	0.043413 
1475.544240  	0.046010 
1477.473056  	0.048619 
1479.401872  	0.049312 
1481.330688  	0.051385 
1483.259504  	0.052628 
1485.188320  	0.052214 
1487.117136  	0.052362 
1489.045952  	0.053929 
1490.974768  	0.054473 
1492.903584  	0.050324 
1494.832400  	0.045866 
1496.761216  	0.044326 
1498.690032  	0.041871 
1500.618848  	0.038253 
1502.547664  	0.033889 
1504.476480  	0.029875 
1506.405296  	0.031060 
1508.334112  	0.035153 
1510.262928  	0.031002 
1512.191744  	0.028368 
1514.120560  	0.026879 
1516.049376  	0.027851 
1517.978192  	0.030037 
1519.907008  	0.029413 
1521.835824  	0.034651 
1523.764640  	0.035906 
1525.693456  	0.037007 
1527.622272  	0.039142 
1529.551088  	0.038110 
1531.479904  	0.035746 
1533.408720  	0.036238 
1535.337536  	0.034813 
1537.266352  	0.030175 
1539.195168  	0.029211 
1541.123984  	0.032026 
1543.052800  	0.030403 
1544.981616  	0.029377 
1546.910432  	0.026912 
1548.839248  	0.025667 
1550.768064  	0.027105 
1552.696880  	0.025856 
1554.625696  	0.026603 
1556.554512  	0.025394 
1558.483328  	0.029388 
1560.412144  	0.037733 
1562.340960  	0.034025 
1564.269776  	0.034318 
1566.198592  	0.037093 
1568.127408  	0.038203 
1570.056224  	0.045197 
1571.985040  	0.047205 
1573.913856  	0.046108 
1575.842672  	0.049641 
1577.771488  	0.054583 
1579.700304  	0.051957 
1581.629120  	0.050886 
1583.557936  	0.050496 
1585.486752  	0.051365 
1587.415568  	0.052759 
1589.344384  	0.055590 
1591.273200  	0.058961 
1593.202016  	0.063056 
1595.130832  	0.067475 
1597.059648  	0.071689 
1598.988464  	0.074480 
1600.917280  	0.077310 
1602.846096  	0.079342 
1604.774912  	0.080331 
1606.703728  	0.079982 
1608.632544  	0.080285 
1610.561360  	0.079422 
1612.490176  	0.077714 
1614.418992  	0.074453 
1616.347808  	0.077091 
1618.276624  	0.081979 
1620.205440  	0.080165 
1622.134256  	0.080502 
1624.063072  	0.087695 
1625.991888  	0.089526 
1627.920704  	0.093600 
1629.849520  	0.098131 
1631.778336  	0.098620 
1633.707152  	0.097728 
1635.635968  	0.106194 
1637.564784  	0.114707 
1639.493600  	0.112061 
1641.422416  	0.111345 
1643.351232  	0.109236 
1645.280048  	0.106769 
1647.208864  	0.114151 
1649.137680  	0.112739 
1651.066496  	0.102439 
1652.995312  	0.106725 
1654.924128  	0.116375 
1656.852944  	0.107529 
1658.781760  	0.102670 
1660.710576  	0.099239 
1662.639392  	0.099420 
1664.568208  	0.098399 
1666.497024  	0.092302 
1668.425840  	0.089209 
1670.354656  	0.090745 
1672.283472  	0.087466 
1674.212288  	0.083299 
1676.141104  	0.085350 
1678.069920  	0.081911 
1679.998736  	0.080012 
1681.927552  	0.076628 
1683.856368  	0.078533 
1685.785184  	0.083868 
1687.714000  	0.078604 
1689.642816  	0.077786 
1691.571632  	0.076329 
1693.500448  	0.072076 
1695.429264  	0.072204 
1697.358080  	0.074684 
1699.286896  	0.070815 
1701.215712  	0.076112 
1703.144528  	0.070647 
1705.073344  	0.067950 
1707.002160  	0.067281 
1708.930976  	0.063407 
1710.859792  	0.059678 
1712.788608  	0.055382 
1714.717424  	0.051405 
1716.646240  	0.048074 
1718.575056  	0.045255 
1720.503872  	0.038613 
1722.432688  	0.032703 
1724.361504  	0.028041 
1726.290320  	0.023387 
1728.219136  	0.019490 
1730.147952  	0.016761 
1732.076768  	0.013518 
1734.005584  	0.012840 
1735.934400  	0.011231 
1737.863216  	0.008201 
1739.792032  	0.007206 
1741.720848  	0.006053 
1743.649664  	0.005580 
1745.578480  	0.004466 
1747.507296  	0.003591 
1749.436112  	0.003902 
1751.364928  	0.003918 
1753.293744  	0.002469 
1755.222560  	0.001149 
1757.151376  	0.001914 
1759.080192  	0.001149 
1761.009008  	0.000874 
1762.937824  	0.001123 
1764.866640  	0.000042 
1766.795456  	-0.000437 
1768.724272  	-0.000044 
1770.653088  	-0.000893 
1772.581904  	0.000522 
1774.510720  	0.000603 
1776.439536  	-0.000281 
1778.368352  	-0.001237 
1780.297168  	-0.001033 
1782.225984  	-0.001291 
1784.154800  	-0.001568 
1786.083616  	-0.001624 
1788.012432  	-0.002234 
1789.941248  	-0.002282 
1791.870064  	-0.001081 
1793.798880  	-0.000994 
1795.727696  	-0.001734 
1797.656512  	-0.002558 
1799.585328  	-0.002773 
1801.514144  	-0.001934 
1803.442960  	-0.002155 
1805.371776  	-0.002583 
1807.300592  	-0.002940 
1809.229408  	-0.003150 
1811.158224  	-0.002819 
1813.087040  	-0.003050 
1815.015856  	-0.003676 
1816.944672  	-0.003288 
1818.873488  	-0.002979 
1820.802304  	-0.003020 
1822.731120  	-0.003174 
1824.659936  	-0.003118 
1826.588752  	-0.003135 
1828.517568  	-0.003487 
1830.446384  	-0.002471 
1832.375200  	-0.003140 
1834.304016  	-0.003667 
1836.232832  	-0.003459 
1838.161648  	-0.003249 
1840.090464  	-0.003703 
1842.019280  	-0.004318 
1843.948096  	-0.003771 
1845.876912  	-0.003050 
1847.805728  	-0.003739 
1849.734544  	-0.003976 
1851.663360  	-0.004070 
1853.592176  	-0.003779 
1855.520992  	-0.003761 
1857.449808  	-0.003814 
1859.378624  	-0.004275 
1861.307440  	-0.004242 
1863.236256  	-0.004548 
1865.165072  	-0.004819 
1867.093888  	-0.004605 
1869.022704  	-0.002832 
1870.951520  	-0.003008 
1872.880336  	-0.003979 
1874.809152  	-0.004396 
1876.737968  	-0.004393 
1878.666784  	-0.004409 
1880.595600  	-0.004644 
1882.524416  	-0.004564 
1884.453232  	-0.004335 
1886.382048  	-0.004631 
1888.310864  	-0.004433 
1890.239680  	-0.003984 
1892.168496  	-0.004050 
1894.097312  	-0.003935 
1896.026128  	-0.004022 
1897.954944  	-0.004509 
1899.883760  	-0.004305 
1901.812576  	-0.004326 
1903.741392  	-0.004307 
1905.670208  	-0.004712 
1907.599024  	-0.005203 
1909.527840  	-0.004867 
1911.456656  	-0.004380 
1913.385472  	-0.004266 
1915.314288  	-0.004310 
1917.243104  	-0.004144 
1919.171920  	-0.003603 
1921.100736  	-0.004315 
1923.029552  	-0.004508 
1924.958368  	-0.005001 
1926.887184  	-0.005093 
1928.816000  	-0.005474 
1930.744816  	-0.005512 
1932.673632  	-0.005115 
1934.602448  	-0.004561 
1936.531264  	-0.005062 
1938.460080  	-0.004980 
1940.388896  	-0.004520 
1942.317712  	-0.004015 
1944.246528  	-0.004781 
1946.175344  	-0.004995 
1948.104160  	-0.004846 
1950.032976  	-0.004339 
1951.961792  	-0.004855 
1953.890608  	-0.005380 
1955.819424  	-0.005497 
1957.748240  	-0.005220 
1959.677056  	-0.005179 
1961.605872  	-0.004882 
1963.534688  	-0.004770 
1965.463504  	-0.004329 
1967.392320  	-0.004564 
1969.321136  	-0.004968 
1971.249952  	-0.005910 
1973.178768  	-0.006671 
1975.107584  	-0.006913 
1977.036400  	-0.005246 
1978.965216  	-0.004219 
1980.894032  	-0.004608 
1982.822848  	-0.004544 
1984.751664  	-0.004516 
1986.680480  	-0.004653 
1988.609296  	-0.003834 
1990.538112  	-0.003258 
1992.466928  	-0.002976 
1994.395744  	-0.003635 
1996.324560  	-0.003987 
1998.253376  	-0.003466 
2000.182192  	-0.003431 
2002.111008  	-0.004417 
2004.039824  	-0.004480 
2005.968640  	-0.004689 
2007.897456  	-0.004288 
2009.826272  	-0.004084 
2011.755088  	-0.004164 
2013.683904  	-0.004441 
2015.612720  	-0.003819 
2017.541536  	-0.003676 
2019.470352  	-0.003560 
2021.399168  	-0.004156 
2023.327984  	-0.003825 
2025.256800  	-0.003668 
2027.185616  	-0.003529 
2029.114432  	-0.003907 
2031.043248  	-0.003010 
2032.972064  	-0.002450 
2034.900880  	-0.002004 
2036.829696  	-0.003177 
2038.758512  	-0.003705 
2040.687328  	-0.003210 
2042.616144  	-0.002136 
2044.544960  	-0.002165 
2046.473776  	-0.002107 
2048.402592  	-0.001956 
2050.331408  	-0.001842 
2052.260224  	-0.001862 
2054.189040  	-0.001758 
2056.117856  	-0.002430 
2058.046672  	-0.002609 
2059.975488  	-0.002511 
2061.904304  	-0.002099 
2063.833120  	-0.001492 
2065.761936  	-0.001222 
2067.690752  	-0.001916 
2069.619568  	-0.002497 
2071.548384  	-0.002744 
2073.477200  	-0.002278 
2075.406016  	-0.001670 
2077.334832  	-0.001303 
2079.263648  	-0.001218 
2081.192464  	-0.001030 
2083.121280  	-0.001407 
2085.050096  	-0.001940 
2086.978912  	-0.002014 
2088.907728  	-0.001478 
2090.836544  	-0.001290 
2092.765360  	-0.001643 
2094.694176  	-0.001944 
2096.622992  	-0.001390 
2098.551808  	-0.001137 
2100.480624  	-0.000986 
2102.409440  	-0.000937 
2104.338256  	-0.000912 
2106.267072  	-0.000989 
2108.195888  	-0.000954 
2110.124704  	-0.001152 
2112.053520  	-0.001002 
2113.982336  	-0.000995 
2115.911152  	-0.001374 
2117.839968  	-0.001806 
2119.768784  	-0.001858 
2121.697600  	-0.001887 
2123.626416  	-0.001981 
2125.555232  	-0.002362 
2127.484048  	-0.002271 
2129.412864  	-0.001784 
2131.341680  	-0.001170 
2133.270496  	-0.000753 
2135.199312  	-0.000665 
2137.128128  	-0.000902 
2139.056944  	-0.000903 
2140.985760  	-0.000393 
2142.914576  	0.000086 
2144.843392  	-0.001202 
2146.772208  	-0.002031 
2148.701024  	-0.001600 
2150.629840  	-0.000793 
2152.558656  	-0.000746 
2154.487472  	-0.001055 
2156.416288  	-0.000617 
2158.345104  	0.002292 
2160.273920  	0.004198 
2162.202736  	0.003198 
2164.131552  	0.001154 
2166.060368  	0.000923 
2167.989184  	0.001284 
2169.918000  	0.000522 
2171.846816  	0.000336 
2173.775632  	0.000791 
2175.704448  	0.000743 
2177.633264  	0.000542 
2179.562080  	0.000452 
2181.490896  	0.001167 
2183.419712  	0.001177 
2185.348528  	0.000716 
2187.277344  	0.000502 
2189.206160  	0.000721 
2191.134976  	0.000831 
2193.063792  	0.000591 
2194.992608  	0.000200 
2196.921424  	0.000197 
2198.850240  	-0.000761 
2200.779056  	-0.001232 
2202.707872  	-0.000684 
2204.636688  	0.000303 
2206.565504  	0.000173 
2208.494320  	-0.000416 
2210.423136  	-0.000977 
2212.351952  	-0.000721 
2214.280768  	-0.000755 
2216.209584  	-0.001129 
2218.138400  	-0.001691 
2220.067216  	-0.001622 
2221.996032  	-0.001279 
2223.924848  	-0.000929 
2225.853664  	-0.000948 
2227.782480  	-0.000410 
2229.711296  	-0.001002 
2231.640112  	-0.001332 
2233.568928  	-0.001672 
2235.497744  	-0.001845 
2237.426560  	-0.001647 
2239.355376  	-0.001351 
2241.284192  	-0.001740 
2243.213008  	-0.001991 
2245.141824  	-0.002135 
2247.070640  	-0.002003 
2248.999456  	-0.001481 
2250.928272  	-0.000999 
2252.857088  	-0.001050 
2254.785904  	-0.000733 
2256.714720  	-0.000544 
2258.643536  	-0.000586 
2260.572352  	-0.000615 
2262.501168  	-0.000469 
2264.429984  	-0.000194 
2266.358800  	-0.000183 
2268.287616  	-0.000482 
2270.216432  	-0.000427 
2272.145248  	-0.000444 
2274.074064  	-0.000260 
2276.002880  	-0.000358 
2277.931696  	-0.000413 
2279.860512  	-0.000424 
2281.789328  	-0.000498 
2283.718144  	-0.000570 
2285.646960  	-0.000190 
2287.575776  	-0.000091 
2289.504592  	0.000022 
2291.433408  	0.000361 
2293.362224  	0.000729 
2295.291040  	0.000608 
2297.219856  	0.000679 
2299.148672  	0.000758 
2301.077488  	0.001040 
2303.006304  	0.001612 
2304.935120  	0.002143 
2306.863936  	0.002412 
2308.792752  	0.002791 
2310.721568  	0.003117 
2312.650384  	0.003066 
2314.579200  	0.002750 
2316.508016  	0.002983 
2318.436832  	0.003706 
2320.365648  	0.004368 
2322.294464  	0.004753 
2324.223280  	0.004641 
2326.152096  	0.003609 
2328.080912  	0.002795 
2330.009728  	0.003021 
2331.938544  	0.003177 
2333.867360  	0.002860 
2335.796176  	0.002486 
2337.724992  	0.002076 
2339.653808  	0.002451 
2341.582624  	0.003270 
2343.511440  	0.004251 
2345.440256  	0.004827 
2347.369072  	0.003965 
2349.297888  	0.002606 
2351.226704  	0.002182 
2353.155520  	0.002324 
2355.084336  	0.002956 
2357.013152  	0.003988 
2358.941968  	0.004685 
2360.870784  	0.004562 
2362.799600  	0.004678 
2364.728416  	0.005131 
2366.657232  	0.004995 
2368.586048  	0.004660 
2370.514864  	0.004901 
2372.443680  	0.004430 
2374.372496  	0.004160 
2376.301312  	0.003679 
2378.230128  	0.002964 
2380.158944  	0.002114 
2382.087760  	0.001154 
2384.016576  	0.000046 
2385.945392  	-0.000551 
2387.874208  	-0.000743 
2389.803024  	-0.000964 
2391.731840  	-0.001155 
2393.660656  	-0.001268 
2395.589472  	-0.001277 
2397.518288  	-0.001148 
2399.447104  	-0.001121 
2401.375920  	-0.001110 
2403.304736  	-0.001265 
2405.233552  	-0.001185 
2407.162368  	-0.001121 
2409.091184  	-0.001162 
2411.020000  	-0.001174 
2412.948816  	-0.001256 
2414.877632  	-0.001293 
2416.806448  	-0.000955 
2418.735264  	-0.000761 
2420.664080  	-0.000913 
2422.592896  	-0.001018 
2424.521712  	-0.000928 
2426.450528  	-0.000986 
2428.379344  	-0.000982 
2430.308160  	-0.000783 
2432.236976  	-0.000546 
2434.165792  	-0.000249 
2436.094608  	-0.000062 
2438.023424  	-0.000219 
2439.952240  	-0.000368 
2441.881056  	-0.000428 
2443.809872  	-0.000464 
2445.738688  	-0.000423 
2447.667504  	-0.000171 
2449.596320  	0.000037 
2451.525136  	0.000033 
2453.453952  	-0.000006 
2455.382768  	0.000040 
2457.311584  	-0.000000 
2459.240400  	-0.000225 
2461.169216  	-0.000117 
2463.098032  	0.000311 
2465.026848  	0.000298 
2466.955664  	0.000189 
2468.884480  	-0.000041 
2470.813296  	-0.000140 
2472.742112  	0.000161 
2474.670928  	0.000479 
2476.599744  	0.000606 
2478.528560  	0.000737 
2480.457376  	0.000872 
2482.386192  	0.000944 
2484.315008  	0.000893 
2486.243824  	0.000865 
2488.172640  	0.001053 
2490.101456  	0.001235 
2492.030272  	0.001331 
2493.959088  	0.001312 
2495.887904  	0.001181 
2497.816720  	0.001398 
2499.745536  	0.001308 
2501.674352  	0.001334 
2503.603168  	0.001558 
2505.531984  	0.001628 
2507.460800  	0.001398 
2509.389616  	0.001185 
2511.318432  	0.001342 
2513.247248  	0.001537 
2515.176064  	0.001720 
2517.104880  	0.001805 
2519.033696  	0.001868 
2520.962512  	0.001793 
2522.891328  	0.001793 
2524.820144  	0.002082 
2526.748960  	0.002215 
2528.677776  	0.002415 
2530.606592  	0.002516 
2532.535408  	0.002589 
2534.464224  	0.002396 
2536.393040  	0.002203 
2538.321856  	0.002405 
2540.250672  	0.002581 
2542.179488  	0.002606 
2544.108304  	0.002754 
2546.037120  	0.002890 
2547.965936  	0.003094 
2549.894752  	0.003314 
2551.823568  	0.003331 
2553.752384  	0.003293 
2555.681200  	0.003330 
2557.610016  	0.003319 
2559.538832  	0.003222 
2561.467648  	0.003478 
2563.396464  	0.003587 
2565.325280  	0.003446 
2567.254096  	0.003422 
2569.182912  	0.003560 
2571.111728  	0.003711 
2573.040544  	0.003688 
2574.969360  	0.003744 
2576.898176  	0.003892 
2578.826992  	0.004123 
2580.755808  	0.003954 
2582.684624  	0.004018 
2584.613440  	0.004278 
2586.542256  	0.004385 
2588.471072  	0.004311 
2590.399888  	0.004251 
2592.328704  	0.004313 
2594.257520  	0.004637 
2596.186336  	0.004672 
2598.115152  	0.004578 
2600.043968  	0.004675 
2601.972784  	0.004713 
2603.901600  	0.004795 
2605.830416  	0.004705 
2607.759232  	0.004670 
2609.688048  	0.004794 
2611.616864  	0.005123 
2613.545680  	0.005220 
2615.474496  	0.005287 
2617.403312  	0.005558 
2619.332128  	0.005565 
2621.260944  	0.005427 
2623.189760  	0.005489 
2625.118576  	0.005726 
2627.047392  	0.005739 
2628.976208  	0.005824 
2630.905024  	0.005959 
2632.833840  	0.006040 
2634.762656  	0.006059 
2636.691472  	0.006212 
2638.620288  	0.006325 
2640.549104  	0.006433 
2642.477920  	0.006547 
2644.406736  	0.006432 
2646.335552  	0.006394 
2648.264368  	0.006541 
2650.193184  	0.006770 
2652.122000  	0.006921 
2654.050816  	0.007023 
2655.979632  	0.007044 
2657.908448  	0.007087 
2659.837264  	0.007185 
2661.766080  	0.007228 
2663.694896  	0.007217 
2665.623712  	0.007282 
2667.552528  	0.007432 
2669.481344  	0.007523 
2671.410160  	0.007594 
2673.338976  	0.007707 
2675.267792  	0.007876 
2677.196608  	0.008061 
2679.125424  	0.008197 
2681.054240  	0.008252 
2682.983056  	0.008274 
2684.911872  	0.008312 
2686.840688  	0.008378 
2688.769504  	0.008450 
2690.698320  	0.008524 
2692.627136  	0.008620 
2694.555952  	0.008672 
2696.484768  	0.008767 
2698.413584  	0.008893 
2700.342400  	0.008871 
2702.271216  	0.008980 
2704.200032  	0.009204 
2706.128848  	0.009297 
2708.057664  	0.009334 
2709.986480  	0.009405 
2711.915296  	0.009540 
2713.844112  	0.009635 
2715.772928  	0.009659 
2717.701744  	0.009725 
2719.630560  	0.009849 
2721.559376  	0.009981 
2723.488192  	0.010012 
2725.417008  	0.010134 
2727.345824  	0.010373 
2729.274640  	0.010594 
2731.203456  	0.010613 
2733.132272  	0.010497 
2735.061088  	0.010551 
2736.989904  	0.010637 
2738.918720  	0.010802 
2740.847536  	0.010891 
2742.776352  	0.011043 
2744.705168  	0.011113 
2746.633984  	0.011170 
2748.562800  	0.011300 
2750.491616  	0.011259 
2752.420432  	0.011205 
2754.349248  	0.011203 
2756.278064  	0.011291 
2758.206880  	0.011263 
2760.135696  	0.011264 
2762.064512  	0.011343 
2763.993328  	0.011432 
2765.922144  	0.011456 
2767.850960  	0.011400 
2769.779776  	0.011338 
2771.708592  	0.011333 
2773.637408  	0.011406 
2775.566224  	0.011394 
2777.495040  	0.011326 
2779.423856  	0.011379 
2781.352672  	0.011461 
2783.281488  	0.011479 
2785.210304  	0.011505 
2787.139120  	0.011628 
2789.067936  	0.011605 
2790.996752  	0.011627 
2792.925568  	0.011688 
2794.854384  	0.011707 
2796.783200  	0.011688 
2798.712016  	0.011664 
2800.640832  	0.011717 
2802.569648  	0.011838 
2804.498464  	0.011846 
2806.427280  	0.011829 
2808.356096  	0.011907 
2810.284912  	0.012069 
2812.213728  	0.012020 
2814.142544  	0.011925 
2816.071360  	0.011896 
2818.000176  	0.012048 
2819.928992  	0.012165 
2821.857808  	0.012176 
2823.786624  	0.012162 
2825.715440  	0.012182 
2827.644256  	0.012199 
2829.573072  	0.012159 
2831.501888  	0.012145 
2833.430704  	0.012142 
2835.359520  	0.012171 
2837.288336  	0.012122 
2839.217152  	0.012067 
2841.145968  	0.011960 
2843.074784  	0.011921 
2845.003600  	0.011950 
2846.932416  	0.011964 
2848.861232  	0.012060 
2850.790048  	0.011969 
2852.718864  	0.011966 
2854.647680  	0.012051 
2856.576496  	0.012147 
2858.505312  	0.012235 
2860.434128  	0.012245 
2862.362944  	0.012184 
2864.291760  	0.012112 
2866.220576  	0.012171 
2868.149392  	0.012279 
2870.078208  	0.012439 
2872.007024  	0.012663 
2873.935840  	0.012843 
2875.864656  	0.013028 
2877.793472  	0.013185 
2879.722288  	0.013442 
2881.651104  	0.013672 
2883.579920  	0.013738 
2885.508736  	0.013869 
2887.437552  	0.014129 
2889.366368  	0.014253 
2891.295184  	0.014227 
2893.224000  	0.014252 
2895.152816  	0.014335 
2897.081632  	0.014359 
2899.010448  	0.014008 
2900.939264  	0.013613 
2902.868080  	0.013807 
2904.796896  	0.014165 
2906.725712  	0.014374 
2908.654528  	0.014525 
2910.583344  	0.014791 
2912.512160  	0.015082 
2914.440976  	0.015376 
2916.369792  	0.015714 
2918.298608  	0.015963 
2920.227424  	0.016329 
2922.156240  	0.016756 
2924.085056  	0.017071 
2926.013872  	0.017384 
2927.942688  	0.017853 
2929.871504  	0.018363 
2931.800320  	0.018675 
2933.729136  	0.019129 
2935.657952  	0.019570 
2937.586768  	0.019845 
2939.515584  	0.020009 
2941.444400  	0.020156 
2943.373216  	0.020421 
2945.302032  	0.020702 
2947.230848  	0.020826 
2949.159664  	0.020721 
2951.088480  	0.020433 
2953.017296  	0.020296 
2954.946112  	0.020109 
2956.874928  	0.020004 
2958.803744  	0.019818 
2960.732560  	0.019650 
2962.661376  	0.019579 
2964.590192  	0.019404 
2966.519008  	0.019183 
2968.447824  	0.018919 
2970.376640  	0.018719 
2972.305456  	0.018488 
2974.234272  	0.018641 
2976.163088  	0.018649 
2978.091904  	0.018545 
2980.020720  	0.018599 
2981.949536  	0.018612 
2983.878352  	0.018476 
2985.807168  	0.018268 
2987.735984  	0.018208 
2989.664800  	0.018305 
2991.593616  	0.018880 
2993.522432  	0.019289 
2995.451248  	0.019426 
2997.380064  	0.019742 
2999.308880  	0.020155 
3001.237696  	0.020478 
3003.166512  	0.020916 
3005.095328  	0.021386 
3007.024144  	0.021771 
3008.952960  	0.022184 
3010.881776  	0.022634 
3012.810592  	0.023116 
3014.739408  	0.023511 
3016.668224  	0.023876 
3018.597040  	0.024300 
3020.525856  	0.024753 
3022.454672  	0.025123 
3024.383488  	0.025502 
3026.312304  	0.025989 
3028.241120  	0.026269 
3030.169936  	0.026591 
3032.098752  	0.027121 
3034.027568  	0.027362 
3035.956384  	0.027696 
3037.885200  	0.027989 
3039.814016  	0.028389 
3041.742832  	0.028688 
3043.671648  	0.029039 
3045.600464  	0.029430 
3047.529280  	0.029777 
3049.458096  	0.030239 
3051.386912  	0.030433 
3053.315728  	0.030613 
3055.244544  	0.031050 
3057.173360  	0.031700 
3059.102176  	0.032068 
3061.030992  	0.032354 
3062.959808  	0.032693 
3064.888624  	0.033094 
3066.817440  	0.033692 
3068.746256  	0.034301 
3070.675072  	0.034607 
3072.603888  	0.035019 
3074.532704  	0.035512 
3076.461520  	0.035922 
3078.390336  	0.036332 
3080.319152  	0.036801 
3082.247968  	0.037163 
3084.176784  	0.037551 
3086.105600  	0.038061 
3088.034416  	0.038578 
3089.963232  	0.038771 
3091.892048  	0.039088 
3093.820864  	0.039269 
3095.749680  	0.039826 
3097.678496  	0.040462 
3099.607312  	0.040821 
3101.536128  	0.041464 
3103.464944  	0.041927 
3105.393760  	0.042070 
3107.322576  	0.042394 
3109.251392  	0.042732 
3111.180208  	0.042923 
3113.109024  	0.043071 
3115.037840  	0.043343 
3116.966656  	0.043770 
3118.895472  	0.044148 
3120.824288  	0.044472 
3122.753104  	0.044901 
3124.681920  	0.045038 
3126.610736  	0.045164 
3128.539552  	0.045430 
3130.468368  	0.045544 
3132.397184  	0.045987 
3134.326000  	0.046227 
3136.254816  	0.046259 
3138.183632  	0.046588 
3140.112448  	0.046878 
3142.041264  	0.047273 
3143.970080  	0.047608 
3145.898896  	0.047654 
3147.827712  	0.047768 
3149.756528  	0.048193 
3151.685344  	0.048505 
3153.614160  	0.048584 
3155.542976  	0.048808 
3157.471792  	0.049220 
3159.400608  	0.049546 
3161.329424  	0.049721 
3163.258240  	0.049886 
3165.187056  	0.050052 
3167.115872  	0.050146 
3169.044688  	0.050478 
3170.973504  	0.050708 
3172.902320  	0.050700 
3174.831136  	0.050539 
3176.759952  	0.050702 
3178.688768  	0.051204 
3180.617584  	0.051337 
3182.546400  	0.051285 
3184.475216  	0.051114 
3186.404032  	0.051115 
3188.332848  	0.051147 
3190.261664  	0.051225 
3192.190480  	0.051177 
3194.119296  	0.051009 
3196.048112  	0.050802 
3197.976928  	0.051241 
3199.905744  	0.051471 
3201.834560  	0.051305 
3203.763376  	0.051088 
3205.692192  	0.050732 
3207.621008  	0.050427 
3209.549824  	0.050564 
3211.478640  	0.050688 
3213.407456  	0.050513 
3215.336272  	0.050583 
3217.265088  	0.050382 
3219.193904  	0.050569 
3221.122720  	0.050712 
3223.051536  	0.050296 
3224.980352  	0.049952 
3226.909168  	0.049820 
3228.837984  	0.049706 
3230.766800  	0.049529 
3232.695616  	0.049676 
3234.624432  	0.049714 
3236.553248  	0.049662 
3238.482064  	0.049586 
3240.410880  	0.049462 
3242.339696  	0.049377 
3244.268512  	0.049479 
3246.197328  	0.049673 
3248.126144  	0.049502 
3250.054960  	0.049555 
3251.983776  	0.049531 
3253.912592  	0.049667 
3255.841408  	0.049802 
3257.770224  	0.049857 
3259.699040  	0.049911 
3261.627856  	0.049986 
3263.556672  	0.050008 
3265.485488  	0.050201 
3267.414304  	0.050233 
3269.343120  	0.050134 
3271.271936  	0.050056 
3273.200752  	0.050211 
3275.129568  	0.050365 
3277.058384  	0.050572 
3278.987200  	0.050611 
3280.916016  	0.050517 
3282.844832  	0.050472 
3284.773648  	0.050518 
3286.702464  	0.050444 
3288.631280  	0.050568 
3290.560096  	0.050603 
3292.488912  	0.050616 
3294.417728  	0.050764 
3296.346544  	0.050834 
3298.275360  	0.050901 
3300.204176  	0.050940 
3302.132992  	0.050939 
3304.061808  	0.051111 
3305.990624  	0.051160 
3307.919440  	0.051266 
3309.848256  	0.051375 
3311.777072  	0.051463 
3313.705888  	0.051640 
3315.634704  	0.051712 
3317.563520  	0.051883 
3319.492336  	0.052003 
3321.421152  	0.052162 
3323.349968  	0.052128 
3325.278784  	0.052086 
3327.207600  	0.052153 
3329.136416  	0.051836 
3331.065232  	0.051675 
3332.994048  	0.051880 
3334.922864  	0.052081 
3336.851680  	0.052136 
3338.780496  	0.051944 
3340.709312  	0.051604 
3342.638128  	0.051570 
3344.566944  	0.051498 
3346.495760  	0.051313 
3348.424576  	0.051211 
3350.353392  	0.051028 
3352.282208  	0.050635 
3354.211024  	0.050393 
3356.139840  	0.050322 
3358.068656  	0.050139 
3359.997472  	0.049903 
3361.926288  	0.049783 
3363.855104  	0.049461 
3365.783920  	0.049316 
3367.712736  	0.049124 
3369.641552  	0.048956 
3371.570368  	0.048727 
3373.499184  	0.048539 
3375.428000  	0.048408 
3377.356816  	0.048255 
3379.285632  	0.048069 
3381.214448  	0.047786 
3383.143264  	0.047667 
3385.072080  	0.047754 
3387.000896  	0.047239 
3388.929712  	0.046654 
3390.858528  	0.046386 
3392.787344  	0.046837 
3394.716160  	0.046768 
3396.644976  	0.046592 
3398.573792  	0.046433 
3400.502608  	0.045730 
3402.431424  	0.045210 
3404.360240  	0.044906 
3406.289056  	0.044602 
3408.217872  	0.044334 
3410.146688  	0.044127 
3412.075504  	0.043845 
3414.004320  	0.043620 
3415.933136  	0.043389 
3417.861952  	0.042960 
3419.790768  	0.042987 
3421.719584  	0.043226 
3423.648400  	0.042601 
3425.577216  	0.041968 
3427.506032  	0.041736 
3429.434848  	0.041391 
3431.363664  	0.041279 
3433.292480  	0.041166 
3435.221296  	0.040750 
3437.150112  	0.040157 
3439.078928  	0.039804 
3441.007744  	0.039593 
3442.936560  	0.039547 
3444.865376  	0.038655 
3446.794192  	0.039030 
3448.723008  	0.039441 
3450.651824  	0.038259 
3452.580640  	0.037643 
3454.509456  	0.037240 
3456.438272  	0.036931 
3458.367088  	0.036487 
3460.295904  	0.036157 
3462.224720  	0.036037 
3464.153536  	0.035513 
3466.082352  	0.034869 
3468.011168  	0.034591 
3469.939984  	0.034249 
3471.868800  	0.033773 
3473.797616  	0.033113 
3475.726432  	0.032774 
3477.655248  	0.032050 
3479.584064  	0.031411 
3481.512880  	0.031835 
3483.441696  	0.032030 
3485.370512  	0.030911 
3487.299328  	0.030420 
3489.228144  	0.030069 
3491.156960  	0.029176 
3493.085776  	0.028617 
3495.014592  	0.028487 
3496.943408  	0.028383 
3498.872224  	0.027533 
3500.801040  	0.026957 
3502.729856  	0.027644 
3504.658672  	0.027835 
3506.587488  	0.026120 
3508.516304  	0.025554 
3510.445120  	0.026258 
3512.373936  	0.025653 
3514.302752  	0.025002 
3516.231568  	0.024560 
3518.160384  	0.024198 
3520.089200  	0.023414 
3522.018016  	0.022943 
3523.946832  	0.023541 
3525.875648  	0.022969 
3527.804464  	0.022798 
3529.733280  	0.022798 
3531.662096  	0.022054 
3533.590912  	0.020842 
3535.519728  	0.020559 
3537.448544  	0.020961 
3539.377360  	0.020185 
3541.306176  	0.019213 
3543.234992  	0.018876 
3545.163808  	0.019786 
3547.092624  	0.020412 
3549.021440  	0.018832 
3550.950256  	0.017566 
3552.879072  	0.018434 
3554.807888  	0.017703 
3556.736704  	0.016414 
3558.665520  	0.016230 
3560.594336  	0.016219 
3562.523152  	0.015103 
3564.451968  	0.014025 
3566.380784  	0.016404 
3568.309600  	0.019476 
3570.238416  	0.016618 
3572.167232  	0.014115 
3574.096048  	0.013496 
3576.024864  	0.013348 
3577.953680  	0.012825 
3579.882496  	0.012515 
3581.811312  	0.011819 
3583.740128  	0.010603 
3585.668944  	0.010213 
3587.597760  	0.013370 
3589.526576  	0.013080 
3591.455392  	0.009796 
3593.384208  	0.009392 
3595.313024  	0.010327 
3597.241840  	0.009466 
3599.170656  	0.008350 
3601.099472  	0.008571 
3603.028288  	0.007660 
3604.957104  	0.006000 
3606.885920  	0.006139 
3608.814736  	0.007588 
3610.743552  	0.005784 
3612.672368  	0.005258 
3614.601184  	0.005657 
3616.530000  	0.003843 
3618.458816  	0.004845 
3620.387632  	0.005995 
3622.316448  	0.003598 
3624.245264  	0.001664 
3626.174080  	0.000137 
3628.102896  	0.001637 
3630.031712  	0.005755 
3631.960528  	0.001992 
3633.889344  	0.000810 
3635.818160  	-0.000017 
3637.746976  	-0.001124 
3639.675792  	-0.001678 
3641.604608  	-0.001991 
3643.533424  	-0.002871 
3645.462240  	-0.004487 
3647.391056  	-0.003043 
3649.319872  	0.000252 
3651.248688  	0.000968 
3653.177504  	-0.003591 
3655.106320  	-0.005212 
3657.035136  	-0.003755 
3658.963952  	-0.004978 
3660.892768  	-0.005639 
3662.821584  	-0.006110 
3664.750400  	-0.006842 
3666.679216  	-0.007775 
3668.608032  	-0.007330 
3670.536848  	-0.004503 
3672.465664  	-0.007129 
3674.394480  	-0.007623 
3676.323296  	-0.003125 
3678.252112  	-0.005492 
3680.180928  	-0.006514 
3682.109744  	-0.007523 
3684.038560  	-0.008215 
3685.967376  	-0.009351 
3687.896192  	-0.008033 
3689.825008  	-0.005073 
3691.753824  	-0.005108 
3693.682640  	-0.006952 
3695.611456  	-0.007701 
3697.540272  	-0.007724 
3699.469088  	-0.008807 
3701.397904  	-0.007718 
3703.326720  	-0.006797 
3705.255536  	-0.007730 
3707.184352  	-0.008229 
3709.113168  	-0.008015 
3711.041984  	-0.005919 
3712.970800  	-0.004870 
3714.899616  	-0.006838 
3716.828432  	-0.008091 
3718.757248  	-0.007756 
3720.686064  	-0.007704 
3722.614880  	-0.007107 
3724.543696  	-0.006834 
3726.472512  	-0.005835 
3728.401328  	-0.007086 
3730.330144  	-0.009168 
3732.258960  	-0.008702 
3734.187776  	-0.006521 
3736.116592  	-0.003046 
3738.045408  	-0.005038 
3739.974224  	-0.007196 
3741.903040  	-0.008987 
3743.831856  	-0.007874 
3745.760672  	-0.005663 
3747.689488  	-0.008613 
3749.618304  	-0.006817 
3751.547120  	-0.003484 
3753.475936  	-0.004618 
3755.404752  	-0.007239 
3757.333568  	-0.007633 
3759.262384  	-0.006477 
3761.191200  	-0.006290 
3763.120016  	-0.008167 
3765.048832  	-0.007496 
3766.977648  	-0.007358 
3768.906464  	-0.007186 
3770.835280  	-0.005942 
3772.764096  	-0.007061 
3774.692912  	-0.007938 
3776.621728  	-0.008386 
3778.550544  	-0.007568 
3780.479360  	-0.006589 
3782.408176  	-0.007929 
3784.336992  	-0.007539 
3786.265808  	-0.007044 
3788.194624  	-0.007461 
3790.123440  	-0.007696 
3792.052256  	-0.008066 
3793.981072  	-0.008982 
3795.909888  	-0.007845 
3797.838704  	-0.007299 
3799.767520  	-0.008491 
3801.696336  	-0.005056 
3803.625152  	-0.006142 
3805.553968  	-0.008111 
3807.482784  	-0.005780 
3809.411600  	-0.006773 
3811.340416  	-0.008109 
3813.269232  	-0.009412 
3815.198048  	-0.008135 
3817.126864  	-0.006350 
3819.055680  	-0.008336 
3820.984496  	-0.005549 
3822.913312  	-0.005198 
3824.842128  	-0.007528 
3826.770944  	-0.007026 
3828.699760  	-0.007701 
3830.628576  	-0.008097 
3832.557392  	-0.007724 
3834.486208  	-0.008461 
3836.415024  	-0.008177 
3838.343840  	-0.006030 
3840.272656  	-0.005330 
3842.201472  	-0.006053 
3844.130288  	-0.005861 
3846.059104  	-0.006951 
3847.987920  	-0.008565 
3849.916736  	-0.009510 
3851.845552  	-0.008488 
3853.774368  	-0.002015 
3855.703184  	-0.003293 
3857.632000  	-0.006005 
3859.560816  	-0.007870 
3861.489632  	-0.007974 
3863.418448  	-0.006967 
3865.347264  	-0.005726 
3867.276080  	-0.007979 
3869.204896  	-0.006800 
3871.133712  	-0.004751 
3873.062528  	-0.006623 
3874.991344  	-0.006074 
3876.920160  	-0.008196 
3878.848976  	-0.008583 
3880.777792  	-0.006043 
3882.706608  	-0.006799 
3884.635424  	-0.006991 
3886.564240  	-0.005574 
3888.493056  	-0.008099 
3890.421872  	-0.007977 
3892.350688  	-0.006157 
3894.279504  	-0.007080 
3896.208320  	-0.008647 
3898.137136  	-0.008357 
3900.065952  	-0.006627 
3901.994768  	-0.006154 
3903.923584  	-0.005058 
3905.852400  	-0.005093 
3907.781216  	-0.006915 
3909.710032  	-0.007999 
3911.638848  	-0.008200 
3913.567664  	-0.008355 
3915.496480  	-0.007840 
3917.425296  	-0.006482 
3919.354112  	-0.006558 
3921.282928  	-0.006978 
3923.211744  	-0.007021 
3925.140560  	-0.006231 
3927.069376  	-0.007312 
3928.998192  	-0.007794 
3930.927008  	-0.007187 
3932.855824  	-0.006519 
3934.784640  	-0.007027 
3936.713456  	-0.007493 
3938.642272  	-0.007701 
3940.571088  	-0.007991 
3942.499904  	-0.007028 
3944.428720  	-0.007085 
3946.357536  	-0.007808 
3948.286352  	-0.006940 
3950.215168  	-0.006881 
3952.143984  	-0.007504 
3954.072800  	-0.007719 
3956.001616  	-0.007549 
3957.930432  	-0.007428 
3959.859248  	-0.007385 
3961.788064  	-0.007156 
3963.716880  	-0.007355 
3965.645696  	-0.007842 
3967.574512  	-0.007945 
3969.503328  	-0.007991 
3971.432144  	-0.007830 
3973.360960  	-0.007396 
3975.289776  	-0.007028 
3977.218592  	-0.007274 
3979.147408  	-0.007628 
3981.076224  	-0.007725 
3983.005040  	-0.007798 
3984.933856  	-0.007746 
3986.862672  	-0.007500 
3988.791488  	-0.007527 
3990.720304  	-0.007342 
3992.649120  	-0.007492 
3994.577936  	-0.007615 
3996.506752  	-0.007631 
3998.435568  	-0.007694 
4000.364384  	-0.007641 