##TITLE=No Description
##DATA TYPE=INFRARED SPECTRUM
##XUNITS=1/CM
##YUNITS=Abs
399.264912  	0.414774 
401.193728  	0.399218 
403.122544  	0.402305 
405.051360  	0.411320 
406.980176  	0.420697 
408.908992  	0.414426 
410.837808  	0.408946 
412.766624  	0.400038 
414.695440  	0.398292 
416.624256  	0.405157 
418.553072  	0.407821 
420.481888  	0.408701 
422.410704  	0.405688 
424.339520  	0.403608 
426.268336  	0.400223 
428.197152  	0.393402 
430.125968  	0.396474 
432.054784  	0.395125 
433.983600  	0.392535 
435.912416  	0.386940 
437.841232  	0.383365 
439.770048  	0.378904 
441.698864  	0.378605 
443.627680  	0.378222 
445.556496  	0.381393 
447.485312  	0.377382 
449.414128  	0.376517 
451.342944  	0.377616 
453.271760  	0.376273 
455.200576  	0.371157 
457.129392  	0.375135 
459.058208  	0.377171 
460.987024  	0.376759 
462.915840  	0.378214 
464.844656  	0.379114 
466.773472  	0.377038 
468.702288  	0.377188 
470.631104  	0.377173 
472.559920  	0.380621 
474.488736  	0.377105 
476.417552  	0.374881 
478.346368  	0.371934 
480.275184  	0.371992 
482.204000  	0.371591 
484.132816  	0.373633 
486.061632  	0.373358 
487.990448  	0.372972 
489.919264  	0.373512 
491.848080  	0.371382 
493.776896  	0.370909 
495.705712  	0.370153 
497.634528  	0.365280 
499.563344  	0.362868 
501.492160  	0.361755 
503.420976  	0.363091 
505.349792  	0.361018 
507.278608  	0.361457 
509.207424  	0.359061 
511.136240  	0.361338 
513.065056  	0.362480 
514.993872  	0.364917 
516.922688  	0.367680 
518.851504  	0.369903 
520.780320  	0.368257 
522.709136  	0.367740 
524.637952  	0.365786 
526.566768  	0.364017 
528.495584  	0.361783 
530.424400  	0.359442 
532.353216  	0.356449 
534.282032  	0.351328 
536.210848  	0.347291 
538.139664  	0.345285 
540.068480  	0.341482 
541.997296  	0.338657 
543.926112  	0.335126 
545.854928  	0.332239 
547.783744  	0.329254 
549.712560  	0.327614 
551.641376  	0.324993 
553.570192  	0.324100 
555.499008  	0.321458 
557.427824  	0.318002 
559.356640  	0.314191 
561.285456  	0.312617 
563.214272  	0.310092 
565.143088  	0.307281 
567.071904  	0.304337 
569.000720  	0.301448 
570.929536  	0.298575 
572.858352  	0.296738 
574.787168  	0.294899 
576.715984  	0.293618 
578.644800  	0.290870 
580.573616  	0.287221 
582.502432  	0.283228 
584.431248  	0.280164 
586.360064  	0.276966 
588.288880  	0.274948 
590.217696  	0.272521 
592.146512  	0.271508 
594.075328  	0.270234 
596.004144  	0.268390 
597.932960  	0.266759 
599.861776  	0.266462 
601.790592  	0.265099 
603.719408  	0.264424 
605.648224  	0.263949 
607.577040  	0.263506 
609.505856  	0.262245 
611.434672  	0.261134 
613.363488  	0.259810 
615.292304  	0.258710 
617.221120  	0.257248 
619.149936  	0.256280 
621.078752  	0.254675 
623.007568  	0.253400 
624.936384  	0.252875 
626.865200  	0.252752 
628.794016  	0.252212 
630.722832  	0.251668 
632.651648  	0.251310 
634.580464  	0.251271 
636.509280  	0.251661 
638.438096  	0.252010 
640.366912  	0.251649 
642.295728  	0.250904 
644.224544  	0.249245 
646.153360  	0.246690 
648.082176  	0.243743 
650.010992  	0.241253 
651.939808  	0.238577 
653.868624  	0.235929 
655.797440  	0.232771 
657.726256  	0.230471 
659.655072  	0.227859 
661.583888  	0.224719 
663.512704  	0.221639 
665.441520  	0.217471 
667.370336  	0.214331 
669.299152  	0.213873 
671.227968  	0.209512 
673.156784  	0.206052 
675.085600  	0.204111 
677.014416  	0.202677 
678.943232  	0.201062 
680.872048  	0.199866 
682.800864  	0.198739 
684.729680  	0.197987 
686.658496  	0.196685 
688.587312  	0.195616 
690.516128  	0.194693 
692.444944  	0.193992 
694.373760  	0.192613 
696.302576  	0.191469 
698.231392  	0.190097 
700.160208  	0.188241 
702.089024  	0.186395 
704.017840  	0.184948 
705.946656  	0.183289 
707.875472  	0.181463 
709.804288  	0.179901 
711.733104  	0.178563 
713.661920  	0.177489 
715.590736  	0.176487 
717.519552  	0.176006 
719.448368  	0.176746 
721.377184  	0.177851 
723.306000  	0.178650 
725.234816  	0.179150 
727.163632  	0.178649 
729.092448  	0.177098 
731.021264  	0.174876 
732.950080  	0.171749 
734.878896  	0.169019 
736.807712  	0.166753 
738.736528  	0.165029 
740.665344  	0.163415 
742.594160  	0.162290 
744.522976  	0.161218 
746.451792  	0.160398 
748.380608  	0.159280 
750.309424  	0.158421 
752.238240  	0.157705 
754.167056  	0.156932 
756.095872  	0.156478 
758.024688  	0.155922 
759.953504  	0.155510 
761.882320  	0.156518 
763.811136  	0.157489 
765.739952  	0.156266 
767.668768  	0.154127 
769.597584  	0.152710 
771.526400  	0.152529 
773.455216  	0.154259 
775.384032  	0.157836 
777.312848  	0.162373 
779.241664  	0.165578 
781.170480  	0.165408 
783.099296  	0.162099 
785.028112  	0.157703 
786.956928  	0.153218 
788.885744  	0.149899 
790.814560  	0.147243 
792.743376  	0.145526 
794.672192  	0.144997 
796.601008  	0.144552 
798.529824  	0.142008 
800.458640  	0.138638 
802.387456  	0.136166 
804.316272  	0.134842 
806.245088  	0.134306 
808.173904  	0.133708 
810.102720  	0.133555 
812.031536  	0.133664 
813.960352  	0.134090 
815.889168  	0.134639 
817.817984  	0.135658 
819.746800  	0.136806 
821.675616  	0.137501 
823.604432  	0.138059 
825.533248  	0.138517 
827.462064  	0.138793 
829.390880  	0.138551 
831.319696  	0.138134 
833.248512  	0.137347 
835.177328  	0.136225 
837.106144  	0.134103 
839.034960  	0.131680 
840.963776  	0.128626 
842.892592  	0.125532 
844.821408  	0.122660 
846.750224  	0.119871 
848.679040  	0.117762 
850.607856  	0.116260 
852.536672  	0.115046 
854.465488  	0.114142 
856.394304  	0.113592 
858.323120  	0.112477 
860.251936  	0.111264 
862.180752  	0.110215 
864.109568  	0.108589 
866.038384  	0.106844 
867.967200  	0.105378 
869.896016  	0.104298 
871.824832  	0.103498 
873.753648  	0.103766 
875.682464  	0.104408 
877.611280  	0.105679 
879.540096  	0.107394 
881.468912  	0.109305 
883.397728  	0.111229 
885.326544  	0.112724 
887.255360  	0.113741 
889.184176  	0.113866 
891.112992  	0.113286 
893.041808  	0.112070 
894.970624  	0.110061 
896.899440  	0.106918 
898.828256  	0.103359 
900.757072  	0.099809 
902.685888  	0.096859 
904.614704  	0.095236 
906.543520  	0.094939 
908.472336  	0.096287 
910.401152  	0.098563 
912.329968  	0.101355 
914.258784  	0.104130 
916.187600  	0.106914 
918.116416  	0.108956 
920.045232  	0.110410 
921.974048  	0.111519 
923.902864  	0.112257 
925.831680  	0.112769 
927.760496  	0.113425 
929.689312  	0.114316 
931.618128  	0.115465 
933.546944  	0.116429 
935.475760  	0.116955 
937.404576  	0.116974 
939.333392  	0.116618 
941.262208  	0.116689 
943.191024  	0.117999 
945.119840  	0.120987 
947.048656  	0.125771 
948.977472  	0.132625 
950.906288  	0.141286 
952.835104  	0.151324 
954.763920  	0.162058 
956.692736  	0.172189 
958.621552  	0.181194 
960.550368  	0.187336 
962.479184  	0.190294 
964.408000  	0.189433 
966.336816  	0.185143 
968.265632  	0.177733 
970.194448  	0.168218 
972.123264  	0.157147 
974.052080  	0.145394 
975.980896  	0.133993 
977.909712  	0.123333 
979.838528  	0.114131 
981.767344  	0.106736 
983.696160  	0.101378 
985.624976  	0.098228 
987.553792  	0.097888 
989.482608  	0.100063 
991.411424  	0.104535 
993.340240  	0.110843 
995.269056  	0.117704 
997.197872  	0.124901 
999.126688  	0.132044 
1001.055504  	0.139652 
1002.984320  	0.146533 
1004.913136  	0.153039 
1006.841952  	0.158905 
1008.770768  	0.164069 
1010.699584  	0.167942 
1012.628400  	0.170917 
1014.557216  	0.172998 
1016.486032  	0.173843 
1018.414848  	0.173962 
1020.343664  	0.173758 
1022.272480  	0.173684 
1024.201296  	0.173645 
1026.130112  	0.173307 
1028.058928  	0.173792 
1029.987744  	0.175583 
1031.916560  	0.177980 
1033.845376  	0.180787 
1035.774192  	0.184573 
1037.703008  	0.189492 
1039.631824  	0.196932 
1041.560640  	0.206000 
1043.489456  	0.216936 
1045.418272  	0.228482 
1047.347088  	0.239157 
1049.275904  	0.245752 
1051.204720  	0.248846 
1053.133536  	0.248824 
1055.062352  	0.246450 
1056.991168  	0.242832 
1058.919984  	0.240318 
1060.848800  	0.237968 
1062.777616  	0.235165 
1064.706432  	0.231505 
1066.635248  	0.227397 
1068.564064  	0.223032 
1070.492880  	0.218110 
1072.421696  	0.213006 
1074.350512  	0.209732 
1076.279328  	0.208691 
1078.208144  	0.209975 
1080.136960  	0.211666 
1082.065776  	0.212533 
1083.994592  	0.210522 
1085.923408  	0.206560 
1087.852224  	0.200330 
1089.781040  	0.193091 
1091.709856  	0.184593 
1093.638672  	0.175200 
1095.567488  	0.165020 
1097.496304  	0.155263 
1099.425120  	0.145495 
1101.353936  	0.135947 
1103.282752  	0.126910 
1105.211568  	0.118538 
1107.140384  	0.111062 
1109.069200  	0.103970 
1110.998016  	0.097354 
1112.926832  	0.091452 
1114.855648  	0.086200 
1116.784464  	0.080903 
1118.713280  	0.075772 
1120.642096  	0.071005 
1122.570912  	0.066398 
1124.499728  	0.062172 
1126.428544  	0.058532 
1128.357360  	0.055560 
1130.286176  	0.052905 
1132.214992  	0.050614 
1134.143808  	0.048841 
1136.072624  	0.047374 
1138.001440  	0.045943 
1139.930256  	0.044641 
1141.859072  	0.043385 
1143.787888  	0.042028 
1145.716704  	0.041014 
1147.645520  	0.040212 
1149.574336  	0.039956 
1151.503152  	0.039718 
1153.431968  	0.039664 
1155.360784  	0.039984 
1157.289600  	0.040862 
1159.218416  	0.041884 
1161.147232  	0.043087 
1163.076048  	0.044583 
1165.004864  	0.046135 
1166.933680  	0.047617 
1168.862496  	0.049240 
1170.791312  	0.051363 
1172.720128  	0.053631 
1174.648944  	0.055968 
1176.577760  	0.058338 
1178.506576  	0.060985 
1180.435392  	0.063817 
1182.364208  	0.066676 
1184.293024  	0.069759 
1186.221840  	0.073227 
1188.150656  	0.077167 
1190.079472  	0.081759 
1192.008288  	0.087175 
1193.937104  	0.093111 
1195.865920  	0.099842 
1197.794736  	0.106928 
1199.723552  	0.114304 
1201.652368  	0.121654 
1203.581184  	0.128295 
1205.510000  	0.134537 
1207.438816  	0.139937 
1209.367632  	0.144488 
1211.296448  	0.147820 
1213.225264  	0.150139 
1215.154080  	0.151131 
1217.082896  	0.151511 
1219.011712  	0.150770 
1220.940528  	0.149535 
1222.869344  	0.147841 
1224.798160  	0.145938 
1226.726976  	0.143310 
1228.655792  	0.140105 
1230.584608  	0.136743 
1232.513424  	0.133115 
1234.442240  	0.128979 
1236.371056  	0.124581 
1238.299872  	0.119916 
1240.228688  	0.114693 
1242.157504  	0.109409 
1244.086320  	0.104465 
1246.015136  	0.099375 
1247.943952  	0.094419 
1249.872768  	0.089454 
1251.801584  	0.084845 
1253.730400  	0.080368 
1255.659216  	0.075975 
1257.588032  	0.071756 
1259.516848  	0.067900 
1261.445664  	0.064243 
1263.374480  	0.060910 
1265.303296  	0.058044 
1267.232112  	0.055928 
1269.160928  	0.054494 
1271.089744  	0.053598 
1273.018560  	0.053293 
1274.947376  	0.053503 
1276.876192  	0.054103 
1278.805008  	0.054592 
1280.733824  	0.054420 
1282.662640  	0.053209 
1284.591456  	0.051748 
1286.520272  	0.050549 
1288.449088  	0.049845 
1290.377904  	0.049737 
1292.306720  	0.050277 
1294.235536  	0.050719 
1296.164352  	0.050300 
1298.093168  	0.048847 
1300.021984  	0.046927 
1301.950800  	0.044738 
1303.879616  	0.042358 
1305.808432  	0.039978 
1307.737248  	0.037593 
1309.666064  	0.035296 
1311.594880  	0.033598 
1313.523696  	0.032396 
1315.452512  	0.031553 
1317.381328  	0.031333 
1319.310144  	0.031651 
1321.238960  	0.032039 
1323.167776  	0.032562 
1325.096592  	0.033088 
1327.025408  	0.033292 
1328.954224  	0.033248 
1330.883040  	0.032726 
1332.811856  	0.031737 
1334.740672  	0.030834 
1336.669488  	0.030569 
1338.598304  	0.030901 
1340.527120  	0.030693 
1342.455936  	0.029459 
1344.384752  	0.029093 
1346.313568  	0.029466 
1348.242384  	0.030126 
1350.171200  	0.031096 
1352.100016  	0.032392 
1354.028832  	0.034036 
1355.957648  	0.035814 
1357.886464  	0.037384 
1359.815280  	0.038976 
1361.744096  	0.041317 
1363.672912  	0.043581 
1365.601728  	0.044228 
1367.530544  	0.045208 
1369.459360  	0.046475 
1371.388176  	0.046759 
1373.316992  	0.046882 
1375.245808  	0.046232 
1377.174624  	0.043863 
1379.103440  	0.041709 
1381.032256  	0.039583 
1382.961072  	0.037678 
1384.889888  	0.036161 
1386.818704  	0.035596 
1388.747520  	0.034333 
1390.676336  	0.032257 
1392.605152  	0.030583 
1394.533968  	0.030290 
1396.462784  	0.030786 
1398.391600  	0.030739 
1400.320416  	0.030852 
1402.249232  	0.030586 
1404.178048  	0.031406 
1406.106864  	0.032415 
1408.035680  	0.033163 
1409.964496  	0.034397 
1411.893312  	0.036214 
1413.822128  	0.037865 
1415.750944  	0.039554 
1417.679760  	0.041128 
1419.608576  	0.042879 
1421.537392  	0.042149 
1423.466208  	0.041399 
1425.395024  	0.040172 
1427.323840  	0.037906 
1429.252656  	0.036476 
1431.181472  	0.035400 
1433.110288  	0.034386 
1435.039104  	0.034174 
1436.967920  	0.036036 
1438.896736  	0.036603 
1440.825552  	0.036572 
1442.754368  	0.036895 
1444.683184  	0.036795 
1446.612000  	0.037000 
1448.540816  	0.037610 
1450.469632  	0.037615 
1452.398448  	0.037599 
1454.327264  	0.037455 
1456.256080  	0.038509 
1458.184896  	0.041003 
1460.113712  	0.039261 
1462.042528  	0.037535 
1463.971344  	0.037507 
1465.900160  	0.039067 
1467.828976  	0.039311 
1469.757792  	0.039852 
1471.686608  	0.042990 
1473.615424  	0.050146 
1475.544240  	0.053425 
1477.473056  	0.056723 
1479.401872  	0.058385 
1481.330688  	0.060837 
1483.259504  	0.062321 
1485.188320  	0.062711 
1487.117136  	0.063205 
1489.045952  	0.064211 
1490.974768  	0.063445 
1492.903584  	0.059862 
1494.832400  	0.055972 
1496.761216  	0.053037 
1498.690032  	0.049147 
1500.618848  	0.045074 
1502.547664  	0.041047 
1504.476480  	0.037756 
1506.405296  	0.037718 
1508.334112  	0.038930 
1510.262928  	0.035576 
1512.191744  	0.033381 
1514.120560  	0.032462 
1516.049376  	0.033610 
1517.978192  	0.035172 
1519.907008  	0.035447 
1521.835824  	0.039972 
1523.764640  	0.041891 
1525.693456  	0.043896 
1527.622272  	0.045971 
1529.551088  	0.045282 
1531.479904  	0.043661 
1533.408720  	0.043279 
1535.337536  	0.041196 
1537.266352  	0.037837 
1539.195168  	0.036369 
1541.123984  	0.036380 
1543.052800  	0.035109 
1544.981616  	0.033884 
1546.910432  	0.031704 
1548.839248  	0.030889 
1550.768064  	0.031811 
1552.696880  	0.030956 
1554.625696  	0.031731 
1556.554512  	0.031460 
1558.483328  	0.034413 
1560.412144  	0.039989 
1562.340960  	0.038905 
1564.269776  	0.040211 
1566.198592  	0.043587 
1568.127408  	0.045638 
1570.056224  	0.052031 
1571.985040  	0.054940 
1573.913856  	0.055576 
1575.842672  	0.058645 
1577.771488  	0.062507 
1579.700304  	0.060808 
1581.629120  	0.059836 
1583.557936  	0.059454 
1585.486752  	0.060388 
1587.415568  	0.062058 
1589.344384  	0.065397 
1591.273200  	0.069574 
1593.202016  	0.074678 
1595.130832  	0.080069 
1597.059648  	0.085448 
1598.988464  	0.089474 
1600.917280  	0.093368 
1602.846096  	0.096102 
1604.774912  	0.097727 
1606.703728  	0.097640 
1608.632544  	0.097725 
1610.561360  	0.096690 
1612.490176  	0.095290 
1614.418992  	0.092811 
1616.347808  	0.094653 
1618.276624  	0.098446 
1620.205440  	0.098169 
1622.134256  	0.099445 
1624.063072  	0.106724 
1625.991888  	0.110049 
1627.920704  	0.115295 
1629.849520  	0.121164 
1631.778336  	0.124022 
1633.707152  	0.125264 
1635.635968  	0.134344 
1637.564784  	0.143354 
1639.493600  	0.142470 
1641.422416  	0.142712 
1643.351232  	0.141882 
1645.280048  	0.140075 
1647.208864  	0.146119 
1649.137680  	0.145121 
1651.066496  	0.136767 
1652.995312  	0.138588 
1654.924128  	0.146016 
1656.852944  	0.138588 
1658.781760  	0.134031 
1660.710576  	0.130441 
1662.639392  	0.129322 
1664.568208  	0.127163 
1666.497024  	0.121434 
1668.425840  	0.117725 
1670.354656  	0.117226 
1672.283472  	0.113597 
1674.212288  	0.109304 
1676.141104  	0.109457 
1678.069920  	0.106207 
1679.998736  	0.104343 
1681.927552  	0.101545 
1683.856368  	0.102083 
1685.785184  	0.105857 
1687.714000  	0.101736 
1689.642816  	0.100761 
1691.571632  	0.099195 
1693.500448  	0.095622 
1695.429264  	0.095015 
1697.358080  	0.096719 
1699.286896  	0.093127 
1701.215712  	0.095896 
1703.144528  	0.091475 
1705.073344  	0.088492 
1707.002160  	0.086503 
1708.930976  	0.082351 
1710.859792  	0.077979 
1712.788608  	0.073039 
1714.717424  	0.067953 
1716.646240  	0.062867 
1718.575056  	0.056791 
1720.503872  	0.049307 
1722.432688  	0.042830 
1724.361504  	0.036657 
1726.290320  	0.030931 
1728.219136  	0.026344 
1730.147952  	0.022878 
1732.076768  	0.019447 
1734.005584  	0.017187 
1735.934400  	0.014119 
1737.863216  	0.011697 
1739.792032  	0.009869 
1741.720848  	0.008509 
1743.649664  	0.007739 
1745.578480  	0.006706 
1747.507296  	0.005944 
1749.436112  	0.005914 
1751.364928  	0.005141 
1753.293744  	0.003645 
1755.222560  	0.002727 
1757.151376  	0.003070 
1759.080192  	0.002395 
1761.009008  	0.002098 
1762.937824  	0.001738 
1764.866640  	0.001085 
1766.795456  	0.000965 
1768.724272  	0.001190 
1770.653088  	0.000454 
1772.581904  	0.001053 
1774.510720  	0.000952 
1776.439536  	0.000406 
1778.368352  	-0.000477 
1780.297168  	-0.000422 
1782.225984  	-0.000721 
1784.154800  	-0.000829 
1786.083616  	-0.001176 
1788.012432  	-0.001511 
1789.941248  	-0.001213 
1791.870064  	-0.000572 
1793.798880  	-0.001144 
1795.727696  	-0.001373 
1797.656512  	-0.001886 
1799.585328  	-0.001988 
1801.514144  	-0.001510 
1803.442960  	-0.001736 
1805.371776  	-0.002200 
1807.300592  	-0.002394 
1809.229408  	-0.002581 
1811.158224  	-0.002558 
1813.087040  	-0.002917 
1815.015856  	-0.003200 
1816.944672  	-0.002870 
1818.873488  	-0.002455 
1820.802304  	-0.002528 
1822.731120  	-0.002534 
1824.659936  	-0.002659 
1826.588752  	-0.002639 
1828.517568  	-0.002895 
1830.446384  	-0.002614 
1832.375200  	-0.003167 
1834.304016  	-0.003360 
1836.232832  	-0.003205 
1838.161648  	-0.002876 
1840.090464  	-0.003216 
1842.019280  	-0.003534 
1843.948096  	-0.003363 
1845.876912  	-0.002945 
1847.805728  	-0.003390 
1849.734544  	-0.003713 
1851.663360  	-0.003792 
1853.592176  	-0.003586 
1855.520992  	-0.003753 
1857.449808  	-0.003755 
1859.378624  	-0.004078 
1861.307440  	-0.004015 
1863.236256  	-0.004099 
1865.165072  	-0.004062 
1867.093888  	-0.003983 
1869.022704  	-0.003168 
1870.951520  	-0.003352 
1872.880336  	-0.003660 
1874.809152  	-0.004038 
1876.737968  	-0.004255 
1878.666784  	-0.004469 
1880.595600  	-0.004480 
1882.524416  	-0.004460 
1884.453232  	-0.004304 
1886.382048  	-0.004564 
1888.310864  	-0.004062 
1890.239680  	-0.003920 
1892.168496  	-0.003925 
1894.097312  	-0.004026 
1896.026128  	-0.004404 
1897.954944  	-0.004582 
1899.883760  	-0.004369 
1901.812576  	-0.004315 
1903.741392  	-0.004256 
1905.670208  	-0.004753 
1907.599024  	-0.004879 
1909.527840  	-0.004472 
1911.456656  	-0.003810 
1913.385472  	-0.003653 
1915.314288  	-0.003702 
1917.243104  	-0.004061 
1919.171920  	-0.003449 
1921.100736  	-0.003768 
1923.029552  	-0.004239 
1924.958368  	-0.005099 
1926.887184  	-0.004757 
1928.816000  	-0.004863 
1930.744816  	-0.004769 
1932.673632  	-0.004866 
1934.602448  	-0.004552 
1936.531264  	-0.004601 
1938.460080  	-0.004170 
1940.388896  	-0.004218 
1942.317712  	-0.003666 
1944.246528  	-0.004424 
1946.175344  	-0.004690 
1948.104160  	-0.004462 
1950.032976  	-0.003690 
1951.961792  	-0.004040 
1953.890608  	-0.004845 
1955.819424  	-0.005842 
1957.748240  	-0.005844 
1959.677056  	-0.005961 
1961.605872  	-0.005445 
1963.534688  	-0.004776 
1965.463504  	-0.003781 
1967.392320  	-0.004382 
1969.321136  	-0.004160 
1971.249952  	-0.005122 
1973.178768  	-0.005410 
1975.107584  	-0.005145 
1977.036400  	-0.003844 
1978.965216  	-0.003059 
1980.894032  	-0.003739 
1982.822848  	-0.005069 
1984.751664  	-0.004213 
1986.680480  	-0.003852 
1988.609296  	-0.003497 
1990.538112  	-0.003018 
1992.466928  	-0.002734 
1994.395744  	-0.003889 
1996.324560  	-0.003877 
1998.253376  	-0.004190 
2000.182192  	-0.004672 
2002.111008  	-0.004722 
2004.039824  	-0.003819 
2005.968640  	-0.003992 
2007.897456  	-0.003942 
2009.826272  	-0.003144 
2011.755088  	-0.002047 
2013.683904  	-0.002626 
2015.612720  	-0.002438 
2017.541536  	-0.002191 
2019.470352  	-0.002172 
2021.399168  	-0.003885 
2023.327984  	-0.004017 
2025.256800  	-0.003093 
2027.185616  	-0.001661 
2029.114432  	-0.001646 
2031.043248  	-0.001846 
2032.972064  	-0.001659 
2034.900880  	-0.000981 
2036.829696  	-0.001539 
2038.758512  	-0.001364 
2040.687328  	-0.001622 
2042.616144  	-0.001744 
2044.544960  	-0.002042 
2046.473776  	-0.002293 
2048.402592  	-0.001003 
2050.331408  	-0.000428 
2052.260224  	-0.001262 
2054.189040  	-0.001061 
2056.117856  	-0.001693 
2058.046672  	-0.002001 
2059.975488  	-0.002086 
2061.904304  	-0.001562 
2063.833120  	-0.001508 
2065.761936  	-0.001022 
2067.690752  	-0.001036 
2069.619568  	-0.001369 
2071.548384  	-0.001595 
2073.477200  	-0.001057 
2075.406016  	-0.001055 
2077.334832  	-0.000996 
2079.263648  	-0.000794 
2081.192464  	-0.000543 
2083.121280  	-0.001089 
2085.050096  	-0.001514 
2086.978912  	-0.001665 
2088.907728  	-0.001292 
2090.836544  	-0.000963 
2092.765360  	-0.000754 
2094.694176  	-0.000451 
2096.622992  	0.000027 
2098.551808  	-0.000302 
2100.480624  	-0.000464 
2102.409440  	-0.000740 
2104.338256  	-0.000640 
2106.267072  	-0.000859 
2108.195888  	-0.000826 
2110.124704  	-0.001037 
2112.053520  	-0.000742 
2113.982336  	-0.000343 
2115.911152  	-0.000344 
2117.839968  	-0.000551 
2119.768784  	-0.000721 
2121.697600  	-0.001094 
2123.626416  	-0.001092 
2125.555232  	-0.001300 
2127.484048  	-0.001436 
2129.412864  	-0.001306 
2131.341680  	-0.000932 
2133.270496  	-0.000864 
2135.199312  	-0.000352 
2137.128128  	0.000104 
2139.056944  	0.000651 
2140.985760  	0.000499 
2142.914576  	0.000464 
2144.843392  	-0.000470 
2146.772208  	-0.000407 
2148.701024  	-0.000290 
2150.629840  	-0.000991 
2152.558656  	-0.000809 
2154.487472  	0.000062 
2156.416288  	0.000171 
2158.345104  	0.002898 
2160.273920  	0.005743 
2162.202736  	0.004720 
2164.131552  	0.002260 
2166.060368  	0.001872 
2167.989184  	0.001927 
2169.918000  	0.001168 
2171.846816  	0.001479 
2173.775632  	0.002276 
2175.704448  	0.001423 
2177.633264  	0.001333 
2179.562080  	0.000694 
2181.490896  	0.001605 
2183.419712  	0.001708 
2185.348528  	0.000923 
2187.277344  	0.000705 
2189.206160  	0.001422 
2191.134976  	0.000957 
2193.063792  	0.000531 
2194.992608  	0.000817 
2196.921424  	0.000967 
2198.850240  	0.000273 
2200.779056  	-0.000466 
2202.707872  	-0.000659 
2204.636688  	-0.000161 
2206.565504  	-0.000171 
2208.494320  	-0.000021 
2210.423136  	-0.000075 
2212.351952  	-0.000225 
2214.280768  	-0.000461 
2216.209584  	-0.000284 
2218.138400  	-0.000544 
2220.067216  	-0.001069 
2221.996032  	-0.001346 
2223.924848  	-0.001116 
2225.853664  	-0.000919 
2227.782480  	-0.000413 
2229.711296  	-0.000916 
2231.640112  	-0.001080 
2233.568928  	-0.001014 
2235.497744  	-0.000998 
2237.426560  	-0.001156 
2239.355376  	-0.000824 
2241.284192  	-0.001525 
2243.213008  	-0.002033 
2245.141824  	-0.001789 
2247.070640  	-0.001332 
2248.999456  	-0.000951 
2250.928272  	-0.000742 
2252.857088  	-0.001049 
2254.785904  	-0.001121 
2256.714720  	-0.000757 
2258.643536  	-0.000029 
2260.572352  	0.000357 
2262.501168  	0.000327 
2264.429984  	0.000071 
2266.358800  	-0.000155 
2268.287616  	-0.000495 
2270.216432  	-0.000555 
2272.145248  	-0.000591 
2274.074064  	-0.000316 
2276.002880  	-0.000215 
2277.931696  	-0.000241 
2279.860512  	-0.000506 
2281.789328  	-0.000552 
2283.718144  	-0.000594 
2285.646960  	-0.000117 
2287.575776  	0.000250 
2289.504592  	0.000128 
2291.433408  	0.000018 
2293.362224  	0.000466 
2295.291040  	0.000439 
2297.219856  	0.000361 
2299.148672  	0.000421 
2301.077488  	0.000568 
2303.006304  	0.000975 
2304.935120  	0.001382 
2306.863936  	0.001354 
2308.792752  	0.001548 
2310.721568  	0.001635 
2312.650384  	0.001493 
2314.579200  	0.001522 
2316.508016  	0.001934 
2318.436832  	0.002316 
2320.365648  	0.002449 
2322.294464  	0.002390 
2324.223280  	0.002292 
2326.152096  	0.001432 
2328.080912  	0.000802 
2330.009728  	0.000755 
2331.938544  	0.000696 
2333.867360  	0.000220 
2335.796176  	0.000031 
2337.724992  	-0.000053 
2339.653808  	0.000126 
2341.582624  	0.000552 
2343.511440  	0.001084 
2345.440256  	0.001629 
2347.369072  	0.001421 
2349.297888  	0.000748 
2351.226704  	0.000220 
2353.155520  	-0.000265 
2355.084336  	-0.000176 
2357.013152  	0.000458 
2358.941968  	0.000858 
2360.870784  	0.000649 
2362.799600  	0.000697 
2364.728416  	0.001267 
2366.657232  	0.001499 
2368.586048  	0.001271 
2370.514864  	0.001425 
2372.443680  	0.001406 
2374.372496  	0.001630 
2376.301312  	0.001733 
2378.230128  	0.001522 
2380.158944  	0.001089 
2382.087760  	0.000531 
2384.016576  	-0.000167 
2385.945392  	-0.000605 
2387.874208  	-0.000704 
2389.803024  	-0.000811 
2391.731840  	-0.001079 
2393.660656  	-0.001106 
2395.589472  	-0.001100 
2397.518288  	-0.001070 
2399.447104  	-0.001144 
2401.375920  	-0.001136 
2403.304736  	-0.001167 
2405.233552  	-0.001066 
2407.162368  	-0.001103 
2409.091184  	-0.001257 
2411.020000  	-0.001321 
2412.948816  	-0.001315 
2414.877632  	-0.001306 
2416.806448  	-0.000996 
2418.735264  	-0.000818 
2420.664080  	-0.000793 
2422.592896  	-0.000859 
2424.521712  	-0.000873 
2426.450528  	-0.000760 
2428.379344  	-0.000607 
2430.308160  	-0.000602 
2432.236976  	-0.000618 
2434.165792  	-0.000400 
2436.094608  	-0.000200 
2438.023424  	-0.000180 
2439.952240  	-0.000261 
2441.881056  	-0.000185 
2443.809872  	-0.000153 
2445.738688  	-0.000367 
2447.667504  	-0.000158 
2449.596320  	0.000233 
2451.525136  	0.000366 
2453.453952  	0.000429 
2455.382768  	0.000325 
2457.311584  	0.000110 
2459.240400  	0.000072 
2461.169216  	0.000181 
2463.098032  	0.000297 
2465.026848  	0.000398 
2466.955664  	0.000519 
2468.884480  	0.000305 
2470.813296  	-0.000002 
2472.742112  	0.000177 
2474.670928  	0.000608 
2476.599744  	0.000749 
2478.528560  	0.000938 
2480.457376  	0.001264 
2482.386192  	0.001420 
2484.315008  	0.001213 
2486.243824  	0.001069 
2488.172640  	0.001321 
2490.101456  	0.001534 
2492.030272  	0.001552 
2493.959088  	0.001554 
2495.887904  	0.001477 
2497.816720  	0.001694 
2499.745536  	0.001729 
2501.674352  	0.001636 
2503.603168  	0.001653 
2505.531984  	0.001873 
2507.460800  	0.001741 
2509.389616  	0.001563 
2511.318432  	0.001701 
2513.247248  	0.002068 
2515.176064  	0.002192 
2517.104880  	0.002099 
2519.033696  	0.001901 
2520.962512  	0.002015 
2522.891328  	0.002122 
2524.820144  	0.002504 
2526.748960  	0.002601 
2528.677776  	0.002502 
2530.606592  	0.002595 
2532.535408  	0.002884 
2534.464224  	0.002827 
2536.393040  	0.002740 
2538.321856  	0.002941 
2540.250672  	0.003069 
2542.179488  	0.003143 
2544.108304  	0.003280 
2546.037120  	0.003330 
2547.965936  	0.003405 
2549.894752  	0.003587 
2551.823568  	0.003811 
2553.752384  	0.003886 
2555.681200  	0.003849 
2557.610016  	0.003844 
2559.538832  	0.003847 
2561.467648  	0.003931 
2563.396464  	0.004190 
2565.325280  	0.004284 
2567.254096  	0.004237 
2569.182912  	0.004264 
2571.111728  	0.004304 
2573.040544  	0.004445 
2574.969360  	0.004785 
2576.898176  	0.004890 
2578.826992  	0.004748 
2580.755808  	0.004717 
2582.684624  	0.004930 
2584.613440  	0.005047 
2586.542256  	0.005161 
2588.471072  	0.005118 
2590.399888  	0.005210 
2592.328704  	0.005277 
2594.257520  	0.005429 
2596.186336  	0.005438 
2598.115152  	0.005465 
2600.043968  	0.005678 
2601.972784  	0.005658 
2603.901600  	0.005617 
2605.830416  	0.005636 
2607.759232  	0.005751 
2609.688048  	0.005886 
2611.616864  	0.006028 
2613.545680  	0.006124 
2615.474496  	0.006176 
2617.403312  	0.006343 
2619.332128  	0.006378 
2621.260944  	0.006407 
2623.189760  	0.006483 
2625.118576  	0.006635 
2627.047392  	0.006728 
2628.976208  	0.006875 
2630.905024  	0.007048 
2632.833840  	0.007170 
2634.762656  	0.007197 
2636.691472  	0.007330 
2638.620288  	0.007505 
2640.549104  	0.007612 
2642.477920  	0.007717 
2644.406736  	0.007775 
2646.335552  	0.007832 
2648.264368  	0.007925 
2650.193184  	0.008079 
2652.122000  	0.008225 
2654.050816  	0.008294 
2655.979632  	0.008458 
2657.908448  	0.008589 
2659.837264  	0.008692 
2661.766080  	0.008708 
2663.694896  	0.008684 
2665.623712  	0.008844 
2667.552528  	0.009036 
2669.481344  	0.009029 
2671.410160  	0.009059 
2673.338976  	0.009323 
2675.267792  	0.009493 
2677.196608  	0.009610 
2679.125424  	0.009789 
2681.054240  	0.009944 
2682.983056  	0.010032 
2684.911872  	0.010092 
2686.840688  	0.010224 
2688.769504  	0.010273 
2690.698320  	0.010346 
2692.627136  	0.010399 
2694.555952  	0.010469 
2696.484768  	0.010649 
2698.413584  	0.010824 
2700.342400  	0.010859 
2702.271216  	0.011039 
2704.200032  	0.011245 
2706.128848  	0.011368 
2708.057664  	0.011493 
2709.986480  	0.011484 
2711.915296  	0.011599 
2713.844112  	0.011777 
2715.772928  	0.011881 
2717.701744  	0.012012 
2719.630560  	0.012251 
2721.559376  	0.012382 
2723.488192  	0.012411 
2725.417008  	0.012481 
2727.345824  	0.012673 
2729.274640  	0.012985 
2731.203456  	0.012999 
2733.132272  	0.012959 
2735.061088  	0.013074 
2736.989904  	0.013227 
2738.918720  	0.013359 
2740.847536  	0.013444 
2742.776352  	0.013563 
2744.705168  	0.013736 
2746.633984  	0.013831 
2748.562800  	0.013964 
2750.491616  	0.013989 
2752.420432  	0.014041 
2754.349248  	0.014068 
2756.278064  	0.014136 
2758.206880  	0.014108 
2760.135696  	0.014075 
2762.064512  	0.014104 
2763.993328  	0.014188 
2765.922144  	0.014246 
2767.850960  	0.014311 
2769.779776  	0.014275 
2771.708592  	0.014240 
2773.637408  	0.014246 
2775.566224  	0.014287 
2777.495040  	0.014238 
2779.423856  	0.014274 
2781.352672  	0.014358 
2783.281488  	0.014479 
2785.210304  	0.014563 
2787.139120  	0.014599 
2789.067936  	0.014478 
2790.996752  	0.014596 
2792.925568  	0.014712 
2794.854384  	0.014671 
2796.783200  	0.014664 
2798.712016  	0.014646 
2800.640832  	0.014685 
2802.569648  	0.014818 
2804.498464  	0.014862 
2806.427280  	0.014956 
2808.356096  	0.015148 
2810.284912  	0.015149 
2812.213728  	0.015054 
2814.142544  	0.015177 
2816.071360  	0.015231 
2818.000176  	0.015256 
2819.928992  	0.015394 
2821.857808  	0.015450 
2823.786624  	0.015361 
2825.715440  	0.015338 
2827.644256  	0.015342 
2829.573072  	0.015333 
2831.501888  	0.015444 
2833.430704  	0.015499 
2835.359520  	0.015471 
2837.288336  	0.015323 
2839.217152  	0.015206 
2841.145968  	0.015209 
2843.074784  	0.015295 
2845.003600  	0.015277 
2846.932416  	0.015147 
2848.861232  	0.015326 
2850.790048  	0.015447 
2852.718864  	0.015504 
2854.647680  	0.015496 
2856.576496  	0.015517 
2858.505312  	0.015611 
2860.434128  	0.015766 
2862.362944  	0.015907 
2864.291760  	0.015978 
2866.220576  	0.015929 
2868.149392  	0.015940 
2870.078208  	0.016091 
2872.007024  	0.016370 
2873.935840  	0.016704 
2875.864656  	0.016934 
2877.793472  	0.017142 
2879.722288  	0.017445 
2881.651104  	0.017743 
2883.579920  	0.018035 
2885.508736  	0.018352 
2887.437552  	0.018569 
2889.366368  	0.018633 
2891.295184  	0.018656 
2893.224000  	0.018615 
2895.152816  	0.018697 
2897.081632  	0.018740 
2899.010448  	0.018438 
2900.939264  	0.018156 
2902.868080  	0.018326 
2904.796896  	0.018610 
2906.725712  	0.018801 
2908.654528  	0.019057 
2910.583344  	0.019331 
2912.512160  	0.019667 
2914.440976  	0.020095 
2916.369792  	0.020490 
2918.298608  	0.020773 
2920.227424  	0.021148 
2922.156240  	0.021629 
2924.085056  	0.022069 
2926.013872  	0.022498 
2927.942688  	0.023106 
2929.871504  	0.023690 
2931.800320  	0.024194 
2933.729136  	0.024741 
2935.657952  	0.025288 
2937.586768  	0.025706 
2939.515584  	0.026057 
2941.444400  	0.026297 
2943.373216  	0.026501 
2945.302032  	0.026836 
2947.230848  	0.026983 
2949.159664  	0.026947 
2951.088480  	0.026709 
2953.017296  	0.026573 
2954.946112  	0.026360 
2956.874928  	0.026194 
2958.803744  	0.025987 
2960.732560  	0.025804 
2962.661376  	0.025621 
2964.590192  	0.025376 
2966.519008  	0.025159 
2968.447824  	0.024911 
2970.376640  	0.024711 
2972.305456  	0.024516 
2974.234272  	0.024537 
2976.163088  	0.024477 
2978.091904  	0.024429 
2980.020720  	0.024384 
2981.949536  	0.024235 
2983.878352  	0.024124 
2985.807168  	0.024086 
2987.735984  	0.024077 
2989.664800  	0.024211 
2991.593616  	0.024755 
2993.522432  	0.025185 
2995.451248  	0.025456 
2997.380064  	0.025830 
2999.308880  	0.026175 
3001.237696  	0.026593 
3003.166512  	0.027130 
3005.095328  	0.027503 
3007.024144  	0.027873 
3008.952960  	0.028458 
3010.881776  	0.029070 
3012.810592  	0.029548 
3014.739408  	0.029951 
3016.668224  	0.030348 
3018.597040  	0.030810 
3020.525856  	0.031319 
3022.454672  	0.031778 
3024.383488  	0.032175 
3026.312304  	0.032645 
3028.241120  	0.032990 
3030.169936  	0.033506 
3032.098752  	0.034230 
3034.027568  	0.034645 
3035.956384  	0.035054 
3037.885200  	0.035418 
3039.814016  	0.035858 
3041.742832  	0.036282 
3043.671648  	0.036806 
3045.600464  	0.037250 
3047.529280  	0.037527 
3049.458096  	0.037985 
3051.386912  	0.038323 
3053.315728  	0.038754 
3055.244544  	0.039259 
3057.173360  	0.039978 
3059.102176  	0.040582 
3061.030992  	0.041085 
3062.959808  	0.041605 
3064.888624  	0.042188 
3066.817440  	0.042884 
3068.746256  	0.043622 
3070.675072  	0.044082 
3072.603888  	0.044592 
3074.532704  	0.045253 
3076.461520  	0.045760 
3078.390336  	0.046230 
3080.319152  	0.046950 
3082.247968  	0.047511 
3084.176784  	0.048014 
3086.105600  	0.048629 
3088.034416  	0.049251 
3089.963232  	0.049638 
3091.892048  	0.050105 
3093.820864  	0.050621 
3095.749680  	0.051368 
3097.678496  	0.052064 
3099.607312  	0.052668 
3101.536128  	0.053428 
3103.464944  	0.054091 
3105.393760  	0.054473 
3107.322576  	0.054952 
3109.251392  	0.055405 
3111.180208  	0.055801 
3113.109024  	0.056188 
3115.037840  	0.056726 
3116.966656  	0.057447 
3118.895472  	0.057960 
3120.824288  	0.058269 
3122.753104  	0.058838 
3124.681920  	0.059202 
3126.610736  	0.059486 
3128.539552  	0.059814 
3130.468368  	0.060016 
3132.397184  	0.060550 
3134.326000  	0.061109 
3136.254816  	0.061435 
3138.183632  	0.061779 
3140.112448  	0.062098 
3142.041264  	0.062547 
3143.970080  	0.063126 
3145.898896  	0.063515 
3147.827712  	0.063892 
3149.756528  	0.064399 
3151.685344  	0.064708 
3153.614160  	0.064968 
3155.542976  	0.065327 
3157.471792  	0.065770 
3159.400608  	0.066192 
3161.329424  	0.066638 
3163.258240  	0.067020 
3165.187056  	0.067365 
3167.115872  	0.067616 
3169.044688  	0.068058 
3170.973504  	0.068366 
3172.902320  	0.068522 
3174.831136  	0.068645 
3176.759952  	0.068876 
3178.688768  	0.069233 
3180.617584  	0.069302 
3182.546400  	0.069397 
3184.475216  	0.069564 
3186.404032  	0.069724 
3188.332848  	0.069839 
3190.261664  	0.069783 
3192.190480  	0.069668 
3194.119296  	0.069794 
3196.048112  	0.069732 
3197.976928  	0.070004 
3199.905744  	0.070158 
3201.834560  	0.069946 
3203.763376  	0.069852 
3205.692192  	0.069505 
3207.621008  	0.069298 
3209.549824  	0.069496 
3211.478640  	0.069504 
3213.407456  	0.069331 
3215.336272  	0.069331 
3217.265088  	0.069025 
3219.193904  	0.069137 
3221.122720  	0.069175 
3223.051536  	0.068721 
3224.980352  	0.068525 
3226.909168  	0.068464 
3228.837984  	0.068332 
3230.766800  	0.068166 
3232.695616  	0.068098 
3234.624432  	0.068092 
3236.553248  	0.068335 
3238.482064  	0.068333 
3240.410880  	0.068111 
3242.339696  	0.067976 
3244.268512  	0.067911 
3246.197328  	0.068163 
3248.126144  	0.068136 
3250.054960  	0.068287 
3251.983776  	0.068302 
3253.912592  	0.068428 
3255.841408  	0.068619 
3257.770224  	0.068724 
3259.699040  	0.068843 
3261.627856  	0.068962 
3263.556672  	0.068894 
3265.485488  	0.069016 
3267.414304  	0.069129 
3269.343120  	0.069272 
3271.271936  	0.069243 
3273.200752  	0.069232 
3275.129568  	0.069366 
3277.058384  	0.069648 
3278.987200  	0.069673 
3280.916016  	0.069571 
3282.844832  	0.069523 
3284.773648  	0.069705 
3286.702464  	0.069835 
3288.631280  	0.069872 
3290.560096  	0.069979 
3292.488912  	0.070195 
3294.417728  	0.070273 
3296.346544  	0.070312 
3298.275360  	0.070490 
3300.204176  	0.070634 
3302.132992  	0.070643 
3304.061808  	0.070842 
3305.990624  	0.071036 
3307.919440  	0.071272 
3309.848256  	0.071493 
3311.777072  	0.071564 
3313.705888  	0.071736 
3315.634704  	0.071926 
3317.563520  	0.072081 
3319.492336  	0.072316 
3321.421152  	0.072526 
3323.349968  	0.072560 
3325.278784  	0.072526 
3327.207600  	0.072669 
3329.136416  	0.072468 
3331.065232  	0.072369 
3332.994048  	0.072446 
3334.922864  	0.072520 
3336.851680  	0.072603 
3338.780496  	0.072470 
3340.709312  	0.072026 
3342.638128  	0.071960 
3344.566944  	0.071885 
3346.495760  	0.071607 
3348.424576  	0.071414 
3350.353392  	0.071225 
3352.282208  	0.070904 
3354.211024  	0.070719 
3356.139840  	0.070427 
3358.068656  	0.070170 
3359.997472  	0.069889 
3361.926288  	0.069622 
3363.855104  	0.069401 
3365.783920  	0.069190 
3367.712736  	0.068877 
3369.641552  	0.068517 
3371.570368  	0.068299 
3373.499184  	0.068119 
3375.428000  	0.067822 
3377.356816  	0.067678 
3379.285632  	0.067482 
3381.214448  	0.066990 
3383.143264  	0.066720 
3385.072080  	0.066845 
3387.000896  	0.066380 
3388.929712  	0.065788 
3390.858528  	0.065367 
3392.787344  	0.065539 
3394.716160  	0.065428 
3396.644976  	0.065154 
3398.573792  	0.064728 
3400.502608  	0.063811 
3402.431424  	0.063289 
3404.360240  	0.063131 
3406.289056  	0.062738 
3408.217872  	0.062380 
3410.146688  	0.062098 
3412.075504  	0.061666 
3414.004320  	0.061319 
3415.933136  	0.060985 
3417.861952  	0.060562 
3419.790768  	0.060364 
3421.719584  	0.060395 
3423.648400  	0.059924 
3425.577216  	0.059064 
3427.506032  	0.058535 
3429.434848  	0.058201 
3431.363664  	0.058022 
3433.292480  	0.057636 
3435.221296  	0.057071 
3437.150112  	0.056464 
3439.078928  	0.056069 
3441.007744  	0.055567 
3442.936560  	0.055403 
3444.865376  	0.054491 
3446.794192  	0.054492 
3448.723008  	0.054716 
3450.651824  	0.053738 
3452.580640  	0.052987 
3454.509456  	0.052327 
3456.438272  	0.051788 
3458.367088  	0.051088 
3460.295904  	0.050642 
3462.224720  	0.050406 
3464.153536  	0.049731 
3466.082352  	0.048813 
3468.011168  	0.048452 
3469.939984  	0.048105 
3471.868800  	0.047301 
3473.797616  	0.046470 
3475.726432  	0.046053 
3477.655248  	0.045444 
3479.584064  	0.044673 
3481.512880  	0.044672 
3483.441696  	0.044492 
3485.370512  	0.043187 
3487.299328  	0.042478 
3489.228144  	0.042067 
3491.156960  	0.041212 
3493.085776  	0.040588 
3495.014592  	0.040249 
3496.943408  	0.039826 
3498.872224  	0.038961 
3500.801040  	0.038434 
3502.729856  	0.038596 
3504.658672  	0.038461 
3506.587488  	0.037099 
3508.516304  	0.036446 
3510.445120  	0.036773 
3512.373936  	0.035990 
3514.302752  	0.035118 
3516.231568  	0.034548 
3518.160384  	0.033928 
3520.089200  	0.033142 
3522.018016  	0.032685 
3523.946832  	0.033137 
3525.875648  	0.032544 
3527.804464  	0.031875 
3529.733280  	0.031496 
3531.662096  	0.030682 
3533.590912  	0.029543 
3535.519728  	0.029087 
3537.448544  	0.029098 
3539.377360  	0.028235 
3541.306176  	0.027289 
3543.234992  	0.026882 
3545.163808  	0.027573 
3547.092624  	0.027868 
3549.021440  	0.026474 
3550.950256  	0.025252 
3552.879072  	0.025542 
3554.807888  	0.024635 
3556.736704  	0.023532 
3558.665520  	0.023381 
3560.594336  	0.023257 
3562.523152  	0.022180 
3564.451968  	0.021303 
3566.380784  	0.022984 
3568.309600  	0.024549 
3570.238416  	0.021924 
3572.167232  	0.019834 
3574.096048  	0.019199 
3576.024864  	0.018929 
3577.953680  	0.018456 
3579.882496  	0.017975 
3581.811312  	0.017125 
3583.740128  	0.016115 
3585.668944  	0.015753 
3587.597760  	0.017539 
3589.526576  	0.016934 
3591.455392  	0.014292 
3593.384208  	0.013720 
3595.313024  	0.014025 
3597.241840  	0.013120 
3599.170656  	0.011965 
3601.099472  	0.011811 
3603.028288  	0.011070 
3604.957104  	0.009746 
3606.885920  	0.009599 
3608.814736  	0.010180 
3610.743552  	0.008752 
3612.672368  	0.008228 
3614.601184  	0.008256 
3616.530000  	0.006761 
3618.458816  	0.007008 
3620.387632  	0.007348 
3622.316448  	0.005413 
3624.245264  	0.003720 
3626.174080  	0.002468 
3628.102896  	0.002947 
3630.031712  	0.004774 
3631.960528  	0.002537 
3633.889344  	0.001559 
3635.818160  	0.000796 
3637.746976  	-0.000145 
3639.675792  	-0.000914 
3641.604608  	-0.001363 
3643.533424  	-0.002084 
3645.462240  	-0.003085 
3647.391056  	-0.002229 
3649.319872  	-0.000603 
3651.248688  	-0.000907 
3653.177504  	-0.004276 
3655.106320  	-0.005429 
3657.035136  	-0.004828 
3658.963952  	-0.005782 
3660.892768  	-0.006538 
3662.821584  	-0.006994 
3664.750400  	-0.007459 
3666.679216  	-0.007925 
3668.608032  	-0.007636 
3670.536848  	-0.006480 
3672.465664  	-0.008115 
3674.394480  	-0.008318 
3676.323296  	-0.006292 
3678.252112  	-0.007484 
3680.180928  	-0.008200 
3682.109744  	-0.008966 
3684.038560  	-0.009323 
3685.967376  	-0.010052 
3687.896192  	-0.009504 
3689.825008  	-0.008072 
3691.753824  	-0.008157 
3693.682640  	-0.008863 
3695.611456  	-0.009448 
3697.540272  	-0.009467 
3699.469088  	-0.009961 
3701.397904  	-0.009450 
3703.326720  	-0.008940 
3705.255536  	-0.009286 
3707.184352  	-0.009465 
3709.113168  	-0.009280 
3711.041984  	-0.008337 
3712.970800  	-0.008069 
3714.899616  	-0.009227 
3716.828432  	-0.009749 
3718.757248  	-0.009429 
3720.686064  	-0.009465 
3722.614880  	-0.009132 
3724.543696  	-0.008885 
3726.472512  	-0.008396 
3728.401328  	-0.009290 
3730.330144  	-0.010364 
3732.258960  	-0.010183 
3734.187776  	-0.008709 
3736.116592  	-0.006682 
3738.045408  	-0.008135 
3739.974224  	-0.009252 
3741.903040  	-0.009877 
3743.831856  	-0.009167 
3745.760672  	-0.008222 
3747.689488  	-0.009580 
3749.618304  	-0.008258 
3751.547120  	-0.006599 
3753.475936  	-0.007668 
3755.404752  	-0.008948 
3757.333568  	-0.009186 
3759.262384  	-0.008779 
3761.191200  	-0.008817 
3763.120016  	-0.009886 
3765.048832  	-0.009452 
3766.977648  	-0.009268 
3768.906464  	-0.009163 
3770.835280  	-0.008823 
3772.764096  	-0.009430 
3774.692912  	-0.009967 
3776.621728  	-0.010244 
3778.550544  	-0.009684 
3780.479360  	-0.009289 
3782.408176  	-0.009885 
3784.336992  	-0.009583 
3786.265808  	-0.009450 
3788.194624  	-0.009734 
3790.123440  	-0.009749 
3792.052256  	-0.009937 
3793.981072  	-0.010403 
3795.909888  	-0.009561 
3797.838704  	-0.009204 
3799.767520  	-0.009821 
3801.696336  	-0.008133 
3803.625152  	-0.009123 
3805.553968  	-0.010221 
3807.482784  	-0.009127 
3809.411600  	-0.009469 
3811.340416  	-0.009904 
3813.269232  	-0.010469 
3815.198048  	-0.009736 
3817.126864  	-0.008922 
3819.055680  	-0.009811 
3820.984496  	-0.008394 
3822.913312  	-0.008437 
3824.842128  	-0.009567 
3826.770944  	-0.009450 
3828.699760  	-0.009836 
3830.628576  	-0.009870 
3832.557392  	-0.009769 
3834.486208  	-0.010060 
3836.415024  	-0.009933 
3838.343840  	-0.008973 
3840.272656  	-0.008307 
3842.201472  	-0.008493 
3844.130288  	-0.008607 
3846.059104  	-0.009383 
3847.987920  	-0.010123 
3849.916736  	-0.010434 
3851.845552  	-0.009590 
3853.774368  	-0.005856 
3855.703184  	-0.006784 
3857.632000  	-0.008390 
3859.560816  	-0.009543 
3861.489632  	-0.009650 
3863.418448  	-0.009020 
3865.347264  	-0.008118 
3867.276080  	-0.009400 
3869.204896  	-0.008800 
3871.133712  	-0.007876 
3873.062528  	-0.008919 
3874.991344  	-0.008741 
3876.920160  	-0.009953 
3878.848976  	-0.009987 
3880.777792  	-0.008444 
3882.706608  	-0.008837 
3884.635424  	-0.008985 
3886.564240  	-0.008539 
3888.493056  	-0.010004 
3890.421872  	-0.009757 
3892.350688  	-0.008899 
3894.279504  	-0.009497 
3896.208320  	-0.010133 
3898.137136  	-0.009682 
3900.065952  	-0.008601 
3901.994768  	-0.008403 
3903.923584  	-0.007839 
3905.852400  	-0.008089 
3907.781216  	-0.009459 
3909.710032  	-0.010288 
3911.638848  	-0.010398 
3913.567664  	-0.010236 
3915.496480  	-0.009753 
3917.425296  	-0.008841 
3919.354112  	-0.008856 
3921.282928  	-0.009146 
3923.211744  	-0.009282 
3925.140560  	-0.009073 
3927.069376  	-0.009574 
3928.998192  	-0.009461 
3930.927008  	-0.009038 
3932.855824  	-0.008769 
3934.784640  	-0.009245 
3936.713456  	-0.009529 
3938.642272  	-0.009827 
3940.571088  	-0.010007 
3942.499904  	-0.009076 
3944.428720  	-0.009119 
3946.357536  	-0.009673 
3948.286352  	-0.009084 
3950.215168  	-0.009158 
3952.143984  	-0.009773 
3954.072800  	-0.010045 
3956.001616  	-0.009875 
3957.930432  	-0.009593 
3959.859248  	-0.009403 
3961.788064  	-0.009398 
3963.716880  	-0.009620 
3965.645696  	-0.009887 
3967.574512  	-0.009892 
3969.503328  	-0.009854 
3971.432144  	-0.009840 
3973.360960  	-0.009523 
3975.289776  	-0.009184 
3977.218592  	-0.009409 
3979.147408  	-0.009816 
3981.076224  	-0.009925 
3983.005040  	-0.009874 
3984.933856  	-0.009706 
3986.862672  	-0.009599 
3988.791488  	-0.009743 
3990.720304  	-0.009608 
3992.649120  	-0.009669 
3994.577936  	-0.009696 
3996.506752  	-0.009711 
3998.435568  	-0.009805 
4000.364384  	-0.009791 