##TITLE=No Description
##DATA TYPE=INFRARED SPECTRUM
##XUNITS=1/CM
##YUNITS=Abs
399.264912  	0.600883 
401.193728  	0.580215 
403.122544  	0.575781 
405.051360  	0.566404 
406.980176  	0.573594 
408.908992  	0.566467 
410.837808  	0.565084 
412.766624  	0.579353 
414.695440  	0.579400 
416.624256  	0.572007 
418.553072  	0.585871 
420.481888  	0.572983 
422.410704  	0.556426 
424.339520  	0.552340 
426.268336  	0.562780 
428.197152  	0.562071 
430.125968  	0.561774 
432.054784  	0.553431 
433.983600  	0.557146 
435.912416  	0.554022 
437.841232  	0.546560 
439.770048  	0.545816 
441.698864  	0.552461 
443.627680  	0.546067 
445.556496  	0.546545 
447.485312  	0.547298 
449.414128  	0.548232 
451.342944  	0.546788 
453.271760  	0.546225 
455.200576  	0.543253 
457.129392  	0.548132 
459.058208  	0.552285 
460.987024  	0.558707 
462.915840  	0.558824 
464.844656  	0.556376 
466.773472  	0.549017 
468.702288  	0.544930 
470.631104  	0.546652 
472.559920  	0.553998 
474.488736  	0.551348 
476.417552  	0.551247 
478.346368  	0.549904 
480.275184  	0.554669 
482.204000  	0.552806 
484.132816  	0.552486 
486.061632  	0.552365 
487.990448  	0.550655 
489.919264  	0.545626 
491.848080  	0.543132 
493.776896  	0.542797 
495.705712  	0.545366 
497.634528  	0.546592 
499.563344  	0.545048 
501.492160  	0.539057 
503.420976  	0.538767 
505.349792  	0.536399 
507.278608  	0.539309 
509.207424  	0.540150 
511.136240  	0.545958 
513.065056  	0.549680 
514.993872  	0.552210 
516.922688  	0.552602 
518.851504  	0.557042 
520.780320  	0.559289 
522.709136  	0.561682 
524.637952  	0.558437 
526.566768  	0.552828 
528.495584  	0.548080 
530.424400  	0.544673 
532.353216  	0.538628 
534.282032  	0.532389 
536.210848  	0.526753 
538.139664  	0.521104 
540.068480  	0.513566 
541.997296  	0.507792 
543.926112  	0.504300 
545.854928  	0.501544 
547.783744  	0.496834 
549.712560  	0.493651 
551.641376  	0.489709 
553.570192  	0.486290 
555.499008  	0.481932 
557.427824  	0.479928 
559.356640  	0.477228 
561.285456  	0.473591 
563.214272  	0.469746 
565.143088  	0.466271 
567.071904  	0.460485 
569.000720  	0.456126 
570.929536  	0.453065 
572.858352  	0.450956 
574.787168  	0.446483 
576.715984  	0.443283 
578.644800  	0.438740 
580.573616  	0.433554 
582.502432  	0.427629 
584.431248  	0.422647 
586.360064  	0.417500 
588.288880  	0.414918 
590.217696  	0.412938 
592.146512  	0.411332 
594.075328  	0.409387 
596.004144  	0.407044 
597.932960  	0.405074 
599.861776  	0.404055 
601.790592  	0.403051 
603.719408  	0.401973 
605.648224  	0.401843 
607.577040  	0.401452 
609.505856  	0.399354 
611.434672  	0.398712 
613.363488  	0.397506 
615.292304  	0.396865 
617.221120  	0.394990 
619.149936  	0.393482 
621.078752  	0.392013 
623.007568  	0.391352 
624.936384  	0.390664 
626.865200  	0.390107 
628.794016  	0.389319 
630.722832  	0.389323 
632.651648  	0.390552 
634.580464  	0.391789 
636.509280  	0.393053 
638.438096  	0.393339 
640.366912  	0.392606 
642.295728  	0.390559 
644.224544  	0.387843 
646.153360  	0.385280 
648.082176  	0.381514 
650.010992  	0.377815 
651.939808  	0.374014 
653.868624  	0.370141 
655.797440  	0.364812 
657.726256  	0.359988 
659.655072  	0.355141 
661.583888  	0.350006 
663.512704  	0.344917 
665.441520  	0.340046 
667.370336  	0.336753 
669.299152  	0.330808 
671.227968  	0.323864 
673.156784  	0.319711 
675.085600  	0.316840 
677.014416  	0.314210 
678.943232  	0.312239 
680.872048  	0.310952 
682.800864  	0.309383 
684.729680  	0.307990 
686.658496  	0.306183 
688.587312  	0.304960 
690.516128  	0.303889 
692.444944  	0.303453 
694.373760  	0.302745 
696.302576  	0.301186 
698.231392  	0.298783 
700.160208  	0.295833 
702.089024  	0.292846 
704.017840  	0.290760 
705.946656  	0.288280 
707.875472  	0.285738 
709.804288  	0.283526 
711.733104  	0.282198 
713.661920  	0.280534 
715.590736  	0.279282 
717.519552  	0.279278 
719.448368  	0.280997 
721.377184  	0.282676 
723.306000  	0.284034 
725.234816  	0.285045 
727.163632  	0.284029 
729.092448  	0.280925 
731.021264  	0.276608 
732.950080  	0.271793 
734.878896  	0.267193 
736.807712  	0.263484 
738.736528  	0.261246 
740.665344  	0.259253 
742.594160  	0.257779 
744.522976  	0.255843 
746.451792  	0.254427 
748.380608  	0.253435 
750.309424  	0.252413 
752.238240  	0.251305 
754.167056  	0.250928 
756.095872  	0.250636 
758.024688  	0.249620 
759.953504  	0.249605 
761.882320  	0.251726 
763.811136  	0.253477 
765.739952  	0.251736 
767.668768  	0.247560 
769.597584  	0.244535 
771.526400  	0.244430 
773.455216  	0.247726 
775.384032  	0.254181 
777.312848  	0.262630 
779.241664  	0.268200 
781.170480  	0.266969 
783.099296  	0.259782 
785.028112  	0.251280 
786.956928  	0.243958 
788.885744  	0.238423 
790.814560  	0.234085 
792.743376  	0.231957 
794.672192  	0.231703 
796.601008  	0.230458 
798.529824  	0.226229 
800.458640  	0.221005 
802.387456  	0.217082 
804.316272  	0.215395 
806.245088  	0.214657 
808.173904  	0.214247 
810.102720  	0.214520 
812.031536  	0.215567 
813.960352  	0.216488 
815.889168  	0.218182 
817.817984  	0.220471 
819.746800  	0.222821 
821.675616  	0.225417 
823.604432  	0.227757 
825.533248  	0.229586 
827.462064  	0.231056 
829.390880  	0.231274 
831.319696  	0.230932 
833.248512  	0.229676 
835.177328  	0.227641 
837.106144  	0.224150 
839.034960  	0.219752 
840.963776  	0.214100 
842.892592  	0.208621 
844.821408  	0.203413 
846.750224  	0.198609 
848.679040  	0.194792 
850.607856  	0.192072 
852.536672  	0.190428 
854.465488  	0.189306 
856.394304  	0.188511 
858.323120  	0.187225 
860.251936  	0.185879 
862.180752  	0.184447 
864.109568  	0.182270 
866.038384  	0.179988 
867.967200  	0.177605 
869.896016  	0.175979 
871.824832  	0.175396 
873.753648  	0.176583 
875.682464  	0.178460 
877.611280  	0.181363 
879.540096  	0.185418 
881.468912  	0.189915 
883.397728  	0.194079 
885.326544  	0.197476 
887.255360  	0.199640 
889.184176  	0.200426 
891.112992  	0.199805 
893.041808  	0.197597 
894.970624  	0.194052 
896.899440  	0.188539 
898.828256  	0.181584 
900.757072  	0.175150 
902.685888  	0.169950 
904.614704  	0.166923 
906.543520  	0.166646 
908.472336  	0.169364 
910.401152  	0.173739 
912.329968  	0.178655 
914.258784  	0.183247 
916.187600  	0.187610 
918.116416  	0.191424 
920.045232  	0.194440 
921.974048  	0.196490 
923.902864  	0.198258 
925.831680  	0.199837 
927.760496  	0.201884 
929.689312  	0.204100 
931.618128  	0.206754 
933.546944  	0.208814 
935.475760  	0.209746 
937.404576  	0.209358 
939.333392  	0.208328 
941.262208  	0.207773 
943.191024  	0.209380 
945.119840  	0.214508 
947.048656  	0.223624 
948.977472  	0.237170 
950.906288  	0.254577 
952.835104  	0.275443 
954.763920  	0.298772 
956.692736  	0.320970 
958.621552  	0.340205 
960.550368  	0.353343 
962.479184  	0.359311 
964.408000  	0.356887 
966.336816  	0.347371 
968.265632  	0.331349 
970.194448  	0.311025 
972.123264  	0.288064 
974.052080  	0.265071 
975.980896  	0.242967 
977.909712  	0.222801 
979.838528  	0.205626 
981.767344  	0.191550 
983.696160  	0.181250 
985.624976  	0.175279 
987.553792  	0.174248 
989.482608  	0.177930 
991.411424  	0.185826 
993.340240  	0.196880 
995.269056  	0.209234 
997.197872  	0.222440 
999.126688  	0.235493 
1001.055504  	0.248765 
1002.984320  	0.261632 
1004.913136  	0.274401 
1006.841952  	0.286282 
1008.770768  	0.297192 
1010.699584  	0.305775 
1012.628400  	0.311800 
1014.557216  	0.315554 
1016.486032  	0.317131 
1018.414848  	0.317340 
1020.343664  	0.317274 
1022.272480  	0.316938 
1024.201296  	0.316797 
1026.130112  	0.316718 
1028.058928  	0.318411 
1029.987744  	0.322518 
1031.916560  	0.328642 
1033.845376  	0.336049 
1035.774192  	0.345911 
1037.703008  	0.358412 
1039.631824  	0.375472 
1041.560640  	0.396832 
1043.489456  	0.422358 
1045.418272  	0.447865 
1047.347088  	0.469156 
1049.275904  	0.480352 
1051.204720  	0.481693 
1053.133536  	0.474615 
1055.062352  	0.464382 
1056.991168  	0.453858 
1058.919984  	0.445664 
1060.848800  	0.438931 
1062.777616  	0.433791 
1064.706432  	0.427297 
1066.635248  	0.419797 
1068.564064  	0.410337 
1070.492880  	0.400441 
1072.421696  	0.391315 
1074.350512  	0.385989 
1076.279328  	0.385235 
1078.208144  	0.389689 
1080.136960  	0.394467 
1082.065776  	0.395785 
1083.994592  	0.390368 
1085.923408  	0.379534 
1087.852224  	0.364179 
1089.781040  	0.347246 
1091.709856  	0.328471 
1093.638672  	0.309037 
1095.567488  	0.288819 
1097.496304  	0.269670 
1099.425120  	0.251218 
1101.353936  	0.233961 
1103.282752  	0.217888 
1105.211568  	0.203431 
1107.140384  	0.190517 
1109.069200  	0.178746 
1110.998016  	0.168066 
1112.926832  	0.158754 
1114.855648  	0.150196 
1116.784464  	0.141615 
1118.713280  	0.133269 
1120.642096  	0.125245 
1122.570912  	0.117682 
1124.499728  	0.111102 
1126.428544  	0.105337 
1128.357360  	0.100448 
1130.286176  	0.096313 
1132.214992  	0.092884 
1134.143808  	0.090285 
1136.072624  	0.088320 
1138.001440  	0.086637 
1139.930256  	0.085022 
1141.859072  	0.083169 
1143.787888  	0.081175 
1145.716704  	0.079756 
1147.645520  	0.078460 
1149.574336  	0.077895 
1151.503152  	0.077765 
1153.431968  	0.078191 
1155.360784  	0.078945 
1157.289600  	0.080493 
1159.218416  	0.082401 
1161.147232  	0.084891 
1163.076048  	0.087850 
1165.004864  	0.090819 
1166.933680  	0.093720 
1168.862496  	0.096714 
1170.791312  	0.100155 
1172.720128  	0.104207 
1174.648944  	0.108680 
1176.577760  	0.113237 
1178.506576  	0.118111 
1180.435392  	0.123206 
1182.364208  	0.128158 
1184.293024  	0.133800 
1186.221840  	0.140544 
1188.150656  	0.147901 
1190.079472  	0.156330 
1192.008288  	0.166173 
1193.937104  	0.177366 
1195.865920  	0.189797 
1197.794736  	0.203172 
1199.723552  	0.217211 
1201.652368  	0.231089 
1203.581184  	0.243787 
1205.510000  	0.255483 
1207.438816  	0.265135 
1209.367632  	0.273049 
1211.296448  	0.278680 
1213.225264  	0.282474 
1215.154080  	0.283825 
1217.082896  	0.283541 
1219.011712  	0.281318 
1220.940528  	0.278225 
1222.869344  	0.274212 
1224.798160  	0.269683 
1226.726976  	0.263722 
1228.655792  	0.257132 
1230.584608  	0.249901 
1232.513424  	0.242240 
1234.442240  	0.233683 
1236.371056  	0.225112 
1238.299872  	0.216056 
1240.228688  	0.206340 
1242.157504  	0.196557 
1244.086320  	0.187244 
1246.015136  	0.178149 
1247.943952  	0.169347 
1249.872768  	0.160658 
1251.801584  	0.152708 
1253.730400  	0.145188 
1255.659216  	0.137817 
1257.588032  	0.130699 
1259.516848  	0.124241 
1261.445664  	0.118173 
1263.374480  	0.112699 
1265.303296  	0.108029 
1267.232112  	0.104493 
1269.160928  	0.101988 
1271.089744  	0.100533 
1273.018560  	0.100327 
1274.947376  	0.101139 
1276.876192  	0.102545 
1278.805008  	0.103600 
1280.733824  	0.103608 
1282.662640  	0.101896 
1284.591456  	0.099466 
1286.520272  	0.097324 
1288.449088  	0.096244 
1290.377904  	0.096577 
1292.306720  	0.098110 
1294.235536  	0.099483 
1296.164352  	0.099202 
1298.093168  	0.096846 
1300.021984  	0.093374 
1301.950800  	0.089518 
1303.879616  	0.085369 
1305.808432  	0.080953 
1307.737248  	0.076347 
1309.666064  	0.071953 
1311.594880  	0.068489 
1313.523696  	0.066063 
1315.452512  	0.064482 
1317.381328  	0.063944 
1319.310144  	0.064338 
1321.238960  	0.065150 
1323.167776  	0.066387 
1325.096592  	0.067576 
1327.025408  	0.068191 
1328.954224  	0.068051 
1330.883040  	0.067074 
1332.811856  	0.065348 
1334.740672  	0.063771 
1336.669488  	0.062823 
1338.598304  	0.062835 
1340.527120  	0.062915 
1342.455936  	0.062041 
1344.384752  	0.061875 
1346.313568  	0.062430 
1348.242384  	0.063448 
1350.171200  	0.065077 
1352.100016  	0.067137 
1354.028832  	0.069563 
1355.957648  	0.072272 
1357.886464  	0.074870 
1359.815280  	0.077418 
1361.744096  	0.080769 
1363.672912  	0.084745 
1365.601728  	0.086921 
1367.530544  	0.089290 
1369.459360  	0.091988 
1371.388176  	0.092899 
1373.316992  	0.092839 
1375.245808  	0.091734 
1377.174624  	0.088432 
1379.103440  	0.084982 
1381.032256  	0.081512 
1382.961072  	0.078533 
1384.889888  	0.076064 
1386.818704  	0.074763 
1388.747520  	0.072741 
1390.676336  	0.069588 
1392.605152  	0.066799 
1394.533968  	0.065859 
1396.462784  	0.066135 
1398.391600  	0.066090 
1400.320416  	0.066816 
1402.249232  	0.066487 
1404.178048  	0.067374 
1406.106864  	0.068900 
1408.035680  	0.070236 
1409.964496  	0.072181 
1411.893312  	0.075050 
1413.822128  	0.077760 
1415.750944  	0.080172 
1417.679760  	0.082286 
1419.608576  	0.085350 
1421.537392  	0.084993 
1423.466208  	0.083806 
1425.395024  	0.081983 
1427.323840  	0.078645 
1429.252656  	0.075741 
1431.181472  	0.073364 
1433.110288  	0.071594 
1435.039104  	0.071263 
1436.967920  	0.074809 
1438.896736  	0.076928 
1440.825552  	0.077624 
1442.754368  	0.078724 
1444.683184  	0.078882 
1446.612000  	0.079075 
1448.540816  	0.079966 
1450.469632  	0.080272 
1452.398448  	0.080423 
1454.327264  	0.080113 
1456.256080  	0.080880 
1458.184896  	0.083939 
1460.113712  	0.081776 
1462.042528  	0.079610 
1463.971344  	0.079072 
1465.900160  	0.080354 
1467.828976  	0.080225 
1469.757792  	0.080943 
1471.686608  	0.085085 
1473.615424  	0.095365 
1475.544240  	0.101429 
1477.473056  	0.108016 
1479.401872  	0.112156 
1481.330688  	0.116976 
1483.259504  	0.120362 
1485.188320  	0.121979 
1487.117136  	0.123077 
1489.045952  	0.124605 
1490.974768  	0.123220 
1492.903584  	0.118496 
1494.832400  	0.112469 
1496.761216  	0.106092 
1498.690032  	0.098480 
1500.618848  	0.091013 
1502.547664  	0.083926 
1504.476480  	0.078321 
1506.405296  	0.076251 
1508.334112  	0.076316 
1510.262928  	0.072245 
1512.191744  	0.069750 
1514.120560  	0.068535 
1516.049376  	0.069763 
1517.978192  	0.072784 
1519.907008  	0.073783 
1521.835824  	0.081173 
1523.764640  	0.085601 
1525.693456  	0.089139 
1527.622272  	0.092487 
1529.551088  	0.091760 
1531.479904  	0.088855 
1533.408720  	0.086431 
1535.337536  	0.082282 
1537.266352  	0.077435 
1539.195168  	0.074860 
1541.123984  	0.073702 
1543.052800  	0.071223 
1544.981616  	0.069453 
1546.910432  	0.067237 
1548.839248  	0.065966 
1550.768064  	0.067175 
1552.696880  	0.066416 
1554.625696  	0.067891 
1556.554512  	0.067746 
1558.483328  	0.072169 
1560.412144  	0.081471 
1562.340960  	0.080839 
1564.269776  	0.083256 
1566.198592  	0.088783 
1568.127408  	0.092454 
1570.056224  	0.102543 
1571.985040  	0.108239 
1573.913856  	0.110799 
1575.842672  	0.115897 
1577.771488  	0.121362 
1579.700304  	0.119439 
1581.629120  	0.118228 
1583.557936  	0.117549 
1585.486752  	0.119013 
1587.415568  	0.122125 
1589.344384  	0.128224 
1591.273200  	0.135726 
1593.202016  	0.145110 
1595.130832  	0.155218 
1597.059648  	0.165575 
1598.988464  	0.173687 
1600.917280  	0.181325 
1602.846096  	0.186720 
1604.774912  	0.190307 
1606.703728  	0.190738 
1608.632544  	0.190529 
1610.561360  	0.188224 
1612.490176  	0.185978 
1614.418992  	0.182923 
1616.347808  	0.184350 
1618.276624  	0.187947 
1620.205440  	0.189636 
1622.134256  	0.192846 
1624.063072  	0.203065 
1625.991888  	0.209881 
1627.920704  	0.219356 
1629.849520  	0.229566 
1631.778336  	0.237329 
1633.707152  	0.242894 
1635.635968  	0.254727 
1637.564784  	0.265361 
1639.493600  	0.267706 
1641.422416  	0.269671 
1643.351232  	0.270894 
1645.280048  	0.270326 
1647.208864  	0.273607 
1649.137680  	0.271266 
1651.066496  	0.265904 
1652.995312  	0.264135 
1654.924128  	0.265313 
1656.852944  	0.259013 
1658.781760  	0.253871 
1660.710576  	0.248731 
1662.639392  	0.244300 
1664.568208  	0.238100 
1666.497024  	0.231082 
1668.425840  	0.224290 
1670.354656  	0.217848 
1672.283472  	0.211020 
1674.212288  	0.205088 
1676.141104  	0.200743 
1678.069920  	0.196078 
1679.998736  	0.192840 
1681.927552  	0.189637 
1683.856368  	0.188605 
1685.785184  	0.189665 
1687.714000  	0.186296 
1689.642816  	0.185120 
1691.571632  	0.183591 
1693.500448  	0.180905 
1695.429264  	0.179869 
1697.358080  	0.180316 
1699.286896  	0.177172 
1701.215712  	0.177733 
1703.144528  	0.173736 
1705.073344  	0.170333 
1707.002160  	0.166480 
1708.930976  	0.160706 
1710.859792  	0.153633 
1712.788608  	0.145442 
1714.717424  	0.135969 
1716.646240  	0.125449 
1718.575056  	0.111971 
1720.503872  	0.099121 
1722.432688  	0.088075 
1724.361504  	0.076393 
1726.290320  	0.066285 
1728.219136  	0.057701 
1730.147952  	0.050627 
1732.076768  	0.044087 
1734.005584  	0.040498 
1735.934400  	0.035790 
1737.863216  	0.031872 
1739.792032  	0.029279 
1741.720848  	0.027020 
1743.649664  	0.025199 
1745.578480  	0.023394 
1747.507296  	0.021576 
1749.436112  	0.021308 
1751.364928  	0.020662 
1753.293744  	0.019103 
1755.222560  	0.017282 
1757.151376  	0.017730 
1759.080192  	0.016390 
1761.009008  	0.015777 
1762.937824  	0.015701 
1764.866640  	0.014528 
1766.795456  	0.013608 
1768.724272  	0.013826 
1770.653088  	0.012689 
1772.581904  	0.014405 
1774.510720  	0.014034 
1776.439536  	0.012929 
1778.368352  	0.011606 
1780.297168  	0.011748 
1782.225984  	0.011323 
1784.154800  	0.011000 
1786.083616  	0.010760 
1788.012432  	0.010151 
1789.941248  	0.009714 
1791.870064  	0.010909 
1793.798880  	0.011108 
1795.727696  	0.010304 
1797.656512  	0.009289 
1799.585328  	0.009141 
1801.514144  	0.009815 
1803.442960  	0.009713 
1805.371776  	0.009078 
1807.300592  	0.008577 
1809.229408  	0.008172 
1811.158224  	0.008497 
1813.087040  	0.008101 
1815.015856  	0.007516 
1816.944672  	0.007698 
1818.873488  	0.008151 
1820.802304  	0.007998 
1822.731120  	0.007911 
1824.659936  	0.007810 
1826.588752  	0.008002 
1828.517568  	0.007347 
1830.446384  	0.008598 
1832.375200  	0.007856 
1834.304016  	0.007120 
1836.232832  	0.007169 
1838.161648  	0.007696 
1840.090464  	0.007210 
1842.019280  	0.006508 
1843.948096  	0.007133 
1845.876912  	0.008044 
1847.805728  	0.007207 
1849.734544  	0.006968 
1851.663360  	0.006621 
1853.592176  	0.007097 
1855.520992  	0.007082 
1857.449808  	0.007108 
1859.378624  	0.006415 
1861.307440  	0.006557 
1863.236256  	0.006237 
1865.165072  	0.006126 
1867.093888  	0.005926 
1869.022704  	0.007620 
1870.951520  	0.007547 
1872.880336  	0.006842 
1874.809152  	0.006129 
1876.737968  	0.005931 
1878.666784  	0.005726 
1880.595600  	0.005668 
1882.524416  	0.005805 
1884.453232  	0.006306 
1886.382048  	0.005826 
1888.310864  	0.006140 
1890.239680  	0.006559 
1892.168496  	0.006537 
1894.097312  	0.006175 
1896.026128  	0.006054 
1897.954944  	0.005794 
1899.883760  	0.006114 
1901.812576  	0.006027 
1903.741392  	0.006258 
1905.670208  	0.005715 
1907.599024  	0.005287 
1909.527840  	0.005513 
1911.456656  	0.006531 
1913.385472  	0.006378 
1915.314288  	0.006138 
1917.243104  	0.005800 
1919.171920  	0.006472 
1921.100736  	0.006074 
1923.029552  	0.006493 
1924.958368  	0.005467 
1926.887184  	0.004903 
1928.816000  	0.004479 
1930.744816  	0.004767 
1932.673632  	0.005002 
1934.602448  	0.005666 
1936.531264  	0.005244 
1938.460080  	0.005507 
1940.388896  	0.005095 
1942.317712  	0.005688 
1944.246528  	0.004781 
1946.175344  	0.004825 
1948.104160  	0.005149 
1950.032976  	0.005713 
1951.961792  	0.004938 
1953.890608  	0.004103 
1955.819424  	0.002970 
1957.748240  	0.003210 
1959.677056  	0.002814 
1961.605872  	0.003161 
1963.534688  	0.003679 
1965.463504  	0.005101 
1967.392320  	0.004461 
1969.321136  	0.003936 
1971.249952  	0.002785 
1973.178768  	0.003248 
1975.107584  	0.004371 
1977.036400  	0.006050 
1978.965216  	0.005688 
1980.894032  	0.005343 
1982.822848  	0.005354 
1984.751664  	0.006842 
1986.680480  	0.006607 
1988.609296  	0.006269 
1990.538112  	0.006056 
1992.466928  	0.007473 
1994.395744  	0.006420 
1996.324560  	0.005723 
1998.253376  	0.005203 
2000.182192  	0.005303 
2002.111008  	0.004895 
2004.039824  	0.005153 
2005.968640  	0.005002 
2007.897456  	0.006403 
2009.826272  	0.006626 
2011.755088  	0.006674 
2013.683904  	0.005479 
2015.612720  	0.006656 
2017.541536  	0.007214 
2019.470352  	0.007920 
2021.399168  	0.006372 
2023.327984  	0.006364 
2025.256800  	0.007101 
2027.185616  	0.007853 
2029.114432  	0.007717 
2031.043248  	0.008042 
2032.972064  	0.007528 
2034.900880  	0.009228 
2036.829696  	0.008652 
2038.758512  	0.008873 
2040.687328  	0.007666 
2042.616144  	0.007522 
2044.544960  	0.007737 
2046.473776  	0.008721 
2048.402592  	0.009326 
2050.331408  	0.009463 
2052.260224  	0.008399 
2054.189040  	0.008245 
2056.117856  	0.007858 
2058.046672  	0.008473 
2059.975488  	0.008914 
2061.904304  	0.009381 
2063.833120  	0.009279 
2065.761936  	0.009955 
2067.690752  	0.009678 
2069.619568  	0.009359 
2071.548384  	0.008992 
2073.477200  	0.009715 
2075.406016  	0.009873 
2077.334832  	0.010393 
2079.263648  	0.010673 
2081.192464  	0.010540 
2083.121280  	0.009688 
2085.050096  	0.009661 
2086.978912  	0.009446 
2088.907728  	0.009623 
2090.836544  	0.010050 
2092.765360  	0.009913 
2094.694176  	0.010125 
2096.622992  	0.011268 
2098.551808  	0.011038 
2100.480624  	0.010892 
2102.409440  	0.010877 
2104.338256  	0.011050 
2106.267072  	0.010481 
2108.195888  	0.010569 
2110.124704  	0.010615 
2112.053520  	0.011011 
2113.982336  	0.010856 
2115.911152  	0.010605 
2117.839968  	0.010193 
2119.768784  	0.010186 
2121.697600  	0.010157 
2123.626416  	0.010206 
2125.555232  	0.009824 
2127.484048  	0.009175 
2129.412864  	0.009081 
2131.341680  	0.009960 
2133.270496  	0.010376 
2135.199312  	0.010595 
2137.128128  	0.010304 
2139.056944  	0.010739 
2140.985760  	0.010899 
2142.914576  	0.011035 
2144.843392  	0.010290 
2146.772208  	0.010477 
2148.701024  	0.010088 
2150.629840  	0.010125 
2152.558656  	0.009986 
2154.487472  	0.010864 
2156.416288  	0.011148 
2158.345104  	0.012733 
2160.273920  	0.015396 
2162.202736  	0.016449 
2164.131552  	0.015077 
2166.060368  	0.014809 
2167.989184  	0.014007 
2169.918000  	0.013653 
2171.846816  	0.012927 
2173.775632  	0.013016 
2175.704448  	0.012493 
2177.633264  	0.012748 
2179.562080  	0.011813 
2181.490896  	0.012469 
2183.419712  	0.012314 
2185.348528  	0.011863 
2187.277344  	0.011918 
2189.206160  	0.012034 
2191.134976  	0.011265 
2193.063792  	0.011305 
2194.992608  	0.011594 
2196.921424  	0.011883 
2198.850240  	0.010735 
2200.779056  	0.010302 
2202.707872  	0.010463 
2204.636688  	0.011280 
2206.565504  	0.011079 
2208.494320  	0.010454 
2210.423136  	0.010409 
2212.351952  	0.010980 
2214.280768  	0.010487 
2216.209584  	0.010448 
2218.138400  	0.009774 
2220.067216  	0.009751 
2221.996032  	0.009676 
2223.924848  	0.010184 
2225.853664  	0.010661 
2227.782480  	0.011032 
2229.711296  	0.010023 
2231.640112  	0.009684 
2233.568928  	0.009491 
2235.497744  	0.009624 
2237.426560  	0.009631 
2239.355376  	0.010055 
2241.284192  	0.009604 
2243.213008  	0.009156 
2245.141824  	0.009408 
2247.070640  	0.009783 
2248.999456  	0.009496 
2250.928272  	0.009682 
2252.857088  	0.009979 
2254.785904  	0.010313 
2256.714720  	0.010590 
2258.643536  	0.010678 
2260.572352  	0.010712 
2262.501168  	0.010538 
2264.429984  	0.010387 
2266.358800  	0.010652 
2268.287616  	0.010560 
2270.216432  	0.010934 
2272.145248  	0.011125 
2274.074064  	0.011202 
2276.002880  	0.010970 
2277.931696  	0.011271 
2279.860512  	0.011310 
2281.789328  	0.011360 
2283.718144  	0.011311 
2285.646960  	0.011937 
2287.575776  	0.012188 
2289.504592  	0.012201 
2291.433408  	0.012178 
2293.362224  	0.012458 
2295.291040  	0.012414 
2297.219856  	0.012448 
2299.148672  	0.012778 
2301.077488  	0.013244 
2303.006304  	0.013596 
2304.935120  	0.014199 
2306.863936  	0.014413 
2308.792752  	0.014815 
2310.721568  	0.015216 
2312.650384  	0.015445 
2314.579200  	0.015340 
2316.508016  	0.015875 
2318.436832  	0.016925 
2320.365648  	0.017955 
2322.294464  	0.018749 
2324.223280  	0.019148 
2326.152096  	0.018198 
2328.080912  	0.017588 
2330.009728  	0.017888 
2331.938544  	0.018178 
2333.867360  	0.018155 
2335.796176  	0.018406 
2337.724992  	0.018198 
2339.653808  	0.018267 
2341.582624  	0.018920 
2343.511440  	0.019354 
2345.440256  	0.019501 
2347.369072  	0.018071 
2349.297888  	0.016154 
2351.226704  	0.016124 
2353.155520  	0.017070 
2355.084336  	0.018797 
2357.013152  	0.020422 
2358.941968  	0.021173 
2360.870784  	0.021189 
2362.799600  	0.021285 
2364.728416  	0.021372 
2366.657232  	0.020819 
2368.586048  	0.019791 
2370.514864  	0.019211 
2372.443680  	0.018138 
2374.372496  	0.017398 
2376.301312  	0.016559 
2378.230128  	0.015371 
2380.158944  	0.014071 
2382.087760  	0.013074 
2384.016576  	0.012066 
2385.945392  	0.011279 
2387.874208  	0.010975 
2389.803024  	0.010760 
2391.731840  	0.010562 
2393.660656  	0.010458 
2395.589472  	0.010430 
2397.518288  	0.010574 
2399.447104  	0.010575 
2401.375920  	0.010569 
2403.304736  	0.010461 
2405.233552  	0.010629 
2407.162368  	0.010712 
2409.091184  	0.010683 
2411.020000  	0.010572 
2412.948816  	0.010568 
2414.877632  	0.010667 
2416.806448  	0.010997 
2418.735264  	0.011094 
2420.664080  	0.010975 
2422.592896  	0.010887 
2424.521712  	0.010976 
2426.450528  	0.011180 
2428.379344  	0.011417 
2430.308160  	0.011524 
2432.236976  	0.011539 
2434.165792  	0.011602 
2436.094608  	0.012101 
2438.023424  	0.012213 
2439.952240  	0.012151 
2441.881056  	0.012187 
2443.809872  	0.012248 
2445.738688  	0.012333 
2447.667504  	0.012640 
2449.596320  	0.012869 
2451.525136  	0.012780 
2453.453952  	0.012867 
2455.382768  	0.012954 
2457.311584  	0.012861 
2459.240400  	0.012862 
2461.169216  	0.012945 
2463.098032  	0.013167 
2465.026848  	0.013278 
2466.955664  	0.013179 
2468.884480  	0.012930 
2470.813296  	0.012985 
2472.742112  	0.013207 
2474.670928  	0.013527 
2476.599744  	0.014046 
2478.528560  	0.014312 
2480.457376  	0.014421 
2482.386192  	0.014455 
2484.315008  	0.014409 
2486.243824  	0.014667 
2488.172640  	0.015040 
2490.101456  	0.015159 
2492.030272  	0.014974 
2493.959088  	0.015047 
2495.887904  	0.014963 
2497.816720  	0.015180 
2499.745536  	0.015417 
2501.674352  	0.015565 
2503.603168  	0.015686 
2505.531984  	0.015861 
2507.460800  	0.015798 
2509.389616  	0.015584 
2511.318432  	0.015570 
2513.247248  	0.015847 
2515.176064  	0.016002 
2517.104880  	0.015962 
2519.033696  	0.016055 
2520.962512  	0.016434 
2522.891328  	0.016444 
2524.820144  	0.016635 
2526.748960  	0.016922 
2528.677776  	0.017274 
2530.606592  	0.017343 
2532.535408  	0.017367 
2534.464224  	0.017394 
2536.393040  	0.017307 
2538.321856  	0.017403 
2540.250672  	0.017676 
2542.179488  	0.017891 
2544.108304  	0.018162 
2546.037120  	0.018440 
2547.965936  	0.018734 
2549.894752  	0.018748 
2551.823568  	0.018848 
2553.752384  	0.018806 
2555.681200  	0.018955 
2557.610016  	0.019165 
2559.538832  	0.019312 
2561.467648  	0.019561 
2563.396464  	0.019839 
2565.325280  	0.019874 
2567.254096  	0.019956 
2569.182912  	0.020022 
2571.111728  	0.020128 
2573.040544  	0.020204 
2574.969360  	0.020605 
2576.898176  	0.020896 
2578.826992  	0.020948 
2580.755808  	0.021050 
2582.684624  	0.021383 
2584.613440  	0.021535 
2586.542256  	0.021733 
2588.471072  	0.021651 
2590.399888  	0.021701 
2592.328704  	0.021886 
2594.257520  	0.022269 
2596.186336  	0.022326 
2598.115152  	0.022385 
2600.043968  	0.022682 
2601.972784  	0.022834 
2603.901600  	0.022882 
2605.830416  	0.022889 
2607.759232  	0.023077 
2609.688048  	0.023327 
2611.616864  	0.023638 
2613.545680  	0.023804 
2615.474496  	0.023853 
2617.403312  	0.024146 
2619.332128  	0.024290 
2621.260944  	0.024399 
2623.189760  	0.024470 
2625.118576  	0.024807 
2627.047392  	0.025064 
2628.976208  	0.025408 
2630.905024  	0.025670 
2632.833840  	0.025828 
2634.762656  	0.025995 
2636.691472  	0.026211 
2638.620288  	0.026382 
2640.549104  	0.026624 
2642.477920  	0.027030 
2644.406736  	0.027305 
2646.335552  	0.027472 
2648.264368  	0.027694 
2650.193184  	0.028013 
2652.122000  	0.028327 
2654.050816  	0.028521 
2655.979632  	0.028716 
2657.908448  	0.028943 
2659.837264  	0.029168 
2661.766080  	0.029325 
2663.694896  	0.029518 
2665.623712  	0.029775 
2667.552528  	0.030096 
2669.481344  	0.030264 
2671.410160  	0.030356 
2673.338976  	0.030573 
2675.267792  	0.030791 
2677.196608  	0.031046 
2679.125424  	0.031294 
2681.054240  	0.031502 
2682.983056  	0.031689 
2684.911872  	0.031874 
2686.840688  	0.032079 
2688.769504  	0.032321 
2690.698320  	0.032580 
2692.627136  	0.032758 
2694.555952  	0.032921 
2696.484768  	0.033163 
2698.413584  	0.033353 
2700.342400  	0.033490 
2702.271216  	0.033831 
2704.200032  	0.034130 
2706.128848  	0.034303 
2708.057664  	0.034488 
2709.986480  	0.034604 
2711.915296  	0.034844 
2713.844112  	0.035177 
2715.772928  	0.035408 
2717.701744  	0.035539 
2719.630560  	0.035739 
2721.559376  	0.036055 
2723.488192  	0.036213 
2725.417008  	0.036448 
2727.345824  	0.036776 
2729.274640  	0.037068 
2731.203456  	0.037204 
2733.132272  	0.037336 
2735.061088  	0.037671 
2736.989904  	0.037809 
2738.918720  	0.037918 
2740.847536  	0.038150 
2742.776352  	0.038447 
2744.705168  	0.038717 
2746.633984  	0.038859 
2748.562800  	0.039022 
2750.491616  	0.039073 
2752.420432  	0.039204 
2754.349248  	0.039248 
2756.278064  	0.039322 
2758.206880  	0.039462 
2760.135696  	0.039516 
2762.064512  	0.039515 
2763.993328  	0.039620 
2765.922144  	0.039627 
2767.850960  	0.039621 
2769.779776  	0.039587 
2771.708592  	0.039645 
2773.637408  	0.039636 
2775.566224  	0.039706 
2777.495040  	0.039683 
2779.423856  	0.039618 
2781.352672  	0.039700 
2783.281488  	0.039741 
2785.210304  	0.039748 
2787.139120  	0.039840 
2789.067936  	0.039644 
2790.996752  	0.039470 
2792.925568  	0.039511 
2794.854384  	0.039597 
2796.783200  	0.039713 
2798.712016  	0.039736 
2800.640832  	0.039715 
2802.569648  	0.039843 
2804.498464  	0.040043 
2806.427280  	0.040199 
2808.356096  	0.040224 
2810.284912  	0.040262 
2812.213728  	0.040275 
2814.142544  	0.040342 
2816.071360  	0.040347 
2818.000176  	0.040431 
2819.928992  	0.040556 
2821.857808  	0.040638 
2823.786624  	0.040684 
2825.715440  	0.040941 
2827.644256  	0.040976 
2829.573072  	0.040838 
2831.501888  	0.040906 
2833.430704  	0.041011 
2835.359520  	0.040866 
2837.288336  	0.040751 
2839.217152  	0.040852 
2841.145968  	0.040892 
2843.074784  	0.040882 
2845.003600  	0.041072 
2846.932416  	0.041186 
2848.861232  	0.041314 
2850.790048  	0.041327 
2852.718864  	0.041414 
2854.647680  	0.041599 
2856.576496  	0.041891 
2858.505312  	0.042126 
2860.434128  	0.042337 
2862.362944  	0.042554 
2864.291760  	0.042875 
2866.220576  	0.043086 
2868.149392  	0.043271 
2870.078208  	0.043583 
2872.007024  	0.044144 
2873.935840  	0.044809 
2875.864656  	0.045366 
2877.793472  	0.045927 
2879.722288  	0.046625 
2881.651104  	0.047206 
2883.579920  	0.047752 
2885.508736  	0.048295 
2887.437552  	0.048657 
2889.366368  	0.048746 
2891.295184  	0.048839 
2893.224000  	0.048917 
2895.152816  	0.049019 
2897.081632  	0.049082 
2899.010448  	0.048710 
2900.939264  	0.048435 
2902.868080  	0.048671 
2904.796896  	0.049115 
2906.725712  	0.049523 
2908.654528  	0.049829 
2910.583344  	0.050209 
2912.512160  	0.050691 
2914.440976  	0.051357 
2916.369792  	0.052203 
2918.298608  	0.052903 
2920.227424  	0.053611 
2922.156240  	0.054370 
2924.085056  	0.055164 
2926.013872  	0.055971 
2927.942688  	0.056892 
2929.871504  	0.057853 
2931.800320  	0.058850 
2933.729136  	0.059902 
2935.657952  	0.060918 
2937.586768  	0.061703 
2939.515584  	0.062316 
2941.444400  	0.062927 
2943.373216  	0.063506 
2945.302032  	0.063998 
2947.230848  	0.064260 
2949.159664  	0.064255 
2951.088480  	0.064195 
2953.017296  	0.064164 
2954.946112  	0.063903 
2956.874928  	0.063680 
2958.803744  	0.063435 
2960.732560  	0.063219 
2962.661376  	0.062978 
2964.590192  	0.062584 
2966.519008  	0.062113 
2968.447824  	0.061756 
2970.376640  	0.061536 
2972.305456  	0.061241 
2974.234272  	0.061250 
2976.163088  	0.061242 
2978.091904  	0.061029 
2980.020720  	0.060954 
2981.949536  	0.060867 
2983.878352  	0.060912 
2985.807168  	0.060828 
2987.735984  	0.060838 
2989.664800  	0.061170 
2991.593616  	0.061727 
2993.522432  	0.062164 
2995.451248  	0.062633 
2997.380064  	0.063217 
2999.308880  	0.063866 
3001.237696  	0.064568 
3003.166512  	0.065181 
3005.095328  	0.065809 
3007.024144  	0.066515 
3008.952960  	0.067305 
3010.881776  	0.068151 
3012.810592  	0.069049 
3014.739408  	0.069824 
3016.668224  	0.070458 
3018.597040  	0.071167 
3020.525856  	0.072008 
3022.454672  	0.072774 
3024.383488  	0.073446 
3026.312304  	0.074395 
3028.241120  	0.075240 
3030.169936  	0.075970 
3032.098752  	0.076965 
3034.027568  	0.077806 
3035.956384  	0.078593 
3037.885200  	0.079447 
3039.814016  	0.080371 
3041.742832  	0.081278 
3043.671648  	0.082155 
3045.600464  	0.083041 
3047.529280  	0.083848 
3049.458096  	0.084707 
3051.386912  	0.085523 
3053.315728  	0.086542 
3055.244544  	0.087555 
3057.173360  	0.088673 
3059.102176  	0.089873 
3061.030992  	0.091057 
3062.959808  	0.092067 
3064.888624  	0.093118 
3066.817440  	0.094417 
3068.746256  	0.095792 
3070.675072  	0.096951 
3072.603888  	0.098111 
3074.532704  	0.099399 
3076.461520  	0.100423 
3078.390336  	0.101420 
3080.319152  	0.102667 
3082.247968  	0.103826 
3084.176784  	0.105009 
3086.105600  	0.106297 
3088.034416  	0.107503 
3089.963232  	0.108359 
3091.892048  	0.109401 
3093.820864  	0.110512 
3095.749680  	0.111903 
3097.678496  	0.113202 
3099.607312  	0.114365 
3101.536128  	0.115822 
3103.464944  	0.116936 
3105.393760  	0.117811 
3107.322576  	0.119070 
3109.251392  	0.120177 
3111.180208  	0.120985 
3113.109024  	0.121732 
3115.037840  	0.122591 
3116.966656  	0.123635 
3118.895472  	0.124541 
3120.824288  	0.125377 
3122.753104  	0.126535 
3124.681920  	0.127499 
3126.610736  	0.128308 
3128.539552  	0.129076 
3130.468368  	0.129635 
3132.397184  	0.130371 
3134.326000  	0.131143 
3136.254816  	0.131902 
3138.183632  	0.132624 
3140.112448  	0.133312 
3142.041264  	0.134424 
3143.970080  	0.135618 
3145.898896  	0.136327 
3147.827712  	0.136794 
3149.756528  	0.137544 
3151.685344  	0.138411 
3153.614160  	0.139228 
3155.542976  	0.139943 
3157.471792  	0.140786 
3159.400608  	0.141698 
3161.329424  	0.142409 
3163.258240  	0.143099 
3165.187056  	0.143888 
3167.115872  	0.144462 
3169.044688  	0.145080 
3170.973504  	0.145721 
3172.902320  	0.146016 
3174.831136  	0.146359 
3176.759952  	0.146940 
3178.688768  	0.147606 
3180.617584  	0.147984 
3182.546400  	0.148172 
3184.475216  	0.148450 
3186.404032  	0.148763 
3188.332848  	0.148936 
3190.261664  	0.148845 
3192.190480  	0.148765 
3194.119296  	0.148812 
3196.048112  	0.148570 
3197.976928  	0.148566 
3199.905744  	0.148542 
3201.834560  	0.148463 
3203.763376  	0.148312 
3205.692192  	0.147786 
3207.621008  	0.147647 
3209.549824  	0.147727 
3211.478640  	0.147596 
3213.407456  	0.147238 
3215.336272  	0.147073 
3217.265088  	0.146953 
3219.193904  	0.147008 
3221.122720  	0.146942 
3223.051536  	0.146454 
3224.980352  	0.146036 
3226.909168  	0.145823 
3228.837984  	0.145627 
3230.766800  	0.145300 
3232.695616  	0.145343 
3234.624432  	0.145536 
3236.553248  	0.145597 
3238.482064  	0.145643 
3240.410880  	0.145378 
3242.339696  	0.145251 
3244.268512  	0.145421 
3246.197328  	0.145643 
3248.126144  	0.145606 
3250.054960  	0.145805 
3251.983776  	0.146047 
3253.912592  	0.146424 
3255.841408  	0.146731 
3257.770224  	0.146783 
3259.699040  	0.147034 
3261.627856  	0.147303 
3263.556672  	0.147390 
3265.485488  	0.147639 
3267.414304  	0.147851 
3269.343120  	0.148029 
3271.271936  	0.148004 
3273.200752  	0.148093 
3275.129568  	0.148282 
3277.058384  	0.148618 
3278.987200  	0.148765 
3280.916016  	0.148753 
3282.844832  	0.148971 
3284.773648  	0.149166 
3286.702464  	0.149218 
3288.631280  	0.149528 
3290.560096  	0.149651 
3292.488912  	0.149626 
3294.417728  	0.149817 
3296.346544  	0.150249 
3298.275360  	0.150604 
3300.204176  	0.150665 
3302.132992  	0.150791 
3304.061808  	0.151376 
3305.990624  	0.151728 
3307.919440  	0.152080 
3309.848256  	0.152370 
3311.777072  	0.152610 
3313.705888  	0.152756 
3315.634704  	0.152989 
3317.563520  	0.153297 
3319.492336  	0.153552 
3321.421152  	0.153819 
3323.349968  	0.153821 
3325.278784  	0.153767 
3327.207600  	0.153947 
3329.136416  	0.153802 
3331.065232  	0.153490 
3332.994048  	0.153397 
3334.922864  	0.153769 
3336.851680  	0.153962 
3338.780496  	0.153682 
3340.709312  	0.153185 
3342.638128  	0.152998 
3344.566944  	0.152626 
3346.495760  	0.152171 
3348.424576  	0.151690 
3350.353392  	0.151314 
3352.282208  	0.150688 
3354.211024  	0.150239 
3356.139840  	0.149888 
3358.068656  	0.149389 
3359.997472  	0.148976 
3361.926288  	0.148622 
3363.855104  	0.147903 
3365.783920  	0.147438 
3367.712736  	0.147146 
3369.641552  	0.146584 
3371.570368  	0.145854 
3373.499184  	0.145639 
3375.428000  	0.145344 
3377.356816  	0.144747 
3379.285632  	0.144332 
3381.214448  	0.143895 
3383.143264  	0.143366 
3385.072080  	0.142860 
3387.000896  	0.142120 
3388.929712  	0.141290 
3390.858528  	0.140365 
3392.787344  	0.140278 
3394.716160  	0.139893 
3396.644976  	0.139337 
3398.573792  	0.138651 
3400.502608  	0.137711 
3402.431424  	0.136823 
3404.360240  	0.136118 
3406.289056  	0.135577 
3408.217872  	0.134958 
3410.146688  	0.134132 
3412.075504  	0.133251 
3414.004320  	0.132740 
3415.933136  	0.132133 
3417.861952  	0.130940 
3419.790768  	0.130406 
3421.719584  	0.130004 
3423.648400  	0.129054 
3425.577216  	0.127834 
3427.506032  	0.126992 
3429.434848  	0.126240 
3431.363664  	0.125736 
3433.292480  	0.124763 
3435.221296  	0.123543 
3437.150112  	0.122460 
3439.078928  	0.121689 
3441.007744  	0.120815 
3442.936560  	0.120080 
3444.865376  	0.118866 
3446.794192  	0.118520 
3448.723008  	0.118111 
3450.651824  	0.116547 
3452.580640  	0.115223 
3454.509456  	0.114216 
3456.438272  	0.113177 
3458.367088  	0.112206 
3460.295904  	0.111266 
3462.224720  	0.110517 
3464.153536  	0.109346 
3466.082352  	0.108051 
3468.011168  	0.106847 
3469.939984  	0.105596 
3471.868800  	0.104387 
3473.797616  	0.103145 
3475.726432  	0.102230 
3477.655248  	0.100894 
3479.584064  	0.099442 
3481.512880  	0.099026 
3483.441696  	0.098334 
3485.370512  	0.096519 
3487.299328  	0.095223 
3489.228144  	0.094205 
3491.156960  	0.092650 
3493.085776  	0.091342 
3495.014592  	0.090478 
3496.943408  	0.089735 
3498.872224  	0.088299 
3500.801040  	0.087095 
3502.729856  	0.086618 
3504.658672  	0.085913 
3506.587488  	0.084000 
3508.516304  	0.082921 
3510.445120  	0.082607 
3512.373936  	0.081389 
3514.302752  	0.080180 
3516.231568  	0.079240 
3518.160384  	0.078160 
3520.089200  	0.076771 
3522.018016  	0.075613 
3523.946832  	0.075372 
3525.875648  	0.074301 
3527.804464  	0.073371 
3529.733280  	0.072580 
3531.662096  	0.071397 
3533.590912  	0.069871 
3535.519728  	0.069077 
3537.448544  	0.068402 
3539.377360  	0.067017 
3541.306176  	0.065566 
3543.234992  	0.064678 
3545.163808  	0.064538 
3547.092624  	0.064217 
3549.021440  	0.062319 
3550.950256  	0.060875 
3552.879072  	0.060929 
3554.807888  	0.059510 
3556.736704  	0.057833 
3558.665520  	0.056927 
3560.594336  	0.056078 
3562.523152  	0.054719 
3564.451968  	0.053303 
3566.380784  	0.054230 
3568.309600  	0.055656 
3570.238416  	0.052915 
3572.167232  	0.050347 
3574.096048  	0.049185 
3576.024864  	0.048306 
3577.953680  	0.047278 
3579.882496  	0.046236 
3581.811312  	0.044890 
3583.740128  	0.043245 
3585.668944  	0.042203 
3587.597760  	0.043895 
3589.526576  	0.043175 
3591.455392  	0.039954 
3593.384208  	0.038946 
3595.313024  	0.038865 
3597.241840  	0.037483 
3599.170656  	0.035853 
3601.099472  	0.035467 
3603.028288  	0.034069 
3604.957104  	0.031799 
3606.885920  	0.030910 
3608.814736  	0.031187 
3610.743552  	0.028982 
3612.672368  	0.028095 
3614.601184  	0.027728 
3616.530000  	0.025394 
3618.458816  	0.025495 
3620.387632  	0.026187 
3622.316448  	0.023572 
3624.245264  	0.020952 
3626.174080  	0.018709 
3628.102896  	0.019660 
3630.031712  	0.022694 
3631.960528  	0.018580 
3633.889344  	0.016900 
3635.818160  	0.015668 
3637.746976  	0.014078 
3639.675792  	0.012807 
3641.604608  	0.011613 
3643.533424  	0.010134 
3645.462240  	0.007772 
3647.391056  	0.008067 
3649.319872  	0.010635 
3651.248688  	0.011612 
3653.177504  	0.006795 
3655.106320  	0.004901 
3657.035136  	0.006305 
3658.963952  	0.004642 
3660.892768  	0.003056 
3662.821584  	0.002124 
3664.750400  	0.001038 
3666.679216  	-0.000636 
3668.608032  	-0.001096 
3670.536848  	0.001745 
3672.465664  	-0.000920 
3674.394480  	-0.002224 
3676.323296  	0.002294 
3678.252112  	0.000490 
3680.180928  	-0.000541 
3682.109744  	-0.001911 
3684.038560  	-0.002920 
3685.967376  	-0.004436 
3687.896192  	-0.003528 
3689.825008  	-0.000217 
3691.753824  	-0.000155 
3693.682640  	-0.002141 
3695.611456  	-0.003177 
3697.540272  	-0.003393 
3699.469088  	-0.004423 
3701.397904  	-0.003277 
3703.326720  	-0.002240 
3705.255536  	-0.003413 
3707.184352  	-0.004473 
3709.113168  	-0.004359 
3711.041984  	-0.001908 
3712.970800  	-0.000459 
3714.899616  	-0.002925 
3716.828432  	-0.004325 
3718.757248  	-0.004072 
3720.686064  	-0.003994 
3722.614880  	-0.003492 
3724.543696  	-0.003552 
3726.472512  	-0.002527 
3728.401328  	-0.003581 
3730.330144  	-0.005911 
3732.258960  	-0.005843 
3734.187776  	-0.004360 
3736.116592  	-0.000685 
3738.045408  	-0.001627 
3739.974224  	-0.003831 
3741.903040  	-0.006264 
3743.831856  	-0.005211 
3745.760672  	-0.002404 
3747.689488  	-0.005855 
3749.618304  	-0.004314 
3751.547120  	-0.000481 
3753.475936  	-0.001490 
3755.404752  	-0.004452 
3757.333568  	-0.005116 
3759.262384  	-0.003851 
3761.191200  	-0.003225 
3763.120016  	-0.005189 
3765.048832  	-0.004693 
3766.977648  	-0.004393 
3768.906464  	-0.004183 
3770.835280  	-0.002780 
3772.764096  	-0.003971 
3774.692912  	-0.005056 
3776.621728  	-0.005702 
3778.550544  	-0.004821 
3780.479360  	-0.003391 
3782.408176  	-0.004801 
3784.336992  	-0.004591 
3786.265808  	-0.004176 
3788.194624  	-0.004725 
3790.123440  	-0.004796 
3792.052256  	-0.005170 
3793.981072  	-0.006409 
3795.909888  	-0.005370 
3797.838704  	-0.004669 
3799.767520  	-0.006078 
3801.696336  	-0.002303 
3803.625152  	-0.003137 
3805.553968  	-0.005524 
3807.482784  	-0.003034 
3809.411600  	-0.003735 
3811.340416  	-0.005252 
3813.269232  	-0.006900 
3815.198048  	-0.005891 
3817.126864  	-0.003727 
3819.055680  	-0.006143 
3820.984496  	-0.003050 
3822.913312  	-0.002070 
3824.842128  	-0.005014 
3826.770944  	-0.004596 
3828.699760  	-0.005062 
3830.628576  	-0.005542 
3832.557392  	-0.005057 
3834.486208  	-0.006025 
3836.415024  	-0.006008 
3838.343840  	-0.003748 
3840.272656  	-0.002524 
3842.201472  	-0.003450 
3844.130288  	-0.003218 
3846.059104  	-0.004230 
3847.987920  	-0.005881 
3849.916736  	-0.007282 
3851.845552  	-0.007315 
3853.774368  	-0.000285 
3855.703184  	-0.000393 
3857.632000  	-0.003105 
3859.560816  	-0.005014 
3861.489632  	-0.005389 
3863.418448  	-0.004507 
3865.347264  	-0.002804 
3867.276080  	-0.005293 
3869.204896  	-0.004732 
3871.133712  	-0.002267 
3873.062528  	-0.004113 
3874.991344  	-0.003325 
3876.920160  	-0.005485 
3878.848976  	-0.006305 
3880.777792  	-0.003723 
3882.706608  	-0.004474 
3884.635424  	-0.004913 
3886.564240  	-0.002870 
3888.493056  	-0.005510 
3890.421872  	-0.005492 
3892.350688  	-0.003333 
3894.279504  	-0.004462 
3896.208320  	-0.006224 
3898.137136  	-0.006138 
3900.065952  	-0.004499 
3901.994768  	-0.004115 
3903.923584  	-0.003044 
3905.852400  	-0.002494 
3907.781216  	-0.003980 
3909.710032  	-0.005062 
3911.638848  	-0.005422 
3913.567664  	-0.005791 
3915.496480  	-0.005603 
3917.425296  	-0.004140 
3919.354112  	-0.003862 
3921.282928  	-0.004342 
3923.211744  	-0.004688 
3925.140560  	-0.003991 
3927.069376  	-0.004712 
3928.998192  	-0.005174 
3930.927008  	-0.004566 
3932.855824  	-0.003710 
3934.784640  	-0.004163 
3936.713456  	-0.004810 
3938.642272  	-0.005148 
3940.571088  	-0.005413 
3942.499904  	-0.004141 
3944.428720  	-0.004124 
3946.357536  	-0.005210 
3948.286352  	-0.004592 
3950.215168  	-0.004310 
3952.143984  	-0.004647 
3954.072800  	-0.004969 
3956.001616  	-0.004965 
3957.930432  	-0.004667 
3959.859248  	-0.004553 
3961.788064  	-0.004355 
3963.716880  	-0.004404 
3965.645696  	-0.004820 
3967.574512  	-0.005186 
3969.503328  	-0.005251 
3971.432144  	-0.005000 
3973.360960  	-0.004605 
3975.289776  	-0.004242 
3977.218592  	-0.004426 
3979.147408  	-0.004851 
3981.076224  	-0.004996 
3983.005040  	-0.004885 
3984.933856  	-0.004666 
3986.862672  	-0.004593 
3988.791488  	-0.004859 
3990.720304  	-0.004701 
3992.649120  	-0.004716 
3994.577936  	-0.004704 
3996.506752  	-0.004653 
3998.435568  	-0.004714 
4000.364384  	-0.004759 