##TITLE=No Description
##DATA TYPE=INFRARED SPECTRUM
##XUNITS=1/CM
##YUNITS=Abs
399.264912  	0.415449 
401.193728  	0.421759 
403.122544  	0.421055 
405.051360  	0.419134 
406.980176  	0.417420 
408.908992  	0.420925 
410.837808  	0.427284 
412.766624  	0.420037 
414.695440  	0.420805 
416.624256  	0.421414 
418.553072  	0.421774 
420.481888  	0.408534 
422.410704  	0.409056 
424.339520  	0.410251 
426.268336  	0.404503 
428.197152  	0.399505 
430.125968  	0.397226 
432.054784  	0.389637 
433.983600  	0.393043 
435.912416  	0.394684 
437.841232  	0.391718 
439.770048  	0.389239 
441.698864  	0.394043 
443.627680  	0.387533 
445.556496  	0.383990 
447.485312  	0.381978 
449.414128  	0.385689 
451.342944  	0.388518 
453.271760  	0.386633 
455.200576  	0.382991 
457.129392  	0.386483 
459.058208  	0.388894 
460.987024  	0.385647 
462.915840  	0.381050 
464.844656  	0.383930 
466.773472  	0.383300 
468.702288  	0.385225 
470.631104  	0.388480 
472.559920  	0.390689 
474.488736  	0.386099 
476.417552  	0.388070 
478.346368  	0.384144 
480.275184  	0.378670 
482.204000  	0.376971 
484.132816  	0.382279 
486.061632  	0.383981 
487.990448  	0.381436 
489.919264  	0.379072 
491.848080  	0.378504 
493.776896  	0.375630 
495.705712  	0.375743 
497.634528  	0.373743 
499.563344  	0.371792 
501.492160  	0.368042 
503.420976  	0.367974 
505.349792  	0.367207 
507.278608  	0.369032 
509.207424  	0.368612 
511.136240  	0.368765 
513.065056  	0.369939 
514.993872  	0.373550 
516.922688  	0.375410 
518.851504  	0.376950 
520.780320  	0.376304 
522.709136  	0.374578 
524.637952  	0.371525 
526.566768  	0.370575 
528.495584  	0.367649 
530.424400  	0.366710 
532.353216  	0.363490 
534.282032  	0.357881 
536.210848  	0.352525 
538.139664  	0.347631 
540.068480  	0.343016 
541.997296  	0.340629 
543.926112  	0.338506 
545.854928  	0.336132 
547.783744  	0.334212 
549.712560  	0.334257 
551.641376  	0.330638 
553.570192  	0.328127 
555.499008  	0.326185 
557.427824  	0.324320 
559.356640  	0.321079 
561.285456  	0.318544 
563.214272  	0.315949 
565.143088  	0.312718 
567.071904  	0.309760 
569.000720  	0.307489 
570.929536  	0.304365 
572.858352  	0.301715 
574.787168  	0.300021 
576.715984  	0.298364 
578.644800  	0.295366 
580.573616  	0.292198 
582.502432  	0.287789 
584.431248  	0.283432 
586.360064  	0.279897 
588.288880  	0.278067 
590.217696  	0.276104 
592.146512  	0.274859 
594.075328  	0.272784 
596.004144  	0.271358 
597.932960  	0.269985 
599.861776  	0.269360 
601.790592  	0.268495 
603.719408  	0.267921 
605.648224  	0.267268 
607.577040  	0.266168 
609.505856  	0.264999 
611.434672  	0.264656 
613.363488  	0.263143 
615.292304  	0.262118 
617.221120  	0.261333 
619.149936  	0.260556 
621.078752  	0.259676 
623.007568  	0.259350 
624.936384  	0.258559 
626.865200  	0.257704 
628.794016  	0.257025 
630.722832  	0.256906 
632.651648  	0.256884 
634.580464  	0.257430 
636.509280  	0.258049 
638.438096  	0.257990 
640.366912  	0.257204 
642.295728  	0.256227 
644.224544  	0.254613 
646.153360  	0.252593 
648.082176  	0.249259 
650.010992  	0.246554 
651.939808  	0.244210 
653.868624  	0.241592 
655.797440  	0.238234 
657.726256  	0.235277 
659.655072  	0.232099 
661.583888  	0.228653 
663.512704  	0.225137 
665.441520  	0.221606 
667.370336  	0.218551 
669.299152  	0.216334 
671.227968  	0.212140 
673.156784  	0.208731 
675.085600  	0.206953 
677.014416  	0.205397 
678.943232  	0.203731 
680.872048  	0.202860 
682.800864  	0.201638 
684.729680  	0.200380 
686.658496  	0.199292 
688.587312  	0.198832 
690.516128  	0.197989 
692.444944  	0.197373 
694.373760  	0.196393 
696.302576  	0.195198 
698.231392  	0.193560 
700.160208  	0.191832 
702.089024  	0.190231 
704.017840  	0.188605 
705.946656  	0.186724 
707.875472  	0.184859 
709.804288  	0.183325 
711.733104  	0.182037 
713.661920  	0.180926 
715.590736  	0.179721 
717.519552  	0.179384 
719.448368  	0.180609 
721.377184  	0.181827 
723.306000  	0.182670 
725.234816  	0.183303 
727.163632  	0.182529 
729.092448  	0.180305 
731.021264  	0.177718 
732.950080  	0.174817 
734.878896  	0.172091 
736.807712  	0.169581 
738.736528  	0.167564 
740.665344  	0.166408 
742.594160  	0.165664 
744.522976  	0.164441 
746.451792  	0.163121 
748.380608  	0.162010 
750.309424  	0.161192 
752.238240  	0.160607 
754.167056  	0.160371 
756.095872  	0.159912 
758.024688  	0.159286 
759.953504  	0.159213 
761.882320  	0.160399 
763.811136  	0.161484 
765.739952  	0.160149 
767.668768  	0.157128 
769.597584  	0.154850 
771.526400  	0.154619 
773.455216  	0.157055 
775.384032  	0.161194 
777.312848  	0.166250 
779.241664  	0.169820 
781.170480  	0.169031 
783.099296  	0.164586 
785.028112  	0.159762 
786.956928  	0.155077 
788.885744  	0.151442 
790.814560  	0.148830 
792.743376  	0.147558 
794.672192  	0.147177 
796.601008  	0.146265 
798.529824  	0.143502 
800.458640  	0.140060 
802.387456  	0.137499 
804.316272  	0.136195 
806.245088  	0.135676 
808.173904  	0.135314 
810.102720  	0.135254 
812.031536  	0.135558 
813.960352  	0.135992 
815.889168  	0.136941 
817.817984  	0.138204 
819.746800  	0.139609 
821.675616  	0.140594 
823.604432  	0.141358 
825.533248  	0.142107 
827.462064  	0.142815 
829.390880  	0.142890 
831.319696  	0.142558 
833.248512  	0.141694 
835.177328  	0.140596 
837.106144  	0.138488 
839.034960  	0.135783 
840.963776  	0.132358 
842.892592  	0.128556 
844.821408  	0.125241 
846.750224  	0.122383 
848.679040  	0.119931 
850.607856  	0.118188 
852.536672  	0.117184 
854.465488  	0.116426 
856.394304  	0.115686 
858.323120  	0.114801 
860.251936  	0.113693 
862.180752  	0.112509 
864.109568  	0.110822 
866.038384  	0.109035 
867.967200  	0.107407 
869.896016  	0.106180 
871.824832  	0.105553 
873.753648  	0.105956 
875.682464  	0.106779 
877.611280  	0.108441 
879.540096  	0.110511 
881.468912  	0.112863 
883.397728  	0.115320 
885.326544  	0.117445 
887.255360  	0.118787 
889.184176  	0.119061 
891.112992  	0.118499 
893.041808  	0.117289 
894.970624  	0.115277 
896.899440  	0.111885 
898.828256  	0.107808 
900.757072  	0.104026 
902.685888  	0.100900 
904.614704  	0.099109 
906.543520  	0.099113 
908.472336  	0.100954 
910.401152  	0.103602 
912.329968  	0.106584 
914.258784  	0.109407 
916.187600  	0.112104 
918.116416  	0.114218 
920.045232  	0.115815 
921.974048  	0.116970 
923.902864  	0.118008 
925.831680  	0.118973 
927.760496  	0.120022 
929.689312  	0.121151 
931.618128  	0.122714 
933.546944  	0.123967 
935.475760  	0.124396 
937.404576  	0.124320 
939.333392  	0.124009 
941.262208  	0.123954 
943.191024  	0.125154 
945.119840  	0.128359 
947.048656  	0.133951 
948.977472  	0.141981 
950.906288  	0.151968 
952.835104  	0.163674 
954.763920  	0.176477 
956.692736  	0.188527 
958.621552  	0.198841 
960.550368  	0.205757 
962.479184  	0.208789 
964.408000  	0.207518 
966.336816  	0.202543 
968.265632  	0.193776 
970.194448  	0.182748 
972.123264  	0.170260 
974.052080  	0.157185 
975.980896  	0.144253 
977.909712  	0.132310 
979.838528  	0.122249 
981.767344  	0.113977 
983.696160  	0.107774 
985.624976  	0.104152 
987.553792  	0.103709 
989.482608  	0.105917 
991.411424  	0.110352 
993.340240  	0.116870 
995.269056  	0.124224 
997.197872  	0.131806 
999.126688  	0.139121 
1001.055504  	0.146925 
1002.984320  	0.154045 
1004.913136  	0.160937 
1006.841952  	0.167340 
1008.770768  	0.173100 
1010.699584  	0.177608 
1012.628400  	0.181013 
1014.557216  	0.183260 
1016.486032  	0.184091 
1018.414848  	0.184216 
1020.343664  	0.184141 
1022.272480  	0.184193 
1024.201296  	0.184092 
1026.130112  	0.183680 
1028.058928  	0.184510 
1029.987744  	0.186971 
1031.916560  	0.189778 
1033.845376  	0.192984 
1035.774192  	0.197678 
1037.703008  	0.203597 
1039.631824  	0.212050 
1041.560640  	0.222538 
1043.489456  	0.234876 
1045.418272  	0.246957 
1047.347088  	0.257050 
1049.275904  	0.262197 
1051.204720  	0.262812 
1053.133536  	0.259879 
1055.062352  	0.255165 
1056.991168  	0.250017 
1058.919984  	0.246303 
1060.848800  	0.243509 
1062.777616  	0.240817 
1064.706432  	0.237383 
1066.635248  	0.233606 
1068.564064  	0.229524 
1070.492880  	0.224559 
1072.421696  	0.219345 
1074.350512  	0.216230 
1076.279328  	0.215869 
1078.208144  	0.218232 
1080.136960  	0.220803 
1082.065776  	0.222177 
1083.994592  	0.220143 
1085.923408  	0.215116 
1087.852224  	0.207866 
1089.781040  	0.199658 
1091.709856  	0.190111 
1093.638672  	0.179853 
1095.567488  	0.168745 
1097.496304  	0.157821 
1099.425120  	0.147431 
1101.353936  	0.137468 
1103.282752  	0.127792 
1105.211568  	0.118929 
1107.140384  	0.111192 
1109.069200  	0.103993 
1110.998016  	0.097488 
1112.926832  	0.091542 
1114.855648  	0.086099 
1116.784464  	0.080675 
1118.713280  	0.075473 
1120.642096  	0.070595 
1122.570912  	0.066042 
1124.499728  	0.062034 
1126.428544  	0.058430 
1128.357360  	0.055238 
1130.286176  	0.052457 
1132.214992  	0.050368 
1134.143808  	0.048915 
1136.072624  	0.047480 
1138.001440  	0.046114 
1139.930256  	0.045082 
1141.859072  	0.044064 
1143.787888  	0.042849 
1145.716704  	0.041826 
1147.645520  	0.040891 
1149.574336  	0.040545 
1151.503152  	0.040406 
1153.431968  	0.040374 
1155.360784  	0.040742 
1157.289600  	0.041823 
1159.218416  	0.043024 
1161.147232  	0.044362 
1163.076048  	0.046115 
1165.004864  	0.047903 
1166.933680  	0.049589 
1168.862496  	0.051396 
1170.791312  	0.053518 
1172.720128  	0.056099 
1174.648944  	0.058863 
1176.577760  	0.061444 
1178.506576  	0.064335 
1180.435392  	0.067426 
1182.364208  	0.070509 
1184.293024  	0.073923 
1186.221840  	0.077908 
1188.150656  	0.082339 
1190.079472  	0.087409 
1192.008288  	0.093270 
1193.937104  	0.099747 
1195.865920  	0.106730 
1197.794736  	0.114178 
1199.723552  	0.122000 
1201.652368  	0.129495 
1203.581184  	0.136299 
1205.510000  	0.142684 
1207.438816  	0.147941 
1209.367632  	0.152212 
1211.296448  	0.155105 
1213.225264  	0.157212 
1215.154080  	0.158061 
1217.082896  	0.157895 
1219.011712  	0.156704 
1220.940528  	0.155083 
1222.869344  	0.152921 
1224.798160  	0.150568 
1226.726976  	0.147741 
1228.655792  	0.144192 
1230.584608  	0.140257 
1232.513424  	0.136124 
1234.442240  	0.131678 
1236.371056  	0.126997 
1238.299872  	0.122119 
1240.228688  	0.116667 
1242.157504  	0.111139 
1244.086320  	0.106040 
1246.015136  	0.100915 
1247.943952  	0.095908 
1249.872768  	0.090727 
1251.801584  	0.085870 
1253.730400  	0.081335 
1255.659216  	0.076963 
1257.588032  	0.072760 
1259.516848  	0.068987 
1261.445664  	0.065369 
1263.374480  	0.061926 
1265.303296  	0.059035 
1267.232112  	0.056928 
1269.160928  	0.055502 
1271.089744  	0.054554 
1273.018560  	0.054106 
1274.947376  	0.054346 
1276.876192  	0.055064 
1278.805008  	0.055615 
1280.733824  	0.055518 
1282.662640  	0.054400 
1284.591456  	0.052950 
1286.520272  	0.051858 
1288.449088  	0.051241 
1290.377904  	0.051271 
1292.306720  	0.052124 
1294.235536  	0.052814 
1296.164352  	0.052668 
1298.093168  	0.051301 
1300.021984  	0.049203 
1301.950800  	0.046881 
1303.879616  	0.044415 
1305.808432  	0.041815 
1307.737248  	0.039110 
1309.666064  	0.036580 
1311.594880  	0.034735 
1313.523696  	0.033398 
1315.452512  	0.032468 
1317.381328  	0.032167 
1319.310144  	0.032320 
1321.238960  	0.032525 
1323.167776  	0.033122 
1325.096592  	0.033822 
1327.025408  	0.034090 
1328.954224  	0.033955 
1330.883040  	0.033420 
1332.811856  	0.032368 
1334.740672  	0.031391 
1336.669488  	0.031091 
1338.598304  	0.031415 
1340.527120  	0.031160 
1342.455936  	0.030230 
1344.384752  	0.030030 
1346.313568  	0.030413 
1348.242384  	0.031150 
1350.171200  	0.032106 
1352.100016  	0.033399 
1354.028832  	0.034982 
1355.957648  	0.036683 
1357.886464  	0.038362 
1359.815280  	0.040011 
1361.744096  	0.042244 
1363.672912  	0.044299 
1365.601728  	0.045207 
1367.530544  	0.046516 
1369.459360  	0.048004 
1371.388176  	0.048491 
1373.316992  	0.048492 
1375.245808  	0.047615 
1377.174624  	0.045457 
1379.103440  	0.043306 
1381.032256  	0.041120 
1382.961072  	0.039151 
1384.889888  	0.037691 
1386.818704  	0.036900 
1388.747520  	0.035564 
1390.676336  	0.033656 
1392.605152  	0.032110 
1394.533968  	0.031533 
1396.462784  	0.031930 
1398.391600  	0.031816 
1400.320416  	0.031740 
1402.249232  	0.031654 
1404.178048  	0.032314 
1406.106864  	0.033141 
1408.035680  	0.034083 
1409.964496  	0.035453 
1411.893312  	0.037180 
1413.822128  	0.038889 
1415.750944  	0.040659 
1417.679760  	0.042014 
1419.608576  	0.043524 
1421.537392  	0.043286 
1423.466208  	0.042567 
1425.395024  	0.041279 
1427.323840  	0.039280 
1429.252656  	0.037620 
1431.181472  	0.036325 
1433.110288  	0.035496 
1435.039104  	0.035515 
1436.967920  	0.036905 
1438.896736  	0.037863 
1440.825552  	0.038354 
1442.754368  	0.038884 
1444.683184  	0.039024 
1446.612000  	0.039268 
1448.540816  	0.039624 
1450.469632  	0.039766 
1452.398448  	0.040025 
1454.327264  	0.040203 
1456.256080  	0.040702 
1458.184896  	0.042016 
1460.113712  	0.040883 
1462.042528  	0.039719 
1463.971344  	0.039405 
1465.900160  	0.040155 
1467.828976  	0.040454 
1469.757792  	0.041230 
1471.686608  	0.043913 
1473.615424  	0.050119 
1475.544240  	0.053586 
1477.473056  	0.057143 
1479.401872  	0.059254 
1481.330688  	0.062020 
1483.259504  	0.063996 
1485.188320  	0.064790 
1487.117136  	0.065394 
1489.045952  	0.066318 
1490.974768  	0.065407 
1492.903584  	0.062240 
1494.832400  	0.058416 
1496.761216  	0.054766 
1498.690032  	0.050369 
1500.618848  	0.046145 
1502.547664  	0.042231 
1504.476480  	0.039161 
1506.405296  	0.037747 
1508.334112  	0.037844 
1510.262928  	0.035527 
1512.191744  	0.033693 
1514.120560  	0.033221 
1516.049376  	0.034347 
1517.978192  	0.035766 
1519.907008  	0.036411 
1521.835824  	0.040123 
1523.764640  	0.042669 
1525.693456  	0.044971 
1527.622272  	0.046954 
1529.551088  	0.046514 
1531.479904  	0.044940 
1533.408720  	0.043476 
1535.337536  	0.041279 
1537.266352  	0.038586 
1539.195168  	0.036442 
1541.123984  	0.035124 
1543.052800  	0.034375 
1544.981616  	0.033465 
1546.910432  	0.032021 
1548.839248  	0.031571 
1550.768064  	0.032255 
1552.696880  	0.031700 
1554.625696  	0.032428 
1556.554512  	0.032531 
1558.483328  	0.034157 
1560.412144  	0.038836 
1562.340960  	0.039530 
1564.269776  	0.041226 
1566.198592  	0.044649 
1568.127408  	0.046749 
1570.056224  	0.052582 
1571.985040  	0.055875 
1573.913856  	0.056937 
1575.842672  	0.059754 
1577.771488  	0.063783 
1579.700304  	0.062479 
1581.629120  	0.061537 
1583.557936  	0.061139 
1585.486752  	0.062244 
1587.415568  	0.063995 
1589.344384  	0.067278 
1591.273200  	0.071522 
1593.202016  	0.076853 
1595.130832  	0.082365 
1597.059648  	0.087692 
1598.988464  	0.091722 
1600.917280  	0.095722 
1602.846096  	0.098605 
1604.774912  	0.100312 
1606.703728  	0.100249 
1608.632544  	0.100379 
1610.561360  	0.099270 
1612.490176  	0.097798 
1614.418992  	0.095144 
1616.347808  	0.096335 
1618.276624  	0.099980 
1620.205440  	0.099960 
1622.134256  	0.100927 
1624.063072  	0.107522 
1625.991888  	0.110948 
1627.920704  	0.116236 
1629.849520  	0.121880 
1631.778336  	0.124473 
1633.707152  	0.125299 
1635.635968  	0.133027 
1637.564784  	0.141624 
1639.493600  	0.140967 
1641.422416  	0.141165 
1643.351232  	0.140346 
1645.280048  	0.138306 
1647.208864  	0.143397 
1649.137680  	0.142556 
1651.066496  	0.134832 
1652.995312  	0.135636 
1654.924128  	0.142977 
1656.852944  	0.136440 
1658.781760  	0.132382 
1660.710576  	0.129004 
1662.639392  	0.127660 
1664.568208  	0.125566 
1666.497024  	0.120275 
1668.425840  	0.116029 
1670.354656  	0.114531 
1672.283472  	0.111134 
1674.212288  	0.107034 
1676.141104  	0.106561 
1678.069920  	0.103688 
1679.998736  	0.101897 
1681.927552  	0.099149 
1683.856368  	0.098476 
1685.785184  	0.101863 
1687.714000  	0.098679 
1689.642816  	0.097980 
1691.571632  	0.096890 
1693.500448  	0.094022 
1695.429264  	0.093259 
1697.358080  	0.094948 
1699.286896  	0.091624 
1701.215712  	0.093695 
1703.144528  	0.090687 
1705.073344  	0.088304 
1707.002160  	0.086644 
1708.930976  	0.083000 
1710.859792  	0.078958 
1712.788608  	0.074441 
1714.717424  	0.069372 
1716.646240  	0.063513 
1718.575056  	0.055934 
1720.503872  	0.049006 
1722.432688  	0.042813 
1724.361504  	0.036312 
1726.290320  	0.030568 
1728.219136  	0.025900 
1730.147952  	0.022043 
1732.076768  	0.018647 
1734.005584  	0.014814 
1735.934400  	0.011784 
1737.863216  	0.010790 
1739.792032  	0.008666 
1741.720848  	0.007159 
1743.649664  	0.006576 
1745.578480  	0.005810 
1747.507296  	0.004859 
1749.436112  	0.004297 
1751.364928  	0.003129 
1753.293744  	0.002224 
1755.222560  	0.001991 
1757.151376  	0.002109 
1759.080192  	0.001586 
1761.009008  	0.001192 
1762.937824  	0.000386 
1764.866640  	0.000191 
1766.795456  	0.000299 
1768.724272  	0.000445 
1770.653088  	-0.000221 
1772.581904  	-0.000823 
1774.510720  	-0.000786 
1776.439536  	-0.000810 
1778.368352  	-0.001422 
1780.297168  	-0.001630 
1782.225984  	-0.002001 
1784.154800  	-0.001955 
1786.083616  	-0.002453 
1788.012432  	-0.002376 
1789.941248  	-0.001795 
1791.870064  	-0.001690 
1793.798880  	-0.002595 
1795.727696  	-0.002503 
1797.656512  	-0.002954 
1799.585328  	-0.003077 
1801.514144  	-0.002977 
1803.442960  	-0.002995 
1805.371776  	-0.003084 
1807.300592  	-0.003179 
1809.229408  	-0.003551 
1811.158224  	-0.003652 
1813.087040  	-0.004158 
1815.015856  	-0.004232 
1816.944672  	-0.003806 
1818.873488  	-0.003592 
1820.802304  	-0.003599 
1822.731120  	-0.003389 
1824.659936  	-0.003816 
1826.588752  	-0.003764 
1828.517568  	-0.003822 
1830.446384  	-0.004355 
1832.375200  	-0.004781 
1834.304016  	-0.004449 
1836.232832  	-0.004245 
1838.161648  	-0.003898 
1840.090464  	-0.004119 
1842.019280  	-0.004292 
1843.948096  	-0.004816 
1845.876912  	-0.004949 
1847.805728  	-0.005029 
1849.734544  	-0.004916 
1851.663360  	-0.004778 
1853.592176  	-0.004550 
1855.520992  	-0.004512 
1857.449808  	-0.004713 
1859.378624  	-0.005216 
1861.307440  	-0.005069 
1863.236256  	-0.005247 
1865.165072  	-0.005097 
1867.093888  	-0.005016 
1869.022704  	-0.004348 
1870.951520  	-0.004594 
1872.880336  	-0.004851 
1874.809152  	-0.005405 
1876.737968  	-0.005538 
1878.666784  	-0.005670 
1880.595600  	-0.005835 
1882.524416  	-0.005692 
1884.453232  	-0.005490 
1886.382048  	-0.005900 
1888.310864  	-0.005212 
1890.239680  	-0.005268 
1892.168496  	-0.005267 
1894.097312  	-0.005227 
1896.026128  	-0.005491 
1897.954944  	-0.005540 
1899.883760  	-0.005353 
1901.812576  	-0.005668 
1903.741392  	-0.005683 
1905.670208  	-0.005876 
1907.599024  	-0.006043 
1909.527840  	-0.006315 
1911.456656  	-0.005601 
1913.385472  	-0.005096 
1915.314288  	-0.005054 
1917.243104  	-0.005625 
1919.171920  	-0.005402 
1921.100736  	-0.005234 
1923.029552  	-0.005698 
1924.958368  	-0.006753 
1926.887184  	-0.006614 
1928.816000  	-0.006840 
1930.744816  	-0.006542 
1932.673632  	-0.006607 
1934.602448  	-0.006372 
1936.531264  	-0.006334 
1938.460080  	-0.006422 
1940.388896  	-0.006738 
1942.317712  	-0.006397 
1944.246528  	-0.007068 
1946.175344  	-0.006507 
1948.104160  	-0.006076 
1950.032976  	-0.006026 
1951.961792  	-0.006708 
1953.890608  	-0.006754 
1955.819424  	-0.007437 
1957.748240  	-0.008048 
1959.677056  	-0.008044 
1961.605872  	-0.007273 
1963.534688  	-0.006957 
1965.463504  	-0.005586 
1967.392320  	-0.005831 
1969.321136  	-0.007017 
1971.249952  	-0.008838 
1973.178768  	-0.008667 
1975.107584  	-0.008300 
1977.036400  	-0.007409 
1978.965216  	-0.007850 
1980.894032  	-0.007358 
1982.822848  	-0.006938 
1984.751664  	-0.005273 
1986.680480  	-0.004835 
1988.609296  	-0.004930 
1990.538112  	-0.005206 
1992.466928  	-0.005042 
1994.395744  	-0.006138 
1996.324560  	-0.006234 
1998.253376  	-0.005832 
2000.182192  	-0.006138 
2002.111008  	-0.007148 
2004.039824  	-0.006674 
2005.968640  	-0.006940 
2007.897456  	-0.006756 
2009.826272  	-0.006248 
2011.755088  	-0.005774 
2013.683904  	-0.006646 
2015.612720  	-0.006366 
2017.541536  	-0.006992 
2019.470352  	-0.006203 
2021.399168  	-0.006303 
2023.327984  	-0.005966 
2025.256800  	-0.005293 
2027.185616  	-0.004446 
2029.114432  	-0.004883 
2031.043248  	-0.004858 
2032.972064  	-0.005687 
2034.900880  	-0.005106 
2036.829696  	-0.005050 
2038.758512  	-0.004203 
2040.687328  	-0.004849 
2042.616144  	-0.004683 
2044.544960  	-0.004337 
2046.473776  	-0.003850 
2048.402592  	-0.003077 
2050.331408  	-0.002627 
2052.260224  	-0.003451 
2054.189040  	-0.003685 
2056.117856  	-0.003966 
2058.046672  	-0.003380 
2059.975488  	-0.003282 
2061.904304  	-0.003114 
2063.833120  	-0.002915 
2065.761936  	-0.002599 
2067.690752  	-0.002874 
2069.619568  	-0.003172 
2071.548384  	-0.003509 
2073.477200  	-0.003192 
2075.406016  	-0.003107 
2077.334832  	-0.002877 
2079.263648  	-0.002081 
2081.192464  	-0.001577 
2083.121280  	-0.002148 
2085.050096  	-0.002550 
2086.978912  	-0.002600 
2088.907728  	-0.002196 
2090.836544  	-0.001954 
2092.765360  	-0.001796 
2094.694176  	-0.001832 
2096.622992  	-0.001645 
2098.551808  	-0.001894 
2100.480624  	-0.001922 
2102.409440  	-0.002036 
2104.338256  	-0.001761 
2106.267072  	-0.001659 
2108.195888  	-0.001874 
2110.124704  	-0.002127 
2112.053520  	-0.001589 
2113.982336  	-0.001305 
2115.911152  	-0.001404 
2117.839968  	-0.001503 
2119.768784  	-0.001719 
2121.697600  	-0.002420 
2123.626416  	-0.002610 
2125.555232  	-0.002690 
2127.484048  	-0.002833 
2129.412864  	-0.002270 
2131.341680  	-0.001606 
2133.270496  	-0.001624 
2135.199312  	-0.001615 
2137.128128  	-0.001606 
2139.056944  	-0.000791 
2140.985760  	-0.000612 
2142.914576  	-0.000824 
2144.843392  	-0.002119 
2146.772208  	-0.001848 
2148.701024  	-0.001572 
2150.629840  	-0.001715 
2152.558656  	-0.001499 
2154.487472  	-0.001118 
2156.416288  	-0.001190 
2158.345104  	0.000661 
2160.273920  	0.003091 
2162.202736  	0.002769 
2164.131552  	0.000183 
2166.060368  	0.000199 
2167.989184  	0.000220 
2169.918000  	-0.000595 
2171.846816  	-0.000858 
2173.775632  	-0.000182 
2175.704448  	-0.000069 
2177.633264  	0.000478 
2179.562080  	-0.000742 
2181.490896  	-0.001093 
2183.419712  	-0.000787 
2185.348528  	-0.001421 
2187.277344  	-0.001746 
2189.206160  	-0.000926 
2191.134976  	-0.001150 
2193.063792  	-0.001320 
2194.992608  	-0.001147 
2196.921424  	-0.001549 
2198.850240  	-0.002177 
2200.779056  	-0.002163 
2202.707872  	-0.002288 
2204.636688  	-0.001525 
2206.565504  	-0.001204 
2208.494320  	-0.001729 
2210.423136  	-0.002483 
2212.351952  	-0.002201 
2214.280768  	-0.002231 
2216.209584  	-0.002253 
2218.138400  	-0.002756 
2220.067216  	-0.003000 
2221.996032  	-0.002815 
2223.924848  	-0.002585 
2225.853664  	-0.002386 
2227.782480  	-0.002040 
2229.711296  	-0.002663 
2231.640112  	-0.002941 
2233.568928  	-0.003296 
2235.497744  	-0.003010 
2237.426560  	-0.002733 
2239.355376  	-0.003183 
2241.284192  	-0.004043 
2243.213008  	-0.003821 
2245.141824  	-0.003363 
2247.070640  	-0.003277 
2248.999456  	-0.003129 
2250.928272  	-0.002751 
2252.857088  	-0.002944 
2254.785904  	-0.002538 
2256.714720  	-0.002150 
2258.643536  	-0.002066 
2260.572352  	-0.002060 
2262.501168  	-0.001971 
2264.429984  	-0.001912 
2266.358800  	-0.001611 
2268.287616  	-0.001783 
2270.216432  	-0.001901 
2272.145248  	-0.001824 
2274.074064  	-0.001581 
2276.002880  	-0.001781 
2277.931696  	-0.001822 
2279.860512  	-0.002084 
2281.789328  	-0.002047 
2283.718144  	-0.001799 
2285.646960  	-0.001359 
2287.575776  	-0.001445 
2289.504592  	-0.001338 
2291.433408  	-0.001112 
2293.362224  	-0.000833 
2295.291040  	-0.001129 
2297.219856  	-0.001201 
2299.148672  	-0.001074 
2301.077488  	-0.000815 
2303.006304  	-0.000416 
2304.935120  	-0.000014 
2306.863936  	0.000042 
2308.792752  	0.000071 
2310.721568  	0.000037 
2312.650384  	-0.000172 
2314.579200  	-0.000432 
2316.508016  	-0.000128 
2318.436832  	0.000348 
2320.365648  	0.000611 
2322.294464  	0.000591 
2324.223280  	0.000057 
2326.152096  	-0.000818 
2328.080912  	-0.001474 
2330.009728  	-0.001749 
2331.938544  	-0.001763 
2333.867360  	-0.002136 
2335.796176  	-0.002196 
2337.724992  	-0.002477 
2339.653808  	-0.002761 
2341.582624  	-0.002751 
2343.511440  	-0.002286 
2345.440256  	-0.001932 
2347.369072  	-0.001537 
2349.297888  	-0.001116 
2351.226704  	-0.001493 
2353.155520  	-0.002383 
2355.084336  	-0.002573 
2357.013152  	-0.002607 
2358.941968  	-0.002762 
2360.870784  	-0.003178 
2362.799600  	-0.003244 
2364.728416  	-0.003108 
2366.657232  	-0.002676 
2368.586048  	-0.002414 
2370.514864  	-0.001782 
2372.443680  	-0.001607 
2374.372496  	-0.001228 
2376.301312  	-0.000867 
2378.230128  	-0.000912 
2380.158944  	-0.000977 
2382.087760  	-0.001103 
2384.016576  	-0.001660 
2385.945392  	-0.001984 
2387.874208  	-0.002119 
2389.803024  	-0.002181 
2391.731840  	-0.002307 
2393.660656  	-0.002337 
2395.589472  	-0.002416 
2397.518288  	-0.002419 
2399.447104  	-0.002382 
2401.375920  	-0.002364 
2403.304736  	-0.002581 
2405.233552  	-0.002519 
2407.162368  	-0.002498 
2409.091184  	-0.002506 
2411.020000  	-0.002687 
2412.948816  	-0.002848 
2414.877632  	-0.002768 
2416.806448  	-0.002572 
2418.735264  	-0.002466 
2420.664080  	-0.002288 
2422.592896  	-0.002409 
2424.521712  	-0.002456 
2426.450528  	-0.002408 
2428.379344  	-0.002378 
2430.308160  	-0.002258 
2432.236976  	-0.002006 
2434.165792  	-0.001715 
2436.094608  	-0.001547 
2438.023424  	-0.001719 
2439.952240  	-0.001791 
2441.881056  	-0.001724 
2443.809872  	-0.001540 
2445.738688  	-0.001547 
2447.667504  	-0.001444 
2449.596320  	-0.001166 
2451.525136  	-0.001041 
2453.453952  	-0.001002 
2455.382768  	-0.001015 
2457.311584  	-0.001204 
2459.240400  	-0.001391 
2461.169216  	-0.001362 
2463.098032  	-0.001070 
2465.026848  	-0.001121 
2466.955664  	-0.001082 
2468.884480  	-0.001237 
2470.813296  	-0.001391 
2472.742112  	-0.001194 
2474.670928  	-0.000829 
2476.599744  	-0.000534 
2478.528560  	-0.000262 
2480.457376  	-0.000072 
2482.386192  	0.000097 
2484.315008  	0.000039 
2486.243824  	0.000063 
2488.172640  	0.000125 
2490.101456  	0.000376 
2492.030272  	0.000437 
2493.959088  	0.000146 
2495.887904  	-0.000009 
2497.816720  	0.000245 
2499.745536  	0.000235 
2501.674352  	0.000063 
2503.603168  	0.000075 
2505.531984  	0.000307 
2507.460800  	0.000215 
2509.389616  	0.000006 
2511.318432  	0.000091 
2513.247248  	0.000439 
2515.176064  	0.000579 
2517.104880  	0.000568 
2519.033696  	0.000403 
2520.962512  	0.000503 
2522.891328  	0.000621 
2524.820144  	0.001099 
2526.748960  	0.001214 
2528.677776  	0.001171 
2530.606592  	0.001279 
2532.535408  	0.001496 
2534.464224  	0.001481 
2536.393040  	0.001288 
2538.321856  	0.001273 
2540.250672  	0.001517 
2542.179488  	0.001751 
2544.108304  	0.001761 
2546.037120  	0.001807 
2547.965936  	0.002031 
2549.894752  	0.002292 
2551.823568  	0.002552 
2553.752384  	0.002520 
2555.681200  	0.002367 
2557.610016  	0.002429 
2559.538832  	0.002468 
2561.467648  	0.002536 
2563.396464  	0.002784 
2565.325280  	0.002838 
2567.254096  	0.002703 
2569.182912  	0.002615 
2571.111728  	0.002837 
2573.040544  	0.002983 
2574.969360  	0.003145 
2576.898176  	0.003293 
2578.826992  	0.003260 
2580.755808  	0.003118 
2582.684624  	0.003310 
2584.613440  	0.003505 
2586.542256  	0.003761 
2588.471072  	0.003722 
2590.399888  	0.003665 
2592.328704  	0.003895 
2594.257520  	0.004188 
2596.186336  	0.004072 
2598.115152  	0.003994 
2600.043968  	0.004322 
2601.972784  	0.004487 
2603.901600  	0.004484 
2605.830416  	0.004554 
2607.759232  	0.004568 
2609.688048  	0.004542 
2611.616864  	0.004721 
2613.545680  	0.004861 
2615.474496  	0.005032 
2617.403312  	0.005302 
2619.332128  	0.005527 
2621.260944  	0.005557 
2623.189760  	0.005483 
2625.118576  	0.005676 
2627.047392  	0.005905 
2628.976208  	0.006072 
2630.905024  	0.006147 
2632.833840  	0.006194 
2634.762656  	0.006206 
2636.691472  	0.006306 
2638.620288  	0.006471 
2640.549104  	0.006658 
2642.477920  	0.006822 
2644.406736  	0.006870 
2646.335552  	0.006997 
2648.264368  	0.007182 
2650.193184  	0.007306 
2652.122000  	0.007448 
2654.050816  	0.007607 
2655.979632  	0.007809 
2657.908448  	0.007901 
2659.837264  	0.007984 
2661.766080  	0.008138 
2663.694896  	0.008205 
2665.623712  	0.008285 
2667.552528  	0.008506 
2669.481344  	0.008664 
2671.410160  	0.008754 
2673.338976  	0.008934 
2675.267792  	0.009079 
2677.196608  	0.009163 
2679.125424  	0.009313 
2681.054240  	0.009378 
2682.983056  	0.009552 
2684.911872  	0.009704 
2686.840688  	0.009772 
2688.769504  	0.009853 
2690.698320  	0.009935 
2692.627136  	0.009961 
2694.555952  	0.010020 
2696.484768  	0.010210 
2698.413584  	0.010316 
2700.342400  	0.010266 
2702.271216  	0.010455 
2704.200032  	0.010675 
2706.128848  	0.010843 
2708.057664  	0.010978 
2709.986480  	0.010991 
2711.915296  	0.011035 
2713.844112  	0.011209 
2715.772928  	0.011331 
2717.701744  	0.011464 
2719.630560  	0.011681 
2721.559376  	0.011807 
2723.488192  	0.011848 
2725.417008  	0.011995 
2727.345824  	0.012165 
2729.274640  	0.012390 
2731.203456  	0.012468 
2733.132272  	0.012508 
2735.061088  	0.012644 
2736.989904  	0.012705 
2738.918720  	0.012767 
2740.847536  	0.012898 
2742.776352  	0.013100 
2744.705168  	0.013223 
2746.633984  	0.013229 
2748.562800  	0.013316 
2750.491616  	0.013354 
2752.420432  	0.013364 
2754.349248  	0.013329 
2756.278064  	0.013375 
2758.206880  	0.013431 
2760.135696  	0.013376 
2762.064512  	0.013346 
2763.993328  	0.013450 
2765.922144  	0.013504 
2767.850960  	0.013540 
2769.779776  	0.013460 
2771.708592  	0.013478 
2773.637408  	0.013492 
2775.566224  	0.013549 
2777.495040  	0.013511 
2779.423856  	0.013469 
2781.352672  	0.013537 
2783.281488  	0.013572 
2785.210304  	0.013602 
2787.139120  	0.013605 
2789.067936  	0.013559 
2790.996752  	0.013650 
2792.925568  	0.013637 
2794.854384  	0.013517 
2796.783200  	0.013442 
2798.712016  	0.013422 
2800.640832  	0.013462 
2802.569648  	0.013621 
2804.498464  	0.013733 
2806.427280  	0.013804 
2808.356096  	0.013930 
2810.284912  	0.013984 
2812.213728  	0.013851 
2814.142544  	0.013762 
2816.071360  	0.013658 
2818.000176  	0.013729 
2819.928992  	0.013945 
2821.857808  	0.014008 
2823.786624  	0.013932 
2825.715440  	0.013987 
2827.644256  	0.014050 
2829.573072  	0.014046 
2831.501888  	0.014078 
2833.430704  	0.014122 
2835.359520  	0.014047 
2837.288336  	0.013954 
2839.217152  	0.013909 
2841.145968  	0.013808 
2843.074784  	0.013835 
2845.003600  	0.013926 
2846.932416  	0.013927 
2848.861232  	0.014076 
2850.790048  	0.014090 
2852.718864  	0.014123 
2854.647680  	0.014165 
2856.576496  	0.014254 
2858.505312  	0.014385 
2860.434128  	0.014502 
2862.362944  	0.014514 
2864.291760  	0.014503 
2866.220576  	0.014523 
2868.149392  	0.014618 
2870.078208  	0.014814 
2872.007024  	0.015095 
2873.935840  	0.015343 
2875.864656  	0.015483 
2877.793472  	0.015702 
2879.722288  	0.016159 
2881.651104  	0.016493 
2883.579920  	0.016716 
2885.508736  	0.017024 
2887.437552  	0.017174 
2889.366368  	0.017096 
2891.295184  	0.017139 
2893.224000  	0.017193 
2895.152816  	0.017263 
2897.081632  	0.017241 
2899.010448  	0.016948 
2900.939264  	0.016666 
2902.868080  	0.016964 
2904.796896  	0.017393 
2906.725712  	0.017543 
2908.654528  	0.017639 
2910.583344  	0.017911 
2912.512160  	0.018251 
2914.440976  	0.018715 
2916.369792  	0.019202 
2918.298608  	0.019507 
2920.227424  	0.019814 
2922.156240  	0.020203 
2924.085056  	0.020693 
2926.013872  	0.021137 
2927.942688  	0.021657 
2929.871504  	0.022275 
2931.800320  	0.022752 
2933.729136  	0.023252 
2935.657952  	0.023879 
2937.586768  	0.024428 
2939.515584  	0.024736 
2941.444400  	0.024957 
2943.373216  	0.025163 
2945.302032  	0.025418 
2947.230848  	0.025605 
2949.159664  	0.025498 
2951.088480  	0.025337 
2953.017296  	0.025360 
2954.946112  	0.025201 
2956.874928  	0.024984 
2958.803744  	0.024713 
2960.732560  	0.024549 
2962.661376  	0.024465 
2964.590192  	0.024276 
2966.519008  	0.024010 
2968.447824  	0.023652 
2970.376640  	0.023471 
2972.305456  	0.023373 
2974.234272  	0.023372 
2976.163088  	0.023289 
2978.091904  	0.023220 
2980.020720  	0.023198 
2981.949536  	0.023211 
2983.878352  	0.023100 
2985.807168  	0.022896 
2987.735984  	0.022876 
2989.664800  	0.023075 
2991.593616  	0.023616 
2993.522432  	0.024023 
2995.451248  	0.024328 
2997.380064  	0.024606 
2999.308880  	0.024977 
3001.237696  	0.025460 
3003.166512  	0.026009 
3005.095328  	0.026488 
3007.024144  	0.026922 
3008.952960  	0.027437 
3010.881776  	0.027944 
3012.810592  	0.028383 
3014.739408  	0.028880 
3016.668224  	0.029405 
3018.597040  	0.029881 
3020.525856  	0.030395 
3022.454672  	0.030769 
3024.383488  	0.031219 
3026.312304  	0.031788 
3028.241120  	0.032327 
3030.169936  	0.032846 
3032.098752  	0.033302 
3034.027568  	0.033542 
3035.956384  	0.033984 
3037.885200  	0.034546 
3039.814016  	0.035142 
3041.742832  	0.035574 
3043.671648  	0.036083 
3045.600464  	0.036563 
3047.529280  	0.036925 
3049.458096  	0.037401 
3051.386912  	0.037833 
3053.315728  	0.038298 
3055.244544  	0.038821 
3057.173360  	0.039450 
3059.102176  	0.039978 
3061.030992  	0.040451 
3062.959808  	0.040903 
3064.888624  	0.041602 
3066.817440  	0.042249 
3068.746256  	0.042980 
3070.675072  	0.043576 
3072.603888  	0.044169 
3074.532704  	0.044765 
3076.461520  	0.045335 
3078.390336  	0.045980 
3080.319152  	0.046638 
3082.247968  	0.047130 
3084.176784  	0.047606 
3086.105600  	0.048163 
3088.034416  	0.048762 
3089.963232  	0.049145 
3091.892048  	0.049526 
3093.820864  	0.050071 
3095.749680  	0.050898 
3097.678496  	0.051597 
3099.607312  	0.052164 
3101.536128  	0.052815 
3103.464944  	0.053309 
3105.393760  	0.053587 
3107.322576  	0.054054 
3109.251392  	0.054736 
3111.180208  	0.055226 
3113.109024  	0.055485 
3115.037840  	0.055875 
3116.966656  	0.056482 
3118.895472  	0.056975 
3120.824288  	0.057224 
3122.753104  	0.057666 
3124.681920  	0.058002 
3126.610736  	0.058313 
3128.539552  	0.058652 
3130.468368  	0.058903 
3132.397184  	0.059428 
3134.326000  	0.060018 
3136.254816  	0.060287 
3138.183632  	0.060470 
3140.112448  	0.060704 
3142.041264  	0.061113 
3143.970080  	0.061534 
3145.898896  	0.061941 
3147.827712  	0.062356 
3149.756528  	0.062830 
3151.685344  	0.063166 
3153.614160  	0.063495 
3155.542976  	0.063772 
3157.471792  	0.064090 
3159.400608  	0.064447 
3161.329424  	0.064739 
3163.258240  	0.065166 
3165.187056  	0.065587 
3167.115872  	0.065836 
3169.044688  	0.066154 
3170.973504  	0.066405 
3172.902320  	0.066375 
3174.831136  	0.066302 
3176.759952  	0.066516 
3178.688768  	0.066989 
3180.617584  	0.067088 
3182.546400  	0.067179 
3184.475216  	0.067300 
3186.404032  	0.067329 
3188.332848  	0.067358 
3190.261664  	0.067408 
3192.190480  	0.067290 
3194.119296  	0.067289 
3196.048112  	0.067169 
3197.976928  	0.067295 
3199.905744  	0.067298 
3201.834560  	0.067165 
3203.763376  	0.067084 
3205.692192  	0.066695 
3207.621008  	0.066465 
3209.549824  	0.066587 
3211.478640  	0.066503 
3213.407456  	0.066311 
3215.336272  	0.066360 
3217.265088  	0.066140 
3219.193904  	0.066070 
3221.122720  	0.066097 
3223.051536  	0.065857 
3224.980352  	0.065636 
3226.909168  	0.065399 
3228.837984  	0.065080 
3230.766800  	0.064950 
3232.695616  	0.065150 
3234.624432  	0.065315 
3236.553248  	0.065441 
3238.482064  	0.065389 
3240.410880  	0.065280 
3242.339696  	0.065201 
3244.268512  	0.065174 
3246.197328  	0.065277 
3248.126144  	0.065189 
3250.054960  	0.065272 
3251.983776  	0.065371 
3253.912592  	0.065661 
3255.841408  	0.065837 
3257.770224  	0.065692 
3259.699040  	0.065758 
3261.627856  	0.065932 
3263.556672  	0.065898 
3265.485488  	0.066040 
3267.414304  	0.066005 
3269.343120  	0.066022 
3271.271936  	0.066265 
3273.200752  	0.066501 
3275.129568  	0.066578 
3277.058384  	0.066641 
3278.987200  	0.066593 
3280.916016  	0.066573 
3282.844832  	0.066544 
3284.773648  	0.066726 
3286.702464  	0.066786 
3288.631280  	0.066939 
3290.560096  	0.066990 
3292.488912  	0.067101 
3294.417728  	0.066992 
3296.346544  	0.067021 
3298.275360  	0.067321 
3300.204176  	0.067300 
3302.132992  	0.067181 
3304.061808  	0.067472 
3305.990624  	0.067591 
3307.919440  	0.067797 
3309.848256  	0.068024 
3311.777072  	0.068020 
3313.705888  	0.068111 
3315.634704  	0.068397 
3317.563520  	0.068654 
3319.492336  	0.068748 
3321.421152  	0.068853 
3323.349968  	0.068855 
3325.278784  	0.068658 
3327.207600  	0.068636 
3329.136416  	0.068691 
3331.065232  	0.068753 
3332.994048  	0.068665 
3334.922864  	0.068605 
3336.851680  	0.068589 
3338.780496  	0.068444 
3340.709312  	0.068277 
3342.638128  	0.068409 
3344.566944  	0.068169 
3346.495760  	0.067737 
3348.424576  	0.067575 
3350.353392  	0.067498 
3352.282208  	0.067161 
3354.211024  	0.066823 
3356.139840  	0.066528 
3358.068656  	0.066204 
3359.997472  	0.065808 
3361.926288  	0.065537 
3363.855104  	0.065255 
3365.783920  	0.065175 
3367.712736  	0.065026 
3369.641552  	0.064841 
3371.570368  	0.064440 
3373.499184  	0.064233 
3375.428000  	0.064155 
3377.356816  	0.063922 
3379.285632  	0.063629 
3381.214448  	0.063226 
3383.143264  	0.062882 
3385.072080  	0.062785 
3387.000896  	0.062474 
3388.929712  	0.062240 
3390.858528  	0.061906 
3392.787344  	0.061904 
3394.716160  	0.061624 
3396.644976  	0.061417 
3398.573792  	0.061166 
3400.502608  	0.060385 
3402.431424  	0.059779 
3404.360240  	0.059293 
3406.289056  	0.058812 
3408.217872  	0.058550 
3410.146688  	0.058361 
3412.075504  	0.057936 
3414.004320  	0.057606 
3415.933136  	0.057397 
3417.861952  	0.056901 
3419.790768  	0.056774 
3421.719584  	0.056761 
3423.648400  	0.056189 
3425.577216  	0.055540 
3427.506032  	0.055103 
3429.434848  	0.054623 
3431.363664  	0.054347 
3433.292480  	0.054046 
3435.221296  	0.053627 
3437.150112  	0.053034 
3439.078928  	0.052473 
3441.007744  	0.051828 
3442.936560  	0.051562 
3444.865376  	0.050968 
3446.794192  	0.050954 
3448.723008  	0.050910 
3450.651824  	0.050048 
3452.580640  	0.049541 
3454.509456  	0.048890 
3456.438272  	0.048033 
3458.367088  	0.047514 
3460.295904  	0.047224 
3462.224720  	0.047060 
3464.153536  	0.046419 
3466.082352  	0.045456 
3468.011168  	0.045012 
3469.939984  	0.044602 
3471.868800  	0.043820 
3473.797616  	0.043007 
3475.726432  	0.042590 
3477.655248  	0.041958 
3479.584064  	0.041280 
3481.512880  	0.041188 
3483.441696  	0.040863 
3485.370512  	0.039759 
3487.299328  	0.039077 
3489.228144  	0.038532 
3491.156960  	0.037824 
3493.085776  	0.037331 
3495.014592  	0.036930 
3496.943408  	0.036375 
3498.872224  	0.035586 
3500.801040  	0.035099 
3502.729856  	0.035026 
3504.658672  	0.034806 
3506.587488  	0.033798 
3508.516304  	0.033096 
3510.445120  	0.032996 
3512.373936  	0.032420 
3514.302752  	0.031863 
3516.231568  	0.031362 
3518.160384  	0.030762 
3520.089200  	0.029996 
3522.018016  	0.029484 
3523.946832  	0.029680 
3525.875648  	0.029043 
3527.804464  	0.028516 
3529.733280  	0.028160 
3531.662096  	0.027388 
3533.590912  	0.026514 
3535.519728  	0.026130 
3537.448544  	0.025800 
3539.377360  	0.025038 
3541.306176  	0.024391 
3543.234992  	0.024140 
3545.163808  	0.024289 
3547.092624  	0.024020 
3549.021440  	0.022876 
3550.950256  	0.022144 
3552.879072  	0.022113 
3554.807888  	0.021374 
3556.736704  	0.020412 
3558.665520  	0.020133 
3560.594336  	0.019838 
3562.523152  	0.019128 
3564.451968  	0.018650 
3566.380784  	0.019408 
3568.309600  	0.019696 
3570.238416  	0.018091 
3572.167232  	0.016986 
3574.096048  	0.016459 
3576.024864  	0.015929 
3577.953680  	0.015279 
3579.882496  	0.014573 
3581.811312  	0.013857 
3583.740128  	0.013394 
3585.668944  	0.013029 
3587.597760  	0.013056 
3589.526576  	0.012358 
3591.455392  	0.010994 
3593.384208  	0.010494 
3595.313024  	0.010431 
3597.241840  	0.009753 
3599.170656  	0.008774 
3601.099472  	0.008266 
3603.028288  	0.007598 
3604.957104  	0.006940 
3606.885920  	0.006886 
3608.814736  	0.006571 
3610.743552  	0.005404 
3612.672368  	0.004917 
3614.601184  	0.004481 
3616.530000  	0.003562 
3618.458816  	0.003101 
3620.387632  	0.002423 
3622.316448  	0.001572 
3624.245264  	0.001167 
3626.174080  	0.000794 
3628.102896  	0.000328 
3630.031712  	-0.000345 
3631.960528  	-0.001111 
3633.889344  	-0.001630 
3635.818160  	-0.002244 
3637.746976  	-0.003148 
3639.675792  	-0.003911 
3641.604608  	-0.004389 
3643.533424  	-0.004621 
3645.462240  	-0.004482 
3647.391056  	-0.004369 
3649.319872  	-0.006030 
3651.248688  	-0.007563 
3653.177504  	-0.007682 
3655.106320  	-0.007856 
3657.035136  	-0.008678 
3658.963952  	-0.008961 
3660.892768  	-0.009208 
3662.821584  	-0.009732 
3664.750400  	-0.009944 
3666.679216  	-0.009670 
3668.608032  	-0.009806 
3670.536848  	-0.011020 
3672.465664  	-0.011013 
3674.394480  	-0.010616 
3676.323296  	-0.012480 
3678.252112  	-0.012280 
3680.180928  	-0.012308 
3682.109744  	-0.012226 
3684.038560  	-0.011829 
3685.967376  	-0.011589 
3687.896192  	-0.011224 
3689.825008  	-0.012068 
3691.753824  	-0.013101 
3693.682640  	-0.013033 
3695.611456  	-0.012645 
3697.540272  	-0.012469 
3699.469088  	-0.012385 
3701.397904  	-0.012611 
3703.326720  	-0.012891 
3705.255536  	-0.012468 
3707.184352  	-0.011799 
3709.113168  	-0.011528 
3711.041984  	-0.012474 
3712.970800  	-0.013348 
3714.899616  	-0.013007 
3716.828432  	-0.012382 
3718.757248  	-0.012013 
3720.686064  	-0.012025 
3722.614880  	-0.012406 
3724.543696  	-0.012335 
3726.472512  	-0.012291 
3728.401328  	-0.012526 
3730.330144  	-0.012439 
3732.258960  	-0.012982 
3734.187776  	-0.012297 
3736.116592  	-0.012467 
3738.045408  	-0.013007 
3739.974224  	-0.012268 
3741.903040  	-0.011650 
3743.831856  	-0.012377 
3745.760672  	-0.013893 
3747.689488  	-0.012766 
3749.618304  	-0.012071 
3751.547120  	-0.012623 
3753.475936  	-0.013380 
3755.404752  	-0.012635 
3757.333568  	-0.012115 
3759.262384  	-0.012143 
3761.191200  	-0.012667 
3763.120016  	-0.012386 
3765.048832  	-0.012158 
3766.977648  	-0.012203 
3768.906464  	-0.011839 
3770.835280  	-0.012575 
3772.764096  	-0.012851 
3774.692912  	-0.012719 
3776.621728  	-0.012341 
3778.550544  	-0.012243 
3780.479360  	-0.012988 
3782.408176  	-0.012803 
3784.336992  	-0.012562 
3786.265808  	-0.012793 
3788.194624  	-0.012756 
3790.123440  	-0.012395 
3792.052256  	-0.012484 
3793.981072  	-0.012413 
3795.909888  	-0.011912 
3797.838704  	-0.011845 
3799.767520  	-0.011561 
3801.696336  	-0.012599 
3803.625152  	-0.013129 
3805.553968  	-0.012392 
3807.482784  	-0.013151 
3809.411600  	-0.013117 
3811.340416  	-0.012592 
3813.269232  	-0.012180 
3815.198048  	-0.011938 
3817.126864  	-0.012803 
3819.055680  	-0.012129 
3820.984496  	-0.012685 
3822.913312  	-0.013391 
3824.842128  	-0.012552 
3826.770944  	-0.012814 
3828.699760  	-0.012787 
3830.628576  	-0.012229 
3832.557392  	-0.012481 
3834.486208  	-0.012546 
3836.415024  	-0.012655 
3838.343840  	-0.013097 
3840.272656  	-0.013039 
3842.201472  	-0.012555 
3844.130288  	-0.012483 
3846.059104  	-0.012582 
3847.987920  	-0.012163 
3849.916736  	-0.011690 
3851.845552  	-0.011588 
3853.774368  	-0.013326 
3855.703184  	-0.013127 
3857.632000  	-0.012455 
3859.560816  	-0.012117 
3861.489632  	-0.011863 
3863.418448  	-0.011862 
3865.347264  	-0.011834 
3867.276080  	-0.011778 
3869.204896  	-0.011589 
3871.133712  	-0.012395 
3873.062528  	-0.012335 
3874.991344  	-0.012996 
3876.920160  	-0.012870 
3878.848976  	-0.012134 
3880.777792  	-0.012291 
3882.706608  	-0.012262 
3884.635424  	-0.011976 
3886.564240  	-0.013017 
3888.493056  	-0.012927 
3890.421872  	-0.012476 
3892.350688  	-0.013098 
3894.279504  	-0.013105 
3896.208320  	-0.012476 
3898.137136  	-0.011933 
3900.065952  	-0.011885 
3901.994768  	-0.012048 
3903.923584  	-0.012494 
3905.852400  	-0.013033 
3907.781216  	-0.013161 
3909.710032  	-0.013175 
3911.638848  	-0.013242 
3913.567664  	-0.012933 
3915.496480  	-0.012371 
3917.425296  	-0.012171 
3919.354112  	-0.012432 
3921.282928  	-0.012255 
3923.211744  	-0.011705 
3925.140560  	-0.012221 
3927.069376  	-0.012601 
3928.998192  	-0.012174 
3930.927008  	-0.012096 
3932.855824  	-0.012530 
3934.784640  	-0.012841 
3936.713456  	-0.012577 
3938.642272  	-0.012465 
3940.571088  	-0.012243 
3942.499904  	-0.011984 
3944.428720  	-0.012554 
3946.357536  	-0.012728 
3948.286352  	-0.012374 
3950.215168  	-0.012744 
3952.143984  	-0.013109 
3954.072800  	-0.013006 
3956.001616  	-0.012820 
3957.930432  	-0.012616 
3959.859248  	-0.012307 
3961.788064  	-0.012325 
3963.716880  	-0.012714 
3965.645696  	-0.012926 
3967.574512  	-0.013114 
3969.503328  	-0.013180 
3971.432144  	-0.012811 
3973.360960  	-0.012301 
3975.289776  	-0.012133 
3977.218592  	-0.012417 
3979.147408  	-0.012785 
3981.076224  	-0.013004 
3983.005040  	-0.013019 
3984.933856  	-0.012732 
3986.862672  	-0.012468 
3988.791488  	-0.012543 
3990.720304  	-0.012540 
3992.649120  	-0.012581 
3994.577936  	-0.012666 
3996.506752  	-0.012831 
3998.435568  	-0.012985 
4000.364384  	-0.012861 