##TITLE=No Description
##DATA TYPE=INFRARED SPECTRUM
##XUNITS=1/CM
##YUNITS=Abs
399.264912  	0.537862 
401.193728  	0.526904 
403.122544  	0.519455 
405.051360  	0.522538 
406.980176  	0.522902 
408.908992  	0.522978 
410.837808  	0.526912 
412.766624  	0.522224 
414.695440  	0.519294 
416.624256  	0.508732 
418.553072  	0.509598 
420.481888  	0.529073 
422.410704  	0.535693 
424.339520  	0.533461 
426.268336  	0.523464 
428.197152  	0.511256 
430.125968  	0.503019 
432.054784  	0.493507 
433.983600  	0.500095 
435.912416  	0.497297 
437.841232  	0.495223 
439.770048  	0.491799 
441.698864  	0.488843 
443.627680  	0.487926 
445.556496  	0.490762 
447.485312  	0.487952 
449.414128  	0.488942 
451.342944  	0.486654 
453.271760  	0.487339 
455.200576  	0.491866 
457.129392  	0.497592 
459.058208  	0.492313 
460.987024  	0.492887 
462.915840  	0.493899 
464.844656  	0.493915 
466.773472  	0.489631 
468.702288  	0.492225 
470.631104  	0.493349 
472.559920  	0.497187 
474.488736  	0.499364 
476.417552  	0.497147 
478.346368  	0.492965 
480.275184  	0.495910 
482.204000  	0.494416 
484.132816  	0.493988 
486.061632  	0.490622 
487.990448  	0.490996 
489.919264  	0.489502 
491.848080  	0.490247 
493.776896  	0.494517 
495.705712  	0.492628 
497.634528  	0.486429 
499.563344  	0.484532 
501.492160  	0.481494 
503.420976  	0.483571 
505.349792  	0.481900 
507.278608  	0.482723 
509.207424  	0.482323 
511.136240  	0.485982 
513.065056  	0.487208 
514.993872  	0.489465 
516.922688  	0.488222 
518.851504  	0.491232 
520.780320  	0.491957 
522.709136  	0.490992 
524.637952  	0.487863 
526.566768  	0.488001 
528.495584  	0.485666 
530.424400  	0.482475 
532.353216  	0.477847 
534.282032  	0.472559 
536.210848  	0.466404 
538.139664  	0.460019 
540.068480  	0.454358 
541.997296  	0.449860 
543.926112  	0.445198 
545.854928  	0.443722 
547.783744  	0.441283 
549.712560  	0.439271 
551.641376  	0.435559 
553.570192  	0.431906 
555.499008  	0.428478 
557.427824  	0.425771 
559.356640  	0.422064 
561.285456  	0.419377 
563.214272  	0.414632 
565.143088  	0.410798 
567.071904  	0.407162 
569.000720  	0.404550 
570.929536  	0.400894 
572.858352  	0.397361 
574.787168  	0.394451 
576.715984  	0.392133 
578.644800  	0.387464 
580.573616  	0.382669 
582.502432  	0.377690 
584.431248  	0.372986 
586.360064  	0.368804 
588.288880  	0.365934 
590.217696  	0.363687 
592.146512  	0.363269 
594.075328  	0.361554 
596.004144  	0.359906 
597.932960  	0.358297 
599.861776  	0.357063 
601.790592  	0.355480 
603.719408  	0.355042 
605.648224  	0.353966 
607.577040  	0.353291 
609.505856  	0.351751 
611.434672  	0.350717 
613.363488  	0.349201 
615.292304  	0.348249 
617.221120  	0.347055 
619.149936  	0.346175 
621.078752  	0.344691 
623.007568  	0.343742 
624.936384  	0.342614 
626.865200  	0.341632 
628.794016  	0.341139 
630.722832  	0.341146 
632.651648  	0.342021 
634.580464  	0.343287 
636.509280  	0.344075 
638.438096  	0.344223 
640.366912  	0.344283 
642.295728  	0.343453 
644.224544  	0.341025 
646.153360  	0.337685 
648.082176  	0.333096 
650.010992  	0.329931 
651.939808  	0.326617 
653.868624  	0.322408 
655.797440  	0.317808 
657.726256  	0.314468 
659.655072  	0.310850 
661.583888  	0.306569 
663.512704  	0.301814 
665.441520  	0.297207 
667.370336  	0.293470 
669.299152  	0.289737 
671.227968  	0.284188 
673.156784  	0.279876 
675.085600  	0.276820 
677.014416  	0.274568 
678.943232  	0.272661 
680.872048  	0.271351 
682.800864  	0.270016 
684.729680  	0.268867 
686.658496  	0.267462 
688.587312  	0.266257 
690.516128  	0.265637 
692.444944  	0.265011 
694.373760  	0.263635 
696.302576  	0.262324 
698.231392  	0.260564 
700.160208  	0.258514 
702.089024  	0.256064 
704.017840  	0.253623 
705.946656  	0.251167 
707.875472  	0.248653 
709.804288  	0.246864 
711.733104  	0.245744 
713.661920  	0.244179 
715.590736  	0.243256 
717.519552  	0.243150 
719.448368  	0.244343 
721.377184  	0.246218 
723.306000  	0.247595 
725.234816  	0.248495 
727.163632  	0.247992 
729.092448  	0.245058 
731.021264  	0.240993 
732.950080  	0.236648 
734.878896  	0.232489 
736.807712  	0.229250 
738.736528  	0.227114 
740.665344  	0.225345 
742.594160  	0.224192 
744.522976  	0.222828 
746.451792  	0.221703 
748.380608  	0.220434 
750.309424  	0.219242 
752.238240  	0.218395 
754.167056  	0.218192 
756.095872  	0.217706 
758.024688  	0.216673 
759.953504  	0.216481 
761.882320  	0.218245 
763.811136  	0.219892 
765.739952  	0.218563 
767.668768  	0.215075 
769.597584  	0.212417 
771.526400  	0.212731 
773.455216  	0.215765 
775.384032  	0.221110 
777.312848  	0.228465 
779.241664  	0.233335 
781.170480  	0.232452 
783.099296  	0.226447 
785.028112  	0.219451 
786.956928  	0.213290 
788.885744  	0.208565 
790.814560  	0.204906 
792.743376  	0.203101 
794.672192  	0.202702 
796.601008  	0.201483 
798.529824  	0.197816 
800.458640  	0.193113 
802.387456  	0.189680 
804.316272  	0.187983 
806.245088  	0.187510 
808.173904  	0.187443 
810.102720  	0.187426 
812.031536  	0.187693 
813.960352  	0.188726 
815.889168  	0.190059 
817.817984  	0.191779 
819.746800  	0.193771 
821.675616  	0.195514 
823.604432  	0.197334 
825.533248  	0.198642 
827.462064  	0.199579 
829.390880  	0.199876 
831.319696  	0.200012 
833.248512  	0.198769 
835.177328  	0.196688 
837.106144  	0.193754 
839.034960  	0.190052 
840.963776  	0.185535 
842.892592  	0.180936 
844.821408  	0.176429 
846.750224  	0.172303 
848.679040  	0.169096 
850.607856  	0.166856 
852.536672  	0.165428 
854.465488  	0.164420 
856.394304  	0.163677 
858.323120  	0.162664 
860.251936  	0.161397 
862.180752  	0.160024 
864.109568  	0.158319 
866.038384  	0.156058 
867.967200  	0.153596 
869.896016  	0.152258 
871.824832  	0.151582 
873.753648  	0.152257 
875.682464  	0.153831 
877.611280  	0.156406 
879.540096  	0.159627 
881.468912  	0.162983 
883.397728  	0.166328 
885.326544  	0.169128 
887.255360  	0.170835 
889.184176  	0.171377 
891.112992  	0.170708 
893.041808  	0.168933 
894.970624  	0.165866 
896.899440  	0.161087 
898.828256  	0.155355 
900.757072  	0.149894 
902.685888  	0.145430 
904.614704  	0.143018 
906.543520  	0.142887 
908.472336  	0.145333 
910.401152  	0.148975 
912.329968  	0.153099 
914.258784  	0.157067 
916.187600  	0.160989 
918.116416  	0.164234 
920.045232  	0.166567 
921.974048  	0.168187 
923.902864  	0.169651 
925.831680  	0.171109 
927.760496  	0.172795 
929.689312  	0.174515 
931.618128  	0.176446 
933.546944  	0.178084 
935.475760  	0.178892 
937.404576  	0.178701 
939.333392  	0.178012 
941.262208  	0.177905 
943.191024  	0.179643 
945.119840  	0.184094 
947.048656  	0.191808 
948.977472  	0.203167 
950.906288  	0.217546 
952.835104  	0.234573 
954.763920  	0.253293 
956.692736  	0.271057 
958.621552  	0.286459 
960.550368  	0.296622 
962.479184  	0.301131 
964.408000  	0.299128 
966.336816  	0.291612 
968.265632  	0.278570 
970.194448  	0.262164 
972.123264  	0.243846 
974.052080  	0.224977 
975.980896  	0.206538 
977.909712  	0.189701 
979.838528  	0.175387 
981.767344  	0.163641 
983.696160  	0.155222 
985.624976  	0.150503 
987.553792  	0.149894 
989.482608  	0.153180 
991.411424  	0.159970 
993.340240  	0.169390 
995.269056  	0.179912 
997.197872  	0.191057 
999.126688  	0.202196 
1001.055504  	0.213533 
1002.984320  	0.224149 
1004.913136  	0.234640 
1006.841952  	0.244284 
1008.770768  	0.253160 
1010.699584  	0.259875 
1012.628400  	0.264510 
1014.557216  	0.267443 
1016.486032  	0.268925 
1018.414848  	0.269248 
1020.343664  	0.269044 
1022.272480  	0.268768 
1024.201296  	0.268456 
1026.130112  	0.268055 
1028.058928  	0.269192 
1029.987744  	0.272520 
1031.916560  	0.277168 
1033.845376  	0.282620 
1035.774192  	0.290166 
1037.703008  	0.299668 
1039.631824  	0.313037 
1041.560640  	0.329835 
1043.489456  	0.349195 
1045.418272  	0.368685 
1047.347088  	0.385351 
1049.275904  	0.394196 
1051.204720  	0.395623 
1053.133536  	0.390791 
1055.062352  	0.383379 
1056.991168  	0.375285 
1058.919984  	0.368959 
1060.848800  	0.363919 
1062.777616  	0.359768 
1064.706432  	0.354432 
1066.635248  	0.348061 
1068.564064  	0.340738 
1070.492880  	0.332732 
1072.421696  	0.324861 
1074.350512  	0.320195 
1076.279328  	0.319433 
1078.208144  	0.322825 
1080.136960  	0.326823 
1082.065776  	0.328098 
1083.994592  	0.323962 
1085.923408  	0.315904 
1087.852224  	0.304551 
1089.781040  	0.291342 
1091.709856  	0.276199 
1093.638672  	0.260749 
1095.567488  	0.244650 
1097.496304  	0.228993 
1099.425120  	0.213659 
1101.353936  	0.199201 
1103.282752  	0.185889 
1105.211568  	0.173740 
1107.140384  	0.162517 
1109.069200  	0.152436 
1110.998016  	0.143458 
1112.926832  	0.135328 
1114.855648  	0.127986 
1116.784464  	0.120498 
1118.713280  	0.113141 
1120.642096  	0.106385 
1122.570912  	0.100082 
1124.499728  	0.094281 
1126.428544  	0.089250 
1128.357360  	0.084841 
1130.286176  	0.081227 
1132.214992  	0.078393 
1134.143808  	0.076121 
1136.072624  	0.074263 
1138.001440  	0.072591 
1139.930256  	0.071011 
1141.859072  	0.069307 
1143.787888  	0.067577 
1145.716704  	0.066358 
1147.645520  	0.065183 
1149.574336  	0.064783 
1151.503152  	0.064484 
1153.431968  	0.064627 
1155.360784  	0.065271 
1157.289600  	0.066658 
1159.218416  	0.068458 
1161.147232  	0.070523 
1163.076048  	0.072890 
1165.004864  	0.075382 
1166.933680  	0.077825 
1168.862496  	0.080386 
1170.791312  	0.083328 
1172.720128  	0.086770 
1174.648944  	0.090720 
1176.577760  	0.094567 
1178.506576  	0.098733 
1180.435392  	0.102970 
1182.364208  	0.106961 
1184.293024  	0.111452 
1186.221840  	0.117105 
1188.150656  	0.123635 
1190.079472  	0.130770 
1192.008288  	0.138892 
1193.937104  	0.148221 
1195.865920  	0.158591 
1197.794736  	0.169667 
1199.723552  	0.181204 
1201.652368  	0.192416 
1203.581184  	0.202768 
1205.510000  	0.212304 
1207.438816  	0.220260 
1209.367632  	0.226705 
1211.296448  	0.231286 
1213.225264  	0.234358 
1215.154080  	0.235240 
1217.082896  	0.234859 
1219.011712  	0.233107 
1220.940528  	0.230937 
1222.869344  	0.227710 
1224.798160  	0.224054 
1226.726976  	0.219495 
1228.655792  	0.214212 
1230.584608  	0.208331 
1232.513424  	0.202114 
1234.442240  	0.195412 
1236.371056  	0.188558 
1238.299872  	0.181011 
1240.228688  	0.172815 
1242.157504  	0.165061 
1244.086320  	0.157604 
1246.015136  	0.149888 
1247.943952  	0.142578 
1249.872768  	0.135371 
1251.801584  	0.128590 
1253.730400  	0.121880 
1255.659216  	0.115503 
1257.588032  	0.109531 
1259.516848  	0.104176 
1261.445664  	0.099091 
1263.374480  	0.094474 
1265.303296  	0.090489 
1267.232112  	0.087467 
1269.160928  	0.085329 
1271.089744  	0.084037 
1273.018560  	0.083770 
1274.947376  	0.084405 
1276.876192  	0.085586 
1278.805008  	0.086255 
1280.733824  	0.086060 
1282.662640  	0.084610 
1284.591456  	0.082490 
1286.520272  	0.080676 
1288.449088  	0.079785 
1290.377904  	0.079947 
1292.306720  	0.081016 
1294.235536  	0.082002 
1296.164352  	0.081577 
1298.093168  	0.079421 
1300.021984  	0.076521 
1301.950800  	0.073355 
1303.879616  	0.069919 
1305.808432  	0.066279 
1307.737248  	0.062524 
1309.666064  	0.058887 
1311.594880  	0.056108 
1313.523696  	0.054248 
1315.452512  	0.052986 
1317.381328  	0.052516 
1319.310144  	0.052897 
1321.238960  	0.053569 
1323.167776  	0.054560 
1325.096592  	0.055495 
1327.025408  	0.055922 
1328.954224  	0.055826 
1330.883040  	0.055017 
1332.811856  	0.053602 
1334.740672  	0.052258 
1336.669488  	0.051561 
1338.598304  	0.051761 
1340.527120  	0.051729 
1342.455936  	0.050661 
1344.384752  	0.050374 
1346.313568  	0.050851 
1348.242384  	0.051783 
1350.171200  	0.053108 
1352.100016  	0.054894 
1354.028832  	0.057152 
1355.957648  	0.059651 
1357.886464  	0.061867 
1359.815280  	0.064004 
1361.744096  	0.066996 
1363.672912  	0.070376 
1365.601728  	0.071944 
1367.530544  	0.073612 
1369.459360  	0.075736 
1371.388176  	0.076410 
1373.316992  	0.076308 
1375.245808  	0.075390 
1377.174624  	0.072500 
1379.103440  	0.069508 
1381.032256  	0.066469 
1382.961072  	0.063872 
1384.889888  	0.061641 
1386.818704  	0.060431 
1388.747520  	0.058737 
1390.676336  	0.055985 
1392.605152  	0.053552 
1394.533968  	0.052906 
1396.462784  	0.053373 
1398.391600  	0.053249 
1400.320416  	0.053760 
1402.249232  	0.053476 
1404.178048  	0.054445 
1406.106864  	0.056005 
1408.035680  	0.057172 
1409.964496  	0.058877 
1411.893312  	0.061267 
1413.822128  	0.063486 
1415.750944  	0.065650 
1417.679760  	0.067523 
1419.608576  	0.070149 
1421.537392  	0.069608 
1423.466208  	0.068484 
1425.395024  	0.066929 
1427.323840  	0.063854 
1429.252656  	0.061550 
1431.181472  	0.059766 
1433.110288  	0.058268 
1435.039104  	0.057818 
1436.967920  	0.060805 
1438.896736  	0.062479 
1440.825552  	0.062837 
1442.754368  	0.063537 
1444.683184  	0.063530 
1446.612000  	0.063705 
1448.540816  	0.064575 
1450.469632  	0.064726 
1452.398448  	0.064643 
1454.327264  	0.064128 
1456.256080  	0.064658 
1458.184896  	0.068199 
1460.113712  	0.066557 
1462.042528  	0.064437 
1463.971344  	0.063893 
1465.900160  	0.065547 
1467.828976  	0.065787 
1469.757792  	0.066244 
1471.686608  	0.069749 
1473.615424  	0.079277 
1475.544240  	0.084397 
1477.473056  	0.089874 
1479.401872  	0.092922 
1481.330688  	0.096663 
1483.259504  	0.099324 
1485.188320  	0.100233 
1487.117136  	0.100790 
1489.045952  	0.101928 
1490.974768  	0.100965 
1492.903584  	0.096585 
1494.832400  	0.091066 
1496.761216  	0.086000 
1498.690032  	0.079941 
1500.618848  	0.073937 
1502.547664  	0.067970 
1504.476480  	0.062861 
1506.405296  	0.060816 
1508.334112  	0.061918 
1510.262928  	0.058518 
1512.191744  	0.056199 
1514.120560  	0.055084 
1516.049376  	0.056204 
1517.978192  	0.058716 
1519.907008  	0.059339 
1521.835824  	0.065732 
1523.764640  	0.069341 
1525.693456  	0.072256 
1527.622272  	0.075139 
1529.551088  	0.074428 
1531.479904  	0.071893 
1533.408720  	0.070247 
1535.337536  	0.067128 
1537.266352  	0.062461 
1539.195168  	0.059643 
1541.123984  	0.059164 
1543.052800  	0.057732 
1544.981616  	0.056381 
1546.910432  	0.054199 
1548.839248  	0.053055 
1550.768064  	0.054204 
1552.696880  	0.053345 
1554.625696  	0.054548 
1556.554512  	0.054073 
1558.483328  	0.057437 
1560.412144  	0.066551 
1562.340960  	0.065896 
1564.269776  	0.067826 
1566.198592  	0.072600 
1568.127408  	0.075513 
1570.056224  	0.084512 
1571.985040  	0.089270 
1573.913856  	0.090736 
1575.842672  	0.095078 
1577.771488  	0.100575 
1579.700304  	0.098550 
1581.629120  	0.097190 
1583.557936  	0.096568 
1585.486752  	0.098036 
1587.415568  	0.100588 
1589.344384  	0.105483 
1591.273200  	0.111822 
1593.202016  	0.119767 
1595.130832  	0.128058 
1597.059648  	0.136328 
1598.988464  	0.142551 
1600.917280  	0.148497 
1602.846096  	0.152705 
1604.774912  	0.155290 
1606.703728  	0.155379 
1608.632544  	0.155317 
1610.561360  	0.153439 
1612.490176  	0.151388 
1614.418992  	0.148034 
1616.347808  	0.149712 
1618.276624  	0.154279 
1620.205440  	0.154903 
1622.134256  	0.157045 
1624.063072  	0.166425 
1625.991888  	0.171699 
1627.920704  	0.179567 
1629.849520  	0.187949 
1631.778336  	0.192957 
1633.707152  	0.195776 
1635.635968  	0.206238 
1637.564784  	0.217080 
1639.493600  	0.217610 
1641.422416  	0.218496 
1643.351232  	0.218256 
1645.280048  	0.216345 
1647.208864  	0.221266 
1649.137680  	0.219791 
1651.066496  	0.211941 
1652.995312  	0.211543 
1654.924128  	0.217181 
1656.852944  	0.209757 
1658.781760  	0.204573 
1660.710576  	0.199918 
1662.639392  	0.196888 
1664.568208  	0.192791 
1666.497024  	0.185993 
1668.425840  	0.180134 
1670.354656  	0.176612 
1672.283472  	0.171240 
1674.212288  	0.165804 
1676.141104  	0.164012 
1678.069920  	0.159880 
1679.998736  	0.157089 
1681.927552  	0.153475 
1683.856368  	0.152694 
1685.785184  	0.156094 
1687.714000  	0.152242 
1689.642816  	0.151183 
1691.571632  	0.149549 
1693.500448  	0.145931 
1695.429264  	0.144820 
1697.358080  	0.146003 
1699.286896  	0.141895 
1701.215712  	0.143891 
1703.144528  	0.139833 
1705.073344  	0.136570 
1707.002160  	0.133684 
1708.930976  	0.128369 
1710.859792  	0.122406 
1712.788608  	0.115627 
1714.717424  	0.107825 
1716.646240  	0.099265 
1718.575056  	0.089314 
1720.503872  	0.079110 
1722.432688  	0.069913 
1724.361504  	0.060431 
1726.290320  	0.052144 
1728.219136  	0.045199 
1730.147952  	0.039518 
1732.076768  	0.034032 
1734.005584  	0.030875 
1735.934400  	0.027287 
1737.863216  	0.024074 
1739.792032  	0.021740 
1741.720848  	0.019912 
1743.649664  	0.018499 
1745.578480  	0.016972 
1747.507296  	0.015647 
1749.436112  	0.015381 
1751.364928  	0.014529 
1753.293744  	0.013133 
1755.222560  	0.011747 
1757.151376  	0.012137 
1759.080192  	0.011047 
1761.009008  	0.010536 
1762.937824  	0.010298 
1764.866640  	0.009361 
1766.795456  	0.008949 
1768.724272  	0.009410 
1770.653088  	0.008279 
1772.581904  	0.009389 
1774.510720  	0.009221 
1776.439536  	0.008272 
1778.368352  	0.007085 
1780.297168  	0.007112 
1782.225984  	0.006738 
1784.154800  	0.006636 
1786.083616  	0.006306 
1788.012432  	0.005744 
1789.941248  	0.005564 
1791.870064  	0.006556 
1793.798880  	0.006520 
1795.727696  	0.005992 
1797.656512  	0.005125 
1799.585328  	0.004814 
1801.514144  	0.005228 
1803.442960  	0.005173 
1805.371776  	0.004807 
1807.300592  	0.004552 
1809.229408  	0.004080 
1811.158224  	0.004129 
1813.087040  	0.003839 
1815.015856  	0.003476 
1816.944672  	0.003727 
1818.873488  	0.004071 
1820.802304  	0.004056 
1822.731120  	0.004090 
1824.659936  	0.003714 
1826.588752  	0.003684 
1828.517568  	0.003086 
1830.446384  	0.003926 
1832.375200  	0.003585 
1834.304016  	0.003466 
1836.232832  	0.003516 
1838.161648  	0.003627 
1840.090464  	0.003100 
1842.019280  	0.002416 
1843.948096  	0.002881 
1845.876912  	0.003664 
1847.805728  	0.003090 
1849.734544  	0.002952 
1851.663360  	0.002786 
1853.592176  	0.003031 
1855.520992  	0.003034 
1857.449808  	0.002905 
1859.378624  	0.002262 
1861.307440  	0.002537 
1863.236256  	0.002272 
1865.165072  	0.001957 
1867.093888  	0.001605 
1869.022704  	0.002858 
1870.951520  	0.002981 
1872.880336  	0.002523 
1874.809152  	0.001974 
1876.737968  	0.001707 
1878.666784  	0.001573 
1880.595600  	0.001439 
1882.524416  	0.001466 
1884.453232  	0.001854 
1886.382048  	0.001170 
1888.310864  	0.001402 
1890.239680  	0.002004 
1892.168496  	0.002353 
1894.097312  	0.002217 
1896.026128  	0.001958 
1897.954944  	0.001429 
1899.883760  	0.001503 
1901.812576  	0.001473 
1903.741392  	0.001748 
1905.670208  	0.001432 
1907.599024  	0.001036 
1909.527840  	0.001180 
1911.456656  	0.002098 
1913.385472  	0.002303 
1915.314288  	0.002184 
1917.243104  	0.001520 
1919.171920  	0.001793 
1921.100736  	0.001604 
1923.029552  	0.001702 
1924.958368  	0.000622 
1926.887184  	0.000721 
1928.816000  	0.000643 
1930.744816  	0.000834 
1932.673632  	0.000643 
1934.602448  	0.000881 
1936.531264  	0.000628 
1938.460080  	0.000774 
1940.388896  	0.000308 
1942.317712  	0.000621 
1944.246528  	0.000195 
1946.175344  	0.000773 
1948.104160  	0.001137 
1950.032976  	0.001761 
1951.961792  	0.000755 
1953.890608  	-0.000354 
1955.819424  	-0.001099 
1957.748240  	-0.001036 
1959.677056  	-0.001557 
1961.605872  	-0.000754 
1963.534688  	-0.000574 
1965.463504  	0.000441 
1967.392320  	0.000258 
1969.321136  	-0.000674 
1971.249952  	-0.002302 
1973.178768  	-0.001732 
1975.107584  	-0.000724 
1977.036400  	0.000594 
1978.965216  	0.000595 
1980.894032  	0.000554 
1982.822848  	-0.000075 
1984.751664  	0.000631 
1986.680480  	0.001161 
1988.609296  	0.001815 
1990.538112  	0.001195 
1992.466928  	0.001792 
1994.395744  	0.001391 
1996.324560  	0.001405 
1998.253376  	0.000936 
2000.182192  	0.000042 
2002.111008  	-0.000214 
2004.039824  	0.000839 
2005.968640  	0.000227 
2007.897456  	0.000698 
2009.826272  	0.001099 
2011.755088  	0.001989 
2013.683904  	0.001103 
2015.612720  	0.000799 
2017.541536  	0.001240 
2019.470352  	0.001619 
2021.399168  	-0.000020 
2023.327984  	0.000488 
2025.256800  	0.001383 
2027.185616  	0.002734 
2029.114432  	0.002841 
2031.043248  	0.002824 
2032.972064  	0.002287 
2034.900880  	0.003926 
2036.829696  	0.004278 
2038.758512  	0.003873 
2040.687328  	0.002457 
2042.616144  	0.002755 
2044.544960  	0.003010 
2046.473776  	0.003342 
2048.402592  	0.004265 
2050.331408  	0.005381 
2052.260224  	0.004992 
2054.189040  	0.004573 
2056.117856  	0.004019 
2058.046672  	0.004337 
2059.975488  	0.004372 
2061.904304  	0.004979 
2063.833120  	0.005409 
2065.761936  	0.005719 
2067.690752  	0.005253 
2069.619568  	0.005030 
2071.548384  	0.004722 
2073.477200  	0.005382 
2075.406016  	0.005552 
2077.334832  	0.005769 
2079.263648  	0.006137 
2081.192464  	0.006637 
2083.121280  	0.006007 
2085.050096  	0.005633 
2086.978912  	0.005709 
2088.907728  	0.005963 
2090.836544  	0.005731 
2092.765360  	0.005772 
2094.694176  	0.005857 
2096.622992  	0.006079 
2098.551808  	0.005843 
2100.480624  	0.006305 
2102.409440  	0.006716 
2104.338256  	0.006956 
2106.267072  	0.006502 
2108.195888  	0.006456 
2110.124704  	0.006488 
2112.053520  	0.006952 
2113.982336  	0.007039 
2115.911152  	0.006647 
2117.839968  	0.006136 
2119.768784  	0.006068 
2121.697600  	0.005807 
2123.626416  	0.005903 
2125.555232  	0.005575 
2127.484048  	0.005355 
2129.412864  	0.005316 
2131.341680  	0.005777 
2133.270496  	0.005994 
2135.199312  	0.006295 
2137.128128  	0.006359 
2139.056944  	0.007006 
2140.985760  	0.007269 
2142.914576  	0.006876 
2144.843392  	0.005598 
2146.772208  	0.005586 
2148.701024  	0.006157 
2150.629840  	0.006690 
2152.558656  	0.006347 
2154.487472  	0.006583 
2156.416288  	0.006474 
2158.345104  	0.009221 
2160.273920  	0.011295 
2162.202736  	0.010314 
2164.131552  	0.008698 
2166.060368  	0.009448 
2167.989184  	0.008970 
2169.918000  	0.007480 
2171.846816  	0.007059 
2173.775632  	0.007883 
2175.704448  	0.008213 
2177.633264  	0.007972 
2179.562080  	0.006751 
2181.490896  	0.007433 
2183.419712  	0.007818 
2185.348528  	0.007668 
2187.277344  	0.007055 
2189.206160  	0.007661 
2191.134976  	0.007434 
2193.063792  	0.006864 
2194.992608  	0.006588 
2196.921424  	0.006942 
2198.850240  	0.006803 
2200.779056  	0.006579 
2202.707872  	0.006407 
2204.636688  	0.007100 
2206.565504  	0.006651 
2208.494320  	0.006548 
2210.423136  	0.006575 
2212.351952  	0.006611 
2214.280768  	0.006046 
2216.209584  	0.006176 
2218.138400  	0.006187 
2220.067216  	0.005991 
2221.996032  	0.005392 
2223.924848  	0.005715 
2225.853664  	0.005943 
2227.782480  	0.006254 
2229.711296  	0.005490 
2231.640112  	0.004887 
2233.568928  	0.004553 
2235.497744  	0.005151 
2237.426560  	0.005450 
2239.355376  	0.005730 
2241.284192  	0.005117 
2243.213008  	0.004856 
2245.141824  	0.004747 
2247.070640  	0.004872 
2248.999456  	0.005030 
2250.928272  	0.005526 
2252.857088  	0.005468 
2254.785904  	0.005502 
2256.714720  	0.005849 
2258.643536  	0.006382 
2260.572352  	0.006160 
2262.501168  	0.005963 
2264.429984  	0.006148 
2266.358800  	0.006496 
2268.287616  	0.006324 
2270.216432  	0.006089 
2272.145248  	0.006137 
2274.074064  	0.006695 
2276.002880  	0.006848 
2277.931696  	0.007026 
2279.860512  	0.006891 
2281.789328  	0.006826 
2283.718144  	0.006779 
2285.646960  	0.007206 
2287.575776  	0.007184 
2289.504592  	0.007328 
2291.433408  	0.007410 
2293.362224  	0.007412 
2295.291040  	0.007426 
2297.219856  	0.007792 
2299.148672  	0.007887 
2301.077488  	0.007936 
2303.006304  	0.008217 
2304.935120  	0.008573 
2306.863936  	0.008770 
2308.792752  	0.009113 
2310.721568  	0.009043 
2312.650384  	0.008698 
2314.579200  	0.008741 
2316.508016  	0.009366 
2318.436832  	0.009568 
2320.365648  	0.010027 
2322.294464  	0.010566 
2324.223280  	0.010401 
2326.152096  	0.009024 
2328.080912  	0.008164 
2330.009728  	0.008204 
2331.938544  	0.008602 
2333.867360  	0.008462 
2335.796176  	0.007926 
2337.724992  	0.007372 
2339.653808  	0.007697 
2341.582624  	0.008227 
2343.511440  	0.008945 
2345.440256  	0.009784 
2347.369072  	0.009441 
2349.297888  	0.008284 
2351.226704  	0.007703 
2353.155520  	0.007270 
2355.084336  	0.007647 
2357.013152  	0.008369 
2358.941968  	0.008743 
2360.870784  	0.008516 
2362.799600  	0.008231 
2364.728416  	0.008704 
2366.657232  	0.009285 
2368.586048  	0.008923 
2370.514864  	0.009058 
2372.443680  	0.009200 
2374.372496  	0.009411 
2376.301312  	0.009154 
2378.230128  	0.008825 
2380.158944  	0.008362 
2382.087760  	0.007808 
2384.016576  	0.007156 
2385.945392  	0.006731 
2387.874208  	0.006604 
2389.803024  	0.006321 
2391.731840  	0.006043 
2393.660656  	0.005939 
2395.589472  	0.005995 
2397.518288  	0.006043 
2399.447104  	0.006045 
2401.375920  	0.006131 
2403.304736  	0.005839 
2405.233552  	0.005787 
2407.162368  	0.006099 
2409.091184  	0.006194 
2411.020000  	0.006125 
2412.948816  	0.006096 
2414.877632  	0.006038 
2416.806448  	0.006306 
2418.735264  	0.006435 
2420.664080  	0.006483 
2422.592896  	0.006430 
2424.521712  	0.006451 
2426.450528  	0.006386 
2428.379344  	0.006465 
2430.308160  	0.006732 
2432.236976  	0.006893 
2434.165792  	0.007009 
2436.094608  	0.007231 
2438.023424  	0.007237 
2439.952240  	0.007334 
2441.881056  	0.007340 
2443.809872  	0.007362 
2445.738688  	0.007263 
2447.667504  	0.007245 
2449.596320  	0.007515 
2451.525136  	0.007753 
2453.453952  	0.007727 
2455.382768  	0.007706 
2457.311584  	0.007768 
2459.240400  	0.007852 
2461.169216  	0.007916 
2463.098032  	0.008159 
2465.026848  	0.008135 
2466.955664  	0.008075 
2468.884480  	0.007881 
2470.813296  	0.007843 
2472.742112  	0.008090 
2474.670928  	0.008542 
2476.599744  	0.008865 
2478.528560  	0.009137 
2480.457376  	0.009258 
2482.386192  	0.009396 
2484.315008  	0.009320 
2486.243824  	0.009257 
2488.172640  	0.009563 
2490.101456  	0.009862 
2492.030272  	0.009821 
2493.959088  	0.009686 
2495.887904  	0.009523 
2497.816720  	0.009690 
2499.745536  	0.009719 
2501.674352  	0.009755 
2503.603168  	0.009876 
2505.531984  	0.009962 
2507.460800  	0.009884 
2509.389616  	0.009813 
2511.318432  	0.009796 
2513.247248  	0.010132 
2515.176064  	0.010431 
2517.104880  	0.010550 
2519.033696  	0.010519 
2520.962512  	0.010456 
2522.891328  	0.010666 
2524.820144  	0.011178 
2526.748960  	0.011271 
2528.677776  	0.011203 
2530.606592  	0.011097 
2532.535408  	0.011408 
2534.464224  	0.011481 
2536.393040  	0.011301 
2538.321856  	0.011353 
2540.250672  	0.011487 
2542.179488  	0.011738 
2544.108304  	0.011900 
2546.037120  	0.011962 
2547.965936  	0.012265 
2549.894752  	0.012418 
2551.823568  	0.012698 
2553.752384  	0.012970 
2555.681200  	0.012934 
2557.610016  	0.012779 
2559.538832  	0.012681 
2561.467648  	0.013076 
2563.396464  	0.013483 
2565.325280  	0.013315 
2567.254096  	0.013209 
2569.182912  	0.013250 
2571.111728  	0.013462 
2573.040544  	0.013589 
2574.969360  	0.013882 
2576.898176  	0.014176 
2578.826992  	0.014363 
2580.755808  	0.014479 
2582.684624  	0.014657 
2584.613440  	0.014765 
2586.542256  	0.015064 
2588.471072  	0.015003 
2590.399888  	0.014926 
2592.328704  	0.015038 
2594.257520  	0.015255 
2596.186336  	0.015278 
2598.115152  	0.015419 
2600.043968  	0.015682 
2601.972784  	0.015705 
2603.901600  	0.015764 
2605.830416  	0.015839 
2607.759232  	0.015953 
2609.688048  	0.016146 
2611.616864  	0.016419 
2613.545680  	0.016624 
2615.474496  	0.016813 
2617.403312  	0.017040 
2619.332128  	0.017135 
2621.260944  	0.017102 
2623.189760  	0.017172 
2625.118576  	0.017425 
2627.047392  	0.017627 
2628.976208  	0.017868 
2630.905024  	0.018024 
2632.833840  	0.018212 
2634.762656  	0.018399 
2636.691472  	0.018660 
2638.620288  	0.018774 
2640.549104  	0.019046 
2642.477920  	0.019316 
2644.406736  	0.019449 
2646.335552  	0.019611 
2648.264368  	0.019825 
2650.193184  	0.019964 
2652.122000  	0.020101 
2654.050816  	0.020306 
2655.979632  	0.020638 
2657.908448  	0.020875 
2659.837264  	0.021020 
2661.766080  	0.021179 
2663.694896  	0.021307 
2665.623712  	0.021414 
2667.552528  	0.021574 
2669.481344  	0.021740 
2671.410160  	0.021948 
2673.338976  	0.022139 
2675.267792  	0.022377 
2677.196608  	0.022661 
2679.125424  	0.022810 
2681.054240  	0.022880 
2682.983056  	0.023097 
2684.911872  	0.023288 
2686.840688  	0.023430 
2688.769504  	0.023529 
2690.698320  	0.023641 
2692.627136  	0.023761 
2694.555952  	0.023936 
2696.484768  	0.024178 
2698.413584  	0.024284 
2700.342400  	0.024309 
2702.271216  	0.024572 
2704.200032  	0.024819 
2706.128848  	0.025050 
2708.057664  	0.025243 
2709.986480  	0.025353 
2711.915296  	0.025506 
2713.844112  	0.025729 
2715.772928  	0.025832 
2717.701744  	0.025921 
2719.630560  	0.026218 
2721.559376  	0.026509 
2723.488192  	0.026667 
2725.417008  	0.026833 
2727.345824  	0.026964 
2729.274640  	0.027277 
2731.203456  	0.027484 
2733.132272  	0.027551 
2735.061088  	0.027698 
2736.989904  	0.027814 
2738.918720  	0.028027 
2740.847536  	0.028217 
2742.776352  	0.028351 
2744.705168  	0.028500 
2746.633984  	0.028626 
2748.562800  	0.028818 
2750.491616  	0.028954 
2752.420432  	0.029062 
2754.349248  	0.029043 
2756.278064  	0.029049 
2758.206880  	0.029015 
2760.135696  	0.029088 
2762.064512  	0.029281 
2763.993328  	0.029390 
2765.922144  	0.029262 
2767.850960  	0.029125 
2769.779776  	0.029161 
2771.708592  	0.029281 
2773.637408  	0.029284 
2775.566224  	0.029262 
2777.495040  	0.029234 
2779.423856  	0.029272 
2781.352672  	0.029346 
2783.281488  	0.029395 
2785.210304  	0.029384 
2787.139120  	0.029386 
2789.067936  	0.029310 
2790.996752  	0.029383 
2792.925568  	0.029482 
2794.854384  	0.029469 
2796.783200  	0.029496 
2798.712016  	0.029484 
2800.640832  	0.029567 
2802.569648  	0.029703 
2804.498464  	0.029679 
2806.427280  	0.029790 
2808.356096  	0.029917 
2810.284912  	0.029957 
2812.213728  	0.029968 
2814.142544  	0.030113 
2816.071360  	0.030165 
2818.000176  	0.030194 
2819.928992  	0.030302 
2821.857808  	0.030446 
2823.786624  	0.030447 
2825.715440  	0.030471 
2827.644256  	0.030449 
2829.573072  	0.030370 
2831.501888  	0.030351 
2833.430704  	0.030437 
2835.359520  	0.030461 
2837.288336  	0.030369 
2839.217152  	0.030391 
2841.145968  	0.030414 
2843.074784  	0.030371 
2845.003600  	0.030415 
2846.932416  	0.030402 
2848.861232  	0.030582 
2850.790048  	0.030708 
2852.718864  	0.030790 
2854.647680  	0.030924 
2856.576496  	0.031141 
2858.505312  	0.031296 
2860.434128  	0.031460 
2862.362944  	0.031545 
2864.291760  	0.031727 
2866.220576  	0.031970 
2868.149392  	0.032129 
2870.078208  	0.032265 
2872.007024  	0.032670 
2873.935840  	0.033156 
2875.864656  	0.033558 
2877.793472  	0.034003 
2879.722288  	0.034560 
2881.651104  	0.035025 
2883.579920  	0.035522 
2885.508736  	0.036003 
2887.437552  	0.036229 
2889.366368  	0.036348 
2891.295184  	0.036417 
2893.224000  	0.036458 
2895.152816  	0.036492 
2897.081632  	0.036478 
2899.010448  	0.036135 
2900.939264  	0.035808 
2902.868080  	0.036046 
2904.796896  	0.036497 
2906.725712  	0.036819 
2908.654528  	0.037041 
2910.583344  	0.037456 
2912.512160  	0.037870 
2914.440976  	0.038371 
2916.369792  	0.038986 
2918.298608  	0.039600 
2920.227424  	0.040117 
2922.156240  	0.040745 
2924.085056  	0.041451 
2926.013872  	0.042043 
2927.942688  	0.042799 
2929.871504  	0.043705 
2931.800320  	0.044426 
2933.729136  	0.045242 
2935.657952  	0.046101 
2937.586768  	0.046712 
2939.515584  	0.047260 
2941.444400  	0.047624 
2943.373216  	0.048060 
2945.302032  	0.048447 
2947.230848  	0.048633 
2949.159664  	0.048653 
2951.088480  	0.048348 
2953.017296  	0.048267 
2954.946112  	0.048228 
2956.874928  	0.047968 
2958.803744  	0.047625 
2960.732560  	0.047374 
2962.661376  	0.047129 
2964.590192  	0.046943 
2966.519008  	0.046646 
2968.447824  	0.046188 
2970.376640  	0.045998 
2972.305456  	0.045794 
2974.234272  	0.045775 
2976.163088  	0.045803 
2978.091904  	0.045677 
2980.020720  	0.045517 
2981.949536  	0.045498 
2983.878352  	0.045438 
2985.807168  	0.045292 
2987.735984  	0.045371 
2989.664800  	0.045648 
2991.593616  	0.046290 
2993.522432  	0.046747 
2995.451248  	0.046931 
2997.380064  	0.047403 
2999.308880  	0.048044 
3001.237696  	0.048586 
3003.166512  	0.049183 
3005.095328  	0.049725 
3007.024144  	0.050190 
3008.952960  	0.050859 
3010.881776  	0.051656 
3012.810592  	0.052465 
3014.739408  	0.053071 
3016.668224  	0.053484 
3018.597040  	0.054127 
3020.525856  	0.054831 
3022.454672  	0.055305 
3024.383488  	0.055965 
3026.312304  	0.056838 
3028.241120  	0.057461 
3030.169936  	0.058165 
3032.098752  	0.059016 
3034.027568  	0.059450 
3035.956384  	0.060069 
3037.885200  	0.060770 
3039.814016  	0.061472 
3041.742832  	0.062004 
3043.671648  	0.062672 
3045.600464  	0.063370 
3047.529280  	0.064021 
3049.458096  	0.064824 
3051.386912  	0.065454 
3053.315728  	0.066149 
3055.244544  	0.066897 
3057.173360  	0.067823 
3059.102176  	0.068681 
3061.030992  	0.069447 
3062.959808  	0.070216 
3064.888624  	0.071157 
3066.817440  	0.072154 
3068.746256  	0.073123 
3070.675072  	0.073941 
3072.603888  	0.074835 
3074.532704  	0.075736 
3076.461520  	0.076646 
3078.390336  	0.077508 
3080.319152  	0.078449 
3082.247968  	0.079239 
3084.176784  	0.080041 
3086.105600  	0.081008 
3088.034416  	0.081943 
3089.963232  	0.082477 
3091.892048  	0.083143 
3093.820864  	0.084090 
3095.749680  	0.085343 
3097.678496  	0.086296 
3099.607312  	0.087036 
3101.536128  	0.088249 
3103.464944  	0.089244 
3105.393760  	0.089812 
3107.322576  	0.090557 
3109.251392  	0.091347 
3111.180208  	0.091888 
3113.109024  	0.092415 
3115.037840  	0.093057 
3116.966656  	0.093917 
3118.895472  	0.094699 
3120.824288  	0.095337 
3122.753104  	0.096132 
3124.681920  	0.096629 
3126.610736  	0.097091 
3128.539552  	0.097696 
3130.468368  	0.098089 
3132.397184  	0.098846 
3134.326000  	0.099504 
3136.254816  	0.099965 
3138.183632  	0.100607 
3140.112448  	0.101042 
3142.041264  	0.101604 
3143.970080  	0.102466 
3145.898896  	0.103016 
3147.827712  	0.103403 
3149.756528  	0.104196 
3151.685344  	0.104814 
3153.614160  	0.105201 
3155.542976  	0.105621 
3157.471792  	0.106274 
3159.400608  	0.106940 
3161.329424  	0.107539 
3163.258240  	0.108241 
3165.187056  	0.108713 
3167.115872  	0.108926 
3169.044688  	0.109431 
3170.973504  	0.109967 
3172.902320  	0.110289 
3174.831136  	0.110449 
3176.759952  	0.110751 
3178.688768  	0.111201 
3180.617584  	0.111409 
3182.546400  	0.111527 
3184.475216  	0.111713 
3186.404032  	0.111919 
3188.332848  	0.111998 
3190.261664  	0.111943 
3192.190480  	0.111983 
3194.119296  	0.112024 
3196.048112  	0.111757 
3197.976928  	0.111965 
3199.905744  	0.112045 
3201.834560  	0.111837 
3203.763376  	0.111459 
3205.692192  	0.111082 
3207.621008  	0.111139 
3209.549824  	0.111176 
3211.478640  	0.111097 
3213.407456  	0.110756 
3215.336272  	0.110724 
3217.265088  	0.110546 
3219.193904  	0.110579 
3221.122720  	0.110583 
3223.051536  	0.110033 
3224.980352  	0.109692 
3226.909168  	0.109658 
3228.837984  	0.109416 
3230.766800  	0.109094 
3232.695616  	0.109202 
3234.624432  	0.109180 
3236.553248  	0.109181 
3238.482064  	0.109338 
3240.410880  	0.109239 
3242.339696  	0.109105 
3244.268512  	0.109175 
3246.197328  	0.109426 
3248.126144  	0.109380 
3250.054960  	0.109487 
3251.983776  	0.109485 
3253.912592  	0.109777 
3255.841408  	0.110089 
3257.770224  	0.110092 
3259.699040  	0.110228 
3261.627856  	0.110529 
3263.556672  	0.110769 
3265.485488  	0.110910 
3267.414304  	0.110851 
3269.343120  	0.111003 
3271.271936  	0.111121 
3273.200752  	0.111171 
3275.129568  	0.111323 
3277.058384  	0.111536 
3278.987200  	0.111625 
3280.916016  	0.111607 
3282.844832  	0.111633 
3284.773648  	0.111757 
3286.702464  	0.111725 
3288.631280  	0.111922 
3290.560096  	0.112301 
3292.488912  	0.112488 
3294.417728  	0.112538 
3296.346544  	0.112736 
3298.275360  	0.112955 
3300.204176  	0.112969 
3302.132992  	0.112824 
3304.061808  	0.113235 
3305.990624  	0.113562 
3307.919440  	0.113820 
3309.848256  	0.114042 
3311.777072  	0.114209 
3313.705888  	0.114415 
3315.634704  	0.114656 
3317.563520  	0.114917 
3319.492336  	0.115100 
3321.421152  	0.115220 
3323.349968  	0.115248 
3325.278784  	0.115340 
3327.207600  	0.115445 
3329.136416  	0.115295 
3331.065232  	0.115284 
3332.994048  	0.115257 
3334.922864  	0.115190 
3336.851680  	0.115137 
3338.780496  	0.115156 
3340.709312  	0.114769 
3342.638128  	0.114509 
3344.566944  	0.114269 
3346.495760  	0.113963 
3348.424576  	0.113713 
3350.353392  	0.113534 
3352.282208  	0.113008 
3354.211024  	0.112626 
3356.139840  	0.112395 
3358.068656  	0.112088 
3359.997472  	0.111512 
3361.926288  	0.111119 
3363.855104  	0.110687 
3365.783920  	0.110364 
3367.712736  	0.110117 
3369.641552  	0.109656 
3371.570368  	0.109180 
3373.499184  	0.108966 
3375.428000  	0.108651 
3377.356816  	0.108304 
3379.285632  	0.107837 
3381.214448  	0.107267 
3383.143264  	0.106882 
3385.072080  	0.106748 
3387.000896  	0.106180 
3388.929712  	0.105572 
3390.858528  	0.105037 
3392.787344  	0.105163 
3394.716160  	0.104830 
3396.644976  	0.104214 
3398.573792  	0.103682 
3400.502608  	0.102790 
3402.431424  	0.102098 
3404.360240  	0.101708 
3406.289056  	0.101062 
3408.217872  	0.100460 
3410.146688  	0.100084 
3412.075504  	0.099458 
3414.004320  	0.098905 
3415.933136  	0.098412 
3417.861952  	0.097821 
3419.790768  	0.097458 
3421.719584  	0.097161 
3423.648400  	0.096476 
3425.577216  	0.095557 
3427.506032  	0.094826 
3429.434848  	0.094150 
3431.363664  	0.093770 
3433.292480  	0.093163 
3435.221296  	0.092309 
3437.150112  	0.091348 
3439.078928  	0.090696 
3441.007744  	0.090103 
3442.936560  	0.089728 
3444.865376  	0.088501 
3446.794192  	0.088177 
3448.723008  	0.088095 
3450.651824  	0.086841 
3452.580640  	0.085932 
3454.509456  	0.085013 
3456.438272  	0.084236 
3458.367088  	0.083577 
3460.295904  	0.082757 
3462.224720  	0.082189 
3464.153536  	0.081278 
3466.082352  	0.080211 
3468.011168  	0.079453 
3469.939984  	0.078617 
3471.868800  	0.077771 
3473.797616  	0.076753 
3475.726432  	0.075899 
3477.655248  	0.074834 
3479.584064  	0.073736 
3481.512880  	0.073394 
3483.441696  	0.072879 
3485.370512  	0.071489 
3487.299328  	0.070554 
3489.228144  	0.069881 
3491.156960  	0.068701 
3493.085776  	0.067547 
3495.014592  	0.066919 
3496.943408  	0.066545 
3498.872224  	0.065319 
3500.801040  	0.064241 
3502.729856  	0.064167 
3504.658672  	0.063953 
3506.587488  	0.062268 
3508.516304  	0.061338 
3510.445120  	0.061176 
3512.373936  	0.060253 
3514.302752  	0.059214 
3516.231568  	0.058285 
3518.160384  	0.057373 
3520.089200  	0.056363 
3522.018016  	0.055595 
3523.946832  	0.055753 
3525.875648  	0.054934 
3527.804464  	0.054309 
3529.733280  	0.053822 
3531.662096  	0.052609 
3533.590912  	0.051114 
3535.519728  	0.050482 
3537.448544  	0.050217 
3539.377360  	0.049245 
3541.306176  	0.048087 
3543.234992  	0.047273 
3545.163808  	0.047272 
3547.092624  	0.047460 
3549.021440  	0.046027 
3550.950256  	0.044645 
3552.879072  	0.044770 
3554.807888  	0.043515 
3556.736704  	0.042032 
3558.665520  	0.041596 
3560.594336  	0.041154 
3562.523152  	0.039862 
3564.451968  	0.038409 
3566.380784  	0.039672 
3568.309600  	0.041573 
3570.238416  	0.038939 
3572.167232  	0.036712 
3574.096048  	0.035697 
3576.024864  	0.034859 
3577.953680  	0.034069 
3579.882496  	0.033375 
3581.811312  	0.032359 
3583.740128  	0.030820 
3585.668944  	0.029840 
3587.597760  	0.031780 
3589.526576  	0.031384 
3591.455392  	0.028386 
3593.384208  	0.027373 
3595.313024  	0.027403 
3597.241840  	0.026335 
3599.170656  	0.024938 
3601.099472  	0.024768 
3603.028288  	0.023517 
3604.957104  	0.021620 
3606.885920  	0.021224 
3608.814736  	0.021834 
3610.743552  	0.019907 
3612.672368  	0.019112 
3614.601184  	0.018961 
3616.530000  	0.016850 
3618.458816  	0.016799 
3620.387632  	0.017616 
3622.316448  	0.015690 
3624.245264  	0.013671 
3626.174080  	0.011490 
3628.102896  	0.011714 
3630.031712  	0.014884 
3631.960528  	0.011750 
3633.889344  	0.010323 
3635.818160  	0.009232 
3637.746976  	0.007883 
3639.675792  	0.006857 
3641.604608  	0.006007 
3643.533424  	0.004760 
3645.462240  	0.002754 
3647.391056  	0.003033 
3649.319872  	0.005144 
3651.248688  	0.006092 
3653.177504  	0.002193 
3655.106320  	0.000535 
3657.035136  	0.001657 
3658.963952  	0.000473 
3660.892768  	-0.000685 
3662.821584  	-0.001622 
3664.750400  	-0.002442 
3666.679216  	-0.003566 
3668.608032  	-0.004042 
3670.536848  	-0.002027 
3672.465664  	-0.003899 
3674.394480  	-0.004655 
3676.323296  	-0.001420 
3678.252112  	-0.002882 
3680.180928  	-0.003481 
3682.109744  	-0.004582 
3684.038560  	-0.005438 
3685.967376  	-0.006587 
3687.896192  	-0.005680 
3689.825008  	-0.003466 
3691.753824  	-0.003497 
3693.682640  	-0.004767 
3695.611456  	-0.005552 
3697.540272  	-0.005759 
3699.469088  	-0.006788 
3701.397904  	-0.006250 
3703.326720  	-0.005399 
3705.255536  	-0.005769 
3707.184352  	-0.006251 
3709.113168  	-0.006359 
3711.041984  	-0.004860 
3712.970800  	-0.003797 
3714.899616  	-0.005297 
3716.828432  	-0.006233 
3718.757248  	-0.006062 
3720.686064  	-0.006199 
3722.614880  	-0.005898 
3724.543696  	-0.005929 
3726.472512  	-0.005215 
3728.401328  	-0.005992 
3730.330144  	-0.007512 
3732.258960  	-0.007293 
3734.187776  	-0.006068 
3736.116592  	-0.003205 
3738.045408  	-0.004148 
3739.974224  	-0.005694 
3741.903040  	-0.007600 
3743.831856  	-0.007470 
3745.760672  	-0.005350 
3747.689488  	-0.007560 
3749.618304  	-0.006218 
3751.547120  	-0.003257 
3753.475936  	-0.004000 
3755.404752  	-0.006251 
3757.333568  	-0.006601 
3759.262384  	-0.005372 
3761.191200  	-0.005189 
3763.120016  	-0.006845 
3765.048832  	-0.006287 
3766.977648  	-0.006043 
3768.906464  	-0.006061 
3770.835280  	-0.005024 
3772.764096  	-0.005734 
3774.692912  	-0.006599 
3776.621728  	-0.007084 
3778.550544  	-0.006408 
3780.479360  	-0.005469 
3782.408176  	-0.006452 
3784.336992  	-0.006149 
3786.265808  	-0.005831 
3788.194624  	-0.006224 
3790.123440  	-0.006374 
3792.052256  	-0.006618 
3793.981072  	-0.007378 
3795.909888  	-0.006413 
3797.838704  	-0.006018 
3799.767520  	-0.007143 
3801.696336  	-0.004499 
3803.625152  	-0.005456 
3805.553968  	-0.006963 
3807.482784  	-0.004983 
3809.411600  	-0.005421 
3811.340416  	-0.006472 
3813.269232  	-0.007693 
3815.198048  	-0.006876 
3817.126864  	-0.005721 
3819.055680  	-0.007687 
3820.984496  	-0.005293 
3822.913312  	-0.004548 
3824.842128  	-0.006453 
3826.770944  	-0.006078 
3828.699760  	-0.006571 
3830.628576  	-0.006828 
3832.557392  	-0.006561 
3834.486208  	-0.007324 
3836.415024  	-0.007598 
3838.343840  	-0.006068 
3840.272656  	-0.004999 
3842.201472  	-0.005339 
3844.130288  	-0.005152 
3846.059104  	-0.006003 
3847.987920  	-0.007221 
3849.916736  	-0.008297 
3851.845552  	-0.008215 
3853.774368  	-0.002840 
3855.703184  	-0.003138 
3857.632000  	-0.005035 
3859.560816  	-0.006460 
3861.489632  	-0.006629 
3863.418448  	-0.005940 
3865.347264  	-0.004716 
3867.276080  	-0.006628 
3869.204896  	-0.005864 
3871.133712  	-0.004212 
3873.062528  	-0.005620 
3874.991344  	-0.004978 
3876.920160  	-0.006833 
3878.848976  	-0.007218 
3880.777792  	-0.005054 
3882.706608  	-0.005756 
3884.635424  	-0.006149 
3886.564240  	-0.005025 
3888.493056  	-0.007207 
3890.421872  	-0.007006 
3892.350688  	-0.005433 
3894.279504  	-0.006376 
3896.208320  	-0.007588 
3898.137136  	-0.007317 
3900.065952  	-0.005881 
3901.994768  	-0.005543 
3903.923584  	-0.004790 
3905.852400  	-0.004427 
3907.781216  	-0.005843 
3909.710032  	-0.006712 
3911.638848  	-0.006914 
3913.567664  	-0.007179 
3915.496480  	-0.006860 
3917.425296  	-0.005526 
3919.354112  	-0.005499 
3921.282928  	-0.005779 
3923.211744  	-0.005843 
3925.140560  	-0.005480 
3927.069376  	-0.006290 
3928.998192  	-0.006460 
3930.927008  	-0.005932 
3932.855824  	-0.005414 
3934.784640  	-0.005859 
3936.713456  	-0.006187 
3938.642272  	-0.006387 
3940.571088  	-0.006645 
3942.499904  	-0.005634 
3944.428720  	-0.005705 
3946.357536  	-0.006556 
3948.286352  	-0.005972 
3950.215168  	-0.006020 
3952.143984  	-0.006597 
3954.072800  	-0.006764 
3956.001616  	-0.006403 
3957.930432  	-0.005930 
3959.859248  	-0.005857 
3961.788064  	-0.005777 
3963.716880  	-0.005936 
3965.645696  	-0.006430 
3967.574512  	-0.006741 
3969.503328  	-0.006806 
3971.432144  	-0.006566 
3973.360960  	-0.006002 
3975.289776  	-0.005501 
3977.218592  	-0.005823 
3979.147408  	-0.006258 
3981.076224  	-0.006377 
3983.005040  	-0.006419 
3984.933856  	-0.006458 
3986.862672  	-0.006434 
3988.791488  	-0.006489 
3990.720304  	-0.006145 
3992.649120  	-0.006105 
3994.577936  	-0.006156 
3996.506752  	-0.006312 
3998.435568  	-0.006531 
4000.364384  	-0.006454 