##TITLE=No Description
##DATA TYPE=INFRARED SPECTRUM
##XUNITS=1/CM
##YUNITS=Abs
399.264912  	0.470522 
401.193728  	0.435715 
403.122544  	0.430983 
405.051360  	0.425409 
406.980176  	0.421789 
408.908992  	0.424022 
410.837808  	0.431546 
412.766624  	0.422428 
414.695440  	0.419183 
416.624256  	0.420799 
418.553072  	0.423433 
420.481888  	0.413842 
422.410704  	0.415804 
424.339520  	0.417537 
426.268336  	0.409287 
428.197152  	0.400328 
430.125968  	0.398805 
432.054784  	0.401367 
433.983600  	0.403845 
435.912416  	0.399979 
437.841232  	0.395805 
439.770048  	0.393846 
441.698864  	0.394695 
443.627680  	0.391444 
445.556496  	0.390707 
447.485312  	0.389775 
449.414128  	0.392234 
451.342944  	0.394120 
453.271760  	0.393204 
455.200576  	0.387379 
457.129392  	0.389782 
459.058208  	0.391746 
460.987024  	0.394436 
462.915840  	0.393748 
464.844656  	0.393610 
466.773472  	0.392651 
468.702288  	0.391542 
470.631104  	0.390402 
472.559920  	0.394256 
474.488736  	0.393022 
476.417552  	0.390435 
478.346368  	0.387320 
480.275184  	0.389297 
482.204000  	0.392411 
484.132816  	0.390866 
486.061632  	0.389625 
487.990448  	0.390965 
489.919264  	0.389009 
491.848080  	0.387441 
493.776896  	0.385889 
495.705712  	0.384486 
497.634528  	0.381384 
499.563344  	0.380685 
501.492160  	0.376845 
503.420976  	0.379664 
505.349792  	0.380476 
507.278608  	0.378601 
509.207424  	0.378180 
511.136240  	0.381964 
513.065056  	0.381953 
514.993872  	0.382838 
516.922688  	0.382179 
518.851504  	0.384459 
520.780320  	0.384082 
522.709136  	0.382105 
524.637952  	0.381461 
526.566768  	0.382134 
528.495584  	0.380238 
530.424400  	0.377297 
532.353216  	0.372628 
534.282032  	0.367882 
536.210848  	0.363509 
538.139664  	0.359669 
540.068480  	0.356014 
541.997296  	0.352918 
543.926112  	0.349187 
545.854928  	0.347536 
547.783744  	0.346176 
549.712560  	0.345085 
551.641376  	0.341740 
553.570192  	0.339510 
555.499008  	0.335441 
557.427824  	0.332970 
559.356640  	0.330378 
561.285456  	0.329280 
563.214272  	0.327097 
565.143088  	0.323664 
567.071904  	0.319255 
569.000720  	0.317471 
570.929536  	0.315484 
572.858352  	0.312653 
574.787168  	0.310184 
576.715984  	0.307769 
578.644800  	0.304486 
580.573616  	0.301447 
582.502432  	0.297424 
584.431248  	0.293712 
586.360064  	0.290921 
588.288880  	0.288710 
590.217696  	0.286226 
592.146512  	0.285085 
594.075328  	0.283710 
596.004144  	0.282215 
597.932960  	0.280294 
599.861776  	0.279519 
601.790592  	0.278123 
603.719408  	0.277330 
605.648224  	0.277073 
607.577040  	0.276986 
609.505856  	0.275594 
611.434672  	0.274054 
613.363488  	0.272335 
615.292304  	0.271909 
617.221120  	0.271002 
619.149936  	0.269657 
621.078752  	0.268699 
623.007568  	0.268423 
624.936384  	0.267211 
626.865200  	0.266176 
628.794016  	0.265826 
630.722832  	0.265601 
632.651648  	0.265276 
634.580464  	0.266069 
636.509280  	0.266882 
638.438096  	0.267172 
640.366912  	0.266302 
642.295728  	0.264705 
644.224544  	0.263519 
646.153360  	0.261893 
648.082176  	0.258791 
650.010992  	0.255566 
651.939808  	0.252751 
653.868624  	0.250208 
655.797440  	0.246918 
657.726256  	0.244462 
659.655072  	0.241513 
661.583888  	0.237764 
663.512704  	0.233700 
665.441520  	0.230078 
667.370336  	0.227963 
669.299152  	0.226036 
671.227968  	0.221337 
673.156784  	0.218023 
675.085600  	0.215684 
677.014416  	0.213440 
678.943232  	0.211747 
680.872048  	0.210970 
682.800864  	0.209773 
684.729680  	0.208550 
686.658496  	0.207211 
688.587312  	0.206105 
690.516128  	0.205475 
692.444944  	0.205335 
694.373760  	0.204061 
696.302576  	0.202755 
698.231392  	0.201071 
700.160208  	0.199252 
702.089024  	0.197129 
704.017840  	0.195396 
705.946656  	0.193872 
707.875472  	0.191978 
709.804288  	0.190011 
711.733104  	0.188876 
713.661920  	0.187656 
715.590736  	0.186808 
717.519552  	0.186866 
719.448368  	0.187392 
721.377184  	0.188330 
723.306000  	0.189652 
725.234816  	0.190342 
727.163632  	0.189619 
729.092448  	0.187377 
731.021264  	0.184488 
732.950080  	0.181753 
734.878896  	0.179257 
736.807712  	0.176526 
738.736528  	0.174368 
740.665344  	0.172832 
742.594160  	0.171847 
744.522976  	0.170705 
746.451792  	0.169462 
748.380608  	0.168225 
750.309424  	0.167457 
752.238240  	0.166684 
754.167056  	0.166176 
756.095872  	0.165762 
758.024688  	0.164886 
759.953504  	0.164742 
761.882320  	0.166033 
763.811136  	0.166946 
765.739952  	0.165742 
767.668768  	0.163261 
769.597584  	0.161163 
771.526400  	0.161009 
773.455216  	0.163236 
775.384032  	0.167073 
777.312848  	0.172161 
779.241664  	0.175818 
781.170480  	0.175121 
783.099296  	0.171094 
785.028112  	0.166150 
786.956928  	0.161018 
788.885744  	0.157275 
790.814560  	0.154653 
792.743376  	0.153122 
794.672192  	0.152653 
796.601008  	0.151956 
798.529824  	0.149287 
800.458640  	0.145732 
802.387456  	0.142979 
804.316272  	0.141313 
806.245088  	0.140847 
808.173904  	0.140595 
810.102720  	0.140484 
812.031536  	0.140526 
813.960352  	0.140887 
815.889168  	0.141856 
817.817984  	0.142778 
819.746800  	0.144205 
821.675616  	0.145406 
823.604432  	0.146095 
825.533248  	0.146787 
827.462064  	0.147708 
829.390880  	0.147613 
831.319696  	0.147385 
833.248512  	0.146722 
835.177328  	0.145420 
837.106144  	0.143066 
839.034960  	0.140528 
840.963776  	0.137185 
842.892592  	0.133647 
844.821408  	0.130184 
846.750224  	0.127054 
848.679040  	0.124810 
850.607856  	0.122877 
852.536672  	0.121621 
854.465488  	0.120875 
856.394304  	0.120213 
858.323120  	0.119108 
860.251936  	0.117840 
862.180752  	0.117026 
864.109568  	0.115526 
866.038384  	0.113775 
867.967200  	0.112028 
869.896016  	0.110665 
871.824832  	0.110060 
873.753648  	0.110438 
875.682464  	0.111248 
877.611280  	0.113063 
879.540096  	0.115529 
881.468912  	0.117828 
883.397728  	0.120070 
885.326544  	0.122049 
887.255360  	0.123266 
889.184176  	0.123344 
891.112992  	0.122791 
893.041808  	0.121398 
894.970624  	0.119373 
896.899440  	0.116023 
898.828256  	0.111966 
900.757072  	0.108086 
902.685888  	0.104804 
904.614704  	0.102922 
906.543520  	0.102790 
908.472336  	0.104577 
910.401152  	0.107094 
912.329968  	0.110047 
914.258784  	0.112762 
916.187600  	0.115466 
918.116416  	0.117717 
920.045232  	0.119283 
921.974048  	0.120335 
923.902864  	0.121262 
925.831680  	0.122098 
927.760496  	0.122993 
929.689312  	0.124227 
931.618128  	0.125574 
933.546944  	0.126563 
935.475760  	0.126976 
937.404576  	0.126851 
939.333392  	0.126438 
941.262208  	0.126334 
943.191024  	0.127538 
945.119840  	0.130710 
947.048656  	0.136086 
948.977472  	0.143681 
950.906288  	0.153295 
952.835104  	0.164808 
954.763920  	0.177363 
956.692736  	0.189186 
958.621552  	0.199453 
960.550368  	0.206283 
962.479184  	0.209541 
964.408000  	0.208666 
966.336816  	0.204032 
968.265632  	0.195673 
970.194448  	0.184830 
972.123264  	0.172198 
974.052080  	0.159022 
975.980896  	0.146308 
977.909712  	0.134477 
979.838528  	0.124162 
981.767344  	0.115874 
983.696160  	0.109973 
985.624976  	0.106583 
987.553792  	0.106035 
989.482608  	0.108125 
991.411424  	0.112844 
993.340240  	0.119502 
995.269056  	0.126874 
997.197872  	0.134645 
999.126688  	0.142109 
1001.055504  	0.149602 
1002.984320  	0.156689 
1004.913136  	0.163897 
1006.841952  	0.170476 
1008.770768  	0.176379 
1010.699584  	0.180955 
1012.628400  	0.184130 
1014.557216  	0.186293 
1016.486032  	0.187395 
1018.414848  	0.187595 
1020.343664  	0.187563 
1022.272480  	0.187640 
1024.201296  	0.187531 
1026.130112  	0.187291 
1028.058928  	0.188150 
1029.987744  	0.190191 
1031.916560  	0.192746 
1033.845376  	0.195961 
1035.774192  	0.200600 
1037.703008  	0.206600 
1039.631824  	0.215178 
1041.560640  	0.225606 
1043.489456  	0.237982 
1045.418272  	0.250303 
1047.347088  	0.261403 
1049.275904  	0.268059 
1051.204720  	0.269734 
1053.133536  	0.267851 
1055.062352  	0.264048 
1056.991168  	0.259462 
1058.919984  	0.255953 
1060.848800  	0.253125 
1062.777616  	0.250782 
1064.706432  	0.247493 
1066.635248  	0.243698 
1068.564064  	0.239171 
1070.492880  	0.233787 
1072.421696  	0.228504 
1074.350512  	0.225263 
1076.279328  	0.224250 
1078.208144  	0.226374 
1080.136960  	0.229175 
1082.065776  	0.230511 
1083.994592  	0.228499 
1085.923408  	0.223947 
1087.852224  	0.216525 
1089.781040  	0.207698 
1091.709856  	0.197842 
1093.638672  	0.187579 
1095.567488  	0.176508 
1097.496304  	0.165334 
1099.425120  	0.154428 
1101.353936  	0.144146 
1103.282752  	0.134556 
1105.211568  	0.125582 
1107.140384  	0.117483 
1109.069200  	0.109904 
1110.998016  	0.103039 
1112.926832  	0.097044 
1114.855648  	0.091468 
1116.784464  	0.085776 
1118.713280  	0.080368 
1120.642096  	0.075292 
1122.570912  	0.070587 
1124.499728  	0.066345 
1126.428544  	0.062546 
1128.357360  	0.059278 
1130.286176  	0.056416 
1132.214992  	0.054205 
1134.143808  	0.052762 
1136.072624  	0.051434 
1138.001440  	0.049898 
1139.930256  	0.048544 
1141.859072  	0.047420 
1143.787888  	0.046192 
1145.716704  	0.045015 
1147.645520  	0.044130 
1149.574336  	0.043965 
1151.503152  	0.043653 
1153.431968  	0.043513 
1155.360784  	0.043840 
1157.289600  	0.044984 
1159.218416  	0.046198 
1161.147232  	0.047563 
1163.076048  	0.049312 
1165.004864  	0.051099 
1166.933680  	0.052859 
1168.862496  	0.054657 
1170.791312  	0.056655 
1172.720128  	0.059192 
1174.648944  	0.061993 
1176.577760  	0.064533 
1178.506576  	0.067419 
1180.435392  	0.070586 
1182.364208  	0.073589 
1184.293024  	0.076857 
1186.221840  	0.080816 
1188.150656  	0.085389 
1190.079472  	0.090373 
1192.008288  	0.096132 
1193.937104  	0.102706 
1195.865920  	0.109776 
1197.794736  	0.117385 
1199.723552  	0.125302 
1201.652368  	0.133160 
1203.581184  	0.140433 
1205.510000  	0.147091 
1207.438816  	0.152669 
1209.367632  	0.157383 
1211.296448  	0.160772 
1213.225264  	0.163124 
1215.154080  	0.163926 
1217.082896  	0.163900 
1219.011712  	0.163054 
1220.940528  	0.161903 
1222.869344  	0.159905 
1224.798160  	0.157535 
1226.726976  	0.154589 
1228.655792  	0.151147 
1230.584608  	0.147355 
1232.513424  	0.143204 
1234.442240  	0.138674 
1236.371056  	0.133915 
1238.299872  	0.128634 
1240.228688  	0.122925 
1242.157504  	0.117382 
1244.086320  	0.112258 
1246.015136  	0.106790 
1247.943952  	0.101451 
1249.872768  	0.096151 
1251.801584  	0.091127 
1253.730400  	0.086396 
1255.659216  	0.081832 
1257.588032  	0.077360 
1259.516848  	0.073435 
1261.445664  	0.069736 
1263.374480  	0.066271 
1265.303296  	0.063201 
1267.232112  	0.060953 
1269.160928  	0.059547 
1271.089744  	0.058453 
1273.018560  	0.057905 
1274.947376  	0.058173 
1276.876192  	0.058971 
1278.805008  	0.059592 
1280.733824  	0.059535 
1282.662640  	0.058317 
1284.591456  	0.056782 
1286.520272  	0.055605 
1288.449088  	0.054893 
1290.377904  	0.054892 
1292.306720  	0.055621 
1294.235536  	0.056202 
1296.164352  	0.055849 
1298.093168  	0.054350 
1300.021984  	0.052392 
1301.950800  	0.050070 
1303.879616  	0.047497 
1305.808432  	0.044854 
1307.737248  	0.042070 
1309.666064  	0.039487 
1311.594880  	0.037552 
1313.523696  	0.036139 
1315.452512  	0.035104 
1317.381328  	0.034847 
1319.310144  	0.035182 
1321.238960  	0.035658 
1323.167776  	0.036297 
1325.096592  	0.036849 
1327.025408  	0.037055 
1328.954224  	0.037027 
1330.883040  	0.036478 
1332.811856  	0.035327 
1334.740672  	0.034148 
1336.669488  	0.033729 
1338.598304  	0.034094 
1340.527120  	0.034169 
1342.455936  	0.033188 
1344.384752  	0.032878 
1346.313568  	0.033385 
1348.242384  	0.034076 
1350.171200  	0.034883 
1352.100016  	0.036186 
1354.028832  	0.037954 
1355.957648  	0.039759 
1357.886464  	0.041389 
1359.815280  	0.043039 
1361.744096  	0.045397 
1363.672912  	0.047782 
1365.601728  	0.048647 
1367.530544  	0.049764 
1369.459360  	0.051204 
1371.388176  	0.051720 
1373.316992  	0.051663 
1375.245808  	0.050851 
1377.174624  	0.048645 
1379.103440  	0.046547 
1381.032256  	0.044346 
1382.961072  	0.042142 
1384.889888  	0.040271 
1386.818704  	0.039598 
1388.747520  	0.038548 
1390.676336  	0.036492 
1392.605152  	0.034711 
1394.533968  	0.034195 
1396.462784  	0.034762 
1398.391600  	0.034710 
1400.320416  	0.034752 
1402.249232  	0.034497 
1404.178048  	0.035258 
1406.106864  	0.036414 
1408.035680  	0.037272 
1409.964496  	0.038512 
1411.893312  	0.040204 
1413.822128  	0.042015 
1415.750944  	0.043751 
1417.679760  	0.044940 
1419.608576  	0.046733 
1421.537392  	0.046533 
1423.466208  	0.045765 
1425.395024  	0.044557 
1427.323840  	0.042359 
1429.252656  	0.040675 
1431.181472  	0.039334 
1433.110288  	0.038271 
1435.039104  	0.038034 
1436.967920  	0.039775 
1438.896736  	0.040803 
1440.825552  	0.041186 
1442.754368  	0.041693 
1444.683184  	0.041674 
1446.612000  	0.041925 
1448.540816  	0.042539 
1450.469632  	0.042647 
1452.398448  	0.042670 
1454.327264  	0.042492 
1456.256080  	0.043396 
1458.184896  	0.045916 
1460.113712  	0.044250 
1462.042528  	0.042655 
1463.971344  	0.042337 
1465.900160  	0.043522 
1467.828976  	0.043702 
1469.757792  	0.044242 
1471.686608  	0.047157 
1473.615424  	0.054230 
1475.544240  	0.057726 
1477.473056  	0.061415 
1479.401872  	0.063402 
1481.330688  	0.066112 
1483.259504  	0.067945 
1485.188320  	0.068507 
1487.117136  	0.069043 
1489.045952  	0.070145 
1490.974768  	0.069451 
1492.903584  	0.065906 
1494.832400  	0.061785 
1496.761216  	0.058424 
1498.690032  	0.054253 
1500.618848  	0.049809 
1502.547664  	0.045489 
1504.476480  	0.042133 
1506.405296  	0.041560 
1508.334112  	0.042230 
1510.262928  	0.038992 
1512.191744  	0.036962 
1514.120560  	0.036098 
1516.049376  	0.037120 
1517.978192  	0.039083 
1519.907008  	0.039638 
1521.835824  	0.044138 
1523.764640  	0.046364 
1525.693456  	0.048301 
1527.622272  	0.050487 
1529.551088  	0.049964 
1531.479904  	0.048033 
1533.408720  	0.047086 
1535.337536  	0.045156 
1537.266352  	0.041969 
1539.195168  	0.040538 
1541.123984  	0.040445 
1543.052800  	0.038759 
1544.981616  	0.037261 
1546.910432  	0.035297 
1548.839248  	0.034472 
1550.768064  	0.035368 
1552.696880  	0.034757 
1554.625696  	0.035669 
1556.554512  	0.035814 
1558.483328  	0.038979 
1560.412144  	0.044275 
1562.340960  	0.043190 
1564.269776  	0.044520 
1566.198592  	0.048137 
1568.127408  	0.050272 
1570.056224  	0.056871 
1571.985040  	0.060076 
1573.913856  	0.060880 
1575.842672  	0.064215 
1577.771488  	0.068267 
1579.700304  	0.066532 
1581.629120  	0.065681 
1583.557936  	0.065277 
1585.486752  	0.066267 
1587.415568  	0.068060 
1589.344384  	0.071392 
1591.273200  	0.075696 
1593.202016  	0.081093 
1595.130832  	0.086705 
1597.059648  	0.092314 
1598.988464  	0.096671 
1600.917280  	0.100886 
1602.846096  	0.103967 
1604.774912  	0.105899 
1606.703728  	0.105791 
1608.632544  	0.105811 
1610.561360  	0.104636 
1612.490176  	0.103123 
1614.418992  	0.100514 
1616.347808  	0.102168 
1618.276624  	0.106054 
1620.205440  	0.106054 
1622.134256  	0.107408 
1624.063072  	0.114588 
1625.991888  	0.117792 
1627.920704  	0.123057 
1629.849520  	0.129043 
1631.778336  	0.132099 
1633.707152  	0.133556 
1635.635968  	0.142619 
1637.564784  	0.151410 
1639.493600  	0.150535 
1641.422416  	0.150800 
1643.351232  	0.150132 
1645.280048  	0.148367 
1647.208864  	0.154109 
1649.137680  	0.153101 
1651.066496  	0.145232 
1652.995312  	0.147701 
1654.924128  	0.154366 
1656.852944  	0.146664 
1658.781760  	0.142112 
1660.710576  	0.138560 
1662.639392  	0.137318 
1664.568208  	0.134897 
1666.497024  	0.129145 
1668.425840  	0.125094 
1670.354656  	0.123920 
1672.283472  	0.120095 
1674.212288  	0.116026 
1676.141104  	0.115637 
1678.069920  	0.112144 
1679.998736  	0.110160 
1681.927552  	0.107460 
1683.856368  	0.107890 
1685.785184  	0.111270 
1687.714000  	0.107228 
1689.642816  	0.106386 
1691.571632  	0.104972 
1693.500448  	0.101723 
1695.429264  	0.101433 
1697.358080  	0.103219 
1699.286896  	0.099633 
1701.215712  	0.102127 
1703.144528  	0.098000 
1705.073344  	0.095134 
1707.002160  	0.093263 
1708.930976  	0.089078 
1710.859792  	0.084766 
1712.788608  	0.079993 
1714.717424  	0.074708 
1716.646240  	0.068957 
1718.575056  	0.061579 
1720.503872  	0.053787 
1722.432688  	0.046947 
1724.361504  	0.040279 
1726.290320  	0.034312 
1728.219136  	0.029344 
1730.147952  	0.025322 
1732.076768  	0.021705 
1734.005584  	0.019132 
1735.934400  	0.015899 
1737.863216  	0.013707 
1739.792032  	0.011689 
1741.720848  	0.010261 
1743.649664  	0.009455 
1745.578480  	0.008322 
1747.507296  	0.007379 
1749.436112  	0.007345 
1751.364928  	0.006484 
1753.293744  	0.005245 
1755.222560  	0.004428 
1757.151376  	0.004612 
1759.080192  	0.003907 
1761.009008  	0.003445 
1762.937824  	0.002946 
1764.866640  	0.002557 
1766.795456  	0.002415 
1768.724272  	0.002584 
1770.653088  	0.001934 
1772.581904  	0.002345 
1774.510720  	0.002284 
1776.439536  	0.001803 
1778.368352  	0.001018 
1780.297168  	0.000849 
1782.225984  	0.000405 
1784.154800  	0.000331 
1786.083616  	-0.000001 
1788.012432  	-0.000186 
1789.941248  	0.000039 
1791.870064  	0.000643 
1793.798880  	0.000159 
1795.727696  	-0.000120 
1797.656512  	-0.000714 
1799.585328  	-0.000768 
1801.514144  	-0.000509 
1803.442960  	-0.000647 
1805.371776  	-0.000954 
1807.300592  	-0.001108 
1809.229408  	-0.001289 
1811.158224  	-0.001263 
1813.087040  	-0.001776 
1815.015856  	-0.002125 
1816.944672  	-0.001854 
1818.873488  	-0.001504 
1820.802304  	-0.001468 
1822.731120  	-0.001252 
1824.659936  	-0.001462 
1826.588752  	-0.001510 
1828.517568  	-0.001940 
1830.446384  	-0.001808 
1832.375200  	-0.001994 
1834.304016  	-0.002072 
1836.232832  	-0.002076 
1838.161648  	-0.001769 
1840.090464  	-0.002080 
1842.019280  	-0.002457 
1843.948096  	-0.002370 
1845.876912  	-0.001944 
1847.805728  	-0.002359 
1849.734544  	-0.002537 
1851.663360  	-0.002620 
1853.592176  	-0.002329 
1855.520992  	-0.002236 
1857.449808  	-0.002272 
1859.378624  	-0.002663 
1861.307440  	-0.002531 
1863.236256  	-0.002793 
1865.165072  	-0.002862 
1867.093888  	-0.002704 
1869.022704  	-0.001921 
1870.951520  	-0.002109 
1872.880336  	-0.002306 
1874.809152  	-0.002711 
1876.737968  	-0.002952 
1878.666784  	-0.003161 
1880.595600  	-0.003285 
1882.524416  	-0.003082 
1884.453232  	-0.002647 
1886.382048  	-0.003019 
1888.310864  	-0.002759 
1890.239680  	-0.002629 
1892.168496  	-0.002617 
1894.097312  	-0.002777 
1896.026128  	-0.002954 
1897.954944  	-0.003255 
1899.883760  	-0.003121 
1901.812576  	-0.003030 
1903.741392  	-0.002982 
1905.670208  	-0.003447 
1907.599024  	-0.003724 
1909.527840  	-0.003562 
1911.456656  	-0.002929 
1913.385472  	-0.002603 
1915.314288  	-0.002261 
1917.243104  	-0.002508 
1919.171920  	-0.002214 
1921.100736  	-0.002393 
1923.029552  	-0.002502 
1924.958368  	-0.003419 
1926.887184  	-0.003737 
1928.816000  	-0.004011 
1930.744816  	-0.003478 
1932.673632  	-0.003380 
1934.602448  	-0.003055 
1936.531264  	-0.002754 
1938.460080  	-0.002339 
1940.388896  	-0.002543 
1942.317712  	-0.002485 
1944.246528  	-0.003763 
1946.175344  	-0.003412 
1948.104160  	-0.002845 
1950.032976  	-0.002665 
1951.961792  	-0.003481 
1953.890608  	-0.003501 
1955.819424  	-0.003773 
1957.748240  	-0.003533 
1959.677056  	-0.003306 
1961.605872  	-0.002831 
1963.534688  	-0.002802 
1965.463504  	-0.002059 
1967.392320  	-0.002550 
1969.321136  	-0.003211 
1971.249952  	-0.004195 
1973.178768  	-0.003468 
1975.107584  	-0.002137 
1977.036400  	-0.000845 
1978.965216  	-0.000637 
1980.894032  	-0.001337 
1982.822848  	-0.002480 
1984.751664  	-0.001362 
1986.680480  	-0.001324 
1988.609296  	-0.001057 
1990.538112  	-0.000765 
1992.466928  	-0.000589 
1994.395744  	-0.002182 
1996.324560  	-0.002681 
1998.253376  	-0.002929 
2000.182192  	-0.002832 
2002.111008  	-0.002712 
2004.039824  	-0.002444 
2005.968640  	-0.002916 
2007.897456  	-0.002166 
2009.826272  	-0.002002 
2011.755088  	-0.000918 
2013.683904  	-0.000952 
2015.612720  	-0.001528 
2017.541536  	-0.002036 
2019.470352  	-0.001578 
2021.399168  	-0.002432 
2023.327984  	-0.002077 
2025.256800  	-0.002126 
2027.185616  	-0.001522 
2029.114432  	-0.000443 
2031.043248  	-0.000334 
2032.972064  	-0.000963 
2034.900880  	0.000009 
2036.829696  	-0.000236 
2038.758512  	-0.000336 
2040.687328  	-0.001485 
2042.616144  	-0.001966 
2044.544960  	-0.001776 
2046.473776  	-0.001091 
2048.402592  	-0.000648 
2050.331408  	-0.000010 
2052.260224  	-0.000613 
2054.189040  	-0.001260 
2056.117856  	-0.001284 
2058.046672  	-0.000590 
2059.975488  	-0.000384 
2061.904304  	0.000011 
2063.833120  	-0.000164 
2065.761936  	-0.000475 
2067.690752  	-0.000578 
2069.619568  	-0.000432 
2071.548384  	-0.000728 
2073.477200  	-0.000584 
2075.406016  	-0.000516 
2077.334832  	-0.000219 
2079.263648  	0.000147 
2081.192464  	0.000067 
2083.121280  	-0.000478 
2085.050096  	-0.000784 
2086.978912  	-0.000661 
2088.907728  	-0.000129 
2090.836544  	-0.000252 
2092.765360  	-0.000413 
2094.694176  	-0.000348 
2096.622992  	0.000164 
2098.551808  	0.000010 
2100.480624  	-0.000015 
2102.409440  	0.000184 
2104.338256  	0.000372 
2106.267072  	0.000030 
2108.195888  	-0.000060 
2110.124704  	-0.000092 
2112.053520  	0.000211 
2113.982336  	0.000671 
2115.911152  	0.000792 
2117.839968  	0.000114 
2119.768784  	-0.000461 
2121.697600  	-0.000333 
2123.626416  	-0.000063 
2125.555232  	-0.000325 
2127.484048  	-0.000626 
2129.412864  	-0.000568 
2131.341680  	0.000113 
2133.270496  	0.000596 
2135.199312  	0.000923 
2137.128128  	0.000783 
2139.056944  	0.001316 
2140.985760  	0.001750 
2142.914576  	0.001829 
2144.843392  	0.000739 
2146.772208  	0.000168 
2148.701024  	0.000310 
2150.629840  	0.000885 
2152.558656  	0.001268 
2154.487472  	0.002122 
2156.416288  	0.002615 
2158.345104  	0.004865 
2160.273920  	0.006819 
2162.202736  	0.006005 
2164.131552  	0.004129 
2166.060368  	0.004800 
2167.989184  	0.005159 
2169.918000  	0.004176 
2171.846816  	0.003714 
2173.775632  	0.003898 
2175.704448  	0.003035 
2177.633264  	0.003027 
2179.562080  	0.002236 
2181.490896  	0.003444 
2183.419712  	0.004407 
2185.348528  	0.003466 
2187.277344  	0.002411 
2189.206160  	0.002958 
2191.134976  	0.003022 
2193.063792  	0.002436 
2194.992608  	0.001889 
2196.921424  	0.002338 
2198.850240  	0.001676 
2200.779056  	0.000763 
2202.707872  	0.000673 
2204.636688  	0.001492 
2206.565504  	0.001769 
2208.494320  	0.001059 
2210.423136  	0.000456 
2212.351952  	0.000801 
2214.280768  	0.000472 
2216.209584  	0.000673 
2218.138400  	-0.000029 
2220.067216  	-0.000393 
2221.996032  	-0.000408 
2223.924848  	0.000205 
2225.853664  	0.001003 
2227.782480  	0.001297 
2229.711296  	0.000262 
2231.640112  	-0.000284 
2233.568928  	-0.000351 
2235.497744  	-0.000445 
2237.426560  	-0.000625 
2239.355376  	-0.000514 
2241.284192  	-0.000603 
2243.213008  	-0.000483 
2245.141824  	-0.000772 
2247.070640  	-0.001044 
2248.999456  	-0.001035 
2250.928272  	-0.000703 
2252.857088  	-0.000397 
2254.785904  	-0.000086 
2256.714720  	0.000073 
2258.643536  	0.000826 
2260.572352  	0.001071 
2262.501168  	0.000970 
2264.429984  	0.000948 
2266.358800  	0.001013 
2268.287616  	0.000628 
2270.216432  	0.000396 
2272.145248  	0.000613 
2274.074064  	0.001103 
2276.002880  	0.001081 
2277.931696  	0.001046 
2279.860512  	0.000685 
2281.789328  	0.000367 
2283.718144  	0.000181 
2285.646960  	0.000742 
2287.575776  	0.001152 
2289.504592  	0.001034 
2291.433408  	0.001030 
2293.362224  	0.001322 
2295.291040  	0.001309 
2297.219856  	0.001313 
2299.148672  	0.001431 
2301.077488  	0.001665 
2303.006304  	0.001968 
2304.935120  	0.002256 
2306.863936  	0.002405 
2308.792752  	0.002771 
2310.721568  	0.002955 
2312.650384  	0.003029 
2314.579200  	0.002988 
2316.508016  	0.003240 
2318.436832  	0.003706 
2320.365648  	0.004282 
2322.294464  	0.004729 
2324.223280  	0.004681 
2326.152096  	0.003679 
2328.080912  	0.003161 
2330.009728  	0.003525 
2331.938544  	0.003693 
2333.867360  	0.003367 
2335.796176  	0.003097 
2337.724992  	0.002815 
2339.653808  	0.002799 
2341.582624  	0.003078 
2343.511440  	0.003573 
2345.440256  	0.003646 
2347.369072  	0.003179 
2349.297888  	0.002762 
2351.226704  	0.002853 
2353.155520  	0.002977 
2355.084336  	0.003490 
2357.013152  	0.004032 
2358.941968  	0.004392 
2360.870784  	0.004067 
2362.799600  	0.004434 
2364.728416  	0.005092 
2366.657232  	0.004657 
2368.586048  	0.003974 
2370.514864  	0.003703 
2372.443680  	0.003144 
2374.372496  	0.002975 
2376.301312  	0.002683 
2378.230128  	0.002261 
2380.158944  	0.001661 
2382.087760  	0.001141 
2384.016576  	0.000408 
2385.945392  	-0.000089 
2387.874208  	-0.000247 
2389.803024  	-0.000398 
2391.731840  	-0.000506 
2393.660656  	-0.000501 
2395.589472  	-0.000458 
2397.518288  	-0.000388 
2399.447104  	-0.000546 
2401.375920  	-0.000723 
2403.304736  	-0.000776 
2405.233552  	-0.000652 
2407.162368  	-0.000612 
2409.091184  	-0.000563 
2411.020000  	-0.000501 
2412.948816  	-0.000550 
2414.877632  	-0.000612 
2416.806448  	-0.000289 
2418.735264  	-0.000187 
2420.664080  	-0.000130 
2422.592896  	-0.000183 
2424.521712  	-0.000304 
2426.450528  	-0.000313 
2428.379344  	-0.000218 
2430.308160  	-0.000088 
2432.236976  	-0.000032 
2434.165792  	0.000159 
2436.094608  	0.000360 
2438.023424  	0.000487 
2439.952240  	0.000583 
2441.881056  	0.000466 
2443.809872  	0.000519 
2445.738688  	0.000628 
2447.667504  	0.000724 
2449.596320  	0.000838 
2451.525136  	0.000849 
2453.453952  	0.000751 
2455.382768  	0.000817 
2457.311584  	0.000731 
2459.240400  	0.000732 
2461.169216  	0.000982 
2463.098032  	0.001259 
2465.026848  	0.001173 
2466.955664  	0.000978 
2468.884480  	0.000789 
2470.813296  	0.000771 
2472.742112  	0.001021 
2474.670928  	0.001348 
2476.599744  	0.001695 
2478.528560  	0.001985 
2480.457376  	0.002068 
2482.386192  	0.002124 
2484.315008  	0.002074 
2486.243824  	0.002161 
2488.172640  	0.002330 
2490.101456  	0.002563 
2492.030272  	0.002716 
2493.959088  	0.002485 
2495.887904  	0.002411 
2497.816720  	0.002882 
2499.745536  	0.003085 
2501.674352  	0.003006 
2503.603168  	0.002901 
2505.531984  	0.003006 
2507.460800  	0.003042 
2509.389616  	0.002944 
2511.318432  	0.002928 
2513.247248  	0.003098 
2515.176064  	0.003198 
2517.104880  	0.003203 
2519.033696  	0.003166 
2520.962512  	0.003537 
2522.891328  	0.003685 
2524.820144  	0.003841 
2526.748960  	0.003923 
2528.677776  	0.003976 
2530.606592  	0.003991 
2532.535408  	0.003977 
2534.464224  	0.003904 
2536.393040  	0.003970 
2538.321856  	0.004345 
2540.250672  	0.004608 
2542.179488  	0.004624 
2544.108304  	0.004716 
2546.037120  	0.004825 
2547.965936  	0.004904 
2549.894752  	0.004937 
2551.823568  	0.005048 
2553.752384  	0.005187 
2555.681200  	0.005131 
2557.610016  	0.005098 
2559.538832  	0.005277 
2561.467648  	0.005496 
2563.396464  	0.005671 
2565.325280  	0.005708 
2567.254096  	0.005706 
2569.182912  	0.005665 
2571.111728  	0.005692 
2573.040544  	0.005695 
2574.969360  	0.005896 
2576.898176  	0.006170 
2578.826992  	0.006158 
2580.755808  	0.006096 
2582.684624  	0.006248 
2584.613440  	0.006438 
2586.542256  	0.006681 
2588.471072  	0.006726 
2590.399888  	0.006754 
2592.328704  	0.006856 
2594.257520  	0.006921 
2596.186336  	0.006909 
2598.115152  	0.006918 
2600.043968  	0.007088 
2601.972784  	0.007193 
2603.901600  	0.007176 
2605.830416  	0.007162 
2607.759232  	0.007223 
2609.688048  	0.007302 
2611.616864  	0.007413 
2613.545680  	0.007546 
2615.474496  	0.007689 
2617.403312  	0.007883 
2619.332128  	0.007998 
2621.260944  	0.007970 
2623.189760  	0.007975 
2625.118576  	0.008218 
2627.047392  	0.008284 
2628.976208  	0.008342 
2630.905024  	0.008486 
2632.833840  	0.008545 
2634.762656  	0.008552 
2636.691472  	0.008683 
2638.620288  	0.008915 
2640.549104  	0.009130 
2642.477920  	0.009337 
2644.406736  	0.009315 
2646.335552  	0.009243 
2648.264368  	0.009435 
2650.193184  	0.009600 
2652.122000  	0.009760 
2654.050816  	0.009874 
2655.979632  	0.009974 
2657.908448  	0.010110 
2659.837264  	0.010214 
2661.766080  	0.010266 
2663.694896  	0.010333 
2665.623712  	0.010499 
2667.552528  	0.010676 
2669.481344  	0.010653 
2671.410160  	0.010639 
2673.338976  	0.010867 
2675.267792  	0.011062 
2677.196608  	0.011297 
2679.125424  	0.011475 
2681.054240  	0.011499 
2682.983056  	0.011600 
2684.911872  	0.011810 
2686.840688  	0.011891 
2688.769504  	0.011968 
2690.698320  	0.012146 
2692.627136  	0.012211 
2694.555952  	0.012213 
2696.484768  	0.012345 
2698.413584  	0.012550 
2700.342400  	0.012565 
2702.271216  	0.012769 
2704.200032  	0.013005 
2706.128848  	0.013128 
2708.057664  	0.013243 
2709.986480  	0.013294 
2711.915296  	0.013344 
2713.844112  	0.013460 
2715.772928  	0.013530 
2717.701744  	0.013655 
2719.630560  	0.013965 
2721.559376  	0.014159 
2723.488192  	0.014202 
2725.417008  	0.014355 
2727.345824  	0.014460 
2729.274640  	0.014644 
2731.203456  	0.014763 
2733.132272  	0.014847 
2735.061088  	0.015018 
2736.989904  	0.015071 
2738.918720  	0.015176 
2740.847536  	0.015301 
2742.776352  	0.015408 
2744.705168  	0.015522 
2746.633984  	0.015650 
2748.562800  	0.015802 
2750.491616  	0.015925 
2752.420432  	0.016025 
2754.349248  	0.015943 
2756.278064  	0.015857 
2758.206880  	0.015906 
2760.135696  	0.015960 
2762.064512  	0.015990 
2763.993328  	0.016038 
2765.922144  	0.016095 
2767.850960  	0.016180 
2769.779776  	0.016189 
2771.708592  	0.016251 
2773.637408  	0.016236 
2775.566224  	0.016191 
2777.495040  	0.016146 
2779.423856  	0.016176 
2781.352672  	0.016304 
2783.281488  	0.016396 
2785.210304  	0.016316 
2787.139120  	0.016289 
2789.067936  	0.016357 
2790.996752  	0.016389 
2792.925568  	0.016372 
2794.854384  	0.016310 
2796.783200  	0.016274 
2798.712016  	0.016228 
2800.640832  	0.016357 
2802.569648  	0.016600 
2804.498464  	0.016619 
2806.427280  	0.016697 
2808.356096  	0.016825 
2810.284912  	0.016781 
2812.213728  	0.016737 
2814.142544  	0.016845 
2816.071360  	0.016842 
2818.000176  	0.016934 
2819.928992  	0.017087 
2821.857808  	0.017103 
2823.786624  	0.017029 
2825.715440  	0.017065 
2827.644256  	0.017101 
2829.573072  	0.017101 
2831.501888  	0.017177 
2833.430704  	0.017210 
2835.359520  	0.017179 
2837.288336  	0.017087 
2839.217152  	0.016974 
2841.145968  	0.016865 
2843.074784  	0.016882 
2845.003600  	0.016964 
2846.932416  	0.016918 
2848.861232  	0.017111 
2850.790048  	0.017252 
2852.718864  	0.017278 
2854.647680  	0.017299 
2856.576496  	0.017322 
2858.505312  	0.017376 
2860.434128  	0.017532 
2862.362944  	0.017667 
2864.291760  	0.017783 
2866.220576  	0.017866 
2868.149392  	0.017889 
2870.078208  	0.017984 
2872.007024  	0.018291 
2873.935840  	0.018653 
2875.864656  	0.018973 
2877.793472  	0.019179 
2879.722288  	0.019496 
2881.651104  	0.019809 
2883.579920  	0.020103 
2885.508736  	0.020406 
2887.437552  	0.020620 
2889.366368  	0.020630 
2891.295184  	0.020695 
2893.224000  	0.020834 
2895.152816  	0.020837 
2897.081632  	0.020807 
2899.010448  	0.020576 
2900.939264  	0.020215 
2902.868080  	0.020359 
2904.796896  	0.020704 
2906.725712  	0.020966 
2908.654528  	0.021204 
2910.583344  	0.021444 
2912.512160  	0.021677 
2914.440976  	0.022041 
2916.369792  	0.022622 
2918.298608  	0.023088 
2920.227424  	0.023479 
2922.156240  	0.023926 
2924.085056  	0.024312 
2926.013872  	0.024653 
2927.942688  	0.025223 
2929.871504  	0.025863 
2931.800320  	0.026445 
2933.729136  	0.027049 
2935.657952  	0.027734 
2937.586768  	0.028199 
2939.515584  	0.028550 
2941.444400  	0.028745 
2943.373216  	0.028874 
2945.302032  	0.029181 
2947.230848  	0.029395 
2949.159664  	0.029377 
2951.088480  	0.029297 
2953.017296  	0.029214 
2954.946112  	0.028971 
2956.874928  	0.028654 
2958.803744  	0.028502 
2960.732560  	0.028431 
2962.661376  	0.028282 
2964.590192  	0.028013 
2966.519008  	0.027808 
2968.447824  	0.027559 
2970.376640  	0.027246 
2972.305456  	0.026988 
2974.234272  	0.027100 
2976.163088  	0.027133 
2978.091904  	0.026976 
2980.020720  	0.026880 
2981.949536  	0.026871 
2983.878352  	0.026803 
2985.807168  	0.026612 
2987.735984  	0.026601 
2989.664800  	0.026775 
2991.593616  	0.027283 
2993.522432  	0.027717 
2995.451248  	0.028028 
2997.380064  	0.028286 
2999.308880  	0.028693 
3001.237696  	0.029195 
3003.166512  	0.029693 
3005.095328  	0.030112 
3007.024144  	0.030486 
3008.952960  	0.030999 
3010.881776  	0.031605 
3012.810592  	0.032265 
3014.739408  	0.032721 
3016.668224  	0.033041 
3018.597040  	0.033576 
3020.525856  	0.034095 
3022.454672  	0.034491 
3024.383488  	0.034937 
3026.312304  	0.035457 
3028.241120  	0.035911 
3030.169936  	0.036414 
3032.098752  	0.036995 
3034.027568  	0.037286 
3035.956384  	0.037806 
3037.885200  	0.038352 
3039.814016  	0.038865 
3041.742832  	0.039306 
3043.671648  	0.039829 
3045.600464  	0.040297 
3047.529280  	0.040661 
3049.458096  	0.041216 
3051.386912  	0.041627 
3053.315728  	0.042116 
3055.244544  	0.042750 
3057.173360  	0.043348 
3059.102176  	0.043943 
3061.030992  	0.044494 
3062.959808  	0.044979 
3064.888624  	0.045677 
3066.817440  	0.046360 
3068.746256  	0.047021 
3070.675072  	0.047656 
3072.603888  	0.048250 
3074.532704  	0.048796 
3076.461520  	0.049344 
3078.390336  	0.049917 
3080.319152  	0.050639 
3082.247968  	0.051227 
3084.176784  	0.051698 
3086.105600  	0.052272 
3088.034416  	0.052948 
3089.963232  	0.053461 
3091.892048  	0.053972 
3093.820864  	0.054408 
3095.749680  	0.055214 
3097.678496  	0.056007 
3099.607312  	0.056669 
3101.536128  	0.057551 
3103.464944  	0.058071 
3105.393760  	0.058378 
3107.322576  	0.058867 
3109.251392  	0.059383 
3111.180208  	0.059881 
3113.109024  	0.060203 
3115.037840  	0.060586 
3116.966656  	0.061247 
3118.895472  	0.061819 
3120.824288  	0.062264 
3122.753104  	0.062892 
3124.681920  	0.063243 
3126.610736  	0.063478 
3128.539552  	0.063880 
3130.468368  	0.064146 
3132.397184  	0.064532 
3134.326000  	0.065025 
3136.254816  	0.065389 
3138.183632  	0.065734 
3140.112448  	0.066048 
3142.041264  	0.066469 
3143.970080  	0.066883 
3145.898896  	0.067344 
3147.827712  	0.067805 
3149.756528  	0.068369 
3151.685344  	0.068716 
3153.614160  	0.069054 
3155.542976  	0.069416 
3157.471792  	0.069862 
3159.400608  	0.070392 
3161.329424  	0.070698 
3163.258240  	0.071003 
3165.187056  	0.071328 
3167.115872  	0.071586 
3169.044688  	0.072092 
3170.973504  	0.072478 
3172.902320  	0.072472 
3174.831136  	0.072613 
3176.759952  	0.072798 
3178.688768  	0.073212 
3180.617584  	0.073471 
3182.546400  	0.073506 
3184.475216  	0.073507 
3186.404032  	0.073618 
3188.332848  	0.073676 
3190.261664  	0.073664 
3192.190480  	0.073720 
3194.119296  	0.073724 
3196.048112  	0.073422 
3197.976928  	0.073486 
3199.905744  	0.073544 
3201.834560  	0.073447 
3203.763376  	0.073348 
3205.692192  	0.073159 
3207.621008  	0.072981 
3209.549824  	0.073232 
3211.478640  	0.073258 
3213.407456  	0.072939 
3215.336272  	0.072915 
3217.265088  	0.072649 
3219.193904  	0.072567 
3221.122720  	0.072568 
3223.051536  	0.072239 
3224.980352  	0.072011 
3226.909168  	0.071943 
3228.837984  	0.071846 
3230.766800  	0.071706 
3232.695616  	0.071799 
3234.624432  	0.071808 
3236.553248  	0.071846 
3238.482064  	0.071827 
3240.410880  	0.071683 
3242.339696  	0.071565 
3244.268512  	0.071508 
3246.197328  	0.071434 
3248.126144  	0.071329 
3250.054960  	0.071680 
3251.983776  	0.071747 
3253.912592  	0.071832 
3255.841408  	0.072122 
3257.770224  	0.072203 
3259.699040  	0.072345 
3261.627856  	0.072376 
3263.556672  	0.072168 
3265.485488  	0.072476 
3267.414304  	0.072667 
3269.343120  	0.072839 
3271.271936  	0.072955 
3273.200752  	0.072956 
3275.129568  	0.073035 
3277.058384  	0.073034 
3278.987200  	0.073087 
3280.916016  	0.073161 
3282.844832  	0.073165 
3284.773648  	0.073426 
3286.702464  	0.073483 
3288.631280  	0.073556 
3290.560096  	0.073589 
3292.488912  	0.073669 
3294.417728  	0.073870 
3296.346544  	0.073932 
3298.275360  	0.073942 
3300.204176  	0.074100 
3302.132992  	0.074161 
3304.061808  	0.074430 
3305.990624  	0.074527 
3307.919440  	0.074709 
3309.848256  	0.074997 
3311.777072  	0.075103 
3313.705888  	0.075236 
3315.634704  	0.075370 
3317.563520  	0.075479 
3319.492336  	0.075607 
3321.421152  	0.075636 
3323.349968  	0.075672 
3325.278784  	0.075660 
3327.207600  	0.075751 
3329.136416  	0.075651 
3331.065232  	0.075633 
3332.994048  	0.075615 
3334.922864  	0.075739 
3336.851680  	0.075947 
3338.780496  	0.075620 
3340.709312  	0.075039 
3342.638128  	0.075170 
3344.566944  	0.075248 
3346.495760  	0.074825 
3348.424576  	0.074545 
3350.353392  	0.074530 
3352.282208  	0.074221 
3354.211024  	0.073904 
3356.139840  	0.073653 
3358.068656  	0.073306 
3359.997472  	0.072856 
3361.926288  	0.072741 
3363.855104  	0.072452 
3365.783920  	0.072177 
3367.712736  	0.072022 
3369.641552  	0.071672 
3371.570368  	0.071262 
3373.499184  	0.071097 
3375.428000  	0.070957 
3377.356816  	0.070793 
3379.285632  	0.070475 
3381.214448  	0.069994 
3383.143264  	0.069697 
3385.072080  	0.069720 
3387.000896  	0.069301 
3388.929712  	0.068732 
3390.858528  	0.068338 
3392.787344  	0.068470 
3394.716160  	0.068165 
3396.644976  	0.067749 
3398.573792  	0.067429 
3400.502608  	0.066803 
3402.431424  	0.066308 
3404.360240  	0.065926 
3406.289056  	0.065646 
3408.217872  	0.065268 
3410.146688  	0.064779 
3412.075504  	0.064319 
3414.004320  	0.064211 
3415.933136  	0.063994 
3417.861952  	0.063390 
3419.790768  	0.063096 
3421.719584  	0.062997 
3423.648400  	0.062247 
3425.577216  	0.061448 
3427.506032  	0.061058 
3429.434848  	0.060617 
3431.363664  	0.060445 
3433.292480  	0.060128 
3435.221296  	0.059683 
3437.150112  	0.059015 
3439.078928  	0.058445 
3441.007744  	0.057925 
3442.936560  	0.057581 
3444.865376  	0.056729 
3446.794192  	0.056752 
3448.723008  	0.057045 
3450.651824  	0.056056 
3452.580640  	0.055362 
3454.509456  	0.054756 
3456.438272  	0.054234 
3458.367088  	0.053620 
3460.295904  	0.052950 
3462.224720  	0.052528 
3464.153536  	0.051736 
3466.082352  	0.050907 
3468.011168  	0.050575 
3469.939984  	0.050148 
3471.868800  	0.049348 
3473.797616  	0.048497 
3475.726432  	0.048040 
3477.655248  	0.047274 
3479.584064  	0.046382 
3481.512880  	0.046354 
3483.441696  	0.046201 
3485.370512  	0.044946 
3487.299328  	0.044262 
3489.228144  	0.043756 
3491.156960  	0.042933 
3493.085776  	0.042265 
3495.014592  	0.041771 
3496.943408  	0.041277 
3498.872224  	0.040410 
3500.801040  	0.039833 
3502.729856  	0.040021 
3504.658672  	0.039825 
3506.587488  	0.038362 
3508.516304  	0.037694 
3510.445120  	0.037935 
3512.373936  	0.037248 
3514.302752  	0.036608 
3516.231568  	0.036002 
3518.160384  	0.035336 
3520.089200  	0.034541 
3522.018016  	0.033861 
3523.946832  	0.033832 
3525.875648  	0.033113 
3527.804464  	0.032664 
3529.733280  	0.032752 
3531.662096  	0.032215 
3533.590912  	0.031052 
3535.519728  	0.030489 
3537.448544  	0.030333 
3539.377360  	0.029654 
3541.306176  	0.028853 
3543.234992  	0.028392 
3545.163808  	0.028514 
3547.092624  	0.028401 
3549.021440  	0.027090 
3550.950256  	0.026050 
3552.879072  	0.026211 
3554.807888  	0.025372 
3556.736704  	0.024274 
3558.665520  	0.023924 
3560.594336  	0.023757 
3562.523152  	0.022986 
3564.451968  	0.022292 
3566.380784  	0.023424 
3568.309600  	0.024414 
3570.238416  	0.022415 
3572.167232  	0.020673 
3574.096048  	0.019991 
3576.024864  	0.019531 
3577.953680  	0.018885 
3579.882496  	0.018307 
3581.811312  	0.017870 
3583.740128  	0.017215 
3585.668944  	0.016531 
3587.597760  	0.017343 
3589.526576  	0.016642 
3591.455392  	0.014632 
3593.384208  	0.014326 
3595.313024  	0.014459 
3597.241840  	0.013631 
3599.170656  	0.012565 
3601.099472  	0.012177 
3603.028288  	0.011282 
3604.957104  	0.010100 
3606.885920  	0.009962 
3608.814736  	0.010302 
3610.743552  	0.008910 
3612.672368  	0.008273 
3614.601184  	0.007940 
3616.530000  	0.006934 
3618.458816  	0.007063 
3620.387632  	0.006838 
3622.316448  	0.005414 
3624.245264  	0.004140 
3626.174080  	0.003026 
3628.102896  	0.002984 
3630.031712  	0.004253 
3631.960528  	0.002585 
3633.889344  	0.001677 
3635.818160  	0.001013 
3637.746976  	-0.000011 
3639.675792  	-0.000860 
3641.604608  	-0.001399 
3643.533424  	-0.002032 
3645.462240  	-0.002735 
3647.391056  	-0.001957 
3649.319872  	-0.001261 
3651.248688  	-0.002032 
3653.177504  	-0.003950 
3655.106320  	-0.004843 
3657.035136  	-0.004925 
3658.963952  	-0.005729 
3660.892768  	-0.006426 
3662.821584  	-0.007155 
3664.750400  	-0.007511 
3666.679216  	-0.007539 
3668.608032  	-0.007276 
3670.536848  	-0.006437 
3672.465664  	-0.007754 
3674.394480  	-0.008283 
3676.323296  	-0.007477 
3678.252112  	-0.008490 
3680.180928  	-0.009238 
3682.109744  	-0.009512 
3684.038560  	-0.009541 
3685.967376  	-0.009852 
3687.896192  	-0.008983 
3689.825008  	-0.008178 
3691.753824  	-0.008941 
3693.682640  	-0.009631 
3695.611456  	-0.009991 
3697.540272  	-0.010073 
3699.469088  	-0.010612 
3701.397904  	-0.010317 
3703.326720  	-0.009632 
3705.255536  	-0.009603 
3707.184352  	-0.009534 
3709.113168  	-0.009033 
3711.041984  	-0.008384 
3712.970800  	-0.008813 
3714.899616  	-0.009937 
3716.828432  	-0.010317 
3718.757248  	-0.009942 
3720.686064  	-0.009532 
3722.614880  	-0.009424 
3724.543696  	-0.009415 
3726.472512  	-0.008995 
3728.401328  	-0.009499 
3730.330144  	-0.010411 
3732.258960  	-0.010388 
3734.187776  	-0.009121 
3736.116592  	-0.008014 
3738.045408  	-0.008729 
3739.974224  	-0.009442 
3741.903040  	-0.009852 
3743.831856  	-0.009697 
3745.760672  	-0.009359 
3747.689488  	-0.010199 
3749.618304  	-0.009280 
3751.547120  	-0.008294 
3753.475936  	-0.009234 
3755.404752  	-0.009755 
3757.333568  	-0.009807 
3759.262384  	-0.009780 
3761.191200  	-0.010103 
3763.120016  	-0.010498 
3765.048832  	-0.010189 
3766.977648  	-0.010150 
3768.906464  	-0.010090 
3770.835280  	-0.009973 
3772.764096  	-0.010183 
3774.692912  	-0.010310 
3776.621728  	-0.010449 
3778.550544  	-0.010232 
3780.479360  	-0.010222 
3782.408176  	-0.010547 
3784.336992  	-0.010296 
3786.265808  	-0.010165 
3788.194624  	-0.010315 
3790.123440  	-0.010389 
3792.052256  	-0.010495 
3793.981072  	-0.010662 
3795.909888  	-0.010056 
3797.838704  	-0.009448 
3799.767520  	-0.009581 
3801.696336  	-0.009083 
3803.625152  	-0.009771 
3805.553968  	-0.010126 
3807.482784  	-0.009857 
3809.411600  	-0.010152 
3811.340416  	-0.010514 
3813.269232  	-0.010580 
3815.198048  	-0.010024 
3817.126864  	-0.009723 
3819.055680  	-0.009899 
3820.984496  	-0.009275 
3822.913312  	-0.009614 
3824.842128  	-0.010161 
3826.770944  	-0.010216 
3828.699760  	-0.010397 
3830.628576  	-0.010353 
3832.557392  	-0.010375 
3834.486208  	-0.010528 
3836.415024  	-0.010252 
3838.343840  	-0.009730 
3840.272656  	-0.009369 
3842.201472  	-0.009521 
3844.130288  	-0.009681 
3846.059104  	-0.010172 
3847.987920  	-0.010548 
3849.916736  	-0.010544 
3851.845552  	-0.009714 
3853.774368  	-0.007908 
3855.703184  	-0.008460 
3857.632000  	-0.009318 
3859.560816  	-0.009913 
3861.489632  	-0.010030 
3863.418448  	-0.009858 
3865.347264  	-0.009327 
3867.276080  	-0.009804 
3869.204896  	-0.009390 
3871.133712  	-0.009025 
3873.062528  	-0.009655 
3874.991344  	-0.009735 
3876.920160  	-0.010311 
3878.848976  	-0.010257 
3880.777792  	-0.009542 
3882.706608  	-0.009630 
3884.635424  	-0.009517 
3886.564240  	-0.009615 
3888.493056  	-0.010571 
3890.421872  	-0.010455 
3892.350688  	-0.010067 
3894.279504  	-0.010305 
3896.208320  	-0.010605 
3898.137136  	-0.010279 
3900.065952  	-0.009272 
3901.994768  	-0.008975 
3903.923584  	-0.009111 
3905.852400  	-0.009517 
3907.781216  	-0.010267 
3909.710032  	-0.010771 
3911.638848  	-0.011039 
3913.567664  	-0.010883 
3915.496480  	-0.010358 
3917.425296  	-0.009802 
3919.354112  	-0.009805 
3921.282928  	-0.009919 
3923.211744  	-0.009896 
3925.140560  	-0.009901 
3927.069376  	-0.010369 
3928.998192  	-0.010357 
3930.927008  	-0.009967 
3932.855824  	-0.009860 
3934.784640  	-0.010254 
3936.713456  	-0.010342 
3938.642272  	-0.010579 
3940.571088  	-0.010602 
3942.499904  	-0.009966 
3944.428720  	-0.010105 
3946.357536  	-0.010472 
3948.286352  	-0.010213 
3950.215168  	-0.010321 
3952.143984  	-0.010606 
3954.072800  	-0.010744 
3956.001616  	-0.010766 
3957.930432  	-0.010598 
3959.859248  	-0.010369 
3961.788064  	-0.010229 
3963.716880  	-0.010419 
3965.645696  	-0.010674 
3967.574512  	-0.010705 
3969.503328  	-0.010788 
3971.432144  	-0.010680 
3973.360960  	-0.010357 
3975.289776  	-0.010065 
3977.218592  	-0.010201 
3979.147408  	-0.010478 
3981.076224  	-0.010546 
3983.005040  	-0.010655 
3984.933856  	-0.010545 
3986.862672  	-0.010428 
3988.791488  	-0.010441 
3990.720304  	-0.010337 
3992.649120  	-0.010494 
3994.577936  	-0.010588 
3996.506752  	-0.010564 
3998.435568  	-0.010574 
4000.364384  	-0.010445 