##TITLE=No Description
##DATA TYPE=INFRARED SPECTRUM
##XUNITS=1/CM
##YUNITS=Abs
399.264912  	0.429915 
401.193728  	0.418392 
403.122544  	0.413442 
405.051360  	0.414801 
406.980176  	0.420389 
408.908992  	0.418332 
410.837808  	0.417548 
412.766624  	0.406247 
414.695440  	0.406401 
416.624256  	0.399792 
418.553072  	0.410745 
420.481888  	0.415602 
422.410704  	0.416751 
424.339520  	0.409929 
426.268336  	0.404934 
428.197152  	0.404056 
430.125968  	0.401917 
432.054784  	0.396594 
433.983600  	0.394667 
435.912416  	0.391384 
437.841232  	0.390832 
439.770048  	0.386713 
441.698864  	0.384859 
443.627680  	0.382475 
445.556496  	0.385728 
447.485312  	0.383893 
449.414128  	0.387770 
451.342944  	0.387948 
453.271760  	0.388674 
455.200576  	0.386360 
457.129392  	0.395957 
459.058208  	0.394041 
460.987024  	0.385274 
462.915840  	0.383862 
464.844656  	0.385125 
466.773472  	0.382607 
468.702288  	0.382510 
470.631104  	0.382224 
472.559920  	0.386562 
474.488736  	0.386651 
476.417552  	0.385753 
478.346368  	0.382129 
480.275184  	0.380722 
482.204000  	0.378138 
484.132816  	0.380962 
486.061632  	0.382585 
487.990448  	0.380452 
489.919264  	0.379910 
491.848080  	0.380169 
493.776896  	0.379008 
495.705712  	0.375627 
497.634528  	0.372781 
499.563344  	0.372022 
501.492160  	0.369591 
503.420976  	0.370084 
505.349792  	0.369046 
507.278608  	0.372553 
509.207424  	0.372924 
511.136240  	0.372089 
513.065056  	0.371786 
514.993872  	0.375007 
516.922688  	0.376939 
518.851504  	0.380470 
520.780320  	0.378823 
522.709136  	0.377504 
524.637952  	0.374458 
526.566768  	0.372858 
528.495584  	0.371880 
530.424400  	0.369709 
532.353216  	0.365844 
534.282032  	0.362268 
536.210848  	0.357105 
538.139664  	0.352890 
540.068480  	0.350335 
541.997296  	0.347268 
543.926112  	0.343115 
545.854928  	0.341319 
547.783744  	0.339083 
549.712560  	0.337219 
551.641376  	0.334350 
553.570192  	0.333266 
555.499008  	0.330981 
557.427824  	0.328874 
559.356640  	0.325224 
561.285456  	0.322826 
563.214272  	0.319598 
565.143088  	0.316560 
567.071904  	0.313752 
569.000720  	0.311399 
570.929536  	0.308739 
572.858352  	0.306683 
574.787168  	0.304252 
576.715984  	0.302194 
578.644800  	0.298840 
580.573616  	0.295039 
582.502432  	0.290356 
584.431248  	0.286484 
586.360064  	0.282881 
588.288880  	0.280958 
590.217696  	0.279220 
592.146512  	0.278696 
594.075328  	0.276821 
596.004144  	0.274975 
597.932960  	0.273037 
599.861776  	0.271846 
601.790592  	0.271325 
603.719408  	0.271455 
605.648224  	0.271153 
607.577040  	0.270412 
609.505856  	0.268975 
611.434672  	0.267978 
613.363488  	0.266631 
615.292304  	0.265389 
617.221120  	0.264010 
619.149936  	0.263505 
621.078752  	0.261975 
623.007568  	0.260943 
624.936384  	0.260813 
626.865200  	0.260969 
628.794016  	0.260327 
630.722832  	0.260071 
632.651648  	0.260025 
634.580464  	0.260161 
636.509280  	0.261117 
638.438096  	0.261388 
640.366912  	0.260778 
642.295728  	0.259778 
644.224544  	0.257556 
646.153360  	0.255289 
648.082176  	0.252520 
650.010992  	0.250105 
651.939808  	0.246480 
653.868624  	0.243501 
655.797440  	0.240437 
657.726256  	0.238403 
659.655072  	0.235639 
661.583888  	0.231898 
663.512704  	0.228156 
665.441520  	0.224257 
667.370336  	0.221891 
669.299152  	0.220756 
671.227968  	0.215506 
673.156784  	0.211690 
675.085600  	0.209764 
677.014416  	0.207929 
678.943232  	0.206331 
680.872048  	0.205562 
682.800864  	0.204529 
684.729680  	0.203320 
686.658496  	0.201664 
688.587312  	0.200682 
690.516128  	0.200202 
692.444944  	0.200226 
694.373760  	0.198756 
696.302576  	0.197585 
698.231392  	0.196237 
700.160208  	0.194789 
702.089024  	0.193009 
704.017840  	0.191130 
705.946656  	0.189109 
707.875472  	0.187099 
709.804288  	0.185448 
711.733104  	0.184265 
713.661920  	0.183014 
715.590736  	0.181870 
717.519552  	0.181948 
719.448368  	0.182847 
721.377184  	0.184165 
723.306000  	0.185358 
725.234816  	0.186112 
727.163632  	0.185511 
729.092448  	0.183173 
731.021264  	0.180558 
732.950080  	0.177556 
734.878896  	0.174675 
736.807712  	0.172220 
738.736528  	0.170343 
740.665344  	0.168868 
742.594160  	0.167820 
744.522976  	0.166511 
746.451792  	0.165838 
748.380608  	0.164875 
750.309424  	0.163969 
752.238240  	0.163185 
754.167056  	0.162907 
756.095872  	0.162421 
758.024688  	0.161711 
759.953504  	0.161502 
761.882320  	0.162600 
763.811136  	0.163741 
765.739952  	0.162434 
767.668768  	0.160073 
769.597584  	0.158300 
771.526400  	0.158308 
773.455216  	0.160457 
775.384032  	0.164382 
777.312848  	0.169965 
779.241664  	0.173796 
781.170480  	0.173464 
783.099296  	0.169152 
785.028112  	0.163982 
786.956928  	0.159259 
788.885744  	0.155480 
790.814560  	0.152586 
792.743376  	0.151441 
794.672192  	0.151112 
796.601008  	0.150296 
798.529824  	0.147641 
800.458640  	0.143946 
802.387456  	0.141252 
804.316272  	0.140221 
806.245088  	0.139842 
808.173904  	0.139367 
810.102720  	0.139531 
812.031536  	0.139755 
813.960352  	0.139995 
815.889168  	0.140959 
817.817984  	0.142371 
819.746800  	0.143698 
821.675616  	0.144914 
823.604432  	0.146188 
825.533248  	0.146907 
827.462064  	0.147596 
829.390880  	0.147735 
831.319696  	0.147701 
833.248512  	0.146972 
835.177328  	0.145494 
837.106144  	0.142989 
839.034960  	0.140450 
840.963776  	0.137402 
842.892592  	0.134155 
844.821408  	0.130939 
846.750224  	0.128042 
848.679040  	0.125635 
850.607856  	0.123766 
852.536672  	0.122631 
854.465488  	0.121838 
856.394304  	0.121188 
858.323120  	0.120045 
860.251936  	0.118901 
862.180752  	0.117899 
864.109568  	0.116614 
866.038384  	0.115151 
867.967200  	0.113495 
869.896016  	0.112577 
871.824832  	0.112052 
873.753648  	0.112531 
875.682464  	0.113470 
877.611280  	0.115416 
879.540096  	0.117835 
881.468912  	0.120217 
883.397728  	0.122475 
885.326544  	0.124518 
887.255360  	0.125899 
889.184176  	0.126182 
891.112992  	0.125621 
893.041808  	0.124326 
894.970624  	0.122079 
896.899440  	0.118561 
898.828256  	0.114393 
900.757072  	0.110436 
902.685888  	0.107163 
904.614704  	0.105473 
906.543520  	0.105590 
908.472336  	0.107574 
910.401152  	0.110207 
912.329968  	0.113258 
914.258784  	0.116022 
916.187600  	0.118851 
918.116416  	0.121146 
920.045232  	0.122754 
921.974048  	0.124038 
923.902864  	0.125051 
925.831680  	0.125783 
927.760496  	0.126724 
929.689312  	0.128029 
931.618128  	0.129632 
933.546944  	0.130727 
935.475760  	0.130894 
937.404576  	0.130594 
939.333392  	0.130175 
941.262208  	0.130108 
943.191024  	0.131371 
945.119840  	0.134590 
947.048656  	0.140117 
948.977472  	0.148095 
950.906288  	0.158050 
952.835104  	0.169743 
954.763920  	0.182373 
956.692736  	0.194169 
958.621552  	0.204290 
960.550368  	0.210736 
962.479184  	0.213637 
964.408000  	0.212035 
966.336816  	0.206652 
968.265632  	0.197831 
970.194448  	0.186903 
972.123264  	0.174305 
974.052080  	0.161095 
975.980896  	0.148452 
977.909712  	0.136783 
979.838528  	0.126613 
981.767344  	0.118296 
983.696160  	0.112573 
985.624976  	0.109374 
987.553792  	0.109087 
989.482608  	0.111553 
991.411424  	0.116473 
993.340240  	0.123417 
995.269056  	0.131078 
997.197872  	0.139037 
999.126688  	0.146739 
1001.055504  	0.154695 
1002.984320  	0.162071 
1004.913136  	0.169417 
1006.841952  	0.176057 
1008.770768  	0.181672 
1010.699584  	0.185967 
1012.628400  	0.189137 
1014.557216  	0.191079 
1016.486032  	0.191948 
1018.414848  	0.192013 
1020.343664  	0.191716 
1022.272480  	0.191722 
1024.201296  	0.191660 
1026.130112  	0.191247 
1028.058928  	0.191850 
1029.987744  	0.193838 
1031.916560  	0.196636 
1033.845376  	0.200038 
1035.774192  	0.204667 
1037.703008  	0.210465 
1039.631824  	0.218827 
1041.560640  	0.229171 
1043.489456  	0.241407 
1045.418272  	0.253251 
1047.347088  	0.263157 
1049.275904  	0.268710 
1051.204720  	0.269696 
1053.133536  	0.267018 
1055.062352  	0.262663 
1056.991168  	0.257647 
1058.919984  	0.253745 
1060.848800  	0.250658 
1062.777616  	0.247727 
1064.706432  	0.243919 
1066.635248  	0.239829 
1068.564064  	0.235263 
1070.492880  	0.230044 
1072.421696  	0.224714 
1074.350512  	0.221610 
1076.279328  	0.220903 
1078.208144  	0.222931 
1080.136960  	0.225432 
1082.065776  	0.226756 
1083.994592  	0.224548 
1085.923408  	0.219584 
1087.852224  	0.212037 
1089.781040  	0.203826 
1091.709856  	0.194396 
1093.638672  	0.184300 
1095.567488  	0.173552 
1097.496304  	0.162777 
1099.425120  	0.152167 
1101.353936  	0.142269 
1103.282752  	0.132892 
1105.211568  	0.124309 
1107.140384  	0.116338 
1109.069200  	0.108910 
1110.998016  	0.102348 
1112.926832  	0.096421 
1114.855648  	0.091057 
1116.784464  	0.085632 
1118.713280  	0.080136 
1120.642096  	0.075067 
1122.570912  	0.070550 
1124.499728  	0.066413 
1126.428544  	0.062699 
1128.357360  	0.059531 
1130.286176  	0.056722 
1132.214992  	0.054422 
1134.143808  	0.052532 
1136.072624  	0.051167 
1138.001440  	0.049839 
1139.930256  	0.048667 
1141.859072  	0.047612 
1143.787888  	0.046504 
1145.716704  	0.045398 
1147.645520  	0.044467 
1149.574336  	0.044184 
1151.503152  	0.044076 
1153.431968  	0.044112 
1155.360784  	0.044421 
1157.289600  	0.045459 
1159.218416  	0.046756 
1161.147232  	0.048125 
1163.076048  	0.049847 
1165.004864  	0.051621 
1166.933680  	0.053441 
1168.862496  	0.055273 
1170.791312  	0.057518 
1172.720128  	0.060154 
1174.648944  	0.063089 
1176.577760  	0.065802 
1178.506576  	0.068750 
1180.435392  	0.071808 
1182.364208  	0.074920 
1184.293024  	0.078348 
1186.221840  	0.082261 
1188.150656  	0.086753 
1190.079472  	0.091939 
1192.008288  	0.097893 
1193.937104  	0.104452 
1195.865920  	0.111527 
1197.794736  	0.119063 
1199.723552  	0.127117 
1201.652368  	0.135089 
1203.581184  	0.142118 
1205.510000  	0.148498 
1207.438816  	0.153716 
1209.367632  	0.157976 
1211.296448  	0.160954 
1213.225264  	0.163090 
1215.154080  	0.163830 
1217.082896  	0.163512 
1219.011712  	0.162245 
1220.940528  	0.160866 
1222.869344  	0.158736 
1224.798160  	0.156300 
1226.726976  	0.153227 
1228.655792  	0.149680 
1230.584608  	0.145847 
1232.513424  	0.141827 
1234.442240  	0.137418 
1236.371056  	0.132793 
1238.299872  	0.127710 
1240.228688  	0.122180 
1242.157504  	0.116645 
1244.086320  	0.111458 
1246.015136  	0.106229 
1247.943952  	0.101209 
1249.872768  	0.096096 
1251.801584  	0.091177 
1253.730400  	0.086507 
1255.659216  	0.082055 
1257.588032  	0.077697 
1259.516848  	0.073765 
1261.445664  	0.070018 
1263.374480  	0.066651 
1265.303296  	0.063746 
1267.232112  	0.061491 
1269.160928  	0.059960 
1271.089744  	0.059090 
1273.018560  	0.058818 
1274.947376  	0.059174 
1276.876192  	0.059857 
1278.805008  	0.060213 
1280.733824  	0.060069 
1282.662640  	0.059083 
1284.591456  	0.057581 
1286.520272  	0.056249 
1288.449088  	0.055565 
1290.377904  	0.055583 
1292.306720  	0.056241 
1294.235536  	0.056800 
1296.164352  	0.056494 
1298.093168  	0.055013 
1300.021984  	0.052802 
1301.950800  	0.050459 
1303.879616  	0.047916 
1305.808432  	0.045308 
1307.737248  	0.042709 
1309.666064  	0.040135 
1311.594880  	0.038197 
1313.523696  	0.037018 
1315.452512  	0.036112 
1317.381328  	0.035812 
1319.310144  	0.036161 
1321.238960  	0.036538 
1323.167776  	0.037145 
1325.096592  	0.037806 
1327.025408  	0.038065 
1328.954224  	0.037943 
1330.883040  	0.037431 
1332.811856  	0.036396 
1334.740672  	0.035322 
1336.669488  	0.034841 
1338.598304  	0.035213 
1340.527120  	0.035487 
1342.455936  	0.034371 
1344.384752  	0.033895 
1346.313568  	0.034167 
1348.242384  	0.034903 
1350.171200  	0.036044 
1352.100016  	0.037419 
1354.028832  	0.038995 
1355.957648  	0.040850 
1357.886464  	0.042361 
1359.815280  	0.043875 
1361.744096  	0.046302 
1363.672912  	0.049120 
1365.601728  	0.049742 
1367.530544  	0.050787 
1369.459360  	0.052420 
1371.388176  	0.052386 
1373.316992  	0.052215 
1375.245808  	0.052117 
1377.174624  	0.049726 
1379.103440  	0.047361 
1381.032256  	0.045032 
1382.961072  	0.043072 
1384.889888  	0.041316 
1386.818704  	0.040954 
1388.747520  	0.040045 
1390.676336  	0.037635 
1392.605152  	0.035435 
1394.533968  	0.035249 
1396.462784  	0.036067 
1398.391600  	0.035986 
1400.320416  	0.036544 
1402.249232  	0.035756 
1404.178048  	0.036429 
1406.106864  	0.037885 
1408.035680  	0.038584 
1409.964496  	0.039780 
1411.893312  	0.041739 
1413.822128  	0.043227 
1415.750944  	0.044636 
1417.679760  	0.046137 
1419.608576  	0.049130 
1421.537392  	0.048326 
1423.466208  	0.047047 
1425.395024  	0.046019 
1427.323840  	0.043260 
1429.252656  	0.041621 
1431.181472  	0.040715 
1433.110288  	0.039477 
1435.039104  	0.038833 
1436.967920  	0.042113 
1438.896736  	0.043109 
1440.825552  	0.042675 
1442.754368  	0.043007 
1444.683184  	0.042835 
1446.612000  	0.042926 
1448.540816  	0.044007 
1450.469632  	0.043904 
1452.398448  	0.043712 
1454.327264  	0.042996 
1456.256080  	0.043803 
1458.184896  	0.048144 
1460.113712  	0.046129 
1462.042528  	0.043535 
1463.971344  	0.043141 
1465.900160  	0.045250 
1467.828976  	0.045146 
1469.757792  	0.044901 
1471.686608  	0.047873 
1473.615424  	0.056362 
1475.544240  	0.059802 
1477.473056  	0.063441 
1479.401872  	0.064810 
1481.330688  	0.067468 
1483.259504  	0.069198 
1485.188320  	0.069160 
1487.117136  	0.069526 
1489.045952  	0.071015 
1490.974768  	0.071087 
1492.903584  	0.066842 
1494.832400  	0.061980 
1496.761216  	0.059265 
1498.690032  	0.055559 
1500.618848  	0.051101 
1502.547664  	0.046076 
1504.476480  	0.041425 
1506.405296  	0.041565 
1508.334112  	0.044963 
1510.262928  	0.040977 
1512.191744  	0.038550 
1514.120560  	0.037208 
1516.049376  	0.038012 
1517.978192  	0.040333 
1519.907008  	0.040087 
1521.835824  	0.046008 
1523.764640  	0.048273 
1525.693456  	0.050009 
1527.622272  	0.052460 
1529.551088  	0.051479 
1531.479904  	0.048938 
1533.408720  	0.048736 
1535.337536  	0.046697 
1537.266352  	0.041638 
1539.195168  	0.039754 
1541.123984  	0.041891 
1543.052800  	0.040399 
1544.981616  	0.039304 
1546.910432  	0.037007 
1548.839248  	0.035707 
1550.768064  	0.036944 
1552.696880  	0.035687 
1554.625696  	0.036563 
1556.554512  	0.035301 
1558.483328  	0.038854 
1560.412144  	0.048562 
1562.340960  	0.045821 
1564.269776  	0.046619 
1566.198592  	0.050128 
1568.127408  	0.051669 
1570.056224  	0.059464 
1571.985040  	0.062475 
1573.913856  	0.062046 
1575.842672  	0.065883 
1577.771488  	0.071251 
1579.700304  	0.068736 
1581.629120  	0.067475 
1583.557936  	0.067021 
1585.486752  	0.068069 
1587.415568  	0.069852 
1589.344384  	0.073447 
1591.273200  	0.077801 
1593.202016  	0.083162 
1595.130832  	0.089033 
1597.059648  	0.094767 
1598.988464  	0.098593 
1600.917280  	0.102352 
1602.846096  	0.105119 
1604.774912  	0.106724 
1606.703728  	0.106423 
1608.632544  	0.106562 
1610.561360  	0.105427 
1612.490176  	0.103799 
1614.418992  	0.100437 
1616.347808  	0.102760 
1618.276624  	0.107631 
1620.205440  	0.106283 
1622.134256  	0.107125 
1624.063072  	0.115306 
1625.991888  	0.117999 
1627.920704  	0.123202 
1629.849520  	0.129258 
1631.778336  	0.131237 
1633.707152  	0.131435 
1635.635968  	0.140949 
1637.564784  	0.150423 
1639.493600  	0.148431 
1641.422416  	0.147939 
1643.351232  	0.146061 
1645.280048  	0.143620 
1647.208864  	0.150905 
1649.137680  	0.149993 
1651.066496  	0.139920 
1652.995312  	0.142800 
1654.924128  	0.151792 
1656.852944  	0.143071 
1658.781760  	0.137931 
1660.710576  	0.133857 
1662.639392  	0.133250 
1664.568208  	0.131635 
1666.497024  	0.125037 
1668.425840  	0.121059 
1670.354656  	0.121258 
1672.283472  	0.117141 
1674.212288  	0.112362 
1676.141104  	0.113473 
1678.069920  	0.109573 
1679.998736  	0.106960 
1681.927552  	0.103277 
1683.856368  	0.104438 
1685.785184  	0.109985 
1687.714000  	0.104859 
1689.642816  	0.103758 
1691.571632  	0.102317 
1693.500448  	0.098171 
1695.429264  	0.097718 
1697.358080  	0.099789 
1699.286896  	0.095874 
1701.215712  	0.100812 
1703.144528  	0.095554 
1705.073344  	0.092599 
1707.002160  	0.091438 
1708.930976  	0.087011 
1710.859792  	0.082364 
1712.788608  	0.077074 
1714.717424  	0.071765 
1716.646240  	0.066856 
1718.575056  	0.061733 
1720.503872  	0.053603 
1722.432688  	0.046300 
1724.361504  	0.039928 
1726.290320  	0.034009 
1728.219136  	0.028990 
1730.147952  	0.025153 
1732.076768  	0.021091 
1734.005584  	0.019660 
1735.934400  	0.017338 
1737.863216  	0.014005 
1739.792032  	0.012578 
1741.720848  	0.011247 
1743.649664  	0.010330 
1745.578480  	0.009053 
1747.507296  	0.008073 
1749.436112  	0.008233 
1751.364928  	0.008031 
1753.293744  	0.006466 
1755.222560  	0.004950 
1757.151376  	0.005538 
1759.080192  	0.004711 
1761.009008  	0.004472 
1762.937824  	0.004723 
1764.866640  	0.003499 
1766.795456  	0.002852 
1768.724272  	0.003207 
1770.653088  	0.002416 
1772.581904  	0.003991 
1774.510720  	0.003729 
1776.439536  	0.002804 
1778.368352  	0.001872 
1780.297168  	0.001979 
1782.225984  	0.001761 
1784.154800  	0.001468 
1786.083616  	0.001442 
1788.012432  	0.000808 
1789.941248  	0.000462 
1791.870064  	0.001687 
1793.798880  	0.001997 
1795.727696  	0.001270 
1797.656512  	0.000426 
1799.585328  	0.000174 
1801.514144  	0.000858 
1803.442960  	0.000595 
1805.371776  	0.000038 
1807.300592  	-0.000229 
1809.229408  	-0.000303 
1811.158224  	0.000043 
1813.087040  	-0.000331 
1815.015856  	-0.001039 
1816.944672  	-0.000760 
1818.873488  	-0.000424 
1820.802304  	-0.000541 
1822.731120  	-0.000589 
1824.659936  	-0.000389 
1826.588752  	-0.000415 
1828.517568  	-0.001016 
1830.446384  	-0.000027 
1832.375200  	-0.000535 
1834.304016  	-0.000958 
1836.232832  	-0.000800 
1838.161648  	-0.000546 
1840.090464  	-0.000983 
1842.019280  	-0.001766 
1843.948096  	-0.001113 
1845.876912  	-0.000100 
1847.805728  	-0.000807 
1849.734544  	-0.001064 
1851.663360  	-0.001247 
1853.592176  	-0.001108 
1855.520992  	-0.001351 
1857.449808  	-0.001378 
1859.378624  	-0.001760 
1861.307440  	-0.001564 
1863.236256  	-0.001731 
1865.165072  	-0.002056 
1867.093888  	-0.002348 
1869.022704  	-0.000878 
1870.951520  	-0.000806 
1872.880336  	-0.001490 
1874.809152  	-0.001859 
1876.737968  	-0.001965 
1878.666784  	-0.002223 
1880.595600  	-0.002267 
1882.524416  	-0.002190 
1884.453232  	-0.001971 
1886.382048  	-0.002198 
1888.310864  	-0.001822 
1890.239680  	-0.001265 
1892.168496  	-0.001416 
1894.097312  	-0.001677 
1896.026128  	-0.001537 
1897.954944  	-0.001728 
1899.883760  	-0.001699 
1901.812576  	-0.001822 
1903.741392  	-0.001736 
1905.670208  	-0.002096 
1907.599024  	-0.002489 
1909.527840  	-0.002615 
1911.456656  	-0.001867 
1913.385472  	-0.001393 
1915.314288  	-0.001489 
1917.243104  	-0.001508 
1919.171920  	-0.000803 
1921.100736  	-0.001333 
1923.029552  	-0.001200 
1924.958368  	-0.002393 
1926.887184  	-0.002691 
1928.816000  	-0.002703 
1930.744816  	-0.002710 
1932.673632  	-0.002861 
1934.602448  	-0.002239 
1936.531264  	-0.002054 
1938.460080  	-0.002100 
1940.388896  	-0.002142 
1942.317712  	-0.001651 
1944.246528  	-0.002317 
1946.175344  	-0.002077 
1948.104160  	-0.001822 
1950.032976  	-0.001471 
1951.961792  	-0.001781 
1953.890608  	-0.002208 
1955.819424  	-0.002814 
1957.748240  	-0.003371 
1959.677056  	-0.003863 
1961.605872  	-0.003247 
1963.534688  	-0.002795 
1965.463504  	-0.002475 
1967.392320  	-0.002518 
1969.321136  	-0.002499 
1971.249952  	-0.003544 
1973.178768  	-0.003169 
1975.107584  	-0.002245 
1977.036400  	-0.001049 
1978.965216  	-0.001123 
1980.894032  	-0.001649 
1982.822848  	-0.001645 
1984.751664  	-0.001050 
1986.680480  	-0.002300 
1988.609296  	-0.001914 
1990.538112  	-0.001345 
1992.466928  	-0.000459 
1994.395744  	-0.001345 
1996.324560  	-0.001710 
1998.253376  	-0.001479 
2000.182192  	-0.002067 
2002.111008  	-0.002338 
2004.039824  	-0.001281 
2005.968640  	-0.001408 
2007.897456  	-0.001446 
2009.826272  	-0.001312 
2011.755088  	-0.000711 
2013.683904  	-0.001054 
2015.612720  	-0.001599 
2017.541536  	-0.001560 
2019.470352  	0.000053 
2021.399168  	-0.000124 
2023.327984  	-0.000541 
2025.256800  	-0.000504 
2027.185616  	0.000110 
2029.114432  	0.000039 
2031.043248  	0.000794 
2032.972064  	0.000693 
2034.900880  	0.001014 
2036.829696  	0.000305 
2038.758512  	0.000403 
2040.687328  	-0.000968 
2042.616144  	-0.000941 
2044.544960  	-0.000262 
2046.473776  	0.000516 
2048.402592  	0.001549 
2050.331408  	0.001780 
2052.260224  	0.000683 
2054.189040  	0.000499 
2056.117856  	-0.000035 
2058.046672  	-0.000247 
2059.975488  	0.000040 
2061.904304  	0.000537 
2063.833120  	0.000741 
2065.761936  	0.000876 
2067.690752  	0.000892 
2069.619568  	0.000963 
2071.548384  	0.000268 
2073.477200  	0.000229 
2075.406016  	0.000750 
2077.334832  	0.001369 
2079.263648  	0.001239 
2081.192464  	0.001074 
2083.121280  	0.000582 
2085.050096  	0.000280 
2086.978912  	-0.000180 
2088.907728  	0.000160 
2090.836544  	0.000600 
2092.765360  	0.000743 
2094.694176  	0.001043 
2096.622992  	0.001306 
2098.551808  	0.000966 
2100.480624  	0.000897 
2102.409440  	0.001039 
2104.338256  	0.001382 
2106.267072  	0.001232 
2108.195888  	0.001139 
2110.124704  	0.001060 
2112.053520  	0.001461 
2113.982336  	0.001584 
2115.911152  	0.001353 
2117.839968  	0.000714 
2119.768784  	0.000734 
2121.697600  	0.000803 
2123.626416  	0.000514 
2125.555232  	0.000080 
2127.484048  	-0.000118 
2129.412864  	-0.000121 
2131.341680  	0.000387 
2133.270496  	0.000462 
2135.199312  	0.000291 
2137.128128  	0.001023 
2139.056944  	0.002150 
2140.985760  	0.001778 
2142.914576  	0.001591 
2144.843392  	0.000651 
2146.772208  	0.000544 
2148.701024  	0.000586 
2150.629840  	0.000299 
2152.558656  	0.000838 
2154.487472  	0.001221 
2156.416288  	0.000600 
2158.345104  	0.003617 
2160.273920  	0.006098 
2162.202736  	0.004632 
2164.131552  	0.003029 
2166.060368  	0.003681 
2167.989184  	0.003481 
2169.918000  	0.002249 
2171.846816  	0.001858 
2173.775632  	0.002519 
2175.704448  	0.002302 
2177.633264  	0.002835 
2179.562080  	0.001907 
2181.490896  	0.001616 
2183.419712  	0.002294 
2185.348528  	0.002646 
2187.277344  	0.002116 
2189.206160  	0.001777 
2191.134976  	0.001476 
2193.063792  	0.001061 
2194.992608  	0.000778 
2196.921424  	0.000807 
2198.850240  	0.000235 
2200.779056  	0.000147 
2202.707872  	0.000730 
2204.636688  	0.001753 
2206.565504  	0.001511 
2208.494320  	0.000873 
2210.423136  	0.000787 
2212.351952  	0.001495 
2214.280768  	0.001563 
2216.209584  	0.001189 
2218.138400  	0.000616 
2220.067216  	0.000458 
2221.996032  	0.000462 
2223.924848  	0.000544 
2225.853664  	0.000811 
2227.782480  	0.001257 
2229.711296  	0.000352 
2231.640112  	0.000173 
2233.568928  	0.000290 
2235.497744  	0.000562 
2237.426560  	0.000738 
2239.355376  	0.001188 
2241.284192  	0.000691 
2243.213008  	0.000398 
2245.141824  	0.000638 
2247.070640  	0.001019 
2248.999456  	0.000837 
2250.928272  	0.000561 
2252.857088  	0.000161 
2254.785904  	0.000471 
2256.714720  	0.000991 
2258.643536  	0.000928 
2260.572352  	0.000964 
2262.501168  	0.001232 
2264.429984  	0.001385 
2266.358800  	0.001384 
2268.287616  	0.001078 
2270.216432  	0.001014 
2272.145248  	0.001104 
2274.074064  	0.001347 
2276.002880  	0.001606 
2277.931696  	0.001831 
2279.860512  	0.001785 
2281.789328  	0.001701 
2283.718144  	0.001707 
2285.646960  	0.002020 
2287.575776  	0.002020 
2289.504592  	0.002225 
2291.433408  	0.002400 
2293.362224  	0.002631 
2295.291040  	0.002375 
2297.219856  	0.002357 
2299.148672  	0.002233 
2301.077488  	0.002330 
2303.006304  	0.002904 
2304.935120  	0.003337 
2306.863936  	0.003435 
2308.792752  	0.003612 
2310.721568  	0.003747 
2312.650384  	0.003580 
2314.579200  	0.003209 
2316.508016  	0.003270 
2318.436832  	0.003838 
2320.365648  	0.004600 
2322.294464  	0.004963 
2324.223280  	0.004497 
2326.152096  	0.003301 
2328.080912  	0.002299 
2330.009728  	0.002126 
2331.938544  	0.002308 
2333.867360  	0.001930 
2335.796176  	0.001808 
2337.724992  	0.001613 
2339.653808  	0.001368 
2341.582624  	0.002096 
2343.511440  	0.003445 
2345.440256  	0.004427 
2347.369072  	0.004091 
2349.297888  	0.002552 
2351.226704  	0.001397 
2353.155520  	0.000860 
2355.084336  	0.001199 
2357.013152  	0.002121 
2358.941968  	0.002598 
2360.870784  	0.002397 
2362.799600  	0.002572 
2364.728416  	0.002889 
2366.657232  	0.002876 
2368.586048  	0.003282 
2370.514864  	0.003544 
2372.443680  	0.003460 
2374.372496  	0.003819 
2376.301312  	0.004014 
2378.230128  	0.003913 
2380.158944  	0.003359 
2382.087760  	0.002771 
2384.016576  	0.002177 
2385.945392  	0.001624 
2387.874208  	0.001331 
2389.803024  	0.001168 
2391.731840  	0.000991 
2393.660656  	0.001011 
2395.589472  	0.001081 
2397.518288  	0.001022 
2399.447104  	0.001013 
2401.375920  	0.001123 
2403.304736  	0.001021 
2405.233552  	0.001095 
2407.162368  	0.001169 
2409.091184  	0.001139 
2411.020000  	0.001051 
2412.948816  	0.001018 
2414.877632  	0.000936 
2416.806448  	0.000999 
2418.735264  	0.001116 
2420.664080  	0.001275 
2422.592896  	0.001336 
2424.521712  	0.001408 
2426.450528  	0.001311 
2428.379344  	0.001271 
2430.308160  	0.001410 
2432.236976  	0.001549 
2434.165792  	0.001664 
2436.094608  	0.001689 
2438.023424  	0.001666 
2439.952240  	0.001751 
2441.881056  	0.001704 
2443.809872  	0.001648 
2445.738688  	0.001815 
2447.667504  	0.002050 
2449.596320  	0.002385 
2451.525136  	0.002482 
2453.453952  	0.002588 
2455.382768  	0.002641 
2457.311584  	0.002369 
2459.240400  	0.002307 
2461.169216  	0.002478 
2463.098032  	0.002664 
2465.026848  	0.002469 
2466.955664  	0.002290 
2468.884480  	0.002301 
2470.813296  	0.002395 
2472.742112  	0.002452 
2474.670928  	0.002667 
2476.599744  	0.002901 
2478.528560  	0.003046 
2480.457376  	0.003303 
2482.386192  	0.003499 
2484.315008  	0.003431 
2486.243824  	0.003318 
2488.172640  	0.003472 
2490.101456  	0.003667 
2492.030272  	0.003784 
2493.959088  	0.003724 
2495.887904  	0.003583 
2497.816720  	0.003827 
2499.745536  	0.003963 
2501.674352  	0.004021 
2503.603168  	0.003976 
2505.531984  	0.004105 
2507.460800  	0.004048 
2509.389616  	0.003933 
2511.318432  	0.003940 
2513.247248  	0.004118 
2515.176064  	0.004275 
2517.104880  	0.004228 
2519.033696  	0.004169 
2520.962512  	0.004401 
2522.891328  	0.004623 
2524.820144  	0.004900 
2526.748960  	0.004881 
2528.677776  	0.004800 
2530.606592  	0.004853 
2532.535408  	0.004901 
2534.464224  	0.004850 
2536.393040  	0.004843 
2538.321856  	0.005080 
2540.250672  	0.005305 
2542.179488  	0.005378 
2544.108304  	0.005480 
2546.037120  	0.005630 
2547.965936  	0.005935 
2549.894752  	0.005892 
2551.823568  	0.005852 
2553.752384  	0.005930 
2555.681200  	0.005929 
2557.610016  	0.005819 
2559.538832  	0.005794 
2561.467648  	0.005986 
2563.396464  	0.006351 
2565.325280  	0.006373 
2567.254096  	0.006347 
2569.182912  	0.006370 
2571.111728  	0.006399 
2573.040544  	0.006533 
2574.969360  	0.006981 
2576.898176  	0.007153 
2578.826992  	0.007039 
2580.755808  	0.007111 
2582.684624  	0.007358 
2584.613440  	0.007422 
2586.542256  	0.007565 
2588.471072  	0.007585 
2590.399888  	0.007473 
2592.328704  	0.007673 
2594.257520  	0.007899 
2596.186336  	0.007758 
2598.115152  	0.007836 
2600.043968  	0.008084 
2601.972784  	0.008122 
2603.901600  	0.008148 
2605.830416  	0.008139 
2607.759232  	0.008246 
2609.688048  	0.008478 
2611.616864  	0.008688 
2613.545680  	0.008771 
2615.474496  	0.008911 
2617.403312  	0.008959 
2619.332128  	0.008999 
2621.260944  	0.009047 
2623.189760  	0.009108 
2625.118576  	0.009343 
2627.047392  	0.009422 
2628.976208  	0.009625 
2630.905024  	0.009794 
2632.833840  	0.009919 
2634.762656  	0.009975 
2636.691472  	0.010172 
2638.620288  	0.010296 
2640.549104  	0.010362 
2642.477920  	0.010554 
2644.406736  	0.010583 
2646.335552  	0.010686 
2648.264368  	0.010884 
2650.193184  	0.011018 
2652.122000  	0.011086 
2654.050816  	0.011213 
2655.979632  	0.011340 
2657.908448  	0.011436 
2659.837264  	0.011608 
2661.766080  	0.011685 
2663.694896  	0.011674 
2665.623712  	0.011740 
2667.552528  	0.011949 
2669.481344  	0.012019 
2671.410160  	0.012064 
2673.338976  	0.012209 
2675.267792  	0.012423 
2677.196608  	0.012638 
2679.125424  	0.012788 
2681.054240  	0.012855 
2682.983056  	0.013005 
2684.911872  	0.013119 
2686.840688  	0.013235 
2688.769504  	0.013316 
2690.698320  	0.013416 
2692.627136  	0.013545 
2694.555952  	0.013653 
2696.484768  	0.013799 
2698.413584  	0.013869 
2700.342400  	0.013845 
2702.271216  	0.014052 
2704.200032  	0.014290 
2706.128848  	0.014462 
2708.057664  	0.014555 
2709.986480  	0.014618 
2711.915296  	0.014760 
2713.844112  	0.014917 
2715.772928  	0.015002 
2717.701744  	0.015049 
2719.630560  	0.015216 
2721.559376  	0.015420 
2723.488192  	0.015461 
2725.417008  	0.015554 
2727.345824  	0.015824 
2729.274640  	0.016031 
2731.203456  	0.016074 
2733.132272  	0.016170 
2735.061088  	0.016333 
2736.989904  	0.016357 
2738.918720  	0.016458 
2740.847536  	0.016598 
2742.776352  	0.016714 
2744.705168  	0.016885 
2746.633984  	0.017046 
2748.562800  	0.017173 
2750.491616  	0.017149 
2752.420432  	0.017215 
2754.349248  	0.017264 
2756.278064  	0.017261 
2758.206880  	0.017250 
2760.135696  	0.017248 
2762.064512  	0.017298 
2763.993328  	0.017346 
2765.922144  	0.017405 
2767.850960  	0.017409 
2769.779776  	0.017437 
2771.708592  	0.017555 
2773.637408  	0.017515 
2775.566224  	0.017473 
2777.495040  	0.017459 
2779.423856  	0.017458 
2781.352672  	0.017609 
2783.281488  	0.017759 
2785.210304  	0.017787 
2787.139120  	0.017855 
2789.067936  	0.017725 
2790.996752  	0.017674 
2792.925568  	0.017769 
2794.854384  	0.017781 
2796.783200  	0.017741 
2798.712016  	0.017726 
2800.640832  	0.017807 
2802.569648  	0.017954 
2804.498464  	0.018003 
2806.427280  	0.018088 
2808.356096  	0.018233 
2810.284912  	0.018170 
2812.213728  	0.018151 
2814.142544  	0.018304 
2816.071360  	0.018275 
2818.000176  	0.018331 
2819.928992  	0.018397 
2821.857808  	0.018374 
2823.786624  	0.018350 
2825.715440  	0.018440 
2827.644256  	0.018537 
2829.573072  	0.018404 
2831.501888  	0.018432 
2833.430704  	0.018419 
2835.359520  	0.018373 
2837.288336  	0.018370 
2839.217152  	0.018311 
2841.145968  	0.018260 
2843.074784  	0.018257 
2845.003600  	0.018291 
2846.932416  	0.018315 
2848.861232  	0.018439 
2850.790048  	0.018465 
2852.718864  	0.018541 
2854.647680  	0.018643 
2856.576496  	0.018739 
2858.505312  	0.018792 
2860.434128  	0.018942 
2862.362944  	0.018950 
2864.291760  	0.018973 
2866.220576  	0.019051 
2868.149392  	0.019211 
2870.078208  	0.019311 
2872.007024  	0.019537 
2873.935840  	0.019936 
2875.864656  	0.020265 
2877.793472  	0.020503 
2879.722288  	0.020800 
2881.651104  	0.021094 
2883.579920  	0.021401 
2885.508736  	0.021645 
2887.437552  	0.021832 
2889.366368  	0.021862 
2891.295184  	0.022006 
2893.224000  	0.022038 
2895.152816  	0.022033 
2897.081632  	0.022114 
2899.010448  	0.021777 
2900.939264  	0.021362 
2902.868080  	0.021573 
2904.796896  	0.021965 
2906.725712  	0.022124 
2908.654528  	0.022343 
2910.583344  	0.022646 
2912.512160  	0.022879 
2914.440976  	0.023286 
2916.369792  	0.023850 
2918.298608  	0.024335 
2920.227424  	0.024692 
2922.156240  	0.025034 
2924.085056  	0.025459 
2926.013872  	0.025892 
2927.942688  	0.026516 
2929.871504  	0.027200 
2931.800320  	0.027691 
2933.729136  	0.028255 
2935.657952  	0.028906 
2937.586768  	0.029386 
2939.515584  	0.029577 
2941.444400  	0.029655 
2943.373216  	0.029873 
2945.302032  	0.030244 
2947.230848  	0.030390 
2949.159664  	0.030331 
2951.088480  	0.030164 
2953.017296  	0.029935 
2954.946112  	0.029769 
2956.874928  	0.029633 
2958.803744  	0.029448 
2960.732560  	0.029273 
2962.661376  	0.029059 
2964.590192  	0.028836 
2966.519008  	0.028521 
2968.447824  	0.028217 
2970.376640  	0.028019 
2972.305456  	0.027819 
2974.234272  	0.027921 
2976.163088  	0.027937 
2978.091904  	0.027804 
2980.020720  	0.027719 
2981.949536  	0.027591 
2983.878352  	0.027686 
2985.807168  	0.027736 
2987.735984  	0.027639 
2989.664800  	0.027813 
2991.593616  	0.028460 
2993.522432  	0.028727 
2995.451248  	0.028858 
2997.380064  	0.029310 
2999.308880  	0.029876 
3001.237696  	0.030196 
3003.166512  	0.030553 
3005.095328  	0.031018 
3007.024144  	0.031453 
3008.952960  	0.032071 
3010.881776  	0.032637 
3012.810592  	0.033109 
3014.739408  	0.033603 
3016.668224  	0.034091 
3018.597040  	0.034511 
3020.525856  	0.034944 
3022.454672  	0.035406 
3024.383488  	0.035909 
3026.312304  	0.036404 
3028.241120  	0.036629 
3030.169936  	0.037106 
3032.098752  	0.037895 
3034.027568  	0.038257 
3035.956384  	0.038649 
3037.885200  	0.039150 
3039.814016  	0.039750 
3041.742832  	0.040185 
3043.671648  	0.040635 
3045.600464  	0.041153 
3047.529280  	0.041497 
3049.458096  	0.041962 
3051.386912  	0.042315 
3053.315728  	0.042667 
3055.244544  	0.043187 
3057.173360  	0.043820 
3059.102176  	0.044417 
3061.030992  	0.044914 
3062.959808  	0.045332 
3064.888624  	0.045981 
3066.817440  	0.046799 
3068.746256  	0.047441 
3070.675072  	0.047861 
3072.603888  	0.048382 
3074.532704  	0.049064 
3076.461520  	0.049757 
3078.390336  	0.050277 
3080.319152  	0.050876 
3082.247968  	0.051437 
3084.176784  	0.051889 
3086.105600  	0.052513 
3088.034416  	0.053150 
3089.963232  	0.053368 
3091.892048  	0.053670 
3093.820864  	0.054187 
3095.749680  	0.055002 
3097.678496  	0.055749 
3099.607312  	0.056381 
3101.536128  	0.057361 
3103.464944  	0.057842 
3105.393760  	0.058007 
3107.322576  	0.058483 
3109.251392  	0.058933 
3111.180208  	0.059232 
3113.109024  	0.059486 
3115.037840  	0.059922 
3116.966656  	0.060675 
3118.895472  	0.061184 
3120.824288  	0.061442 
3122.753104  	0.062108 
3124.681920  	0.062439 
3126.610736  	0.062551 
3128.539552  	0.062926 
3130.468368  	0.063083 
3132.397184  	0.063532 
3134.326000  	0.064107 
3136.254816  	0.064566 
3138.183632  	0.064895 
3140.112448  	0.064941 
3142.041264  	0.065264 
3143.970080  	0.065828 
3145.898896  	0.066240 
3147.827712  	0.066412 
3149.756528  	0.066910 
3151.685344  	0.067288 
3153.614160  	0.067489 
3155.542976  	0.067765 
3157.471792  	0.068244 
3159.400608  	0.068672 
3161.329424  	0.068951 
3163.258240  	0.069298 
3165.187056  	0.069586 
3167.115872  	0.069819 
3169.044688  	0.070002 
3170.973504  	0.070243 
3172.902320  	0.070507 
3174.831136  	0.070552 
3176.759952  	0.070616 
3178.688768  	0.071057 
3180.617584  	0.071137 
3182.546400  	0.071105 
3184.475216  	0.071224 
3186.404032  	0.071448 
3188.332848  	0.071397 
3190.261664  	0.071320 
3192.190480  	0.071380 
3194.119296  	0.071320 
3196.048112  	0.071015 
3197.976928  	0.071252 
3199.905744  	0.071473 
3201.834560  	0.071218 
3203.763376  	0.071009 
3205.692192  	0.070670 
3207.621008  	0.070454 
3209.549824  	0.070698 
3211.478640  	0.070677 
3213.407456  	0.070334 
3215.336272  	0.070392 
3217.265088  	0.070206 
3219.193904  	0.070229 
3221.122720  	0.070368 
3223.051536  	0.070198 
3224.980352  	0.069897 
3226.909168  	0.069591 
3228.837984  	0.069320 
3230.766800  	0.069045 
3232.695616  	0.069241 
3234.624432  	0.069319 
3236.553248  	0.069300 
3238.482064  	0.069247 
3240.410880  	0.069154 
3242.339696  	0.069136 
3244.268512  	0.069192 
3246.197328  	0.069399 
3248.126144  	0.069132 
3250.054960  	0.069261 
3251.983776  	0.069425 
3253.912592  	0.069536 
3255.841408  	0.069624 
3257.770224  	0.069710 
3259.699040  	0.069834 
3261.627856  	0.069986 
3263.556672  	0.070000 
3265.485488  	0.070134 
3267.414304  	0.070086 
3269.343120  	0.070024 
3271.271936  	0.070116 
3273.200752  	0.070278 
3275.129568  	0.070360 
3277.058384  	0.070389 
3278.987200  	0.070478 
3280.916016  	0.070521 
3282.844832  	0.070617 
3284.773648  	0.070869 
3286.702464  	0.070776 
3288.631280  	0.070874 
3290.560096  	0.070945 
3292.488912  	0.070875 
3294.417728  	0.070918 
3296.346544  	0.070999 
3298.275360  	0.071118 
3300.204176  	0.071187 
3302.132992  	0.071201 
3304.061808  	0.071509 
3305.990624  	0.071560 
3307.919440  	0.071648 
3309.848256  	0.071938 
3311.777072  	0.072011 
3313.705888  	0.072185 
3315.634704  	0.072467 
3317.563520  	0.072576 
3319.492336  	0.072594 
3321.421152  	0.072767 
3323.349968  	0.072998 
3325.278784  	0.073103 
3327.207600  	0.073178 
3329.136416  	0.072969 
3331.065232  	0.072618 
3332.994048  	0.072512 
3334.922864  	0.072706 
3336.851680  	0.072904 
3338.780496  	0.072892 
3340.709312  	0.072522 
3342.638128  	0.072280 
3344.566944  	0.071960 
3346.495760  	0.071721 
3348.424576  	0.071629 
3350.353392  	0.071333 
3352.282208  	0.070907 
3354.211024  	0.070685 
3356.139840  	0.070573 
3358.068656  	0.070522 
3359.997472  	0.070155 
3361.926288  	0.069806 
3363.855104  	0.069493 
3365.783920  	0.069236 
3367.712736  	0.069019 
3369.641552  	0.068729 
3371.570368  	0.068430 
3373.499184  	0.068365 
3375.428000  	0.068222 
3377.356816  	0.067969 
3379.285632  	0.067826 
3381.214448  	0.067481 
3383.143264  	0.067171 
3385.072080  	0.067264 
3387.000896  	0.066791 
3388.929712  	0.066054 
3390.858528  	0.065446 
3392.787344  	0.065627 
3394.716160  	0.065437 
3396.644976  	0.065191 
3398.573792  	0.064987 
3400.502608  	0.064315 
3402.431424  	0.063779 
3404.360240  	0.063558 
3406.289056  	0.063277 
3408.217872  	0.062881 
3410.146688  	0.062434 
3412.075504  	0.061895 
3414.004320  	0.061615 
3415.933136  	0.061293 
3417.861952  	0.060739 
3419.790768  	0.060826 
3421.719584  	0.060886 
3423.648400  	0.060257 
3425.577216  	0.059431 
3427.506032  	0.058821 
3429.434848  	0.058359 
3431.363664  	0.058407 
3433.292480  	0.058227 
3435.221296  	0.057707 
3437.150112  	0.056943 
3439.078928  	0.056377 
3441.007744  	0.056005 
3442.936560  	0.055914 
3444.865376  	0.054967 
3446.794192  	0.055258 
3448.723008  	0.055591 
3450.651824  	0.054270 
3452.580640  	0.053474 
3454.509456  	0.052908 
3456.438272  	0.052372 
3458.367088  	0.051841 
3460.295904  	0.051358 
3462.224720  	0.051118 
3464.153536  	0.050451 
3466.082352  	0.049565 
3468.011168  	0.049262 
3469.939984  	0.048642 
3471.868800  	0.047752 
3473.797616  	0.047017 
3475.726432  	0.046799 
3477.655248  	0.046065 
3479.584064  	0.045219 
3481.512880  	0.045377 
3483.441696  	0.045273 
3485.370512  	0.043959 
3487.299328  	0.043319 
3489.228144  	0.042933 
3491.156960  	0.042001 
3493.085776  	0.041322 
3495.014592  	0.041029 
3496.943408  	0.040981 
3498.872224  	0.040128 
3500.801040  	0.039117 
3502.729856  	0.039537 
3504.658672  	0.039836 
3506.587488  	0.038154 
3508.516304  	0.037272 
3510.445120  	0.037684 
3512.373936  	0.037123 
3514.302752  	0.036244 
3516.231568  	0.035309 
3518.160384  	0.034730 
3520.089200  	0.034050 
3522.018016  	0.033526 
3523.946832  	0.034117 
3525.875648  	0.033536 
3527.804464  	0.033319 
3529.733280  	0.033201 
3531.662096  	0.032166 
3533.590912  	0.030810 
3535.519728  	0.030438 
3537.448544  	0.030611 
3539.377360  	0.029620 
3541.306176  	0.028425 
3543.234992  	0.027835 
3545.163808  	0.028767 
3547.092624  	0.029635 
3549.021440  	0.027949 
3550.950256  	0.026390 
3552.879072  	0.027069 
3554.807888  	0.026231 
3556.736704  	0.024846 
3558.665520  	0.024358 
3560.594336  	0.024059 
3562.523152  	0.022966 
3564.451968  	0.021766 
3566.380784  	0.023955 
3568.309600  	0.026920 
3570.238416  	0.023999 
3572.167232  	0.021471 
3574.096048  	0.020687 
3576.024864  	0.020383 
3577.953680  	0.019604 
3579.882496  	0.018910 
3581.811312  	0.018075 
3583.740128  	0.016701 
3585.668944  	0.015890 
3587.597760  	0.019191 
3589.526576  	0.019175 
3591.455392  	0.015470 
3593.384208  	0.014654 
3595.313024  	0.015590 
3597.241840  	0.014850 
3599.170656  	0.013434 
3601.099472  	0.013682 
3603.028288  	0.012739 
3604.957104  	0.010701 
3606.885920  	0.010441 
3608.814736  	0.011803 
3610.743552  	0.010195 
3612.672368  	0.009667 
3614.601184  	0.009832 
3616.530000  	0.007742 
3618.458816  	0.008213 
3620.387632  	0.009846 
3622.316448  	0.007686 
3624.245264  	0.005041 
3626.174080  	0.002942 
3628.102896  	0.004512 
3630.031712  	0.009119 
3631.960528  	0.005168 
3633.889344  	0.003797 
3635.818160  	0.002921 
3637.746976  	0.001847 
3639.675792  	0.001104 
3641.604608  	0.000234 
3643.533424  	-0.001006 
3645.462240  	-0.003014 
3647.391056  	-0.001894 
3649.319872  	0.001435 
3651.248688  	0.002596 
3653.177504  	-0.001972 
3655.106320  	-0.003809 
3657.035136  	-0.002140 
3658.963952  	-0.003393 
3660.892768  	-0.004294 
3662.821584  	-0.005008 
3664.750400  	-0.006097 
3666.679216  	-0.007448 
3668.608032  	-0.007378 
3670.536848  	-0.004040 
3672.465664  	-0.006619 
3674.394480  	-0.007720 
3676.323296  	-0.002476 
3678.252112  	-0.004500 
3680.180928  	-0.005650 
3682.109744  	-0.006886 
3684.038560  	-0.007824 
3685.967376  	-0.009294 
3687.896192  	-0.008354 
3689.825008  	-0.004972 
3691.753824  	-0.004812 
3693.682640  	-0.006664 
3695.611456  	-0.007476 
3697.540272  	-0.007603 
3699.469088  	-0.008782 
3701.397904  	-0.007628 
3703.326720  	-0.006431 
3705.255536  	-0.007489 
3707.184352  	-0.008489 
3709.113168  	-0.008578 
3711.041984  	-0.006155 
3712.970800  	-0.004384 
3714.899616  	-0.006484 
3716.828432  	-0.007995 
3718.757248  	-0.007793 
3720.686064  	-0.007739 
3722.614880  	-0.007244 
3724.543696  	-0.007223 
3726.472512  	-0.006454 
3728.401328  	-0.007562 
3730.330144  	-0.009776 
3732.258960  	-0.009453 
3734.187776  	-0.007686 
3736.116592  	-0.004040 
3738.045408  	-0.005391 
3739.974224  	-0.007438 
3741.903040  	-0.009649 
3743.831856  	-0.008695 
3745.760672  	-0.005567 
3747.689488  	-0.008721 
3749.618304  	-0.007546 
3751.547120  	-0.004110 
3753.475936  	-0.004659 
3755.404752  	-0.007391 
3757.333568  	-0.007819 
3759.262384  	-0.006601 
3761.191200  	-0.006351 
3763.120016  	-0.008386 
3765.048832  	-0.007671 
3766.977648  	-0.007403 
3768.906464  	-0.007213 
3770.835280  	-0.005835 
3772.764096  	-0.007214 
3774.692912  	-0.008226 
3776.621728  	-0.008844 
3778.550544  	-0.007931 
3780.479360  	-0.006389 
3782.408176  	-0.007743 
3784.336992  	-0.007540 
3786.265808  	-0.007158 
3788.194624  	-0.007673 
3790.123440  	-0.007978 
3792.052256  	-0.008331 
3793.981072  	-0.009178 
3795.909888  	-0.008022 
3797.838704  	-0.007619 
3799.767520  	-0.009364 
3801.696336  	-0.005770 
3803.625152  	-0.006391 
3805.553968  	-0.008595 
3807.482784  	-0.006000 
3809.411600  	-0.006800 
3811.340416  	-0.008255 
3813.269232  	-0.009727 
3815.198048  	-0.008712 
3817.126864  	-0.006667 
3819.055680  	-0.009131 
3820.984496  	-0.006317 
3822.913312  	-0.005307 
3824.842128  	-0.007919 
3826.770944  	-0.007509 
3828.699760  	-0.007976 
3830.628576  	-0.008490 
3832.557392  	-0.008123 
3834.486208  	-0.008920 
3836.415024  	-0.008829 
3838.343840  	-0.006834 
3840.272656  	-0.005696 
3842.201472  	-0.006386 
3844.130288  	-0.006217 
3846.059104  	-0.007287 
3847.987920  	-0.008847 
3849.916736  	-0.010135 
3851.845552  	-0.009928 
3853.774368  	-0.002843 
3855.703184  	-0.003546 
3857.632000  	-0.006119 
3859.560816  	-0.007932 
3861.489632  	-0.008229 
3863.418448  	-0.007304 
3865.347264  	-0.005870 
3867.276080  	-0.008174 
3869.204896  	-0.007415 
3871.133712  	-0.005089 
3873.062528  	-0.006964 
3874.991344  	-0.006084 
3876.920160  	-0.008129 
3878.848976  	-0.008923 
3880.777792  	-0.006278 
3882.706608  	-0.006874 
3884.635424  	-0.007396 
3886.564240  	-0.005833 
3888.493056  	-0.008558 
3890.421872  	-0.008387 
3892.350688  	-0.006167 
3894.279504  	-0.007087 
3896.208320  	-0.008885 
3898.137136  	-0.008960 
3900.065952  	-0.007213 
3901.994768  	-0.006805 
3903.923584  	-0.005634 
3905.852400  	-0.005279 
3907.781216  	-0.006969 
3909.710032  	-0.008073 
3911.638848  	-0.008380 
3913.567664  	-0.008634 
3915.496480  	-0.008230 
3917.425296  	-0.006779 
3919.354112  	-0.006709 
3921.282928  	-0.007210 
3923.211744  	-0.007490 
3925.140560  	-0.006684 
3927.069376  	-0.007514 
3928.998192  	-0.007931 
3930.927008  	-0.007071 
3932.855824  	-0.006310 
3934.784640  	-0.007005 
3936.713456  	-0.007725 
3938.642272  	-0.008183 
3940.571088  	-0.008564 
3942.499904  	-0.007210 
3944.428720  	-0.007070 
3946.357536  	-0.008113 
3948.286352  	-0.007423 
3950.215168  	-0.007236 
3952.143984  	-0.007830 
3954.072800  	-0.008104 
3956.001616  	-0.007967 
3957.930432  	-0.007660 
3959.859248  	-0.007472 
3961.788064  	-0.007293 
3963.716880  	-0.007533 
3965.645696  	-0.007937 
3967.574512  	-0.008002 
3969.503328  	-0.008036 
3971.432144  	-0.008022 
3973.360960  	-0.007794 
3975.289776  	-0.007357 
3977.218592  	-0.007512 
3979.147408  	-0.007761 
3981.076224  	-0.007698 
3983.005040  	-0.007737 
3984.933856  	-0.007654 
3986.862672  	-0.007478 
3988.791488  	-0.007725 
3990.720304  	-0.007693 
3992.649120  	-0.007810 
3994.577936  	-0.007701 
3996.506752  	-0.007624 
3998.435568  	-0.007594 
4000.364384  	-0.007509 