##TITLE=No Description
##DATA TYPE=INFRARED SPECTRUM
##XUNITS=1/CM
##YUNITS=Abs
399.264912  	0.481503 
401.193728  	0.461787 
403.122544  	0.456004 
405.051360  	0.454871 
406.980176  	0.465447 
408.908992  	0.466984 
410.837808  	0.471833 
412.766624  	0.462933 
414.695440  	0.453151 
416.624256  	0.456938 
418.553072  	0.470567 
420.481888  	0.461909 
422.410704  	0.457746 
424.339520  	0.453504 
426.268336  	0.450694 
428.197152  	0.444588 
430.125968  	0.438798 
432.054784  	0.434326 
433.983600  	0.439954 
435.912416  	0.441558 
437.841232  	0.437064 
439.770048  	0.426680 
441.698864  	0.428650 
443.627680  	0.432477 
445.556496  	0.424287 
447.485312  	0.416101 
449.414128  	0.421549 
451.342944  	0.426778 
453.271760  	0.426482 
455.200576  	0.420937 
457.129392  	0.423994 
459.058208  	0.425176 
460.987024  	0.424000 
462.915840  	0.419517 
464.844656  	0.416708 
466.773472  	0.413566 
468.702288  	0.414391 
470.631104  	0.414962 
472.559920  	0.419406 
474.488736  	0.418370 
476.417552  	0.422629 
478.346368  	0.419837 
480.275184  	0.414734 
482.204000  	0.412659 
484.132816  	0.416633 
486.061632  	0.416036 
487.990448  	0.412510 
489.919264  	0.408043 
491.848080  	0.408726 
493.776896  	0.409117 
495.705712  	0.406743 
497.634528  	0.403243 
499.563344  	0.405495 
501.492160  	0.402703 
503.420976  	0.399364 
505.349792  	0.399070 
507.278608  	0.402335 
509.207424  	0.400239 
511.136240  	0.402199 
513.065056  	0.402382 
514.993872  	0.402769 
516.922688  	0.404392 
518.851504  	0.406110 
520.780320  	0.404766 
522.709136  	0.404730 
524.637952  	0.404249 
526.566768  	0.402306 
528.495584  	0.398699 
530.424400  	0.397636 
532.353216  	0.394284 
534.282032  	0.389650 
536.210848  	0.386195 
538.139664  	0.382424 
540.068480  	0.377852 
541.997296  	0.374965 
543.926112  	0.371928 
545.854928  	0.370576 
547.783744  	0.368167 
549.712560  	0.365603 
551.641376  	0.362981 
553.570192  	0.361733 
555.499008  	0.358307 
557.427824  	0.356220 
559.356640  	0.353430 
561.285456  	0.351296 
563.214272  	0.347218 
565.143088  	0.344314 
567.071904  	0.341203 
569.000720  	0.338010 
570.929536  	0.336081 
572.858352  	0.334428 
574.787168  	0.331621 
576.715984  	0.329035 
578.644800  	0.325676 
580.573616  	0.322440 
582.502432  	0.318462 
584.431248  	0.315186 
586.360064  	0.312250 
588.288880  	0.309820 
590.217696  	0.307934 
592.146512  	0.306714 
594.075328  	0.304413 
596.004144  	0.303056 
597.932960  	0.300945 
599.861776  	0.299489 
601.790592  	0.298331 
603.719408  	0.297786 
605.648224  	0.297055 
607.577040  	0.295721 
609.505856  	0.294090 
611.434672  	0.293285 
613.363488  	0.291986 
615.292304  	0.290788 
617.221120  	0.289253 
619.149936  	0.288030 
621.078752  	0.286514 
623.007568  	0.285375 
624.936384  	0.284211 
626.865200  	0.283102 
628.794016  	0.282309 
630.722832  	0.281837 
632.651648  	0.281630 
634.580464  	0.281464 
636.509280  	0.281763 
638.438096  	0.282060 
640.366912  	0.281312 
642.295728  	0.279470 
644.224544  	0.277148 
646.153360  	0.274540 
648.082176  	0.271640 
650.010992  	0.269380 
651.939808  	0.266332 
653.868624  	0.264129 
655.797440  	0.261301 
657.726256  	0.258836 
659.655072  	0.255580 
661.583888  	0.251777 
663.512704  	0.248001 
665.441520  	0.244552 
667.370336  	0.242460 
669.299152  	0.241351 
671.227968  	0.236128 
673.156784  	0.232469 
675.085600  	0.230837 
677.014416  	0.229241 
678.943232  	0.227551 
680.872048  	0.226090 
682.800864  	0.224513 
684.729680  	0.223198 
686.658496  	0.221766 
688.587312  	0.220495 
690.516128  	0.219207 
692.444944  	0.218323 
694.373760  	0.216612 
696.302576  	0.215103 
698.231392  	0.213638 
700.160208  	0.211789 
702.089024  	0.209506 
704.017840  	0.207328 
705.946656  	0.205066 
707.875472  	0.203075 
709.804288  	0.201458 
711.733104  	0.200141 
713.661920  	0.198841 
715.590736  	0.197686 
717.519552  	0.197221 
719.448368  	0.197280 
721.377184  	0.197650 
723.306000  	0.198050 
725.234816  	0.198631 
727.163632  	0.197979 
729.092448  	0.195692 
731.021264  	0.192913 
732.950080  	0.190300 
734.878896  	0.187709 
736.807712  	0.185097 
738.736528  	0.183368 
740.665344  	0.181744 
742.594160  	0.180501 
744.522976  	0.179072 
746.451792  	0.178064 
748.380608  	0.176798 
750.309424  	0.175413 
752.238240  	0.174399 
754.167056  	0.173691 
756.095872  	0.172900 
758.024688  	0.171789 
759.953504  	0.171241 
761.882320  	0.171919 
763.811136  	0.172464 
765.739952  	0.171266 
767.668768  	0.168983 
769.597584  	0.166911 
771.526400  	0.166228 
773.455216  	0.167309 
775.384032  	0.169732 
777.312848  	0.173798 
779.241664  	0.176804 
781.170480  	0.176144 
783.099296  	0.172454 
785.028112  	0.168147 
786.956928  	0.163528 
788.885744  	0.159931 
790.814560  	0.157055 
792.743376  	0.155681 
794.672192  	0.155322 
796.601008  	0.154509 
798.529824  	0.151523 
800.458640  	0.148054 
802.387456  	0.145406 
804.316272  	0.143618 
806.245088  	0.142435 
808.173904  	0.141755 
810.102720  	0.141585 
812.031536  	0.141267 
813.960352  	0.140913 
815.889168  	0.141262 
817.817984  	0.141820 
819.746800  	0.142536 
821.675616  	0.143003 
823.604432  	0.143208 
825.533248  	0.143191 
827.462064  	0.143455 
829.390880  	0.142981 
831.319696  	0.142455 
833.248512  	0.141528 
835.177328  	0.140078 
837.106144  	0.138159 
839.034960  	0.136112 
840.963776  	0.133228 
842.892592  	0.130006 
844.821408  	0.126896 
846.750224  	0.123995 
848.679040  	0.121797 
850.607856  	0.120175 
852.536672  	0.119095 
854.465488  	0.118071 
856.394304  	0.117177 
858.323120  	0.116033 
860.251936  	0.114732 
862.180752  	0.113513 
864.109568  	0.111764 
866.038384  	0.110297 
867.967200  	0.108672 
869.896016  	0.107219 
871.824832  	0.106364 
873.753648  	0.106537 
875.682464  	0.106873 
877.611280  	0.107948 
879.540096  	0.109383 
881.468912  	0.111103 
883.397728  	0.112821 
885.326544  	0.114093 
887.255360  	0.115067 
889.184176  	0.115180 
891.112992  	0.114532 
893.041808  	0.113424 
894.970624  	0.111646 
896.899440  	0.108475 
898.828256  	0.104750 
900.757072  	0.101461 
902.685888  	0.098635 
904.614704  	0.096708 
906.543520  	0.096061 
908.472336  	0.096918 
910.401152  	0.098607 
912.329968  	0.100685 
914.258784  	0.102689 
916.187600  	0.104851 
918.116416  	0.106745 
920.045232  	0.107834 
921.974048  	0.108445 
923.902864  	0.108963 
925.831680  	0.109401 
927.760496  	0.109913 
929.689312  	0.110587 
931.618128  	0.111559 
933.546944  	0.112197 
935.475760  	0.112233 
937.404576  	0.111946 
939.333392  	0.111339 
941.262208  	0.111041 
943.191024  	0.111754 
945.119840  	0.113939 
947.048656  	0.117841 
948.977472  	0.123608 
950.906288  	0.130923 
952.835104  	0.139619 
954.763920  	0.149516 
956.692736  	0.159328 
958.621552  	0.168125 
960.550368  	0.174595 
962.479184  	0.178467 
964.408000  	0.178748 
966.336816  	0.176003 
968.265632  	0.169670 
970.194448  	0.160734 
972.123264  	0.150269 
974.052080  	0.139014 
975.980896  	0.127882 
977.909712  	0.117330 
979.838528  	0.108206 
981.767344  	0.100760 
983.696160  	0.095181 
985.624976  	0.091741 
987.553792  	0.090935 
989.482608  	0.092321 
991.411424  	0.095697 
993.340240  	0.100732 
995.269056  	0.106401 
997.197872  	0.112638 
999.126688  	0.118822 
1001.055504  	0.125147 
1002.984320  	0.131090 
1004.913136  	0.136964 
1006.841952  	0.142355 
1008.770768  	0.147363 
1010.699584  	0.151492 
1012.628400  	0.154700 
1014.557216  	0.157074 
1016.486032  	0.158282 
1018.414848  	0.158749 
1020.343664  	0.159008 
1022.272480  	0.159287 
1024.201296  	0.159390 
1026.130112  	0.159183 
1028.058928  	0.159618 
1029.987744  	0.161142 
1031.916560  	0.163307 
1033.845376  	0.165921 
1035.774192  	0.169325 
1037.703008  	0.173822 
1039.631824  	0.180563 
1041.560640  	0.189276 
1043.489456  	0.200515 
1045.418272  	0.212697 
1047.347088  	0.224668 
1049.275904  	0.233611 
1051.204720  	0.238983 
1053.133536  	0.240727 
1055.062352  	0.239673 
1056.991168  	0.237228 
1058.919984  	0.235365 
1060.848800  	0.233920 
1062.777616  	0.232279 
1064.706432  	0.229876 
1066.635248  	0.226916 
1068.564064  	0.223334 
1070.492880  	0.218721 
1072.421696  	0.213937 
1074.350512  	0.210930 
1076.279328  	0.210156 
1078.208144  	0.212298 
1080.136960  	0.215330 
1082.065776  	0.217606 
1083.994592  	0.216933 
1085.923408  	0.213576 
1087.852224  	0.207549 
1089.781040  	0.200438 
1091.709856  	0.191736 
1093.638672  	0.182107 
1095.567488  	0.171264 
1097.496304  	0.160442 
1099.425120  	0.149789 
1101.353936  	0.139516 
1103.282752  	0.130037 
1105.211568  	0.121165 
1107.140384  	0.113045 
1109.069200  	0.105559 
1110.998016  	0.098801 
1112.926832  	0.092847 
1114.855648  	0.087189 
1116.784464  	0.081599 
1118.713280  	0.076342 
1120.642096  	0.071503 
1122.570912  	0.066827 
1124.499728  	0.062608 
1126.428544  	0.058970 
1128.357360  	0.055822 
1130.286176  	0.052845 
1132.214992  	0.050545 
1134.143808  	0.048912 
1136.072624  	0.047352 
1138.001440  	0.045924 
1139.930256  	0.044813 
1141.859072  	0.043551 
1143.787888  	0.042238 
1145.716704  	0.041308 
1147.645520  	0.040453 
1149.574336  	0.039987 
1151.503152  	0.039751 
1153.431968  	0.039831 
1155.360784  	0.039900 
1157.289600  	0.040437 
1159.218416  	0.041338 
1161.147232  	0.042411 
1163.076048  	0.043633 
1165.004864  	0.044913 
1166.933680  	0.046138 
1168.862496  	0.047442 
1170.791312  	0.049079 
1172.720128  	0.050993 
1174.648944  	0.053237 
1176.577760  	0.055339 
1178.506576  	0.057575 
1180.435392  	0.060024 
1182.364208  	0.062467 
1184.293024  	0.065179 
1186.221840  	0.068347 
1188.150656  	0.071984 
1190.079472  	0.076047 
1192.008288  	0.080983 
1193.937104  	0.086473 
1195.865920  	0.092479 
1197.794736  	0.099104 
1199.723552  	0.106036 
1201.652368  	0.113019 
1203.581184  	0.119735 
1205.510000  	0.126017 
1207.438816  	0.131473 
1209.367632  	0.136501 
1211.296448  	0.140273 
1213.225264  	0.143066 
1215.154080  	0.144690 
1217.082896  	0.145626 
1219.011712  	0.145438 
1220.940528  	0.144776 
1222.869344  	0.143424 
1224.798160  	0.141835 
1226.726976  	0.139560 
1228.655792  	0.136653 
1230.584608  	0.133552 
1232.513424  	0.129997 
1234.442240  	0.126055 
1236.371056  	0.121963 
1238.299872  	0.117445 
1240.228688  	0.112139 
1242.157504  	0.106941 
1244.086320  	0.102136 
1246.015136  	0.097035 
1247.943952  	0.091987 
1249.872768  	0.087071 
1251.801584  	0.082512 
1253.730400  	0.078023 
1255.659216  	0.073600 
1257.588032  	0.069382 
1259.516848  	0.065602 
1261.445664  	0.061950 
1263.374480  	0.058672 
1265.303296  	0.055945 
1267.232112  	0.053725 
1269.160928  	0.052179 
1271.089744  	0.051219 
1273.018560  	0.050832 
1274.947376  	0.051033 
1276.876192  	0.051654 
1278.805008  	0.052003 
1280.733824  	0.051749 
1282.662640  	0.050755 
1284.591456  	0.049471 
1286.520272  	0.048251 
1288.449088  	0.047457 
1290.377904  	0.047395 
1292.306720  	0.048056 
1294.235536  	0.048665 
1296.164352  	0.048493 
1298.093168  	0.047226 
1300.021984  	0.045373 
1301.950800  	0.043333 
1303.879616  	0.041053 
1305.808432  	0.038693 
1307.737248  	0.036313 
1309.666064  	0.033927 
1311.594880  	0.032195 
1313.523696  	0.030973 
1315.452512  	0.030110 
1317.381328  	0.029789 
1319.310144  	0.029962 
1321.238960  	0.030217 
1323.167776  	0.030761 
1325.096592  	0.031290 
1327.025408  	0.031408 
1328.954224  	0.031298 
1330.883040  	0.030794 
1332.811856  	0.029811 
1334.740672  	0.028921 
1336.669488  	0.028555 
1338.598304  	0.028697 
1340.527120  	0.028506 
1342.455936  	0.027611 
1344.384752  	0.027370 
1346.313568  	0.027593 
1348.242384  	0.028134 
1350.171200  	0.029046 
1352.100016  	0.030151 
1354.028832  	0.031501 
1355.957648  	0.033057 
1357.886464  	0.034464 
1359.815280  	0.035884 
1361.744096  	0.037882 
1363.672912  	0.039902 
1365.601728  	0.040782 
1367.530544  	0.041975 
1369.459360  	0.043342 
1371.388176  	0.043717 
1373.316992  	0.043760 
1375.245808  	0.043186 
1377.174624  	0.041160 
1379.103440  	0.039180 
1381.032256  	0.037226 
1382.961072  	0.035556 
1384.889888  	0.034206 
1386.818704  	0.033585 
1388.747520  	0.032378 
1390.676336  	0.030421 
1392.605152  	0.028757 
1394.533968  	0.028392 
1396.462784  	0.028787 
1398.391600  	0.028736 
1400.320416  	0.028804 
1402.249232  	0.028452 
1404.178048  	0.029049 
1406.106864  	0.029891 
1408.035680  	0.030603 
1409.964496  	0.031777 
1411.893312  	0.033376 
1413.822128  	0.034763 
1415.750944  	0.036444 
1417.679760  	0.038033 
1419.608576  	0.039559 
1421.537392  	0.039020 
1423.466208  	0.038347 
1425.395024  	0.037197 
1427.323840  	0.035275 
1429.252656  	0.033895 
1431.181472  	0.032797 
1433.110288  	0.031917 
1435.039104  	0.031742 
1436.967920  	0.033277 
1438.896736  	0.033848 
1440.825552  	0.033957 
1442.754368  	0.034401 
1444.683184  	0.034367 
1446.612000  	0.034522 
1448.540816  	0.035028 
1450.469632  	0.035095 
1452.398448  	0.035143 
1454.327264  	0.035045 
1456.256080  	0.035635 
1458.184896  	0.037478 
1460.113712  	0.036276 
1462.042528  	0.034903 
1463.971344  	0.034630 
1465.900160  	0.035584 
1467.828976  	0.035707 
1469.757792  	0.036139 
1471.686608  	0.038602 
1473.615424  	0.044495 
1475.544240  	0.047578 
1477.473056  	0.050724 
1479.401872  	0.052544 
1481.330688  	0.055113 
1483.259504  	0.056890 
1485.188320  	0.057688 
1487.117136  	0.058392 
1489.045952  	0.059399 
1490.974768  	0.058859 
1492.903584  	0.056085 
1494.832400  	0.052741 
1496.761216  	0.049624 
1498.690032  	0.045706 
1500.618848  	0.042003 
1502.547664  	0.038310 
1504.476480  	0.035271 
1506.405296  	0.034512 
1508.334112  	0.035041 
1510.262928  	0.032482 
1512.191744  	0.030813 
1514.120560  	0.030164 
1516.049376  	0.031030 
1517.978192  	0.032374 
1519.907008  	0.032681 
1521.835824  	0.036484 
1523.764640  	0.038593 
1525.693456  	0.040554 
1527.622272  	0.042556 
1529.551088  	0.042213 
1531.479904  	0.040864 
1533.408720  	0.040063 
1535.337536  	0.038012 
1537.266352  	0.035283 
1539.195168  	0.033816 
1541.123984  	0.033425 
1543.052800  	0.032134 
1544.981616  	0.031085 
1546.910432  	0.029454 
1548.839248  	0.028826 
1550.768064  	0.029383 
1552.696880  	0.028618 
1554.625696  	0.029142 
1556.554512  	0.028766 
1558.483328  	0.030801 
1560.412144  	0.035306 
1562.340960  	0.034946 
1564.269776  	0.036134 
1566.198592  	0.039023 
1568.127408  	0.040850 
1570.056224  	0.046027 
1571.985040  	0.048672 
1573.913856  	0.049667 
1575.842672  	0.052417 
1577.771488  	0.055684 
1579.700304  	0.054464 
1581.629120  	0.053730 
1583.557936  	0.053296 
1585.486752  	0.053932 
1587.415568  	0.055310 
1589.344384  	0.058152 
1591.273200  	0.061717 
1593.202016  	0.066448 
1595.130832  	0.071609 
1597.059648  	0.076632 
1598.988464  	0.080427 
1600.917280  	0.084278 
1602.846096  	0.087327 
1604.774912  	0.089279 
1606.703728  	0.089616 
1608.632544  	0.090007 
1610.561360  	0.089227 
1612.490176  	0.088204 
1614.418992  	0.086019 
1616.347808  	0.087055 
1618.276624  	0.090025 
1620.205440  	0.090184 
1622.134256  	0.091367 
1624.063072  	0.097501 
1625.991888  	0.100947 
1627.920704  	0.106068 
1629.849520  	0.111690 
1631.778336  	0.115194 
1633.707152  	0.117310 
1635.635968  	0.125731 
1637.564784  	0.134030 
1639.493600  	0.134798 
1641.422416  	0.136290 
1643.351232  	0.136661 
1645.280048  	0.135764 
1647.208864  	0.141207 
1649.137680  	0.141208 
1651.066496  	0.135049 
1652.995312  	0.136093 
1654.924128  	0.142609 
1656.852944  	0.136866 
1658.781760  	0.133260 
1660.710576  	0.130221 
1662.639392  	0.128996 
1664.568208  	0.126821 
1666.497024  	0.121802 
1668.425840  	0.118107 
1670.354656  	0.116809 
1672.283472  	0.113124 
1674.212288  	0.109069 
1676.141104  	0.108371 
1678.069920  	0.105472 
1679.998736  	0.103533 
1681.927552  	0.100914 
1683.856368  	0.100889 
1685.785184  	0.103845 
1687.714000  	0.100636 
1689.642816  	0.100115 
1691.571632  	0.099023 
1693.500448  	0.096162 
1695.429264  	0.095557 
1697.358080  	0.096939 
1699.286896  	0.093812 
1701.215712  	0.096291 
1703.144528  	0.093002 
1705.073344  	0.090721 
1707.002160  	0.089124 
1708.930976  	0.085427 
1710.859792  	0.081325 
1712.788608  	0.076545 
1714.717424  	0.071295 
1716.646240  	0.065796 
1718.575056  	0.059262 
1720.503872  	0.052009 
1722.432688  	0.045356 
1724.361504  	0.038688 
1726.290320  	0.032805 
1728.219136  	0.027966 
1730.147952  	0.024013 
1732.076768  	0.020444 
1734.005584  	0.017489 
1735.934400  	0.014577 
1737.863216  	0.012714 
1739.792032  	0.011006 
1741.720848  	0.009464 
1743.649664  	0.008546 
1745.578480  	0.007428 
1747.507296  	0.006698 
1749.436112  	0.006576 
1751.364928  	0.005666 
1753.293744  	0.004410 
1755.222560  	0.003579 
1757.151376  	0.003878 
1759.080192  	0.003251 
1761.009008  	0.002819 
1762.937824  	0.002469 
1764.866640  	0.002000 
1766.795456  	0.001824 
1768.724272  	0.001978 
1770.653088  	0.001282 
1772.581904  	0.001724 
1774.510720  	0.001673 
1776.439536  	0.001149 
1778.368352  	0.000365 
1780.297168  	0.000400 
1782.225984  	0.000127 
1784.154800  	-0.000037 
1786.083616  	-0.000352 
1788.012432  	-0.000638 
1789.941248  	-0.000442 
1791.870064  	0.000143 
1793.798880  	-0.000300 
1795.727696  	-0.000559 
1797.656512  	-0.001061 
1799.585328  	-0.001123 
1801.514144  	-0.000760 
1803.442960  	-0.000873 
1805.371776  	-0.001280 
1807.300592  	-0.001513 
1809.229408  	-0.001700 
1811.158224  	-0.001609 
1813.087040  	-0.001874 
1815.015856  	-0.002224 
1816.944672  	-0.002166 
1818.873488  	-0.001838 
1820.802304  	-0.001761 
1822.731120  	-0.001714 
1824.659936  	-0.001853 
1826.588752  	-0.001848 
1828.517568  	-0.002118 
1830.446384  	-0.001881 
1832.375200  	-0.002314 
1834.304016  	-0.002437 
1836.232832  	-0.002378 
1838.161648  	-0.002178 
1840.090464  	-0.002385 
1842.019280  	-0.002685 
1843.948096  	-0.002586 
1845.876912  	-0.002302 
1847.805728  	-0.002674 
1849.734544  	-0.002913 
1851.663360  	-0.002940 
1853.592176  	-0.002557 
1855.520992  	-0.002787 
1857.449808  	-0.002936 
1859.378624  	-0.003267 
1861.307440  	-0.003035 
1863.236256  	-0.003156 
1865.165072  	-0.003040 
1867.093888  	-0.003131 
1869.022704  	-0.002571 
1870.951520  	-0.002594 
1872.880336  	-0.002772 
1874.809152  	-0.003191 
1876.737968  	-0.003425 
1878.666784  	-0.003647 
1880.595600  	-0.003821 
1882.524416  	-0.003690 
1884.453232  	-0.003189 
1886.382048  	-0.003599 
1888.310864  	-0.003488 
1890.239680  	-0.003205 
1892.168496  	-0.002931 
1894.097312  	-0.002961 
1896.026128  	-0.003305 
1897.954944  	-0.003414 
1899.883760  	-0.003203 
1901.812576  	-0.003337 
1903.741392  	-0.003317 
1905.670208  	-0.003829 
1907.599024  	-0.004218 
1909.527840  	-0.004299 
1911.456656  	-0.003593 
1913.385472  	-0.003377 
1915.314288  	-0.003245 
1917.243104  	-0.003470 
1919.171920  	-0.003267 
1921.100736  	-0.003576 
1923.029552  	-0.003698 
1924.958368  	-0.004459 
1926.887184  	-0.004618 
1928.816000  	-0.004670 
1930.744816  	-0.004183 
1932.673632  	-0.004074 
1934.602448  	-0.003848 
1936.531264  	-0.003935 
1938.460080  	-0.003426 
1940.388896  	-0.003381 
1942.317712  	-0.003416 
1944.246528  	-0.004440 
1946.175344  	-0.004174 
1948.104160  	-0.003886 
1950.032976  	-0.003955 
1951.961792  	-0.004547 
1953.890608  	-0.004440 
1955.819424  	-0.004859 
1957.748240  	-0.004957 
1959.677056  	-0.004954 
1961.605872  	-0.004583 
1963.534688  	-0.004811 
1965.463504  	-0.004462 
1967.392320  	-0.005211 
1969.321136  	-0.005279 
1971.249952  	-0.005624 
1973.178768  	-0.005296 
1975.107584  	-0.004647 
1977.036400  	-0.004201 
1978.965216  	-0.004115 
1980.894032  	-0.004310 
1982.822848  	-0.004425 
1984.751664  	-0.003168 
1986.680480  	-0.002801 
1988.609296  	-0.002569 
1990.538112  	-0.002209 
1992.466928  	-0.001536 
1994.395744  	-0.003121 
1996.324560  	-0.003340 
1998.253376  	-0.003583 
2000.182192  	-0.004298 
2002.111008  	-0.004976 
2004.039824  	-0.004645 
2005.968640  	-0.004362 
2007.897456  	-0.003589 
2009.826272  	-0.003249 
2011.755088  	-0.003198 
2013.683904  	-0.003621 
2015.612720  	-0.002591 
2017.541536  	-0.002427 
2019.470352  	-0.002411 
2021.399168  	-0.003272 
2023.327984  	-0.002865 
2025.256800  	-0.002705 
2027.185616  	-0.002076 
2029.114432  	-0.002313 
2031.043248  	-0.002918 
2032.972064  	-0.003018 
2034.900880  	-0.001416 
2036.829696  	-0.000924 
2038.758512  	-0.000713 
2040.687328  	-0.001501 
2042.616144  	-0.001729 
2044.544960  	-0.001857 
2046.473776  	-0.001432 
2048.402592  	-0.000590 
2050.331408  	-0.000176 
2052.260224  	-0.000546 
2054.189040  	-0.000884 
2056.117856  	-0.001786 
2058.046672  	-0.000984 
2059.975488  	-0.000727 
2061.904304  	-0.000748 
2063.833120  	-0.000350 
2065.761936  	-0.000291 
2067.690752  	-0.000797 
2069.619568  	-0.000686 
2071.548384  	-0.001189 
2073.477200  	-0.000861 
2075.406016  	-0.000563 
2077.334832  	-0.000206 
2079.263648  	0.000182 
2081.192464  	0.000089 
2083.121280  	-0.000473 
2085.050096  	-0.000706 
2086.978912  	-0.001003 
2088.907728  	-0.000660 
2090.836544  	-0.000689 
2092.765360  	-0.000753 
2094.694176  	-0.000343 
2096.622992  	0.000316 
2098.551808  	-0.000043 
2100.480624  	-0.000148 
2102.409440  	-0.000152 
2104.338256  	-0.000054 
2106.267072  	-0.000321 
2108.195888  	-0.000277 
2110.124704  	-0.000199 
2112.053520  	-0.000011 
2113.982336  	-0.000075 
2115.911152  	-0.000255 
2117.839968  	-0.000404 
2119.768784  	-0.000248 
2121.697600  	-0.000345 
2123.626416  	-0.000734 
2125.555232  	-0.001162 
2127.484048  	-0.001162 
2129.412864  	-0.001195 
2131.341680  	-0.000930 
2133.270496  	-0.000558 
2135.199312  	-0.000026 
2137.128128  	0.000220 
2139.056944  	0.000382 
2140.985760  	0.000011 
2142.914576  	0.000077 
2144.843392  	-0.000595 
2146.772208  	-0.000712 
2148.701024  	-0.000974 
2150.629840  	-0.001396 
2152.558656  	-0.001354 
2154.487472  	-0.000547 
2156.416288  	-0.000647 
2158.345104  	0.001136 
2160.273920  	0.004301 
2162.202736  	0.003668 
2164.131552  	0.000850 
2166.060368  	0.001228 
2167.989184  	0.000808 
2169.918000  	0.000364 
2171.846816  	0.000315 
2173.775632  	0.001024 
2175.704448  	0.001229 
2177.633264  	0.001317 
2179.562080  	0.000563 
2181.490896  	0.000772 
2183.419712  	0.001523 
2185.348528  	0.001415 
2187.277344  	0.000706 
2189.206160  	0.000618 
2191.134976  	0.000235 
2193.063792  	0.000047 
2194.992608  	0.000061 
2196.921424  	0.000003 
2198.850240  	-0.000661 
2200.779056  	-0.000550 
2202.707872  	-0.000272 
2204.636688  	0.000353 
2206.565504  	0.000007 
2208.494320  	-0.000449 
2210.423136  	-0.000478 
2212.351952  	-0.000048 
2214.280768  	-0.000362 
2216.209584  	-0.000289 
2218.138400  	-0.000458 
2220.067216  	-0.000909 
2221.996032  	-0.001050 
2223.924848  	-0.000334 
2225.853664  	-0.000028 
2227.782480  	0.000265 
2229.711296  	-0.000459 
2231.640112  	-0.000467 
2233.568928  	-0.000340 
2235.497744  	-0.000360 
2237.426560  	-0.000482 
2239.355376  	-0.000331 
2241.284192  	-0.000775 
2243.213008  	-0.000964 
2245.141824  	-0.000842 
2247.070640  	-0.000847 
2248.999456  	-0.000922 
2250.928272  	-0.000469 
2252.857088  	-0.000835 
2254.785904  	-0.000665 
2256.714720  	-0.000175 
2258.643536  	0.000018 
2260.572352  	-0.000078 
2262.501168  	-0.000239 
2264.429984  	-0.000120 
2266.358800  	0.000058 
2268.287616  	-0.000455 
2270.216432  	-0.000520 
2272.145248  	-0.000360 
2274.074064  	-0.000223 
2276.002880  	-0.000221 
2277.931696  	0.000062 
2279.860512  	-0.000141 
2281.789328  	-0.000109 
2283.718144  	0.000087 
2285.646960  	0.000515 
2287.575776  	0.000561 
2289.504592  	0.000498 
2291.433408  	0.000447 
2293.362224  	0.000699 
2295.291040  	0.000870 
2297.219856  	0.001138 
2299.148672  	0.001168 
2301.077488  	0.001130 
2303.006304  	0.001480 
2304.935120  	0.001953 
2306.863936  	0.002327 
2308.792752  	0.002772 
2310.721568  	0.002861 
2312.650384  	0.002869 
2314.579200  	0.002520 
2316.508016  	0.002857 
2318.436832  	0.003667 
2320.365648  	0.004209 
2322.294464  	0.004501 
2324.223280  	0.004300 
2326.152096  	0.003525 
2328.080912  	0.003112 
2330.009728  	0.003135 
2331.938544  	0.002957 
2333.867360  	0.002628 
2335.796176  	0.002447 
2337.724992  	0.002388 
2339.653808  	0.002669 
2341.582624  	0.003212 
2343.511440  	0.003804 
2345.440256  	0.003888 
2347.369072  	0.003179 
2349.297888  	0.002675 
2351.226704  	0.003001 
2353.155520  	0.002980 
2355.084336  	0.002788 
2357.013152  	0.003455 
2358.941968  	0.004338 
2360.870784  	0.004122 
2362.799600  	0.003733 
2364.728416  	0.003720 
2366.657232  	0.003843 
2368.586048  	0.003708 
2370.514864  	0.003756 
2372.443680  	0.003269 
2374.372496  	0.002998 
2376.301312  	0.002766 
2378.230128  	0.002328 
2380.158944  	0.001608 
2382.087760  	0.000997 
2384.016576  	0.000339 
2385.945392  	-0.000154 
2387.874208  	-0.000353 
2389.803024  	-0.000517 
2391.731840  	-0.000791 
2393.660656  	-0.000745 
2395.589472  	-0.000583 
2397.518288  	-0.000668 
2399.447104  	-0.000713 
2401.375920  	-0.000669 
2403.304736  	-0.000765 
2405.233552  	-0.000794 
2407.162368  	-0.000898 
2409.091184  	-0.000802 
2411.020000  	-0.000695 
2412.948816  	-0.000781 
2414.877632  	-0.000794 
2416.806448  	-0.000677 
2418.735264  	-0.000725 
2420.664080  	-0.000617 
2422.592896  	-0.000569 
2424.521712  	-0.000562 
2426.450528  	-0.000552 
2428.379344  	-0.000330 
2430.308160  	-0.000127 
2432.236976  	-0.000240 
2434.165792  	-0.000061 
2436.094608  	0.000144 
2438.023424  	0.000006 
2439.952240  	0.000024 
2441.881056  	0.000026 
2443.809872  	-0.000193 
2445.738688  	-0.000411 
2447.667504  	-0.000017 
2449.596320  	0.000403 
2451.525136  	0.000430 
2453.453952  	0.000431 
2455.382768  	0.000553 
2457.311584  	0.000546 
2459.240400  	0.000421 
2461.169216  	0.000544 
2463.098032  	0.000881 
2465.026848  	0.000753 
2466.955664  	0.000625 
2468.884480  	0.000319 
2470.813296  	0.000275 
2472.742112  	0.000455 
2474.670928  	0.000704 
2476.599744  	0.001011 
2478.528560  	0.001291 
2480.457376  	0.001335 
2482.386192  	0.001375 
2484.315008  	0.001236 
2486.243824  	0.001261 
2488.172640  	0.001727 
2490.101456  	0.002051 
2492.030272  	0.001886 
2493.959088  	0.001624 
2495.887904  	0.001362 
2497.816720  	0.001589 
2499.745536  	0.001871 
2501.674352  	0.001978 
2503.603168  	0.001820 
2505.531984  	0.001687 
2507.460800  	0.001567 
2509.389616  	0.001511 
2511.318432  	0.001590 
2513.247248  	0.001903 
2515.176064  	0.002110 
2517.104880  	0.001991 
2519.033696  	0.001795 
2520.962512  	0.001866 
2522.891328  	0.002005 
2524.820144  	0.002193 
2526.748960  	0.002199 
2528.677776  	0.002316 
2530.606592  	0.002485 
2532.535408  	0.002613 
2534.464224  	0.002453 
2536.393040  	0.002173 
2538.321856  	0.002303 
2540.250672  	0.002516 
2542.179488  	0.002776 
2544.108304  	0.003003 
2546.037120  	0.002917 
2547.965936  	0.002966 
2549.894752  	0.003234 
2551.823568  	0.003467 
2553.752384  	0.003511 
2555.681200  	0.003380 
2557.610016  	0.003301 
2559.538832  	0.003297 
2561.467648  	0.003623 
2563.396464  	0.003943 
2565.325280  	0.003844 
2567.254096  	0.003709 
2569.182912  	0.003691 
2571.111728  	0.003880 
2573.040544  	0.003990 
2574.969360  	0.004235 
2576.898176  	0.004372 
2578.826992  	0.004285 
2580.755808  	0.004262 
2582.684624  	0.004425 
2584.613440  	0.004475 
2586.542256  	0.004731 
2588.471072  	0.004748 
2590.399888  	0.004555 
2592.328704  	0.004674 
2594.257520  	0.005091 
2596.186336  	0.005044 
2598.115152  	0.004957 
2600.043968  	0.005232 
2601.972784  	0.005389 
2603.901600  	0.005472 
2605.830416  	0.005477 
2607.759232  	0.005456 
2609.688048  	0.005480 
2611.616864  	0.005572 
2613.545680  	0.005778 
2615.474496  	0.005991 
2617.403312  	0.006116 
2619.332128  	0.006053 
2621.260944  	0.006152 
2623.189760  	0.006270 
2625.118576  	0.006365 
2627.047392  	0.006319 
2628.976208  	0.006418 
2630.905024  	0.006519 
2632.833840  	0.006684 
2634.762656  	0.006766 
2636.691472  	0.006949 
2638.620288  	0.007133 
2640.549104  	0.007235 
2642.477920  	0.007316 
2644.406736  	0.007335 
2646.335552  	0.007488 
2648.264368  	0.007715 
2650.193184  	0.007866 
2652.122000  	0.007920 
2654.050816  	0.007967 
2655.979632  	0.008033 
2657.908448  	0.008152 
2659.837264  	0.008305 
2661.766080  	0.008366 
2663.694896  	0.008441 
2665.623712  	0.008628 
2667.552528  	0.008823 
2669.481344  	0.008790 
2671.410160  	0.008755 
2673.338976  	0.008940 
2675.267792  	0.009120 
2677.196608  	0.009236 
2679.125424  	0.009406 
2681.054240  	0.009481 
2682.983056  	0.009620 
2684.911872  	0.009705 
2686.840688  	0.009766 
2688.769504  	0.009824 
2690.698320  	0.009881 
2692.627136  	0.009998 
2694.555952  	0.010109 
2696.484768  	0.010173 
2698.413584  	0.010214 
2700.342400  	0.010206 
2702.271216  	0.010386 
2704.200032  	0.010610 
2706.128848  	0.010754 
2708.057664  	0.010842 
2709.986480  	0.010861 
2711.915296  	0.010948 
2713.844112  	0.011056 
2715.772928  	0.011162 
2717.701744  	0.011234 
2719.630560  	0.011439 
2721.559376  	0.011616 
2723.488192  	0.011666 
2725.417008  	0.011771 
2727.345824  	0.011866 
2729.274640  	0.012020 
2731.203456  	0.012103 
2733.132272  	0.012222 
2735.061088  	0.012324 
2736.989904  	0.012335 
2738.918720  	0.012474 
2740.847536  	0.012599 
2742.776352  	0.012627 
2744.705168  	0.012728 
2746.633984  	0.012833 
2748.562800  	0.012950 
2750.491616  	0.013033 
2752.420432  	0.013089 
2754.349248  	0.012994 
2756.278064  	0.012958 
2758.206880  	0.013070 
2760.135696  	0.013101 
2762.064512  	0.013048 
2763.993328  	0.013153 
2765.922144  	0.013270 
2767.850960  	0.013275 
2769.779776  	0.013237 
2771.708592  	0.013251 
2773.637408  	0.013167 
2775.566224  	0.013197 
2777.495040  	0.013272 
2779.423856  	0.013287 
2781.352672  	0.013319 
2783.281488  	0.013350 
2785.210304  	0.013279 
2787.139120  	0.013349 
2789.067936  	0.013338 
2790.996752  	0.013374 
2792.925568  	0.013444 
2794.854384  	0.013458 
2796.783200  	0.013413 
2798.712016  	0.013302 
2800.640832  	0.013312 
2802.569648  	0.013527 
2804.498464  	0.013675 
2806.427280  	0.013732 
2808.356096  	0.013760 
2810.284912  	0.013704 
2812.213728  	0.013638 
2814.142544  	0.013777 
2816.071360  	0.013771 
2818.000176  	0.013843 
2819.928992  	0.013963 
2821.857808  	0.013872 
2823.786624  	0.013778 
2825.715440  	0.013864 
2827.644256  	0.013885 
2829.573072  	0.013874 
2831.501888  	0.013996 
2833.430704  	0.014037 
2835.359520  	0.013979 
2837.288336  	0.013898 
2839.217152  	0.013937 
2841.145968  	0.013912 
2843.074784  	0.013753 
2845.003600  	0.013720 
2846.932416  	0.013735 
2848.861232  	0.013794 
2850.790048  	0.013844 
2852.718864  	0.013950 
2854.647680  	0.013979 
2856.576496  	0.014007 
2858.505312  	0.013987 
2860.434128  	0.014141 
2862.362944  	0.014205 
2864.291760  	0.014228 
2866.220576  	0.014231 
2868.149392  	0.014283 
2870.078208  	0.014367 
2872.007024  	0.014557 
2873.935840  	0.014937 
2875.864656  	0.015141 
2877.793472  	0.015256 
2879.722288  	0.015637 
2881.651104  	0.015960 
2883.579920  	0.016203 
2885.508736  	0.016448 
2887.437552  	0.016624 
2889.366368  	0.016622 
2891.295184  	0.016554 
2893.224000  	0.016521 
2895.152816  	0.016599 
2897.081632  	0.016682 
2899.010448  	0.016439 
2900.939264  	0.016095 
2902.868080  	0.016313 
2904.796896  	0.016568 
2906.725712  	0.016703 
2908.654528  	0.016962 
2910.583344  	0.017190 
2912.512160  	0.017354 
2914.440976  	0.017624 
2916.369792  	0.018104 
2918.298608  	0.018512 
2920.227424  	0.018776 
2922.156240  	0.019109 
2924.085056  	0.019480 
2926.013872  	0.019831 
2927.942688  	0.020348 
2929.871504  	0.020970 
2931.800320  	0.021434 
2933.729136  	0.022025 
2935.657952  	0.022558 
2937.586768  	0.022955 
2939.515584  	0.023259 
2941.444400  	0.023484 
2943.373216  	0.023767 
2945.302032  	0.024078 
2947.230848  	0.024281 
2949.159664  	0.024191 
2951.088480  	0.023971 
2953.017296  	0.023913 
2954.946112  	0.023818 
2956.874928  	0.023657 
2958.803744  	0.023435 
2960.732560  	0.023261 
2962.661376  	0.023063 
2964.590192  	0.022894 
2966.519008  	0.022646 
2968.447824  	0.022271 
2970.376640  	0.022138 
2972.305456  	0.022011 
2974.234272  	0.022032 
2976.163088  	0.022076 
2978.091904  	0.021906 
2980.020720  	0.021681 
2981.949536  	0.021761 
2983.878352  	0.021793 
2985.807168  	0.021524 
2987.735984  	0.021448 
2989.664800  	0.021541 
2991.593616  	0.022059 
2993.522432  	0.022518 
2995.451248  	0.022778 
2997.380064  	0.022970 
2999.308880  	0.023376 
3001.237696  	0.023876 
3003.166512  	0.024310 
3005.095328  	0.024697 
3007.024144  	0.025033 
3008.952960  	0.025463 
3010.881776  	0.025987 
3012.810592  	0.026492 
3014.739408  	0.026984 
3016.668224  	0.027449 
3018.597040  	0.027878 
3020.525856  	0.028247 
3022.454672  	0.028594 
3024.383488  	0.029083 
3026.312304  	0.029549 
3028.241120  	0.029791 
3030.169936  	0.030173 
3032.098752  	0.030840 
3034.027568  	0.031232 
3035.956384  	0.031681 
3037.885200  	0.032229 
3039.814016  	0.032616 
3041.742832  	0.032829 
3043.671648  	0.033210 
3045.600464  	0.033662 
3047.529280  	0.034039 
3049.458096  	0.034689 
3051.386912  	0.035142 
3053.315728  	0.035473 
3055.244544  	0.035967 
3057.173360  	0.036582 
3059.102176  	0.037107 
3061.030992  	0.037584 
3062.959808  	0.037963 
3064.888624  	0.038469 
3066.817440  	0.039187 
3068.746256  	0.039832 
3070.675072  	0.040374 
3072.603888  	0.041069 
3074.532704  	0.041672 
3076.461520  	0.042130 
3078.390336  	0.042617 
3080.319152  	0.043296 
3082.247968  	0.043770 
3084.176784  	0.044175 
3086.105600  	0.044841 
3088.034416  	0.045535 
3089.963232  	0.045911 
3091.892048  	0.046351 
3093.820864  	0.046943 
3095.749680  	0.047708 
3097.678496  	0.048381 
3099.607312  	0.048962 
3101.536128  	0.049640 
3103.464944  	0.050249 
3105.393760  	0.050736 
3107.322576  	0.051271 
3109.251392  	0.051785 
3111.180208  	0.052224 
3113.109024  	0.052648 
3115.037840  	0.053174 
3116.966656  	0.053957 
3118.895472  	0.054451 
3120.824288  	0.054860 
3122.753104  	0.055421 
3124.681920  	0.055762 
3126.610736  	0.056163 
3128.539552  	0.056594 
3130.468368  	0.056811 
3132.397184  	0.057391 
3134.326000  	0.057919 
3136.254816  	0.058142 
3138.183632  	0.058466 
3140.112448  	0.058912 
3142.041264  	0.059358 
3143.970080  	0.059897 
3145.898896  	0.060487 
3147.827712  	0.060965 
3149.756528  	0.061509 
3151.685344  	0.061810 
3153.614160  	0.062066 
3155.542976  	0.062489 
3157.471792  	0.062950 
3159.400608  	0.063459 
3161.329424  	0.063940 
3163.258240  	0.064403 
3165.187056  	0.064661 
3167.115872  	0.064797 
3169.044688  	0.065324 
3170.973504  	0.065795 
3172.902320  	0.065926 
3174.831136  	0.066088 
3176.759952  	0.066345 
3178.688768  	0.066828 
3180.617584  	0.067048 
3182.546400  	0.067148 
3184.475216  	0.067314 
3186.404032  	0.067507 
3188.332848  	0.067590 
3190.261664  	0.067579 
3192.190480  	0.067663 
3194.119296  	0.067716 
3196.048112  	0.067477 
3197.976928  	0.067737 
3199.905744  	0.067984 
3201.834560  	0.067853 
3203.763376  	0.067624 
3205.692192  	0.067380 
3207.621008  	0.067312 
3209.549824  	0.067458 
3211.478640  	0.067524 
3213.407456  	0.067398 
3215.336272  	0.067376 
3217.265088  	0.067107 
3219.193904  	0.067165 
3221.122720  	0.067306 
3223.051536  	0.067058 
3224.980352  	0.066765 
3226.909168  	0.066791 
3228.837984  	0.066814 
3230.766800  	0.066570 
3232.695616  	0.066714 
3234.624432  	0.066696 
3236.553248  	0.066633 
3238.482064  	0.066697 
3240.410880  	0.066674 
3242.339696  	0.066634 
3244.268512  	0.066636 
3246.197328  	0.066663 
3248.126144  	0.066527 
3250.054960  	0.066659 
3251.983776  	0.066855 
3253.912592  	0.067253 
3255.841408  	0.067360 
3257.770224  	0.067262 
3259.699040  	0.067487 
3261.627856  	0.067681 
3263.556672  	0.067522 
3265.485488  	0.067701 
3267.414304  	0.067872 
3269.343120  	0.067935 
3271.271936  	0.068028 
3273.200752  	0.068221 
3275.129568  	0.068357 
3277.058384  	0.068447 
3278.987200  	0.068538 
3280.916016  	0.068514 
3282.844832  	0.068390 
3284.773648  	0.068536 
3286.702464  	0.068827 
3288.631280  	0.069221 
3290.560096  	0.069247 
3292.488912  	0.069193 
3294.417728  	0.069195 
3296.346544  	0.069331 
3298.275360  	0.069677 
3300.204176  	0.069810 
3302.132992  	0.069661 
3304.061808  	0.069906 
3305.990624  	0.070179 
3307.919440  	0.070543 
3309.848256  	0.070862 
3311.777072  	0.070989 
3313.705888  	0.071050 
3315.634704  	0.071078 
3317.563520  	0.071260 
3319.492336  	0.071559 
3321.421152  	0.071849 
3323.349968  	0.071999 
3325.278784  	0.071977 
3327.207600  	0.071963 
3329.136416  	0.071891 
3331.065232  	0.071750 
3332.994048  	0.071653 
3334.922864  	0.071843 
3336.851680  	0.072072 
3338.780496  	0.071958 
3340.709312  	0.071657 
3342.638128  	0.071751 
3344.566944  	0.071578 
3346.495760  	0.071313 
3348.424576  	0.071266 
3350.353392  	0.071146 
3352.282208  	0.070770 
3354.211024  	0.070490 
3356.139840  	0.070253 
3358.068656  	0.069982 
3359.997472  	0.069859 
3361.926288  	0.069469 
3363.855104  	0.069115 
3365.783920  	0.069083 
3367.712736  	0.068731 
3369.641552  	0.068421 
3371.570368  	0.068231 
3373.499184  	0.068028 
3375.428000  	0.067809 
3377.356816  	0.067596 
3379.285632  	0.067501 
3381.214448  	0.067293 
3383.143264  	0.066879 
3385.072080  	0.066632 
3387.000896  	0.066228 
3388.929712  	0.065832 
3390.858528  	0.065436 
3392.787344  	0.065538 
3394.716160  	0.065473 
3396.644976  	0.065311 
3398.573792  	0.064852 
3400.502608  	0.064102 
3402.431424  	0.063709 
3404.360240  	0.063426 
3406.289056  	0.062955 
3408.217872  	0.062508 
3410.146688  	0.062270 
3412.075504  	0.061925 
3414.004320  	0.061640 
3415.933136  	0.061290 
3417.861952  	0.060756 
3419.790768  	0.060636 
3421.719584  	0.060639 
3423.648400  	0.060030 
3425.577216  	0.059344 
3427.506032  	0.058817 
3429.434848  	0.058260 
3431.363664  	0.058143 
3433.292480  	0.057953 
3435.221296  	0.057453 
3437.150112  	0.056755 
3439.078928  	0.056230 
3441.007744  	0.055787 
3442.936560  	0.055669 
3444.865376  	0.054924 
3446.794192  	0.054806 
3448.723008  	0.054840 
3450.651824  	0.053898 
3452.580640  	0.053260 
3454.509456  	0.052650 
3456.438272  	0.052034 
3458.367088  	0.051465 
3460.295904  	0.051016 
3462.224720  	0.050795 
3464.153536  	0.050018 
3466.082352  	0.049329 
3468.011168  	0.049141 
3469.939984  	0.048574 
3471.868800  	0.047706 
3473.797616  	0.046784 
3475.726432  	0.046393 
3477.655248  	0.045746 
3479.584064  	0.045082 
3481.512880  	0.045005 
3483.441696  	0.044523 
3485.370512  	0.043518 
3487.299328  	0.042921 
3489.228144  	0.042306 
3491.156960  	0.041559 
3493.085776  	0.040970 
3495.014592  	0.040525 
3496.943408  	0.040132 
3498.872224  	0.039236 
3500.801040  	0.038493 
3502.729856  	0.038534 
3504.658672  	0.038494 
3506.587488  	0.037419 
3508.516304  	0.036977 
3510.445120  	0.036917 
3512.373936  	0.036211 
3514.302752  	0.035515 
3516.231568  	0.034820 
3518.160384  	0.034150 
3520.089200  	0.033498 
3522.018016  	0.033073 
3523.946832  	0.033070 
3525.875648  	0.032396 
3527.804464  	0.032051 
3529.733280  	0.031669 
3531.662096  	0.030629 
3533.590912  	0.029710 
3535.519728  	0.029513 
3537.448544  	0.029216 
3539.377360  	0.028293 
3541.306176  	0.027622 
3543.234992  	0.027241 
3545.163808  	0.027525 
3547.092624  	0.027628 
3549.021440  	0.026332 
3550.950256  	0.025440 
3552.879072  	0.025653 
3554.807888  	0.024904 
3556.736704  	0.023777 
3558.665520  	0.023435 
3560.594336  	0.023111 
3562.523152  	0.022243 
3564.451968  	0.021747 
3566.380784  	0.022859 
3568.309600  	0.023767 
3570.238416  	0.021763 
3572.167232  	0.019935 
3574.096048  	0.019329 
3576.024864  	0.018966 
3577.953680  	0.018306 
3579.882496  	0.017838 
3581.811312  	0.017202 
3583.740128  	0.016313 
3585.668944  	0.015809 
3587.597760  	0.017184 
3589.526576  	0.016763 
3591.455392  	0.014702 
3593.384208  	0.013946 
3595.313024  	0.013928 
3597.241840  	0.013104 
3599.170656  	0.011999 
3601.099472  	0.011885 
3603.028288  	0.011176 
3604.957104  	0.010138 
3606.885920  	0.010077 
3608.814736  	0.010260 
3610.743552  	0.008991 
3612.672368  	0.008518 
3614.601184  	0.008275 
3616.530000  	0.006920 
3618.458816  	0.006649 
3620.387632  	0.006676 
3622.316448  	0.005516 
3624.245264  	0.004579 
3626.174080  	0.003584 
3628.102896  	0.003733 
3630.031712  	0.004807 
3631.960528  	0.003003 
3633.889344  	0.002086 
3635.818160  	0.001336 
3637.746976  	0.000420 
3639.675792  	-0.000368 
3641.604608  	-0.001092 
3643.533424  	-0.001700 
3645.462240  	-0.002215 
3647.391056  	-0.001484 
3649.319872  	-0.001452 
3651.248688  	-0.002295 
3653.177504  	-0.004184 
3655.106320  	-0.004817 
3657.035136  	-0.004620 
3658.963952  	-0.005355 
3660.892768  	-0.005739 
3662.821584  	-0.006361 
3664.750400  	-0.006862 
3666.679216  	-0.007116 
3668.608032  	-0.007020 
3670.536848  	-0.006448 
3672.465664  	-0.007613 
3674.394480  	-0.007758 
3676.323296  	-0.006928 
3678.252112  	-0.007507 
3680.180928  	-0.007736 
3682.109744  	-0.008341 
3684.038560  	-0.008634 
3685.967376  	-0.008837 
3687.896192  	-0.008374 
3689.825008  	-0.008033 
3691.753824  	-0.008432 
3693.682640  	-0.008798 
3695.611456  	-0.008785 
3697.540272  	-0.008651 
3699.469088  	-0.008973 
3701.397904  	-0.008872 
3703.326720  	-0.008798 
3705.255536  	-0.008821 
3707.184352  	-0.008653 
3709.113168  	-0.008543 
3711.041984  	-0.007924 
3712.970800  	-0.007843 
3714.899616  	-0.008474 
3716.828432  	-0.008690 
3718.757248  	-0.008520 
3720.686064  	-0.008527 
3722.614880  	-0.008737 
3724.543696  	-0.008812 
3726.472512  	-0.008178 
3728.401328  	-0.008492 
3730.330144  	-0.008979 
3732.258960  	-0.008747 
3734.187776  	-0.007861 
3736.116592  	-0.007050 
3738.045408  	-0.008175 
3739.974224  	-0.008536 
3741.903040  	-0.008669 
3743.831856  	-0.008451 
3745.760672  	-0.008781 
3747.689488  	-0.008987 
3749.618304  	-0.007698 
3751.547120  	-0.007398 
3753.475936  	-0.008207 
3755.404752  	-0.008842 
3757.333568  	-0.008958 
3759.262384  	-0.008732 
3761.191200  	-0.008867 
3763.120016  	-0.009194 
3765.048832  	-0.008688 
3766.977648  	-0.008873 
3768.906464  	-0.008407 
3770.835280  	-0.008255 
3772.764096  	-0.008958 
3774.692912  	-0.009338 
3776.621728  	-0.009384 
3778.550544  	-0.008818 
3780.479360  	-0.008780 
3782.408176  	-0.009199 
3784.336992  	-0.009020 
3786.265808  	-0.009141 
3788.194624  	-0.009265 
3790.123440  	-0.009254 
3792.052256  	-0.009429 
3793.981072  	-0.009705 
3795.909888  	-0.008976 
3797.838704  	-0.008534 
3799.767520  	-0.008644 
3801.696336  	-0.007992 
3803.625152  	-0.008908 
3805.553968  	-0.009267 
3807.482784  	-0.009004 
3809.411600  	-0.009253 
3811.340416  	-0.009248 
3813.269232  	-0.009416 
3815.198048  	-0.008854 
3817.126864  	-0.008878 
3819.055680  	-0.009426 
3820.984496  	-0.008333 
3822.913312  	-0.008535 
3824.842128  	-0.009083 
3826.770944  	-0.009061 
3828.699760  	-0.009403 
3830.628576  	-0.009262 
3832.557392  	-0.009278 
3834.486208  	-0.009548 
3836.415024  	-0.009345 
3838.343840  	-0.008906 
3840.272656  	-0.008550 
3842.201472  	-0.008598 
3844.130288  	-0.008540 
3846.059104  	-0.008933 
3847.987920  	-0.009421 
3849.916736  	-0.009633 
3851.845552  	-0.009076 
3853.774368  	-0.007489 
3855.703184  	-0.008061 
3857.632000  	-0.008633 
3859.560816  	-0.009021 
3861.489632  	-0.008848 
3863.418448  	-0.008625 
3865.347264  	-0.008351 
3867.276080  	-0.009067 
3869.204896  	-0.008331 
3871.133712  	-0.008107 
3873.062528  	-0.008823 
3874.991344  	-0.008853 
3876.920160  	-0.009454 
3878.848976  	-0.009220 
3880.777792  	-0.008450 
3882.706608  	-0.008652 
3884.635424  	-0.008685 
3886.564240  	-0.008959 
3888.493056  	-0.009708 
3890.421872  	-0.009282 
3892.350688  	-0.009028 
3894.279504  	-0.009442 
3896.208320  	-0.009723 
3898.137136  	-0.009394 
3900.065952  	-0.008668 
3901.994768  	-0.008678 
3903.923584  	-0.008499 
3905.852400  	-0.008457 
3907.781216  	-0.009135 
3909.710032  	-0.009595 
3911.638848  	-0.009814 
3913.567664  	-0.009726 
3915.496480  	-0.009179 
3917.425296  	-0.008538 
3919.354112  	-0.008731 
3921.282928  	-0.008961 
3923.211744  	-0.008908 
3925.140560  	-0.008784 
3927.069376  	-0.009067 
3928.998192  	-0.008867 
3930.927008  	-0.008649 
3932.855824  	-0.008800 
3934.784640  	-0.009219 
3936.713456  	-0.009102 
3938.642272  	-0.009182 
3940.571088  	-0.009324 
3942.499904  	-0.008723 
3944.428720  	-0.008926 
3946.357536  	-0.009348 
3948.286352  	-0.008972 
3950.215168  	-0.009222 
3952.143984  	-0.009546 
3954.072800  	-0.009564 
3956.001616  	-0.009458 
3957.930432  	-0.009269 
3959.859248  	-0.009085 
3961.788064  	-0.008943 
3963.716880  	-0.009114 
3965.645696  	-0.009437 
3967.574512  	-0.009565 
3969.503328  	-0.009673 
3971.432144  	-0.009509 
3973.360960  	-0.009192 
3975.289776  	-0.008980 
3977.218592  	-0.009076 
3979.147408  	-0.009245 
3981.076224  	-0.009359 
3983.005040  	-0.009470 
3984.933856  	-0.009396 
3986.862672  	-0.009187 
3988.791488  	-0.009226 
3990.720304  	-0.009187 
3992.649120  	-0.009240 
3994.577936  	-0.009159 
3996.506752  	-0.009250 
3998.435568  	-0.009467 
4000.364384  	-0.009380 