##TITLE=No Description
##DATA TYPE=INFRARED SPECTRUM
##XUNITS=1/CM
##YUNITS=Abs
399.264912  	0.439285 
401.193728  	0.440173 
403.122544  	0.449213 
405.051360  	0.449281 
406.980176  	0.441103 
408.908992  	0.431865 
410.837808  	0.434633 
412.766624  	0.435715 
414.695440  	0.440373 
416.624256  	0.438499 
418.553072  	0.452644 
420.481888  	0.457766 
422.410704  	0.443907 
424.339520  	0.424291 
426.268336  	0.423626 
428.197152  	0.423274 
430.125968  	0.421203 
432.054784  	0.414410 
433.983600  	0.412391 
435.912416  	0.408637 
437.841232  	0.409132 
439.770048  	0.409827 
441.698864  	0.415098 
443.627680  	0.409884 
445.556496  	0.410536 
447.485312  	0.407705 
449.414128  	0.402711 
451.342944  	0.403560 
453.271760  	0.409718 
455.200576  	0.409229 
457.129392  	0.411533 
459.058208  	0.410569 
460.987024  	0.409153 
462.915840  	0.404127 
464.844656  	0.404389 
466.773472  	0.402194 
468.702288  	0.399504 
470.631104  	0.399216 
472.559920  	0.405594 
474.488736  	0.401269 
476.417552  	0.401298 
478.346368  	0.402754 
480.275184  	0.401561 
482.204000  	0.397638 
484.132816  	0.396608 
486.061632  	0.396587 
487.990448  	0.398661 
489.919264  	0.399377 
491.848080  	0.399671 
493.776896  	0.397767 
495.705712  	0.395175 
497.634528  	0.391951 
499.563344  	0.390596 
501.492160  	0.388826 
503.420976  	0.390508 
505.349792  	0.387898 
507.278608  	0.389777 
509.207424  	0.389932 
511.136240  	0.388848 
513.065056  	0.386898 
514.993872  	0.391093 
516.922688  	0.393283 
518.851504  	0.393954 
520.780320  	0.392795 
522.709136  	0.390983 
524.637952  	0.388682 
526.566768  	0.387920 
528.495584  	0.386103 
530.424400  	0.385799 
532.353216  	0.383688 
534.282032  	0.379744 
536.210848  	0.375555 
538.139664  	0.369410 
540.068480  	0.363636 
541.997296  	0.361701 
543.926112  	0.359215 
545.854928  	0.357489 
547.783744  	0.355109 
549.712560  	0.354223 
551.641376  	0.350918 
553.570192  	0.347501 
555.499008  	0.343460 
557.427824  	0.341733 
559.356640  	0.339078 
561.285456  	0.337383 
563.214272  	0.333670 
565.143088  	0.330610 
567.071904  	0.327972 
569.000720  	0.325146 
570.929536  	0.321859 
572.858352  	0.319763 
574.787168  	0.318195 
576.715984  	0.316564 
578.644800  	0.312515 
580.573616  	0.308214 
582.502432  	0.304229 
584.431248  	0.301001 
586.360064  	0.297341 
588.288880  	0.294639 
590.217696  	0.292486 
592.146512  	0.291738 
594.075328  	0.290451 
596.004144  	0.288804 
597.932960  	0.286798 
599.861776  	0.286022 
601.790592  	0.285610 
603.719408  	0.284927 
605.648224  	0.283730 
607.577040  	0.283000 
609.505856  	0.282375 
611.434672  	0.281614 
613.363488  	0.279827 
615.292304  	0.278408 
617.221120  	0.277261 
619.149936  	0.276397 
621.078752  	0.275241 
623.007568  	0.274556 
624.936384  	0.273504 
626.865200  	0.272868 
628.794016  	0.272299 
630.722832  	0.271861 
632.651648  	0.271510 
634.580464  	0.271709 
636.509280  	0.272527 
638.438096  	0.272506 
640.366912  	0.271424 
642.295728  	0.270374 
644.224544  	0.268640 
646.153360  	0.266406 
648.082176  	0.263435 
650.010992  	0.260783 
651.939808  	0.257567 
653.868624  	0.254997 
655.797440  	0.252213 
657.726256  	0.249140 
659.655072  	0.245544 
661.583888  	0.242062 
663.512704  	0.238671 
665.441520  	0.234800 
667.370336  	0.231208 
669.299152  	0.229194 
671.227968  	0.225039 
673.156784  	0.221585 
675.085600  	0.219640 
677.014416  	0.218226 
678.943232  	0.216885 
680.872048  	0.215397 
682.800864  	0.213634 
684.729680  	0.212353 
686.658496  	0.211340 
688.587312  	0.210793 
690.516128  	0.209796 
692.444944  	0.209216 
694.373760  	0.207954 
696.302576  	0.206854 
698.231392  	0.205350 
700.160208  	0.203672 
702.089024  	0.201666 
704.017840  	0.199594 
705.946656  	0.197673 
707.875472  	0.195837 
709.804288  	0.194129 
711.733104  	0.193021 
713.661920  	0.191815 
715.590736  	0.190615 
717.519552  	0.190267 
719.448368  	0.190903 
721.377184  	0.192063 
723.306000  	0.193238 
725.234816  	0.193662 
727.163632  	0.192907 
729.092448  	0.190878 
731.021264  	0.187970 
732.950080  	0.184615 
734.878896  	0.181642 
736.807712  	0.179051 
738.736528  	0.177087 
740.665344  	0.175854 
742.594160  	0.174870 
744.522976  	0.173445 
746.451792  	0.172490 
748.380608  	0.171306 
750.309424  	0.170207 
752.238240  	0.169463 
754.167056  	0.169276 
756.095872  	0.168880 
758.024688  	0.167955 
759.953504  	0.167730 
761.882320  	0.168897 
763.811136  	0.169895 
765.739952  	0.168436 
767.668768  	0.165525 
769.597584  	0.163379 
771.526400  	0.163345 
773.455216  	0.165131 
775.384032  	0.168723 
777.312848  	0.174266 
779.241664  	0.177877 
781.170480  	0.176983 
783.099296  	0.172449 
785.028112  	0.167149 
786.956928  	0.162327 
788.885744  	0.158590 
790.814560  	0.155992 
792.743376  	0.154795 
794.672192  	0.154198 
796.601008  	0.153090 
798.529824  	0.150360 
800.458640  	0.146681 
802.387456  	0.143787 
804.316272  	0.142412 
806.245088  	0.141895 
808.173904  	0.141312 
810.102720  	0.141287 
812.031536  	0.141679 
813.960352  	0.142153 
815.889168  	0.142837 
817.817984  	0.143698 
819.746800  	0.144770 
821.675616  	0.145913 
823.604432  	0.146933 
825.533248  	0.147551 
827.462064  	0.148159 
829.390880  	0.148190 
831.319696  	0.147997 
833.248512  	0.147183 
835.177328  	0.145615 
837.106144  	0.143270 
839.034960  	0.140616 
840.963776  	0.137266 
842.892592  	0.133711 
844.821408  	0.130267 
846.750224  	0.127444 
848.679040  	0.125177 
850.607856  	0.123183 
852.536672  	0.121751 
854.465488  	0.120945 
856.394304  	0.120335 
858.323120  	0.119342 
860.251936  	0.117986 
862.180752  	0.116780 
864.109568  	0.115264 
866.038384  	0.113590 
867.967200  	0.111910 
869.896016  	0.110796 
871.824832  	0.110203 
873.753648  	0.110515 
875.682464  	0.111220 
877.611280  	0.112823 
879.540096  	0.114869 
881.468912  	0.117197 
883.397728  	0.119616 
885.326544  	0.121647 
887.255360  	0.122869 
889.184176  	0.123169 
891.112992  	0.122861 
893.041808  	0.121536 
894.970624  	0.119189 
896.899440  	0.115738 
898.828256  	0.111745 
900.757072  	0.107770 
902.685888  	0.104384 
904.614704  	0.102559 
906.543520  	0.102392 
908.472336  	0.103893 
910.401152  	0.106170 
912.329968  	0.109190 
914.258784  	0.112040 
916.187600  	0.114740 
918.116416  	0.116907 
920.045232  	0.118507 
921.974048  	0.119546 
923.902864  	0.120282 
925.831680  	0.121068 
927.760496  	0.122101 
929.689312  	0.123299 
931.618128  	0.124672 
933.546944  	0.125631 
935.475760  	0.126039 
937.404576  	0.125985 
939.333392  	0.125542 
941.262208  	0.125192 
943.191024  	0.126283 
945.119840  	0.129236 
947.048656  	0.134339 
948.977472  	0.141947 
950.906288  	0.151695 
952.835104  	0.163147 
954.763920  	0.175798 
956.692736  	0.188003 
958.621552  	0.198621 
960.550368  	0.206106 
962.479184  	0.209940 
964.408000  	0.209089 
966.336816  	0.204228 
968.265632  	0.195677 
970.194448  	0.184797 
972.123264  	0.172062 
974.052080  	0.158773 
975.980896  	0.145852 
977.909712  	0.133765 
979.838528  	0.123178 
981.767344  	0.114600 
983.696160  	0.108501 
985.624976  	0.104776 
987.553792  	0.103892 
989.482608  	0.105736 
991.411424  	0.110277 
993.340240  	0.116751 
995.269056  	0.124069 
997.197872  	0.131841 
999.126688  	0.139282 
1001.055504  	0.146936 
1002.984320  	0.154212 
1004.913136  	0.161393 
1006.841952  	0.167894 
1008.770768  	0.173957 
1010.699584  	0.178720 
1012.628400  	0.182153 
1014.557216  	0.184483 
1016.486032  	0.185586 
1018.414848  	0.185889 
1020.343664  	0.185973 
1022.272480  	0.186113 
1024.201296  	0.186007 
1026.130112  	0.185728 
1028.058928  	0.186516 
1029.987744  	0.188549 
1031.916560  	0.191311 
1033.845376  	0.194744 
1035.774192  	0.199674 
1037.703008  	0.205708 
1039.631824  	0.214347 
1041.560640  	0.225388 
1043.489456  	0.238512 
1045.418272  	0.251728 
1047.347088  	0.263579 
1049.275904  	0.270744 
1051.204720  	0.273208 
1053.133536  	0.271734 
1055.062352  	0.267901 
1056.991168  	0.263109 
1058.919984  	0.259633 
1060.848800  	0.256831 
1062.777616  	0.254153 
1064.706432  	0.250669 
1066.635248  	0.247014 
1068.564064  	0.242917 
1070.492880  	0.237651 
1072.421696  	0.231948 
1074.350512  	0.228695 
1076.279328  	0.228139 
1078.208144  	0.230568 
1080.136960  	0.233506 
1082.065776  	0.234877 
1083.994592  	0.232918 
1085.923408  	0.228033 
1087.852224  	0.220217 
1089.781040  	0.211781 
1091.709856  	0.202075 
1093.638672  	0.191265 
1095.567488  	0.179540 
1097.496304  	0.168001 
1099.425120  	0.156505 
1101.353936  	0.145704 
1103.282752  	0.135753 
1105.211568  	0.126628 
1107.140384  	0.118277 
1109.069200  	0.110410 
1110.998016  	0.103411 
1112.926832  	0.097243 
1114.855648  	0.091540 
1116.784464  	0.085803 
1118.713280  	0.080183 
1120.642096  	0.074989 
1122.570912  	0.070083 
1124.499728  	0.065709 
1126.428544  	0.061915 
1128.357360  	0.058537 
1130.286176  	0.055717 
1132.214992  	0.053555 
1134.143808  	0.051909 
1136.072624  	0.050441 
1138.001440  	0.049070 
1139.930256  	0.047780 
1141.859072  	0.046542 
1143.787888  	0.045235 
1145.716704  	0.044095 
1147.645520  	0.043260 
1149.574336  	0.042896 
1151.503152  	0.042516 
1153.431968  	0.042550 
1155.360784  	0.042945 
1157.289600  	0.043801 
1159.218416  	0.044906 
1161.147232  	0.046330 
1163.076048  	0.047897 
1165.004864  	0.049603 
1166.933680  	0.051243 
1168.862496  	0.052837 
1170.791312  	0.054661 
1172.720128  	0.057072 
1174.648944  	0.059783 
1176.577760  	0.062356 
1178.506576  	0.065253 
1180.435392  	0.068343 
1182.364208  	0.071395 
1184.293024  	0.074758 
1186.221840  	0.078581 
1188.150656  	0.082859 
1190.079472  	0.087793 
1192.008288  	0.093620 
1193.937104  	0.100043 
1195.865920  	0.107035 
1197.794736  	0.114683 
1199.723552  	0.122748 
1201.652368  	0.130672 
1203.581184  	0.137860 
1205.510000  	0.144659 
1207.438816  	0.150470 
1209.367632  	0.155434 
1211.296448  	0.159109 
1213.225264  	0.161793 
1215.154080  	0.162937 
1217.082896  	0.163148 
1219.011712  	0.162184 
1220.940528  	0.160874 
1222.869344  	0.158947 
1224.798160  	0.156622 
1226.726976  	0.153584 
1228.655792  	0.150122 
1230.584608  	0.146381 
1232.513424  	0.142239 
1234.442240  	0.137713 
1236.371056  	0.132950 
1238.299872  	0.127733 
1240.228688  	0.122072 
1242.157504  	0.116526 
1244.086320  	0.111178 
1246.015136  	0.105573 
1247.943952  	0.100215 
1249.872768  	0.095045 
1251.801584  	0.090231 
1253.730400  	0.085456 
1255.659216  	0.080684 
1257.588032  	0.076188 
1259.516848  	0.072203 
1261.445664  	0.068425 
1263.374480  	0.064937 
1265.303296  	0.061898 
1267.232112  	0.059487 
1269.160928  	0.057918 
1271.089744  	0.057032 
1273.018560  	0.056651 
1274.947376  	0.056955 
1276.876192  	0.057735 
1278.805008  	0.058196 
1280.733824  	0.058042 
1282.662640  	0.056954 
1284.591456  	0.055446 
1286.520272  	0.054230 
1288.449088  	0.053521 
1290.377904  	0.053513 
1292.306720  	0.054271 
1294.235536  	0.055037 
1296.164352  	0.054923 
1298.093168  	0.053505 
1300.021984  	0.051371 
1301.950800  	0.049026 
1303.879616  	0.046456 
1305.808432  	0.043785 
1307.737248  	0.041006 
1309.666064  	0.038365 
1311.594880  	0.036403 
1313.523696  	0.035081 
1315.452512  	0.034182 
1317.381328  	0.033761 
1319.310144  	0.033868 
1321.238960  	0.034205 
1323.167776  	0.034832 
1325.096592  	0.035495 
1327.025408  	0.035823 
1328.954224  	0.035713 
1330.883040  	0.035050 
1332.811856  	0.033930 
1334.740672  	0.033019 
1336.669488  	0.032731 
1338.598304  	0.033005 
1340.527120  	0.032844 
1342.455936  	0.031839 
1344.384752  	0.031522 
1346.313568  	0.031784 
1348.242384  	0.032513 
1350.171200  	0.033608 
1352.100016  	0.034872 
1354.028832  	0.036408 
1355.957648  	0.038165 
1357.886464  	0.039725 
1359.815280  	0.041413 
1361.744096  	0.043682 
1363.672912  	0.045949 
1365.601728  	0.046951 
1367.530544  	0.048345 
1369.459360  	0.049855 
1371.388176  	0.050198 
1373.316992  	0.050256 
1375.245808  	0.049767 
1377.174624  	0.047465 
1379.103440  	0.045127 
1381.032256  	0.042837 
1382.961072  	0.041090 
1384.889888  	0.039746 
1386.818704  	0.039095 
1388.747520  	0.037633 
1390.676336  	0.035472 
1392.605152  	0.033728 
1394.533968  	0.033357 
1396.462784  	0.033792 
1398.391600  	0.033762 
1400.320416  	0.033904 
1402.249232  	0.033456 
1404.178048  	0.034035 
1406.106864  	0.034913 
1408.035680  	0.035669 
1409.964496  	0.037016 
1411.893312  	0.038893 
1413.822128  	0.040483 
1415.750944  	0.042258 
1417.679760  	0.044071 
1419.608576  	0.046058 
1421.537392  	0.045395 
1423.466208  	0.044476 
1425.395024  	0.043222 
1427.323840  	0.041035 
1429.252656  	0.039409 
1431.181472  	0.038083 
1433.110288  	0.037161 
1435.039104  	0.037121 
1436.967920  	0.039279 
1438.896736  	0.040022 
1440.825552  	0.040085 
1442.754368  	0.040617 
1444.683184  	0.040662 
1446.612000  	0.040880 
1448.540816  	0.041530 
1450.469632  	0.041522 
1452.398448  	0.041617 
1454.327264  	0.041529 
1456.256080  	0.042189 
1458.184896  	0.044228 
1460.113712  	0.042688 
1462.042528  	0.041084 
1463.971344  	0.040751 
1465.900160  	0.041761 
1467.828976  	0.041827 
1469.757792  	0.042188 
1471.686608  	0.044857 
1473.615424  	0.051744 
1475.544240  	0.055323 
1477.473056  	0.058941 
1479.401872  	0.061023 
1481.330688  	0.063810 
1483.259504  	0.065752 
1485.188320  	0.066514 
1487.117136  	0.067256 
1489.045952  	0.068574 
1490.974768  	0.068093 
1492.903584  	0.064703 
1494.832400  	0.060728 
1496.761216  	0.057268 
1498.690032  	0.052813 
1500.618848  	0.048502 
1502.547664  	0.044354 
1504.476480  	0.040862 
1506.405296  	0.040164 
1508.334112  	0.040752 
1510.262928  	0.037811 
1512.191744  	0.036039 
1514.120560  	0.035267 
1516.049376  	0.036158 
1517.978192  	0.037701 
1519.907008  	0.038052 
1521.835824  	0.042751 
1523.764640  	0.045322 
1525.693456  	0.047435 
1527.622272  	0.049422 
1529.551088  	0.048827 
1531.479904  	0.047092 
1533.408720  	0.046005 
1535.337536  	0.043663 
1537.266352  	0.040341 
1539.195168  	0.038539 
1541.123984  	0.038550 
1543.052800  	0.037382 
1544.981616  	0.036140 
1546.910432  	0.034266 
1548.839248  	0.033538 
1550.768064  	0.034313 
1552.696880  	0.033533 
1554.625696  	0.034330 
1556.554512  	0.033785 
1558.483328  	0.036149 
1560.412144  	0.042318 
1562.340960  	0.041707 
1564.269776  	0.042923 
1566.198592  	0.046090 
1568.127408  	0.048006 
1570.056224  	0.054237 
1571.985040  	0.057435 
1573.913856  	0.058436 
1575.842672  	0.061579 
1577.771488  	0.065395 
1579.700304  	0.063909 
1581.629120  	0.063072 
1583.557936  	0.062704 
1585.486752  	0.063561 
1587.415568  	0.065216 
1589.344384  	0.068602 
1591.273200  	0.072841 
1593.202016  	0.078153 
1595.130832  	0.083862 
1597.059648  	0.089636 
1598.988464  	0.094015 
1600.917280  	0.098311 
1602.846096  	0.101426 
1604.774912  	0.103430 
1606.703728  	0.103598 
1608.632544  	0.103734 
1610.561360  	0.102652 
1612.490176  	0.101318 
1614.418992  	0.098690 
1616.347808  	0.099960 
1618.276624  	0.103544 
1620.205440  	0.103485 
1622.134256  	0.104713 
1624.063072  	0.111668 
1625.991888  	0.115158 
1627.920704  	0.120618 
1629.849520  	0.126739 
1631.778336  	0.129862 
1633.707152  	0.131313 
1635.635968  	0.140281 
1637.564784  	0.149219 
1639.493600  	0.148937 
1641.422416  	0.149501 
1643.351232  	0.148980 
1645.280048  	0.147474 
1647.208864  	0.153266 
1649.137680  	0.152570 
1651.066496  	0.145007 
1652.995312  	0.146433 
1654.924128  	0.153300 
1656.852944  	0.146426 
1658.781760  	0.142133 
1660.710576  	0.138504 
1662.639392  	0.137081 
1664.568208  	0.134776 
1666.497024  	0.129089 
1668.425840  	0.124988 
1670.354656  	0.123787 
1672.283472  	0.119920 
1674.212288  	0.115408 
1676.141104  	0.114967 
1678.069920  	0.111653 
1679.998736  	0.109546 
1681.927552  	0.106771 
1683.856368  	0.106879 
1685.785184  	0.110341 
1687.714000  	0.106604 
1689.642816  	0.105831 
1691.571632  	0.104616 
1693.500448  	0.101452 
1695.429264  	0.100982 
1697.358080  	0.102652 
1699.286896  	0.099304 
1701.215712  	0.102603 
1703.144528  	0.098732 
1705.073344  	0.096154 
1707.002160  	0.094467 
1708.930976  	0.090509 
1710.859792  	0.086114 
1712.788608  	0.081091 
1714.717424  	0.075620 
1716.646240  	0.069674 
1718.575056  	0.062815 
1720.503872  	0.055068 
1722.432688  	0.047980 
1724.361504  	0.040928 
1726.290320  	0.034700 
1728.219136  	0.029621 
1730.147952  	0.025477 
1732.076768  	0.021563 
1734.005584  	0.018733 
1735.934400  	0.015676 
1737.863216  	0.013460 
1739.792032  	0.011729 
1741.720848  	0.010194 
1743.649664  	0.009322 
1745.578480  	0.008285 
1747.507296  	0.007335 
1749.436112  	0.006954 
1751.364928  	0.006141 
1753.293744  	0.005049 
1755.222560  	0.004212 
1757.151376  	0.004497 
1759.080192  	0.003812 
1761.009008  	0.003519 
1762.937824  	0.003018 
1764.866640  	0.002229 
1766.795456  	0.001978 
1768.724272  	0.002273 
1770.653088  	0.001527 
1772.581904  	0.001988 
1774.510720  	0.001936 
1776.439536  	0.001460 
1778.368352  	0.000696 
1780.297168  	0.000756 
1782.225984  	0.000375 
1784.154800  	0.000283 
1786.083616  	-0.000002 
1788.012432  	-0.000383 
1789.941248  	-0.000210 
1791.870064  	0.000531 
1793.798880  	0.000183 
1795.727696  	-0.000201 
1797.656512  	-0.000800 
1799.585328  	-0.000900 
1801.514144  	-0.000486 
1803.442960  	-0.000644 
1805.371776  	-0.001117 
1807.300592  	-0.001318 
1809.229408  	-0.001521 
1811.158224  	-0.001447 
1813.087040  	-0.001754 
1815.015856  	-0.002082 
1816.944672  	-0.001820 
1818.873488  	-0.001517 
1820.802304  	-0.001569 
1822.731120  	-0.001495 
1824.659936  	-0.001554 
1826.588752  	-0.001456 
1828.517568  	-0.001903 
1830.446384  	-0.001763 
1832.375200  	-0.002105 
1834.304016  	-0.002015 
1836.232832  	-0.001890 
1838.161648  	-0.001786 
1840.090464  	-0.002021 
1842.019280  	-0.002157 
1843.948096  	-0.001957 
1845.876912  	-0.001595 
1847.805728  	-0.002052 
1849.734544  	-0.002291 
1851.663360  	-0.002485 
1853.592176  	-0.002174 
1855.520992  	-0.002168 
1857.449808  	-0.002068 
1859.378624  	-0.002527 
1861.307440  	-0.002601 
1863.236256  	-0.002890 
1865.165072  	-0.002775 
1867.093888  	-0.002722 
1869.022704  	-0.001914 
1870.951520  	-0.002012 
1872.880336  	-0.002425 
1874.809152  	-0.002942 
1876.737968  	-0.002946 
1878.666784  	-0.002977 
1880.595600  	-0.003119 
1882.524416  	-0.003115 
1884.453232  	-0.002718 
1886.382048  	-0.002901 
1888.310864  	-0.002579 
1890.239680  	-0.002635 
1892.168496  	-0.002637 
1894.097312  	-0.002530 
1896.026128  	-0.002576 
1897.954944  	-0.002855 
1899.883760  	-0.002741 
1901.812576  	-0.002893 
1903.741392  	-0.002780 
1905.670208  	-0.003122 
1907.599024  	-0.003363 
1909.527840  	-0.003110 
1911.456656  	-0.002382 
1913.385472  	-0.002077 
1915.314288  	-0.002044 
1917.243104  	-0.002261 
1919.171920  	-0.001920 
1921.100736  	-0.002186 
1923.029552  	-0.002627 
1924.958368  	-0.003838 
1926.887184  	-0.003385 
1928.816000  	-0.003681 
1930.744816  	-0.004066 
1932.673632  	-0.004261 
1934.602448  	-0.003283 
1936.531264  	-0.003013 
1938.460080  	-0.003173 
1940.388896  	-0.003530 
1942.317712  	-0.003085 
1944.246528  	-0.003751 
1946.175344  	-0.003423 
1948.104160  	-0.002961 
1950.032976  	-0.002535 
1951.961792  	-0.003178 
1953.890608  	-0.003438 
1955.819424  	-0.004161 
1957.748240  	-0.004587 
1959.677056  	-0.004761 
1961.605872  	-0.004408 
1963.534688  	-0.004882 
1965.463504  	-0.004440 
1967.392320  	-0.003819 
1969.321136  	-0.003757 
1971.249952  	-0.005740 
1973.178768  	-0.005846 
1975.107584  	-0.004832 
1977.036400  	-0.003852 
1978.965216  	-0.003625 
1980.894032  	-0.003218 
1982.822848  	-0.003192 
1984.751664  	-0.002902 
1986.680480  	-0.003291 
1988.609296  	-0.003284 
1990.538112  	-0.003403 
1992.466928  	-0.002512 
1994.395744  	-0.003069 
1996.324560  	-0.003326 
1998.253376  	-0.003658 
2000.182192  	-0.003976 
2002.111008  	-0.004366 
2004.039824  	-0.003858 
2005.968640  	-0.004218 
2007.897456  	-0.003275 
2009.826272  	-0.003260 
2011.755088  	-0.003640 
2013.683904  	-0.003908 
2015.612720  	-0.002875 
2017.541536  	-0.002883 
2019.470352  	-0.002624 
2021.399168  	-0.003294 
2023.327984  	-0.003032 
2025.256800  	-0.002109 
2027.185616  	-0.001288 
2029.114432  	-0.001698 
2031.043248  	-0.001862 
2032.972064  	-0.001760 
2034.900880  	-0.001684 
2036.829696  	-0.002650 
2038.758512  	-0.002510 
2040.687328  	-0.002760 
2042.616144  	-0.001613 
2044.544960  	-0.002343 
2046.473776  	-0.002638 
2048.402592  	-0.001078 
2050.331408  	-0.000202 
2052.260224  	-0.000994 
2054.189040  	-0.001438 
2056.117856  	-0.002121 
2058.046672  	-0.001725 
2059.975488  	-0.001223 
2061.904304  	-0.001060 
2063.833120  	-0.000950 
2065.761936  	-0.000573 
2067.690752  	-0.001045 
2069.619568  	-0.001454 
2071.548384  	-0.001516 
2073.477200  	-0.000809 
2075.406016  	-0.000874 
2077.334832  	-0.000954 
2079.263648  	-0.000505 
2081.192464  	-0.000004 
2083.121280  	-0.000513 
2085.050096  	-0.001115 
2086.978912  	-0.001534 
2088.907728  	-0.001106 
2090.836544  	-0.000575 
2092.765360  	-0.000437 
2094.694176  	-0.000450 
2096.622992  	0.000087 
2098.551808  	0.000031 
2100.480624  	-0.000102 
2102.409440  	-0.000274 
2104.338256  	-0.000254 
2106.267072  	-0.000449 
2108.195888  	-0.000201 
2110.124704  	-0.000058 
2112.053520  	0.000205 
2113.982336  	0.000035 
2115.911152  	-0.000248 
2117.839968  	-0.000955 
2119.768784  	-0.001141 
2121.697600  	-0.000798 
2123.626416  	-0.000682 
2125.555232  	-0.001030 
2127.484048  	-0.001235 
2129.412864  	-0.001189 
2131.341680  	-0.000898 
2133.270496  	-0.000591 
2135.199312  	-0.000395 
2137.128128  	-0.000386 
2139.056944  	0.000142 
2140.985760  	-0.000308 
2142.914576  	-0.000348 
2144.843392  	-0.000226 
2146.772208  	0.000470 
2148.701024  	0.000508 
2150.629840  	-0.000123 
2152.558656  	-0.001243 
2154.487472  	-0.001624 
2156.416288  	-0.001464 
2158.345104  	0.001179 
2160.273920  	0.004291 
2162.202736  	0.003217 
2164.131552  	0.000992 
2166.060368  	0.001795 
2167.989184  	0.001486 
2169.918000  	-0.000500 
2171.846816  	-0.000478 
2173.775632  	0.000583 
2175.704448  	0.000349 
2177.633264  	0.000496 
2179.562080  	-0.000164 
2181.490896  	0.000152 
2183.419712  	0.000844 
2185.348528  	0.000890 
2187.277344  	0.000409 
2189.206160  	0.000252 
2191.134976  	-0.000359 
2193.063792  	-0.000777 
2194.992608  	-0.000344 
2196.921424  	0.000520 
2198.850240  	-0.000010 
2200.779056  	-0.000882 
2202.707872  	-0.001324 
2204.636688  	-0.000245 
2206.565504  	-0.000442 
2208.494320  	-0.000780 
2210.423136  	-0.000392 
2212.351952  	-0.000389 
2214.280768  	-0.001047 
2216.209584  	-0.000834 
2218.138400  	-0.001448 
2220.067216  	-0.001538 
2221.996032  	-0.001217 
2223.924848  	-0.000537 
2225.853664  	-0.000729 
2227.782480  	-0.000682 
2229.711296  	-0.001098 
2231.640112  	-0.001056 
2233.568928  	-0.001217 
2235.497744  	-0.001355 
2237.426560  	-0.000874 
2239.355376  	-0.000579 
2241.284192  	-0.001374 
2243.213008  	-0.001764 
2245.141824  	-0.001498 
2247.070640  	-0.001358 
2248.999456  	-0.001520 
2250.928272  	-0.001096 
2252.857088  	-0.001075 
2254.785904  	-0.001358 
2256.714720  	-0.001222 
2258.643536  	-0.000782 
2260.572352  	-0.000694 
2262.501168  	-0.000847 
2264.429984  	-0.000826 
2266.358800  	-0.000787 
2268.287616  	-0.000932 
2270.216432  	-0.000952 
2272.145248  	-0.000875 
2274.074064  	-0.000600 
2276.002880  	-0.000815 
2277.931696  	-0.000649 
2279.860512  	-0.000401 
2281.789328  	-0.000245 
2283.718144  	-0.000381 
2285.646960  	-0.000065 
2287.575776  	-0.000096 
2289.504592  	-0.000158 
2291.433408  	0.000079 
2293.362224  	0.000473 
2295.291040  	0.000164 
2297.219856  	0.000427 
2299.148672  	0.000669 
2301.077488  	0.000678 
2303.006304  	0.001075 
2304.935120  	0.001476 
2306.863936  	0.001146 
2308.792752  	0.001208 
2310.721568  	0.001628 
2312.650384  	0.001697 
2314.579200  	0.001260 
2316.508016  	0.001370 
2318.436832  	0.001605 
2320.365648  	0.002016 
2322.294464  	0.002234 
2324.223280  	0.001970 
2326.152096  	0.000671 
2328.080912  	-0.000203 
2330.009728  	-0.000487 
2331.938544  	-0.000675 
2333.867360  	-0.000513 
2335.796176  	-0.000488 
2337.724992  	-0.001134 
2339.653808  	-0.001326 
2341.582624  	-0.000854 
2343.511440  	-0.000105 
2345.440256  	0.000494 
2347.369072  	0.000716 
2349.297888  	0.000392 
2351.226704  	-0.000271 
2353.155520  	-0.001133 
2355.084336  	-0.000993 
2357.013152  	-0.000785 
2358.941968  	-0.000877 
2360.870784  	-0.001063 
2362.799600  	-0.001115 
2364.728416  	-0.000708 
2366.657232  	-0.000512 
2368.586048  	-0.000286 
2370.514864  	0.000415 
2372.443680  	0.000992 
2374.372496  	0.001560 
2376.301312  	0.001583 
2378.230128  	0.001399 
2380.158944  	0.001125 
2382.087760  	0.000777 
2384.016576  	0.000271 
2385.945392  	-0.000086 
2387.874208  	-0.000191 
2389.803024  	-0.000450 
2391.731840  	-0.000825 
2393.660656  	-0.000841 
2395.589472  	-0.000684 
2397.518288  	-0.000550 
2399.447104  	-0.000592 
2401.375920  	-0.000695 
2403.304736  	-0.000993 
2405.233552  	-0.000922 
2407.162368  	-0.000821 
2409.091184  	-0.000820 
2411.020000  	-0.000894 
2412.948816  	-0.000848 
2414.877632  	-0.000580 
2416.806448  	-0.000348 
2418.735264  	-0.000354 
2420.664080  	-0.000350 
2422.592896  	-0.000508 
2424.521712  	-0.000421 
2426.450528  	-0.000358 
2428.379344  	-0.000289 
2430.308160  	-0.000084 
2432.236976  	-0.000086 
2434.165792  	-0.000032 
2436.094608  	0.000262 
2438.023424  	0.000286 
2439.952240  	0.000192 
2441.881056  	0.000216 
2443.809872  	0.000156 
2445.738688  	0.000129 
2447.667504  	0.000312 
2449.596320  	0.000595 
2451.525136  	0.000802 
2453.453952  	0.000856 
2455.382768  	0.000949 
2457.311584  	0.000911 
2459.240400  	0.000788 
2461.169216  	0.000838 
2463.098032  	0.001062 
2465.026848  	0.000979 
2466.955664  	0.000832 
2468.884480  	0.000667 
2470.813296  	0.000729 
2472.742112  	0.000967 
2474.670928  	0.001124 
2476.599744  	0.001176 
2478.528560  	0.001375 
2480.457376  	0.001578 
2482.386192  	0.001566 
2484.315008  	0.001507 
2486.243824  	0.001752 
2488.172640  	0.001850 
2490.101456  	0.001842 
2492.030272  	0.002098 
2493.959088  	0.002278 
2495.887904  	0.002125 
2497.816720  	0.002140 
2499.745536  	0.002144 
2501.674352  	0.002176 
2503.603168  	0.002152 
2505.531984  	0.002167 
2507.460800  	0.002272 
2509.389616  	0.002310 
2511.318432  	0.002332 
2513.247248  	0.002422 
2515.176064  	0.002480 
2517.104880  	0.002559 
2519.033696  	0.002429 
2520.962512  	0.002526 
2522.891328  	0.002616 
2524.820144  	0.002837 
2526.748960  	0.002755 
2528.677776  	0.002837 
2530.606592  	0.003015 
2532.535408  	0.003168 
2534.464224  	0.003137 
2536.393040  	0.002968 
2538.321856  	0.003061 
2540.250672  	0.003340 
2542.179488  	0.003536 
2544.108304  	0.003666 
2546.037120  	0.003745 
2547.965936  	0.003926 
2549.894752  	0.004063 
2551.823568  	0.004056 
2553.752384  	0.003963 
2555.681200  	0.003884 
2557.610016  	0.003934 
2559.538832  	0.003930 
2561.467648  	0.004164 
2563.396464  	0.004621 
2565.325280  	0.004610 
2567.254096  	0.004408 
2569.182912  	0.004669 
2571.111728  	0.004933 
2573.040544  	0.004976 
2574.969360  	0.005102 
2576.898176  	0.005129 
2578.826992  	0.005155 
2580.755808  	0.005353 
2582.684624  	0.005584 
2584.613440  	0.005741 
2586.542256  	0.005843 
2588.471072  	0.005632 
2590.399888  	0.005650 
2592.328704  	0.005844 
2594.257520  	0.006090 
2596.186336  	0.006133 
2598.115152  	0.006121 
2600.043968  	0.006327 
2601.972784  	0.006455 
2603.901600  	0.006559 
2605.830416  	0.006601 
2607.759232  	0.006525 
2609.688048  	0.006609 
2611.616864  	0.006830 
2613.545680  	0.006967 
2615.474496  	0.007095 
2617.403312  	0.007173 
2619.332128  	0.007238 
2621.260944  	0.007337 
2623.189760  	0.007469 
2625.118576  	0.007643 
2627.047392  	0.007706 
2628.976208  	0.007956 
2630.905024  	0.008145 
2632.833840  	0.008208 
2634.762656  	0.008145 
2636.691472  	0.008254 
2638.620288  	0.008493 
2640.549104  	0.008738 
2642.477920  	0.008878 
2644.406736  	0.008860 
2646.335552  	0.008931 
2648.264368  	0.009115 
2650.193184  	0.009226 
2652.122000  	0.009470 
2654.050816  	0.009714 
2655.979632  	0.009811 
2657.908448  	0.009892 
2659.837264  	0.010074 
2661.766080  	0.010124 
2663.694896  	0.010196 
2665.623712  	0.010396 
2667.552528  	0.010540 
2669.481344  	0.010513 
2671.410160  	0.010535 
2673.338976  	0.010816 
2675.267792  	0.011028 
2677.196608  	0.011180 
2679.125424  	0.011370 
2681.054240  	0.011440 
2682.983056  	0.011559 
2684.911872  	0.011629 
2686.840688  	0.011675 
2688.769504  	0.011814 
2690.698320  	0.012014 
2692.627136  	0.012144 
2694.555952  	0.012186 
2696.484768  	0.012261 
2698.413584  	0.012382 
2700.342400  	0.012422 
2702.271216  	0.012608 
2704.200032  	0.012807 
2706.128848  	0.012993 
2708.057664  	0.013140 
2709.986480  	0.013206 
2711.915296  	0.013330 
2713.844112  	0.013541 
2715.772928  	0.013620 
2717.701744  	0.013656 
2719.630560  	0.013768 
2721.559376  	0.013900 
2723.488192  	0.014020 
2725.417008  	0.014161 
2727.345824  	0.014306 
2729.274640  	0.014642 
2731.203456  	0.014770 
2733.132272  	0.014768 
2735.061088  	0.014851 
2736.989904  	0.014957 
2738.918720  	0.015178 
2740.847536  	0.015287 
2742.776352  	0.015379 
2744.705168  	0.015558 
2746.633984  	0.015648 
2748.562800  	0.015711 
2750.491616  	0.015748 
2752.420432  	0.015799 
2754.349248  	0.015840 
2756.278064  	0.015866 
2758.206880  	0.015773 
2760.135696  	0.015842 
2762.064512  	0.015927 
2763.993328  	0.015966 
2765.922144  	0.016016 
2767.850960  	0.015988 
2769.779776  	0.015957 
2771.708592  	0.016016 
2773.637408  	0.015966 
2775.566224  	0.015886 
2777.495040  	0.015854 
2779.423856  	0.015943 
2781.352672  	0.016054 
2783.281488  	0.016128 
2785.210304  	0.016139 
2787.139120  	0.016164 
2789.067936  	0.016159 
2790.996752  	0.016087 
2792.925568  	0.016117 
2794.854384  	0.016157 
2796.783200  	0.016132 
2798.712016  	0.016079 
2800.640832  	0.016130 
2802.569648  	0.016330 
2804.498464  	0.016413 
2806.427280  	0.016312 
2808.356096  	0.016382 
2810.284912  	0.016436 
2812.213728  	0.016327 
2814.142544  	0.016397 
2816.071360  	0.016410 
2818.000176  	0.016493 
2819.928992  	0.016671 
2821.857808  	0.016751 
2823.786624  	0.016686 
2825.715440  	0.016634 
2827.644256  	0.016623 
2829.573072  	0.016674 
2831.501888  	0.016754 
2833.430704  	0.016711 
2835.359520  	0.016684 
2837.288336  	0.016707 
2839.217152  	0.016617 
2841.145968  	0.016497 
2843.074784  	0.016417 
2845.003600  	0.016603 
2846.932416  	0.016666 
2848.861232  	0.016704 
2850.790048  	0.016726 
2852.718864  	0.016772 
2854.647680  	0.016832 
2856.576496  	0.016963 
2858.505312  	0.017009 
2860.434128  	0.017052 
2862.362944  	0.017150 
2864.291760  	0.017281 
2866.220576  	0.017317 
2868.149392  	0.017383 
2870.078208  	0.017482 
2872.007024  	0.017674 
2873.935840  	0.017957 
2875.864656  	0.018276 
2877.793472  	0.018532 
2879.722288  	0.018966 
2881.651104  	0.019312 
2883.579920  	0.019512 
2885.508736  	0.019704 
2887.437552  	0.019946 
2889.366368  	0.019999 
2891.295184  	0.020020 
2893.224000  	0.020003 
2895.152816  	0.019926 
2897.081632  	0.019975 
2899.010448  	0.019720 
2900.939264  	0.019348 
2902.868080  	0.019554 
2904.796896  	0.019932 
2906.725712  	0.020132 
2908.654528  	0.020387 
2910.583344  	0.020713 
2912.512160  	0.021052 
2914.440976  	0.021517 
2916.369792  	0.022047 
2918.298608  	0.022416 
2920.227424  	0.022706 
2922.156240  	0.022981 
2924.085056  	0.023372 
2926.013872  	0.023872 
2927.942688  	0.024542 
2929.871504  	0.025125 
2931.800320  	0.025587 
2933.729136  	0.026276 
2935.657952  	0.026833 
2937.586768  	0.027186 
2939.515584  	0.027605 
2941.444400  	0.027972 
2943.373216  	0.028179 
2945.302032  	0.028444 
2947.230848  	0.028640 
2949.159664  	0.028669 
2951.088480  	0.028560 
2953.017296  	0.028411 
2954.946112  	0.028197 
2956.874928  	0.028039 
2958.803744  	0.027929 
2960.732560  	0.027743 
2962.661376  	0.027474 
2964.590192  	0.027304 
2966.519008  	0.027142 
2968.447824  	0.026802 
2970.376640  	0.026571 
2972.305456  	0.026376 
2974.234272  	0.026399 
2976.163088  	0.026365 
2978.091904  	0.026204 
2980.020720  	0.026108 
2981.949536  	0.026231 
2983.878352  	0.026265 
2985.807168  	0.026030 
2987.735984  	0.025952 
2989.664800  	0.026190 
2991.593616  	0.026698 
2993.522432  	0.026981 
2995.451248  	0.027236 
2997.380064  	0.027604 
2999.308880  	0.028046 
3001.237696  	0.028602 
3003.166512  	0.029104 
3005.095328  	0.029407 
3007.024144  	0.029752 
3008.952960  	0.030352 
3010.881776  	0.031022 
3012.810592  	0.031586 
3014.739408  	0.032024 
3016.668224  	0.032381 
3018.597040  	0.032897 
3020.525856  	0.033437 
3022.454672  	0.033821 
3024.383488  	0.034252 
3026.312304  	0.034848 
3028.241120  	0.035335 
3030.169936  	0.035831 
3032.098752  	0.036422 
3034.027568  	0.036722 
3035.956384  	0.037184 
3037.885200  	0.037736 
3039.814016  	0.038242 
3041.742832  	0.038779 
3043.671648  	0.039328 
3045.600464  	0.039783 
3047.529280  	0.040254 
3049.458096  	0.040800 
3051.386912  	0.041245 
3053.315728  	0.041672 
3055.244544  	0.042092 
3057.173360  	0.042681 
3059.102176  	0.043318 
3061.030992  	0.044012 
3062.959808  	0.044584 
3064.888624  	0.045166 
3066.817440  	0.045853 
3068.746256  	0.046515 
3070.675072  	0.047114 
3072.603888  	0.047773 
3074.532704  	0.048352 
3076.461520  	0.048912 
3078.390336  	0.049568 
3080.319152  	0.050385 
3082.247968  	0.051019 
3084.176784  	0.051543 
3086.105600  	0.052137 
3088.034416  	0.052919 
3089.963232  	0.053421 
3091.892048  	0.053807 
3093.820864  	0.054289 
3095.749680  	0.055206 
3097.678496  	0.055982 
3099.607312  	0.056554 
3101.536128  	0.057282 
3103.464944  	0.057893 
3105.393760  	0.058307 
3107.322576  	0.058886 
3109.251392  	0.059506 
3111.180208  	0.059916 
3113.109024  	0.060321 
3115.037840  	0.060837 
3116.966656  	0.061372 
3118.895472  	0.061929 
3120.824288  	0.062475 
3122.753104  	0.063163 
3124.681920  	0.063521 
3126.610736  	0.063726 
3128.539552  	0.064031 
3130.468368  	0.064300 
3132.397184  	0.064840 
3134.326000  	0.065320 
3136.254816  	0.065646 
3138.183632  	0.066073 
3140.112448  	0.066381 
3142.041264  	0.066804 
3143.970080  	0.067482 
3145.898896  	0.067936 
3147.827712  	0.068230 
3149.756528  	0.068778 
3151.685344  	0.069220 
3153.614160  	0.069575 
3155.542976  	0.069890 
3157.471792  	0.070245 
3159.400608  	0.070727 
3161.329424  	0.071085 
3163.258240  	0.071577 
3165.187056  	0.072048 
3167.115872  	0.072266 
3169.044688  	0.072618 
3170.973504  	0.072914 
3172.902320  	0.073126 
3174.831136  	0.073235 
3176.759952  	0.073634 
3178.688768  	0.074067 
3180.617584  	0.074055 
3182.546400  	0.073953 
3184.475216  	0.074034 
3186.404032  	0.074336 
3188.332848  	0.074465 
3190.261664  	0.074492 
3192.190480  	0.074471 
3194.119296  	0.074441 
3196.048112  	0.074219 
3197.976928  	0.074373 
3199.905744  	0.074497 
3201.834560  	0.074444 
3203.763376  	0.074184 
3205.692192  	0.073751 
3207.621008  	0.073516 
3209.549824  	0.073587 
3211.478640  	0.073749 
3213.407456  	0.073652 
3215.336272  	0.073705 
3217.265088  	0.073572 
3219.193904  	0.073486 
3221.122720  	0.073337 
3223.051536  	0.073010 
3224.980352  	0.072974 
3226.909168  	0.072929 
3228.837984  	0.072691 
3230.766800  	0.072437 
3232.695616  	0.072560 
3234.624432  	0.072626 
3236.553248  	0.072784 
3238.482064  	0.072700 
3240.410880  	0.072436 
3242.339696  	0.072416 
3244.268512  	0.072541 
3246.197328  	0.072662 
3248.126144  	0.072623 
3250.054960  	0.072697 
3251.983776  	0.072617 
3253.912592  	0.072870 
3255.841408  	0.072979 
3257.770224  	0.073073 
3259.699040  	0.073305 
3261.627856  	0.073442 
3263.556672  	0.073370 
3265.485488  	0.073458 
3267.414304  	0.073459 
3269.343120  	0.073568 
3271.271936  	0.073772 
3273.200752  	0.074036 
3275.129568  	0.074026 
3277.058384  	0.074057 
3278.987200  	0.074235 
3280.916016  	0.074245 
3282.844832  	0.074198 
3284.773648  	0.074420 
3286.702464  	0.074422 
3288.631280  	0.074542 
3290.560096  	0.074632 
3292.488912  	0.074714 
3294.417728  	0.074786 
3296.346544  	0.074881 
3298.275360  	0.074997 
3300.204176  	0.075061 
3302.132992  	0.075040 
3304.061808  	0.075217 
3305.990624  	0.075453 
3307.919440  	0.075704 
3309.848256  	0.075966 
3311.777072  	0.076249 
3313.705888  	0.076563 
3315.634704  	0.076616 
3317.563520  	0.076559 
3319.492336  	0.076638 
3321.421152  	0.076913 
3323.349968  	0.076923 
3325.278784  	0.076710 
3327.207600  	0.076738 
3329.136416  	0.076712 
3331.065232  	0.076711 
3332.994048  	0.076747 
3334.922864  	0.076737 
3336.851680  	0.076760 
3338.780496  	0.076692 
3340.709312  	0.076399 
3342.638128  	0.076336 
3344.566944  	0.076224 
3346.495760  	0.075975 
3348.424576  	0.075870 
3350.353392  	0.075811 
3352.282208  	0.075396 
3354.211024  	0.074991 
3356.139840  	0.074706 
3358.068656  	0.074512 
3359.997472  	0.074262 
3361.926288  	0.074003 
3363.855104  	0.073540 
3365.783920  	0.073245 
3367.712736  	0.073060 
3369.641552  	0.072889 
3371.570368  	0.072498 
3373.499184  	0.072148 
3375.428000  	0.071988 
3377.356816  	0.071917 
3379.285632  	0.071687 
3381.214448  	0.071315 
3383.143264  	0.071121 
3385.072080  	0.071147 
3387.000896  	0.070637 
3388.929712  	0.069954 
3390.858528  	0.069476 
3392.787344  	0.069626 
3394.716160  	0.069466 
3396.644976  	0.069209 
3398.573792  	0.068913 
3400.502608  	0.068193 
3402.431424  	0.067590 
3404.360240  	0.067160 
3406.289056  	0.066624 
3408.217872  	0.066272 
3410.146688  	0.065986 
3412.075504  	0.065436 
3414.004320  	0.065116 
3415.933136  	0.064964 
3417.861952  	0.064554 
3419.790768  	0.064386 
3421.719584  	0.064311 
3423.648400  	0.063655 
3425.577216  	0.062872 
3427.506032  	0.062514 
3429.434848  	0.062185 
3431.363664  	0.061858 
3433.292480  	0.061270 
3435.221296  	0.060745 
3437.150112  	0.060209 
3439.078928  	0.059741 
3441.007744  	0.059256 
3442.936560  	0.059021 
3444.865376  	0.058116 
3446.794192  	0.058078 
3448.723008  	0.058159 
3450.651824  	0.057036 
3452.580640  	0.056296 
3454.509456  	0.055719 
3456.438272  	0.055144 
3458.367088  	0.054624 
3460.295904  	0.054146 
3462.224720  	0.053881 
3464.153536  	0.053277 
3466.082352  	0.052362 
3468.011168  	0.051815 
3469.939984  	0.051242 
3471.868800  	0.050561 
3473.797616  	0.049783 
3475.726432  	0.049359 
3477.655248  	0.048548 
3479.584064  	0.047726 
3481.512880  	0.047667 
3483.441696  	0.047305 
3485.370512  	0.046162 
3487.299328  	0.045646 
3489.228144  	0.045008 
3491.156960  	0.044109 
3493.085776  	0.043588 
3495.014592  	0.043131 
3496.943408  	0.042818 
3498.872224  	0.041964 
3500.801040  	0.041072 
3502.729856  	0.041142 
3504.658672  	0.040996 
3506.587488  	0.039721 
3508.516304  	0.039150 
3510.445120  	0.038982 
3512.373936  	0.038244 
3514.302752  	0.037619 
3516.231568  	0.036994 
3518.160384  	0.036409 
3520.089200  	0.035643 
3522.018016  	0.034931 
3523.946832  	0.035140 
3525.875648  	0.034743 
3527.804464  	0.034320 
3529.733280  	0.033899 
3531.662096  	0.032892 
3533.590912  	0.031898 
3535.519728  	0.031403 
3537.448544  	0.031126 
3539.377360  	0.030338 
3541.306176  	0.029397 
3543.234992  	0.028827 
3545.163808  	0.029275 
3547.092624  	0.029649 
3549.021440  	0.028344 
3550.950256  	0.027040 
3552.879072  	0.027381 
3554.807888  	0.026678 
3556.736704  	0.025448 
3558.665520  	0.024983 
3560.594336  	0.024569 
3562.523152  	0.023602 
3564.451968  	0.022791 
3566.380784  	0.024205 
3568.309600  	0.025525 
3570.238416  	0.023198 
3572.167232  	0.021220 
3574.096048  	0.020435 
3576.024864  	0.019912 
3577.953680  	0.019317 
3579.882496  	0.018873 
3581.811312  	0.018209 
3583.740128  	0.017217 
3585.668944  	0.016761 
3587.597760  	0.018373 
3589.526576  	0.017659 
3591.455392  	0.015284 
3593.384208  	0.014737 
3595.313024  	0.014953 
3597.241840  	0.014052 
3599.170656  	0.013014 
3601.099472  	0.012946 
3603.028288  	0.011867 
3604.957104  	0.010616 
3606.885920  	0.010569 
3608.814736  	0.010919 
3610.743552  	0.009524 
3612.672368  	0.009018 
3614.601184  	0.008837 
3616.530000  	0.007264 
3618.458816  	0.007167 
3620.387632  	0.007549 
3622.316448  	0.006144 
3624.245264  	0.004566 
3626.174080  	0.003038 
3628.102896  	0.003360 
3630.031712  	0.005412 
3631.960528  	0.003142 
3633.889344  	0.001974 
3635.818160  	0.001222 
3637.746976  	0.000217 
3639.675792  	-0.000631 
3641.604608  	-0.001313 
3643.533424  	-0.001818 
3645.462240  	-0.002618 
3647.391056  	-0.002165 
3649.319872  	-0.001457 
3651.248688  	-0.001775 
3653.177504  	-0.004171 
3655.106320  	-0.005283 
3657.035136  	-0.004915 
3658.963952  	-0.005729 
3660.892768  	-0.006382 
3662.821584  	-0.007042 
3664.750400  	-0.007569 
3666.679216  	-0.008128 
3668.608032  	-0.008154 
3670.536848  	-0.007137 
3672.465664  	-0.008444 
3674.394480  	-0.008622 
3676.323296  	-0.006798 
3678.252112  	-0.007818 
3680.180928  	-0.008406 
3682.109744  	-0.009035 
3684.038560  	-0.009432 
3685.967376  	-0.009959 
3687.896192  	-0.009712 
3689.825008  	-0.008931 
3691.753824  	-0.008889 
3693.682640  	-0.009304 
3695.611456  	-0.009588 
3697.540272  	-0.009693 
3699.469088  	-0.010342 
3701.397904  	-0.009969 
3703.326720  	-0.009613 
3705.255536  	-0.009886 
3707.184352  	-0.010088 
3709.113168  	-0.010064 
3711.041984  	-0.009299 
3712.970800  	-0.008667 
3714.899616  	-0.009466 
3716.828432  	-0.009944 
3718.757248  	-0.009698 
3720.686064  	-0.009779 
3722.614880  	-0.009771 
3724.543696  	-0.009767 
3726.472512  	-0.009269 
3728.401328  	-0.009866 
3730.330144  	-0.010598 
3732.258960  	-0.010155 
3734.187776  	-0.009193 
3736.116592  	-0.007848 
3738.045408  	-0.008899 
3739.974224  	-0.009819 
3741.903040  	-0.010628 
3743.831856  	-0.010366 
3745.760672  	-0.009703 
3747.689488  	-0.010653 
3749.618304  	-0.009612 
3751.547120  	-0.008287 
3753.475936  	-0.008783 
3755.404752  	-0.009899 
3757.333568  	-0.009854 
3759.262384  	-0.009083 
3761.191200  	-0.009162 
3763.120016  	-0.010015 
3765.048832  	-0.009776 
3766.977648  	-0.009933 
3768.906464  	-0.009801 
3770.835280  	-0.009312 
3772.764096  	-0.009802 
3774.692912  	-0.010161 
3776.621728  	-0.010379 
3778.550544  	-0.009898 
3780.479360  	-0.009523 
3782.408176  	-0.010229 
3784.336992  	-0.010091 
3786.265808  	-0.009980 
3788.194624  	-0.010192 
3790.123440  	-0.010052 
3792.052256  	-0.010243 
3793.981072  	-0.010818 
3795.909888  	-0.010216 
3797.838704  	-0.009836 
3799.767520  	-0.010134 
3801.696336  	-0.008903 
3803.625152  	-0.009741 
3805.553968  	-0.010353 
3807.482784  	-0.009432 
3809.411600  	-0.009773 
3811.340416  	-0.010251 
3813.269232  	-0.010734 
3815.198048  	-0.010131 
3817.126864  	-0.009631 
3819.055680  	-0.010284 
3820.984496  	-0.009106 
3822.913312  	-0.009224 
3824.842128  	-0.010239 
3826.770944  	-0.010012 
3828.699760  	-0.010236 
3830.628576  	-0.010521 
3832.557392  	-0.010390 
3834.486208  	-0.010751 
3836.415024  	-0.010697 
3838.343840  	-0.009562 
3840.272656  	-0.009061 
3842.201472  	-0.009405 
3844.130288  	-0.009411 
3846.059104  	-0.009896 
3847.987920  	-0.010447 
3849.916736  	-0.010674 
3851.845552  	-0.010420 
3853.774368  	-0.008132 
3855.703184  	-0.008398 
3857.632000  	-0.009412 
3859.560816  	-0.010177 
3861.489632  	-0.010095 
3863.418448  	-0.009500 
3865.347264  	-0.008991 
3867.276080  	-0.010238 
3869.204896  	-0.009838 
3871.133712  	-0.008888 
3873.062528  	-0.009653 
3874.991344  	-0.009346 
3876.920160  	-0.010243 
3878.848976  	-0.010364 
3880.777792  	-0.009005 
3882.706608  	-0.009379 
3884.635424  	-0.009749 
3886.564240  	-0.009408 
3888.493056  	-0.010514 
3890.421872  	-0.010379 
3892.350688  	-0.009649 
3894.279504  	-0.009920 
3896.208320  	-0.010366 
3898.137136  	-0.010180 
3900.065952  	-0.009202 
3901.994768  	-0.008942 
3903.923584  	-0.008737 
3905.852400  	-0.008976 
3907.781216  	-0.009868 
3909.710032  	-0.010428 
3911.638848  	-0.010660 
3913.567664  	-0.010581 
3915.496480  	-0.010038 
3917.425296  	-0.009286 
3919.354112  	-0.009377 
3921.282928  	-0.009665 
3923.211744  	-0.009648 
3925.140560  	-0.009437 
3927.069376  	-0.009970 
3928.998192  	-0.009919 
3930.927008  	-0.009388 
3932.855824  	-0.009278 
3934.784640  	-0.009827 
3936.713456  	-0.010032 
3938.642272  	-0.010129 
3940.571088  	-0.010218 
3942.499904  	-0.009543 
3944.428720  	-0.009719 
3946.357536  	-0.010304 
3948.286352  	-0.009737 
3950.215168  	-0.009773 
3952.143984  	-0.010214 
3954.072800  	-0.010346 
3956.001616  	-0.010226 
3957.930432  	-0.010012 
3959.859248  	-0.009771 
3961.788064  	-0.009656 
3963.716880  	-0.009827 
3965.645696  	-0.010196 
3967.574512  	-0.010383 
3969.503328  	-0.010415 
3971.432144  	-0.010343 
3973.360960  	-0.010008 
3975.289776  	-0.009625 
3977.218592  	-0.009727 
3979.147408  	-0.009906 
3981.076224  	-0.010015 
3983.005040  	-0.010252 
3984.933856  	-0.010092 
3986.862672  	-0.009782 
3988.791488  	-0.009975 
3990.720304  	-0.010025 
3992.649120  	-0.010038 
3994.577936  	-0.010043 
3996.506752  	-0.010151 
3998.435568  	-0.010141 
4000.364384  	-0.010104 