##TITLE=No Description
##DATA TYPE=INFRARED SPECTRUM
##XUNITS=1/CM
##YUNITS=Abs
399.264912  	0.559575 
401.193728  	0.548332 
403.122544  	0.547129 
405.051360  	0.534672 
406.980176  	0.532699 
408.908992  	0.524414 
410.837808  	0.526418 
412.766624  	0.530953 
414.695440  	0.529857 
416.624256  	0.521034 
418.553072  	0.523714 
420.481888  	0.509295 
422.410704  	0.504680 
424.339520  	0.497857 
426.268336  	0.494183 
428.197152  	0.499519 
430.125968  	0.507297 
432.054784  	0.503142 
433.983600  	0.501299 
435.912416  	0.497195 
437.841232  	0.494568 
439.770048  	0.492550 
441.698864  	0.491077 
443.627680  	0.484897 
445.556496  	0.486606 
447.485312  	0.482464 
449.414128  	0.480536 
451.342944  	0.482223 
453.271760  	0.484015 
455.200576  	0.482962 
457.129392  	0.486812 
459.058208  	0.486212 
460.987024  	0.483250 
462.915840  	0.476267 
464.844656  	0.477803 
466.773472  	0.480180 
468.702288  	0.477863 
470.631104  	0.473643 
472.559920  	0.474487 
474.488736  	0.472705 
476.417552  	0.473862 
478.346368  	0.472046 
480.275184  	0.472328 
482.204000  	0.473743 
484.132816  	0.476739 
486.061632  	0.476453 
487.990448  	0.474035 
489.919264  	0.469288 
491.848080  	0.469662 
493.776896  	0.466624 
495.705712  	0.462740 
497.634528  	0.460473 
499.563344  	0.460800 
501.492160  	0.460705 
503.420976  	0.459765 
505.349792  	0.458546 
507.278608  	0.458231 
509.207424  	0.456822 
511.136240  	0.458947 
513.065056  	0.458020 
514.993872  	0.460307 
516.922688  	0.463039 
518.851504  	0.465928 
520.780320  	0.465563 
522.709136  	0.464594 
524.637952  	0.461085 
526.566768  	0.457311 
528.495584  	0.454768 
530.424400  	0.453807 
532.353216  	0.449558 
534.282032  	0.446111 
536.210848  	0.441941 
538.139664  	0.438171 
540.068480  	0.434685 
541.997296  	0.430421 
543.926112  	0.425145 
545.854928  	0.422826 
547.783744  	0.419528 
549.712560  	0.417699 
551.641376  	0.414855 
553.570192  	0.413298 
555.499008  	0.409952 
557.427824  	0.408356 
559.356640  	0.404422 
561.285456  	0.401520 
563.214272  	0.399234 
565.143088  	0.396218 
567.071904  	0.392600 
569.000720  	0.390474 
570.929536  	0.387370 
572.858352  	0.385354 
574.787168  	0.382378 
576.715984  	0.378950 
578.644800  	0.375448 
580.573616  	0.372109 
582.502432  	0.367882 
584.431248  	0.365015 
586.360064  	0.361813 
588.288880  	0.358636 
590.217696  	0.355664 
592.146512  	0.354366 
594.075328  	0.352571 
596.004144  	0.350852 
597.932960  	0.348204 
599.861776  	0.347241 
601.790592  	0.345389 
603.719408  	0.344093 
605.648224  	0.343510 
607.577040  	0.342860 
609.505856  	0.341158 
611.434672  	0.339725 
613.363488  	0.338439 
615.292304  	0.337553 
617.221120  	0.335646 
619.149936  	0.334311 
621.078752  	0.332734 
623.007568  	0.331691 
624.936384  	0.330637 
626.865200  	0.329899 
628.794016  	0.329078 
630.722832  	0.329005 
632.651648  	0.328761 
634.580464  	0.328681 
636.509280  	0.329214 
638.438096  	0.329125 
640.366912  	0.327541 
642.295728  	0.325834 
644.224544  	0.323623 
646.153360  	0.321124 
648.082176  	0.317311 
650.010992  	0.314073 
651.939808  	0.311474 
653.868624  	0.308774 
655.797440  	0.304716 
657.726256  	0.301751 
659.655072  	0.298495 
661.583888  	0.294707 
663.512704  	0.290419 
665.441520  	0.286657 
667.370336  	0.284442 
669.299152  	0.281708 
671.227968  	0.276530 
673.156784  	0.272604 
675.085600  	0.269736 
677.014416  	0.267162 
678.943232  	0.265053 
680.872048  	0.263380 
682.800864  	0.261715 
684.729680  	0.260411 
686.658496  	0.258889 
688.587312  	0.257832 
690.516128  	0.256516 
692.444944  	0.255483 
694.373760  	0.253713 
696.302576  	0.252366 
698.231392  	0.250562 
700.160208  	0.248142 
702.089024  	0.245540 
704.017840  	0.243582 
705.946656  	0.241364 
707.875472  	0.238800 
709.804288  	0.236709 
711.733104  	0.235316 
713.661920  	0.233517 
715.590736  	0.231972 
717.519552  	0.231341 
719.448368  	0.231789 
721.377184  	0.232622 
723.306000  	0.233207 
725.234816  	0.233150 
727.163632  	0.232240 
729.092448  	0.229639 
731.021264  	0.226132 
732.950080  	0.222807 
734.878896  	0.220249 
736.807712  	0.217611 
738.736528  	0.215261 
740.665344  	0.213262 
742.594160  	0.211981 
744.522976  	0.210679 
746.451792  	0.209520 
748.380608  	0.207912 
750.309424  	0.206381 
752.238240  	0.205538 
754.167056  	0.205185 
756.095872  	0.204368 
758.024688  	0.203074 
759.953504  	0.202590 
761.882320  	0.203430 
763.811136  	0.203822 
765.739952  	0.201878 
767.668768  	0.199019 
769.597584  	0.196702 
771.526400  	0.195544 
773.455216  	0.196516 
775.384032  	0.199602 
777.312848  	0.204350 
779.241664  	0.207589 
781.170480  	0.206859 
783.099296  	0.202182 
785.028112  	0.196284 
786.956928  	0.190800 
788.885744  	0.186589 
790.814560  	0.183469 
792.743376  	0.181439 
794.672192  	0.180716 
796.601008  	0.179709 
798.529824  	0.176636 
800.458640  	0.172735 
802.387456  	0.169492 
804.316272  	0.167555 
806.245088  	0.166602 
808.173904  	0.165799 
810.102720  	0.165313 
812.031536  	0.165134 
813.960352  	0.164962 
815.889168  	0.165165 
817.817984  	0.165932 
819.746800  	0.167044 
821.675616  	0.167808 
823.604432  	0.168202 
825.533248  	0.168370 
827.462064  	0.168717 
829.390880  	0.168434 
831.319696  	0.167802 
833.248512  	0.166652 
835.177328  	0.165036 
837.106144  	0.162670 
839.034960  	0.159935 
840.963776  	0.156419 
842.892592  	0.152533 
844.821408  	0.148712 
846.750224  	0.145239 
848.679040  	0.142489 
850.607856  	0.140263 
852.536672  	0.138743 
854.465488  	0.137884 
856.394304  	0.136945 
858.323120  	0.135488 
860.251936  	0.134009 
862.180752  	0.132633 
864.109568  	0.130729 
866.038384  	0.128798 
867.967200  	0.126861 
869.896016  	0.125380 
871.824832  	0.124527 
873.753648  	0.124648 
875.682464  	0.125236 
877.611280  	0.126546 
879.540096  	0.128416 
881.468912  	0.130542 
883.397728  	0.132788 
885.326544  	0.134712 
887.255360  	0.135872 
889.184176  	0.136016 
891.112992  	0.135463 
893.041808  	0.134082 
894.970624  	0.131679 
896.899440  	0.128005 
898.828256  	0.123533 
900.757072  	0.119250 
902.685888  	0.115634 
904.614704  	0.113288 
906.543520  	0.112679 
908.472336  	0.113897 
910.401152  	0.116007 
912.329968  	0.118623 
914.258784  	0.121058 
916.187600  	0.123410 
918.116416  	0.125309 
920.045232  	0.126676 
921.974048  	0.127556 
923.902864  	0.128355 
925.831680  	0.129123 
927.760496  	0.129876 
929.689312  	0.130671 
931.618128  	0.131922 
933.546944  	0.132777 
935.475760  	0.132821 
937.404576  	0.132453 
939.333392  	0.131815 
941.262208  	0.131323 
943.191024  	0.131871 
945.119840  	0.134271 
947.048656  	0.139016 
948.977472  	0.146171 
950.906288  	0.155524 
952.835104  	0.166975 
954.763920  	0.180050 
956.692736  	0.193261 
958.621552  	0.205324 
960.550368  	0.214469 
962.479184  	0.219967 
964.408000  	0.220586 
966.336816  	0.217062 
968.265632  	0.209380 
970.194448  	0.198370 
972.123264  	0.185012 
974.052080  	0.170661 
975.980896  	0.156152 
977.909712  	0.142606 
979.838528  	0.131021 
981.767344  	0.121374 
983.696160  	0.114002 
985.624976  	0.109254 
987.553792  	0.107516 
989.482608  	0.108550 
991.411424  	0.112160 
993.340240  	0.117836 
995.269056  	0.124571 
997.197872  	0.131814 
999.126688  	0.138881 
1001.055504  	0.146153 
1002.984320  	0.153206 
1004.913136  	0.160453 
1006.841952  	0.167339 
1008.770768  	0.173891 
1010.699584  	0.179436 
1012.628400  	0.183713 
1014.557216  	0.186820 
1016.486032  	0.188390 
1018.414848  	0.189146 
1020.343664  	0.189573 
1022.272480  	0.189704 
1024.201296  	0.189701 
1026.130112  	0.189475 
1028.058928  	0.190167 
1029.987744  	0.192230 
1031.916560  	0.195080 
1033.845376  	0.198496 
1035.774192  	0.203217 
1037.703008  	0.209523 
1039.631824  	0.218791 
1041.560640  	0.230603 
1043.489456  	0.245498 
1045.418272  	0.262144 
1047.347088  	0.278341 
1049.275904  	0.290347 
1051.204720  	0.296862 
1053.133536  	0.298176 
1055.062352  	0.295802 
1056.991168  	0.291975 
1058.919984  	0.289254 
1060.848800  	0.287297 
1062.777616  	0.285597 
1064.706432  	0.282972 
1066.635248  	0.280088 
1068.564064  	0.276046 
1070.492880  	0.270371 
1072.421696  	0.264515 
1074.350512  	0.260803 
1076.279328  	0.260129 
1078.208144  	0.263671 
1080.136960  	0.268686 
1082.065776  	0.272528 
1083.994592  	0.272551 
1085.923408  	0.268456 
1087.852224  	0.260250 
1089.781040  	0.250138 
1091.709856  	0.238296 
1093.638672  	0.225595 
1095.567488  	0.211596 
1097.496304  	0.197703 
1099.425120  	0.184121 
1101.353936  	0.171206 
1103.282752  	0.159034 
1105.211568  	0.147811 
1107.140384  	0.137628 
1109.069200  	0.128293 
1110.998016  	0.120078 
1112.926832  	0.112696 
1114.855648  	0.105876 
1116.784464  	0.099174 
1118.713280  	0.092618 
1120.642096  	0.086387 
1122.570912  	0.080579 
1124.499728  	0.075293 
1126.428544  	0.070763 
1128.357360  	0.066958 
1130.286176  	0.063721 
1132.214992  	0.060981 
1134.143808  	0.058868 
1136.072624  	0.057038 
1138.001440  	0.055471 
1139.930256  	0.054070 
1141.859072  	0.052695 
1143.787888  	0.051266 
1145.716704  	0.050031 
1147.645520  	0.048877 
1149.574336  	0.048431 
1151.503152  	0.047933 
1153.431968  	0.047629 
1155.360784  	0.047896 
1157.289600  	0.048849 
1159.218416  	0.049983 
1161.147232  	0.051381 
1163.076048  	0.053074 
1165.004864  	0.054756 
1166.933680  	0.056276 
1168.862496  	0.057917 
1170.791312  	0.059862 
1172.720128  	0.062433 
1174.648944  	0.065348 
1176.577760  	0.068068 
1178.506576  	0.070977 
1180.435392  	0.074077 
1182.364208  	0.077181 
1184.293024  	0.080731 
1186.221840  	0.084855 
1188.150656  	0.089532 
1190.079472  	0.094765 
1192.008288  	0.100912 
1193.937104  	0.107836 
1195.865920  	0.115423 
1197.794736  	0.123820 
1199.723552  	0.132946 
1201.652368  	0.142087 
1203.581184  	0.150733 
1205.510000  	0.158948 
1207.438816  	0.166146 
1209.367632  	0.172475 
1211.296448  	0.177464 
1213.225264  	0.181277 
1215.154080  	0.183578 
1217.082896  	0.184814 
1219.011712  	0.184622 
1220.940528  	0.183799 
1222.869344  	0.182133 
1224.798160  	0.180041 
1226.726976  	0.177197 
1228.655792  	0.173659 
1230.584608  	0.169603 
1232.513424  	0.164950 
1234.442240  	0.159710 
1236.371056  	0.154247 
1238.299872  	0.148350 
1240.228688  	0.141692 
1242.157504  	0.135029 
1244.086320  	0.128772 
1246.015136  	0.122370 
1247.943952  	0.116158 
1249.872768  	0.109937 
1251.801584  	0.104092 
1253.730400  	0.098426 
1255.659216  	0.092935 
1257.588032  	0.087611 
1259.516848  	0.082708 
1261.445664  	0.078209 
1263.374480  	0.074055 
1265.303296  	0.070387 
1267.232112  	0.067635 
1269.160928  	0.065770 
1271.089744  	0.064493 
1273.018560  	0.063791 
1274.947376  	0.063949 
1276.876192  	0.064791 
1278.805008  	0.065439 
1280.733824  	0.065272 
1282.662640  	0.063971 
1284.591456  	0.062198 
1286.520272  	0.060736 
1288.449088  	0.059990 
1290.377904  	0.060041 
1292.306720  	0.060934 
1294.235536  	0.061781 
1296.164352  	0.061551 
1298.093168  	0.059977 
1300.021984  	0.057697 
1301.950800  	0.055109 
1303.879616  	0.052266 
1305.808432  	0.049185 
1307.737248  	0.045968 
1309.666064  	0.042867 
1311.594880  	0.040639 
1313.523696  	0.038988 
1315.452512  	0.037809 
1317.381328  	0.037345 
1319.310144  	0.037426 
1321.238960  	0.037707 
1323.167776  	0.038401 
1325.096592  	0.039100 
1327.025408  	0.039388 
1328.954224  	0.039227 
1330.883040  	0.038532 
1332.811856  	0.037314 
1334.740672  	0.036222 
1336.669488  	0.035890 
1338.598304  	0.036366 
1340.527120  	0.036071 
1342.455936  	0.034755 
1344.384752  	0.034341 
1346.313568  	0.034759 
1348.242384  	0.035452 
1350.171200  	0.036407 
1352.100016  	0.037830 
1354.028832  	0.039592 
1355.957648  	0.041441 
1357.886464  	0.043274 
1359.815280  	0.045189 
1361.744096  	0.047786 
1363.672912  	0.050172 
1365.601728  	0.051249 
1367.530544  	0.052822 
1369.459360  	0.054603 
1371.388176  	0.055465 
1373.316992  	0.055862 
1375.245808  	0.055000 
1377.174624  	0.052504 
1379.103440  	0.050073 
1381.032256  	0.047645 
1382.961072  	0.045518 
1384.889888  	0.044023 
1386.818704  	0.043316 
1388.747520  	0.041622 
1390.676336  	0.039312 
1392.605152  	0.037571 
1394.533968  	0.037049 
1396.462784  	0.037302 
1398.391600  	0.037166 
1400.320416  	0.037001 
1402.249232  	0.036805 
1404.178048  	0.037563 
1406.106864  	0.038450 
1408.035680  	0.039342 
1409.964496  	0.040786 
1411.893312  	0.042618 
1413.822128  	0.044530 
1415.750944  	0.046773 
1417.679760  	0.048792 
1419.608576  	0.050351 
1421.537392  	0.049901 
1423.466208  	0.049400 
1425.395024  	0.048020 
1427.323840  	0.045895 
1429.252656  	0.044102 
1431.181472  	0.042309 
1433.110288  	0.041108 
1435.039104  	0.041224 
1436.967920  	0.042977 
1438.896736  	0.043820 
1440.825552  	0.044311 
1442.754368  	0.044963 
1444.683184  	0.045120 
1446.612000  	0.045420 
1448.540816  	0.045799 
1450.469632  	0.045938 
1452.398448  	0.046172 
1454.327264  	0.046483 
1456.256080  	0.047676 
1458.184896  	0.048610 
1460.113712  	0.046868 
1462.042528  	0.045599 
1463.971344  	0.045200 
1465.900160  	0.045791 
1467.828976  	0.045903 
1469.757792  	0.046635 
1471.686608  	0.049745 
1473.615424  	0.056343 
1475.544240  	0.060102 
1477.473056  	0.064253 
1479.401872  	0.066943 
1481.330688  	0.070387 
1483.259504  	0.072902 
1485.188320  	0.074279 
1487.117136  	0.075598 
1489.045952  	0.077330 
1490.974768  	0.076354 
1492.903584  	0.072903 
1494.832400  	0.069016 
1496.761216  	0.064953 
1498.690032  	0.059641 
1500.618848  	0.054597 
1502.547664  	0.050012 
1504.476480  	0.046592 
1506.405296  	0.045269 
1508.334112  	0.044805 
1510.262928  	0.041872 
1512.191744  	0.039733 
1514.120560  	0.038885 
1516.049376  	0.039947 
1517.978192  	0.041493 
1519.907008  	0.042386 
1521.835824  	0.046571 
1523.764640  	0.049136 
1525.693456  	0.051775 
1527.622272  	0.054006 
1529.551088  	0.053555 
1531.479904  	0.052001 
1533.408720  	0.050524 
1535.337536  	0.047678 
1537.266352  	0.044849 
1539.195168  	0.043002 
1541.123984  	0.041377 
1543.052800  	0.040131 
1544.981616  	0.038797 
1546.910432  	0.036747 
1548.839248  	0.036116 
1550.768064  	0.036721 
1552.696880  	0.036138 
1554.625696  	0.036966 
1556.554512  	0.036967 
1558.483328  	0.039547 
1560.412144  	0.043726 
1562.340960  	0.043790 
1564.269776  	0.045557 
1566.198592  	0.049221 
1568.127408  	0.051734 
1570.056224  	0.058087 
1571.985040  	0.061728 
1573.913856  	0.063475 
1575.842672  	0.066781 
1577.771488  	0.070575 
1579.700304  	0.069451 
1581.629120  	0.068731 
1583.557936  	0.068196 
1585.486752  	0.069077 
1587.415568  	0.070960 
1589.344384  	0.074614 
1591.273200  	0.079209 
1593.202016  	0.085109 
1595.130832  	0.091570 
1597.059648  	0.098246 
1598.988464  	0.103752 
1600.917280  	0.109231 
1602.846096  	0.113404 
1604.774912  	0.116411 
1606.703728  	0.117303 
1608.632544  	0.117673 
1610.561360  	0.116404 
1612.490176  	0.115032 
1614.418992  	0.112576 
1616.347808  	0.113355 
1618.276624  	0.116059 
1620.205440  	0.116836 
1622.134256  	0.118670 
1624.063072  	0.125879 
1625.991888  	0.130121 
1627.920704  	0.136714 
1629.849520  	0.143960 
1631.778336  	0.148992 
1633.707152  	0.152434 
1635.635968  	0.162828 
1637.564784  	0.173028 
1639.493600  	0.174742 
1641.422416  	0.176906 
1643.351232  	0.178227 
1645.280048  	0.177925 
1647.208864  	0.183585 
1649.137680  	0.183300 
1651.066496  	0.177589 
1652.995312  	0.178354 
1654.924128  	0.184099 
1656.852944  	0.178294 
1658.781760  	0.174512 
1660.710576  	0.171096 
1662.639392  	0.168908 
1664.568208  	0.165592 
1666.497024  	0.160377 
1668.425840  	0.155732 
1670.354656  	0.152333 
1672.283472  	0.147624 
1674.212288  	0.143151 
1676.141104  	0.140747 
1678.069920  	0.137201 
1679.998736  	0.135073 
1681.927552  	0.132385 
1683.856368  	0.131740 
1685.785184  	0.133915 
1687.714000  	0.130865 
1689.642816  	0.130052 
1691.571632  	0.128635 
1693.500448  	0.126133 
1695.429264  	0.125515 
1697.358080  	0.126927 
1699.286896  	0.124225 
1701.215712  	0.125848 
1703.144528  	0.122472 
1705.073344  	0.119984 
1707.002160  	0.117449 
1708.930976  	0.113219 
1710.859792  	0.108261 
1712.788608  	0.102771 
1714.717424  	0.096203 
1716.646240  	0.088442 
1718.575056  	0.077805 
1720.503872  	0.068367 
1722.432688  	0.060247 
1724.361504  	0.051346 
1726.290320  	0.043622 
1728.219136  	0.037507 
1730.147952  	0.032442 
1732.076768  	0.028067 
1734.005584  	0.023919 
1735.934400  	0.019522 
1737.863216  	0.017564 
1739.792032  	0.015135 
1741.720848  	0.013261 
1743.649664  	0.012083 
1745.578480  	0.010907 
1747.507296  	0.009908 
1749.436112  	0.009534 
1751.364928  	0.008302 
1753.293744  	0.006774 
1755.222560  	0.006029 
1757.151376  	0.006114 
1759.080192  	0.005227 
1761.009008  	0.004934 
1762.937824  	0.004300 
1764.866640  	0.003761 
1766.795456  	0.003727 
1768.724272  	0.003825 
1770.653088  	0.003006 
1772.581904  	0.002984 
1774.510720  	0.002699 
1776.439536  	0.002400 
1778.368352  	0.001815 
1780.297168  	0.001914 
1782.225984  	0.001347 
1784.154800  	0.001288 
1786.083616  	0.000898 
1788.012432  	0.000669 
1789.941248  	0.000931 
1791.870064  	0.001275 
1793.798880  	0.000512 
1795.727696  	0.000362 
1797.656512  	-0.000100 
1799.585328  	-0.000071 
1801.514144  	0.000160 
1803.442960  	-0.000006 
1805.371776  	-0.000472 
1807.300592  	-0.000621 
1809.229408  	-0.000866 
1811.158224  	-0.000860 
1813.087040  	-0.001342 
1815.015856  	-0.001634 
1816.944672  	-0.001422 
1818.873488  	-0.001116 
1820.802304  	-0.001106 
1822.731120  	-0.000967 
1824.659936  	-0.001281 
1826.588752  	-0.001297 
1828.517568  	-0.001604 
1830.446384  	-0.001552 
1832.375200  	-0.001707 
1834.304016  	-0.001527 
1836.232832  	-0.001525 
1838.161648  	-0.001384 
1840.090464  	-0.001715 
1842.019280  	-0.001697 
1843.948096  	-0.001614 
1845.876912  	-0.001452 
1847.805728  	-0.001773 
1849.734544  	-0.002174 
1851.663360  	-0.002427 
1853.592176  	-0.002153 
1855.520992  	-0.002137 
1857.449808  	-0.002023 
1859.378624  	-0.002493 
1861.307440  	-0.002388 
1863.236256  	-0.002588 
1865.165072  	-0.002401 
1867.093888  	-0.002257 
1869.022704  	-0.001727 
1870.951520  	-0.002042 
1872.880336  	-0.002266 
1874.809152  	-0.002736 
1876.737968  	-0.002704 
1878.666784  	-0.002718 
1880.595600  	-0.002838 
1882.524416  	-0.002967 
1884.453232  	-0.002747 
1886.382048  	-0.002984 
1888.310864  	-0.002629 
1890.239680  	-0.002586 
1892.168496  	-0.002486 
1894.097312  	-0.002526 
1896.026128  	-0.002598 
1897.954944  	-0.002679 
1899.883760  	-0.002529 
1901.812576  	-0.002992 
1903.741392  	-0.003030 
1905.670208  	-0.003233 
1907.599024  	-0.003156 
1909.527840  	-0.003200 
1911.456656  	-0.002854 
1913.385472  	-0.002898 
1915.314288  	-0.002706 
1917.243104  	-0.002601 
1919.171920  	-0.002215 
1921.100736  	-0.002616 
1923.029552  	-0.002705 
1924.958368  	-0.003575 
1926.887184  	-0.003625 
1928.816000  	-0.003952 
1930.744816  	-0.003339 
1932.673632  	-0.003292 
1934.602448  	-0.003204 
1936.531264  	-0.003364 
1938.460080  	-0.003156 
1940.388896  	-0.003245 
1942.317712  	-0.002323 
1944.246528  	-0.002938 
1946.175344  	-0.002830 
1948.104160  	-0.002722 
1950.032976  	-0.002741 
1951.961792  	-0.003314 
1953.890608  	-0.003197 
1955.819424  	-0.004017 
1957.748240  	-0.004464 
1959.677056  	-0.004422 
1961.605872  	-0.003756 
1963.534688  	-0.003736 
1965.463504  	-0.003095 
1967.392320  	-0.003199 
1969.321136  	-0.003180 
1971.249952  	-0.004092 
1973.178768  	-0.004127 
1975.107584  	-0.003491 
1977.036400  	-0.001840 
1978.965216  	-0.002522 
1980.894032  	-0.003304 
1982.822848  	-0.003562 
1984.751664  	-0.002484 
1986.680480  	-0.002389 
1988.609296  	-0.002218 
1990.538112  	-0.002365 
1992.466928  	-0.000619 
1994.395744  	-0.001608 
1996.324560  	-0.002130 
1998.253376  	-0.002800 
2000.182192  	-0.003662 
2002.111008  	-0.004275 
2004.039824  	-0.002978 
2005.968640  	-0.003313 
2007.897456  	-0.003677 
2009.826272  	-0.003449 
2011.755088  	-0.002770 
2013.683904  	-0.003103 
2015.612720  	-0.002022 
2017.541536  	-0.001627 
2019.470352  	-0.001166 
2021.399168  	-0.003304 
2023.327984  	-0.003788 
2025.256800  	-0.002935 
2027.185616  	-0.001520 
2029.114432  	-0.001658 
2031.043248  	-0.001200 
2032.972064  	-0.001310 
2034.900880  	-0.000546 
2036.829696  	-0.001819 
2038.758512  	-0.001899 
2040.687328  	-0.002178 
2042.616144  	-0.002149 
2044.544960  	-0.002473 
2046.473776  	-0.001659 
2048.402592  	-0.000897 
2050.331408  	-0.000256 
2052.260224  	-0.000742 
2054.189040  	-0.000936 
2056.117856  	-0.001312 
2058.046672  	-0.001062 
2059.975488  	-0.000663 
2061.904304  	-0.000095 
2063.833120  	-0.000391 
2065.761936  	-0.000467 
2067.690752  	-0.000704 
2069.619568  	-0.000477 
2071.548384  	-0.000581 
2073.477200  	-0.000294 
2075.406016  	-0.000446 
2077.334832  	0.000148 
2079.263648  	0.000903 
2081.192464  	0.001210 
2083.121280  	0.000349 
2085.050096  	-0.000437 
2086.978912  	-0.000543 
2088.907728  	-0.000006 
2090.836544  	0.000176 
2092.765360  	0.000007 
2094.694176  	0.000117 
2096.622992  	0.000604 
2098.551808  	0.000294 
2100.480624  	0.000584 
2102.409440  	0.000763 
2104.338256  	0.000791 
2106.267072  	0.000430 
2108.195888  	0.000340 
2110.124704  	0.000340 
2112.053520  	0.000595 
2113.982336  	0.000690 
2115.911152  	0.000865 
2117.839968  	0.000374 
2119.768784  	0.000164 
2121.697600  	0.000175 
2123.626416  	-0.000092 
2125.555232  	-0.000608 
2127.484048  	-0.000509 
2129.412864  	-0.000335 
2131.341680  	-0.000072 
2133.270496  	0.000186 
2135.199312  	0.000377 
2137.128128  	0.000563 
2139.056944  	0.001308 
2140.985760  	0.001251 
2142.914576  	0.001596 
2144.843392  	0.000656 
2146.772208  	0.000382 
2148.701024  	0.000305 
2150.629840  	0.000431 
2152.558656  	0.000307 
2154.487472  	0.000804 
2156.416288  	0.001126 
2158.345104  	0.003359 
2160.273920  	0.005584 
2162.202736  	0.004947 
2164.131552  	0.003311 
2166.060368  	0.004290 
2167.989184  	0.004168 
2169.918000  	0.002570 
2171.846816  	0.002274 
2173.775632  	0.003433 
2175.704448  	0.002733 
2177.633264  	0.002794 
2179.562080  	0.001586 
2181.490896  	0.001675 
2183.419712  	0.002188 
2185.348528  	0.001938 
2187.277344  	0.001634 
2189.206160  	0.001882 
2191.134976  	0.001814 
2193.063792  	0.001706 
2194.992608  	0.001460 
2196.921424  	0.001493 
2198.850240  	0.000879 
2200.779056  	0.000551 
2202.707872  	0.000457 
2204.636688  	0.000690 
2206.565504  	0.000132 
2208.494320  	-0.000050 
2210.423136  	-0.000209 
2212.351952  	0.000545 
2214.280768  	0.000331 
2216.209584  	0.000464 
2218.138400  	-0.000101 
2220.067216  	-0.000224 
2221.996032  	-0.000301 
2223.924848  	-0.000096 
2225.853664  	0.000391 
2227.782480  	0.001070 
2229.711296  	-0.000075 
2231.640112  	-0.000663 
2233.568928  	-0.000473 
2235.497744  	-0.000269 
2237.426560  	-0.000295 
2239.355376  	-0.000146 
2241.284192  	-0.001136 
2243.213008  	-0.001398 
2245.141824  	-0.000776 
2247.070640  	-0.000745 
2248.999456  	-0.000906 
2250.928272  	-0.000518 
2252.857088  	-0.000391 
2254.785904  	-0.000184 
2256.714720  	0.000108 
2258.643536  	0.000321 
2260.572352  	0.000571 
2262.501168  	0.000803 
2264.429984  	0.000700 
2266.358800  	0.000334 
2268.287616  	0.000139 
2270.216432  	0.000181 
2272.145248  	0.000375 
2274.074064  	0.000849 
2276.002880  	0.000794 
2277.931696  	0.000829 
2279.860512  	0.000659 
2281.789328  	0.000487 
2283.718144  	0.000634 
2285.646960  	0.000964 
2287.575776  	0.001131 
2289.504592  	0.001268 
2291.433408  	0.001105 
2293.362224  	0.001383 
2295.291040  	0.001406 
2297.219856  	0.001577 
2299.148672  	0.001673 
2301.077488  	0.001774 
2303.006304  	0.002232 
2304.935120  	0.002803 
2306.863936  	0.002742 
2308.792752  	0.003004 
2310.721568  	0.003276 
2312.650384  	0.003101 
2314.579200  	0.002688 
2316.508016  	0.003072 
2318.436832  	0.003708 
2320.365648  	0.004125 
2322.294464  	0.004411 
2324.223280  	0.004105 
2326.152096  	0.002672 
2328.080912  	0.001786 
2330.009728  	0.001886 
2331.938544  	0.002141 
2333.867360  	0.001867 
2335.796176  	0.001461 
2337.724992  	0.000567 
2339.653808  	0.000544 
2341.582624  	0.001090 
2343.511440  	0.001690 
2345.440256  	0.002341 
2347.369072  	0.002463 
2349.297888  	0.002191 
2351.226704  	0.002018 
2353.155520  	0.001547 
2355.084336  	0.001353 
2357.013152  	0.001501 
2358.941968  	0.001617 
2360.870784  	0.001344 
2362.799600  	0.001326 
2364.728416  	0.001626 
2366.657232  	0.001650 
2368.586048  	0.001911 
2370.514864  	0.002454 
2372.443680  	0.002533 
2374.372496  	0.002930 
2376.301312  	0.002951 
2378.230128  	0.002548 
2380.158944  	0.002126 
2382.087760  	0.001670 
2384.016576  	0.000996 
2385.945392  	0.000493 
2387.874208  	0.000368 
2389.803024  	0.000310 
2391.731840  	-0.000005 
2393.660656  	-0.000088 
2395.589472  	0.000004 
2397.518288  	0.000008 
2399.447104  	-0.000267 
2401.375920  	-0.000255 
2403.304736  	-0.000359 
2405.233552  	-0.000446 
2407.162368  	-0.000394 
2409.091184  	-0.000259 
2411.020000  	-0.000316 
2412.948816  	-0.000407 
2414.877632  	-0.000407 
2416.806448  	-0.000004 
2418.735264  	0.000228 
2420.664080  	0.000307 
2422.592896  	0.000293 
2424.521712  	0.000344 
2426.450528  	0.000324 
2428.379344  	0.000314 
2430.308160  	0.000368 
2432.236976  	0.000505 
2434.165792  	0.000653 
2436.094608  	0.000795 
2438.023424  	0.000853 
2439.952240  	0.000945 
2441.881056  	0.001035 
2443.809872  	0.001118 
2445.738688  	0.001069 
2447.667504  	0.000961 
2449.596320  	0.001207 
2451.525136  	0.001390 
2453.453952  	0.001437 
2455.382768  	0.001614 
2457.311584  	0.001667 
2459.240400  	0.001556 
2461.169216  	0.001557 
2463.098032  	0.001710 
2465.026848  	0.001615 
2466.955664  	0.001429 
2468.884480  	0.001321 
2470.813296  	0.001420 
2472.742112  	0.001496 
2474.670928  	0.001602 
2476.599744  	0.001947 
2478.528560  	0.002272 
2480.457376  	0.002395 
2482.386192  	0.002532 
2484.315008  	0.002437 
2486.243824  	0.002352 
2488.172640  	0.002705 
2490.101456  	0.003115 
2492.030272  	0.003147 
2493.959088  	0.003063 
2495.887904  	0.002843 
2497.816720  	0.002981 
2499.745536  	0.003293 
2501.674352  	0.003354 
2503.603168  	0.003326 
2505.531984  	0.003539 
2507.460800  	0.003475 
2509.389616  	0.003316 
2511.318432  	0.003266 
2513.247248  	0.003565 
2515.176064  	0.003744 
2517.104880  	0.003661 
2519.033696  	0.003578 
2520.962512  	0.003939 
2522.891328  	0.004148 
2524.820144  	0.004200 
2526.748960  	0.004206 
2528.677776  	0.004348 
2530.606592  	0.004673 
2532.535408  	0.004853 
2534.464224  	0.004662 
2536.393040  	0.004567 
2538.321856  	0.004632 
2540.250672  	0.004817 
2542.179488  	0.005012 
2544.108304  	0.005170 
2546.037120  	0.005288 
2547.965936  	0.005377 
2549.894752  	0.005400 
2551.823568  	0.005524 
2553.752384  	0.005730 
2555.681200  	0.005893 
2557.610016  	0.005893 
2559.538832  	0.005852 
2561.467648  	0.006014 
2563.396464  	0.006159 
2565.325280  	0.005981 
2567.254096  	0.005903 
2569.182912  	0.006131 
2571.111728  	0.006380 
2573.040544  	0.006485 
2574.969360  	0.006676 
2576.898176  	0.006887 
2578.826992  	0.006845 
2580.755808  	0.006962 
2582.684624  	0.007185 
2584.613440  	0.007300 
2586.542256  	0.007321 
2588.471072  	0.007072 
2590.399888  	0.007114 
2592.328704  	0.007578 
2594.257520  	0.007803 
2596.186336  	0.007689 
2598.115152  	0.007832 
2600.043968  	0.007961 
2601.972784  	0.007972 
2603.901600  	0.008141 
2605.830416  	0.008225 
2607.759232  	0.008323 
2609.688048  	0.008418 
2611.616864  	0.008481 
2613.545680  	0.008636 
2615.474496  	0.008805 
2617.403312  	0.009025 
2619.332128  	0.009078 
2621.260944  	0.009135 
2623.189760  	0.009404 
2625.118576  	0.009597 
2627.047392  	0.009541 
2628.976208  	0.009769 
2630.905024  	0.009938 
2632.833840  	0.009954 
2634.762656  	0.010093 
2636.691472  	0.010375 
2638.620288  	0.010416 
2640.549104  	0.010505 
2642.477920  	0.010808 
2644.406736  	0.010864 
2646.335552  	0.010912 
2648.264368  	0.011168 
2650.193184  	0.011382 
2652.122000  	0.011595 
2654.050816  	0.011728 
2655.979632  	0.011804 
2657.908448  	0.011987 
2659.837264  	0.012243 
2661.766080  	0.012340 
2663.694896  	0.012365 
2665.623712  	0.012493 
2667.552528  	0.012714 
2669.481344  	0.012770 
2671.410160  	0.012839 
2673.338976  	0.013065 
2675.267792  	0.013294 
2677.196608  	0.013448 
2679.125424  	0.013580 
2681.054240  	0.013728 
2682.983056  	0.013906 
2684.911872  	0.014062 
2686.840688  	0.014183 
2688.769504  	0.014270 
2690.698320  	0.014457 
2692.627136  	0.014532 
2694.555952  	0.014622 
2696.484768  	0.014728 
2698.413584  	0.014819 
2700.342400  	0.014884 
2702.271216  	0.015105 
2704.200032  	0.015300 
2706.128848  	0.015480 
2708.057664  	0.015679 
2709.986480  	0.015761 
2711.915296  	0.015926 
2713.844112  	0.016127 
2715.772928  	0.016218 
2717.701744  	0.016361 
2719.630560  	0.016565 
2721.559376  	0.016652 
2723.488192  	0.016782 
2725.417008  	0.017007 
2727.345824  	0.017201 
2729.274640  	0.017463 
2731.203456  	0.017567 
2733.132272  	0.017681 
2735.061088  	0.017860 
2736.989904  	0.017967 
2738.918720  	0.018073 
2740.847536  	0.018134 
2742.776352  	0.018254 
2744.705168  	0.018484 
2746.633984  	0.018647 
2748.562800  	0.018846 
2750.491616  	0.018885 
2752.420432  	0.018888 
2754.349248  	0.018876 
2756.278064  	0.018907 
2758.206880  	0.018916 
2760.135696  	0.018924 
2762.064512  	0.019031 
2763.993328  	0.019114 
2765.922144  	0.019153 
2767.850960  	0.019178 
2769.779776  	0.019227 
2771.708592  	0.019255 
2773.637408  	0.019118 
2775.566224  	0.019048 
2777.495040  	0.019022 
2779.423856  	0.019088 
2781.352672  	0.019237 
2783.281488  	0.019325 
2785.210304  	0.019347 
2787.139120  	0.019399 
2789.067936  	0.019368 
2790.996752  	0.019332 
2792.925568  	0.019277 
2794.854384  	0.019278 
2796.783200  	0.019283 
2798.712016  	0.019211 
2800.640832  	0.019212 
2802.569648  	0.019379 
2804.498464  	0.019500 
2806.427280  	0.019537 
2808.356096  	0.019560 
2810.284912  	0.019569 
2812.213728  	0.019565 
2814.142544  	0.019647 
2816.071360  	0.019585 
2818.000176  	0.019565 
2819.928992  	0.019699 
2821.857808  	0.019789 
2823.786624  	0.019834 
2825.715440  	0.019973 
2827.644256  	0.020009 
2829.573072  	0.019906 
2831.501888  	0.019895 
2833.430704  	0.019888 
2835.359520  	0.019776 
2837.288336  	0.019688 
2839.217152  	0.019752 
2841.145968  	0.019700 
2843.074784  	0.019638 
2845.003600  	0.019683 
2846.932416  	0.019785 
2848.861232  	0.019917 
2850.790048  	0.019913 
2852.718864  	0.020022 
2854.647680  	0.020110 
2856.576496  	0.020115 
2858.505312  	0.020211 
2860.434128  	0.020355 
2862.362944  	0.020342 
2864.291760  	0.020480 
2866.220576  	0.020676 
2868.149392  	0.020665 
2870.078208  	0.020720 
2872.007024  	0.021114 
2873.935840  	0.021514 
2875.864656  	0.021888 
2877.793472  	0.022161 
2879.722288  	0.022557 
2881.651104  	0.022986 
2883.579920  	0.023318 
2885.508736  	0.023608 
2887.437552  	0.023847 
2889.366368  	0.023917 
2891.295184  	0.024009 
2893.224000  	0.024085 
2895.152816  	0.024174 
2897.081632  	0.024130 
2899.010448  	0.023740 
2900.939264  	0.023391 
2902.868080  	0.023732 
2904.796896  	0.024268 
2906.725712  	0.024467 
2908.654528  	0.024555 
2910.583344  	0.024877 
2912.512160  	0.025334 
2914.440976  	0.025881 
2916.369792  	0.026448 
2918.298608  	0.026890 
2920.227424  	0.027272 
2922.156240  	0.027698 
2924.085056  	0.028235 
2926.013872  	0.028836 
2927.942688  	0.029551 
2929.871504  	0.030299 
2931.800320  	0.030892 
2933.729136  	0.031616 
2935.657952  	0.032371 
2937.586768  	0.032971 
2939.515584  	0.033492 
2941.444400  	0.033813 
2943.373216  	0.034121 
2945.302032  	0.034524 
2947.230848  	0.034736 
2949.159664  	0.034787 
2951.088480  	0.034694 
2953.017296  	0.034610 
2954.946112  	0.034475 
2956.874928  	0.034261 
2958.803744  	0.034102 
2960.732560  	0.033923 
2962.661376  	0.033718 
2964.590192  	0.033475 
2966.519008  	0.033205 
2968.447824  	0.032897 
2970.376640  	0.032710 
2972.305456  	0.032408 
2974.234272  	0.032539 
2976.163088  	0.032625 
2978.091904  	0.032436 
2980.020720  	0.032253 
2981.949536  	0.032285 
2983.878352  	0.032269 
2985.807168  	0.032050 
2987.735984  	0.031989 
2989.664800  	0.032089 
2991.593616  	0.032602 
2993.522432  	0.033083 
2995.451248  	0.033322 
2997.380064  	0.033665 
2999.308880  	0.034154 
3001.237696  	0.034683 
3003.166512  	0.035321 
3005.095328  	0.035853 
3007.024144  	0.036251 
3008.952960  	0.036766 
3010.881776  	0.037364 
3012.810592  	0.037986 
3014.739408  	0.038649 
3016.668224  	0.039091 
3018.597040  	0.039549 
3020.525856  	0.040215 
3022.454672  	0.040778 
3024.383488  	0.041358 
3026.312304  	0.042066 
3028.241120  	0.042665 
3030.169936  	0.043243 
3032.098752  	0.043818 
3034.027568  	0.044242 
3035.956384  	0.044805 
3037.885200  	0.045341 
3039.814016  	0.045866 
3041.742832  	0.046292 
3043.671648  	0.046952 
3045.600464  	0.047641 
3047.529280  	0.048228 
3049.458096  	0.048834 
3051.386912  	0.049343 
3053.315728  	0.049954 
3055.244544  	0.050655 
3057.173360  	0.051466 
3059.102176  	0.052259 
3061.030992  	0.052924 
3062.959808  	0.053568 
3064.888624  	0.054520 
3066.817440  	0.055362 
3068.746256  	0.056179 
3070.675072  	0.057012 
3072.603888  	0.057840 
3074.532704  	0.058678 
3076.461520  	0.059385 
3078.390336  	0.060120 
3080.319152  	0.061099 
3082.247968  	0.061920 
3084.176784  	0.062553 
3086.105600  	0.063408 
3088.034416  	0.064311 
3089.963232  	0.064981 
3091.892048  	0.065674 
3093.820864  	0.066438 
3095.749680  	0.067418 
3097.678496  	0.068443 
3099.607312  	0.069302 
3101.536128  	0.070271 
3103.464944  	0.071066 
3105.393760  	0.071791 
3107.322576  	0.072715 
3109.251392  	0.073451 
3111.180208  	0.073986 
3113.109024  	0.074533 
3115.037840  	0.075209 
3116.966656  	0.076143 
3118.895472  	0.077026 
3120.824288  	0.077624 
3122.753104  	0.078273 
3124.681920  	0.078829 
3126.610736  	0.079438 
3128.539552  	0.080043 
3130.468368  	0.080433 
3132.397184  	0.081116 
3134.326000  	0.081753 
3136.254816  	0.082376 
3138.183632  	0.083010 
3140.112448  	0.083385 
3142.041264  	0.084078 
3143.970080  	0.084954 
3145.898896  	0.085536 
3147.827712  	0.085992 
3149.756528  	0.086859 
3151.685344  	0.087592 
3153.614160  	0.088010 
3155.542976  	0.088434 
3157.471792  	0.089165 
3159.400608  	0.089871 
3161.329424  	0.090428 
3163.258240  	0.091060 
3165.187056  	0.091628 
3167.115872  	0.091994 
3169.044688  	0.092424 
3170.973504  	0.092888 
3172.902320  	0.093176 
3174.831136  	0.093376 
3176.759952  	0.093688 
3178.688768  	0.094334 
3180.617584  	0.094819 
3182.546400  	0.095027 
3184.475216  	0.095141 
3186.404032  	0.095261 
3188.332848  	0.095371 
3190.261664  	0.095380 
3192.190480  	0.095448 
3194.119296  	0.095606 
3196.048112  	0.095522 
3197.976928  	0.095673 
3199.905744  	0.095695 
3201.834560  	0.095519 
3203.763376  	0.095277 
3205.692192  	0.094975 
3207.621008  	0.094955 
3209.549824  	0.095164 
3211.478640  	0.095155 
3213.407456  	0.094871 
3215.336272  	0.094956 
3217.265088  	0.094877 
3219.193904  	0.094818 
3221.122720  	0.094798 
3223.051536  	0.094548 
3224.980352  	0.094160 
3226.909168  	0.093912 
3228.837984  	0.093719 
3230.766800  	0.093598 
3232.695616  	0.093701 
3234.624432  	0.093732 
3236.553248  	0.093797 
3238.482064  	0.093940 
3240.410880  	0.093750 
3242.339696  	0.093562 
3244.268512  	0.093525 
3246.197328  	0.093686 
3248.126144  	0.093784 
3250.054960  	0.094083 
3251.983776  	0.094299 
3253.912592  	0.094641 
3255.841408  	0.094847 
3257.770224  	0.094735 
3259.699040  	0.094956 
3261.627856  	0.095289 
3263.556672  	0.095319 
3265.485488  	0.095470 
3267.414304  	0.095548 
3269.343120  	0.095812 
3271.271936  	0.096118 
3273.200752  	0.096226 
3275.129568  	0.096258 
3277.058384  	0.096425 
3278.987200  	0.096457 
3280.916016  	0.096597 
3282.844832  	0.096666 
3284.773648  	0.096794 
3286.702464  	0.097062 
3288.631280  	0.097297 
3290.560096  	0.097508 
3292.488912  	0.097479 
3294.417728  	0.097499 
3296.346544  	0.097800 
3298.275360  	0.098121 
3300.204176  	0.098189 
3302.132992  	0.098150 
3304.061808  	0.098526 
3305.990624  	0.098778 
3307.919440  	0.099098 
3309.848256  	0.099449 
3311.777072  	0.099576 
3313.705888  	0.099772 
3315.634704  	0.100062 
3317.563520  	0.100273 
3319.492336  	0.100386 
3321.421152  	0.100522 
3323.349968  	0.100727 
3325.278784  	0.100767 
3327.207600  	0.100912 
3329.136416  	0.100833 
3331.065232  	0.100739 
3332.994048  	0.100796 
3334.922864  	0.101028 
3336.851680  	0.101166 
3338.780496  	0.100967 
3340.709312  	0.100373 
3342.638128  	0.100197 
3344.566944  	0.100013 
3346.495760  	0.099712 
3348.424576  	0.099480 
3350.353392  	0.099271 
3352.282208  	0.099013 
3354.211024  	0.098745 
3356.139840  	0.098403 
3358.068656  	0.098066 
3359.997472  	0.097635 
3361.926288  	0.097308 
3363.855104  	0.096822 
3365.783920  	0.096558 
3367.712736  	0.096340 
3369.641552  	0.096133 
3371.570368  	0.095696 
3373.499184  	0.095444 
3375.428000  	0.095202 
3377.356816  	0.094819 
3379.285632  	0.094621 
3381.214448  	0.094282 
3383.143264  	0.093934 
3385.072080  	0.093675 
3387.000896  	0.093026 
3388.929712  	0.092431 
3390.858528  	0.092169 
3392.787344  	0.092302 
3394.716160  	0.091814 
3396.644976  	0.091287 
3398.573792  	0.090750 
3400.502608  	0.089941 
3402.431424  	0.089241 
3404.360240  	0.088909 
3406.289056  	0.088524 
3408.217872  	0.087840 
3410.146688  	0.087312 
3412.075504  	0.086958 
3414.004320  	0.086544 
3415.933136  	0.086078 
3417.861952  	0.085382 
3419.790768  	0.084951 
3421.719584  	0.084681 
3423.648400  	0.083837 
3425.577216  	0.082988 
3427.506032  	0.082516 
3429.434848  	0.081994 
3431.363664  	0.081684 
3433.292480  	0.081291 
3435.221296  	0.080718 
3437.150112  	0.079764 
3439.078928  	0.078967 
3441.007744  	0.078359 
3442.936560  	0.077987 
3444.865376  	0.077043 
3446.794192  	0.076848 
3448.723008  	0.076638 
3450.651824  	0.075403 
3452.580640  	0.074638 
3454.509456  	0.073982 
3456.438272  	0.073192 
3458.367088  	0.072519 
3460.295904  	0.071922 
3462.224720  	0.071312 
3464.153536  	0.070250 
3466.082352  	0.069230 
3468.011168  	0.068609 
3469.939984  	0.067903 
3471.868800  	0.066970 
3473.797616  	0.065985 
3475.726432  	0.065324 
3477.655248  	0.064422 
3479.584064  	0.063467 
3481.512880  	0.063146 
3483.441696  	0.062630 
3485.370512  	0.061228 
3487.299328  	0.060300 
3489.228144  	0.059715 
3491.156960  	0.058574 
3493.085776  	0.057707 
3495.014592  	0.057030 
3496.943408  	0.056346 
3498.872224  	0.055354 
3500.801040  	0.054790 
3502.729856  	0.054685 
3504.658672  	0.054139 
3506.587488  	0.052733 
3508.516304  	0.051926 
3510.445120  	0.051731 
3512.373936  	0.050909 
3514.302752  	0.050091 
3516.231568  	0.049349 
3518.160384  	0.048547 
3520.089200  	0.047412 
3522.018016  	0.046718 
3523.946832  	0.046863 
3525.875648  	0.045956 
3527.804464  	0.045079 
3529.733280  	0.044564 
3531.662096  	0.043697 
3533.590912  	0.042624 
3535.519728  	0.042231 
3537.448544  	0.041933 
3539.377360  	0.040849 
3541.306176  	0.039819 
3543.234992  	0.039556 
3545.163808  	0.039730 
3547.092624  	0.039373 
3549.021440  	0.037754 
3550.950256  	0.036501 
3552.879072  	0.036512 
3554.807888  	0.035570 
3556.736704  	0.034281 
3558.665520  	0.033803 
3560.594336  	0.033494 
3562.523152  	0.032584 
3564.451968  	0.031670 
3566.380784  	0.032407 
3568.309600  	0.032879 
3570.238416  	0.030656 
3572.167232  	0.029141 
3574.096048  	0.028511 
3576.024864  	0.027752 
3577.953680  	0.026929 
3579.882496  	0.026166 
3581.811312  	0.025245 
3583.740128  	0.024280 
3585.668944  	0.023897 
3587.597760  	0.024700 
3589.526576  	0.023689 
3591.455392  	0.021496 
3593.384208  	0.020768 
3595.313024  	0.020512 
3597.241840  	0.019440 
3599.170656  	0.018193 
3601.099472  	0.017767 
3603.028288  	0.016833 
3604.957104  	0.015554 
3606.885920  	0.015439 
3608.814736  	0.015657 
3610.743552  	0.014000 
3612.672368  	0.013107 
3614.601184  	0.012602 
3616.530000  	0.011461 
3618.458816  	0.011410 
3620.387632  	0.010889 
3622.316448  	0.009128 
3624.245264  	0.007947 
3626.174080  	0.007174 
3628.102896  	0.007159 
3630.031712  	0.007587 
3631.960528  	0.005739 
3633.889344  	0.004684 
3635.818160  	0.003742 
3637.746976  	0.002699 
3639.675792  	0.001792 
3641.604608  	0.001100 
3643.533424  	0.000387 
3645.462240  	-0.000140 
3647.391056  	0.000205 
3649.319872  	0.000235 
3651.248688  	-0.000830 
3653.177504  	-0.002952 
3655.106320  	-0.003741 
3657.035136  	-0.003975 
3658.963952  	-0.004830 
3660.892768  	-0.005506 
3662.821584  	-0.006183 
3664.750400  	-0.006564 
3666.679216  	-0.006730 
3668.608032  	-0.006934 
3670.536848  	-0.006626 
3672.465664  	-0.007516 
3674.394480  	-0.007886 
3676.323296  	-0.007744 
3678.252112  	-0.008368 
3680.180928  	-0.008774 
3682.109744  	-0.009194 
3684.038560  	-0.009466 
3685.967376  	-0.009814 
3687.896192  	-0.009342 
3689.825008  	-0.009097 
3691.753824  	-0.009478 
3693.682640  	-0.009777 
3695.611456  	-0.009744 
3697.540272  	-0.009787 
3699.469088  	-0.010305 
3701.397904  	-0.009903 
3703.326720  	-0.009709 
3705.255536  	-0.009848 
3707.184352  	-0.009744 
3709.113168  	-0.009634 
3711.041984  	-0.009486 
3712.970800  	-0.009479 
3714.899616  	-0.010046 
3716.828432  	-0.010260 
3718.757248  	-0.010126 
3720.686064  	-0.010074 
3722.614880  	-0.009877 
3724.543696  	-0.009655 
3726.472512  	-0.009211 
3728.401328  	-0.009820 
3730.330144  	-0.010621 
3732.258960  	-0.010664 
3734.187776  	-0.009496 
3736.116592  	-0.008525 
3738.045408  	-0.009784 
3739.974224  	-0.010122 
3741.903040  	-0.010295 
3743.831856  	-0.010115 
3745.760672  	-0.009916 
3747.689488  	-0.010710 
3749.618304  	-0.010006 
3751.547120  	-0.008782 
3753.475936  	-0.009486 
3755.404752  	-0.010129 
3757.333568  	-0.009987 
3759.262384  	-0.009748 
3761.191200  	-0.009988 
3763.120016  	-0.010281 
3765.048832  	-0.010002 
3766.977648  	-0.010216 
3768.906464  	-0.010217 
3770.835280  	-0.010172 
3772.764096  	-0.010476 
3774.692912  	-0.010593 
3776.621728  	-0.010476 
3778.550544  	-0.010108 
3780.479360  	-0.010150 
3782.408176  	-0.010518 
3784.336992  	-0.010385 
3786.265808  	-0.010481 
3788.194624  	-0.010680 
3790.123440  	-0.010573 
3792.052256  	-0.010635 
3793.981072  	-0.011067 
3795.909888  	-0.010460 
3797.838704  	-0.009880 
3799.767520  	-0.010046 
3801.696336  	-0.009343 
3803.625152  	-0.010117 
3805.553968  	-0.010618 
3807.482784  	-0.010333 
3809.411600  	-0.010696 
3811.340416  	-0.010831 
3813.269232  	-0.010820 
3815.198048  	-0.010018 
3817.126864  	-0.009713 
3819.055680  	-0.010298 
3820.984496  	-0.009941 
3822.913312  	-0.010247 
3824.842128  	-0.010686 
3826.770944  	-0.010724 
3828.699760  	-0.010894 
3830.628576  	-0.010699 
3832.557392  	-0.010390 
3834.486208  	-0.010476 
3836.415024  	-0.010591 
3838.343840  	-0.010173 
3840.272656  	-0.009751 
3842.201472  	-0.010066 
3844.130288  	-0.010082 
3846.059104  	-0.010349 
3847.987920  	-0.010607 
3849.916736  	-0.010667 
3851.845552  	-0.010180 
3853.774368  	-0.008713 
3855.703184  	-0.009238 
3857.632000  	-0.009765 
3859.560816  	-0.010229 
3861.489632  	-0.009906 
3863.418448  	-0.009416 
3865.347264  	-0.009277 
3867.276080  	-0.010101 
3869.204896  	-0.009460 
3871.133712  	-0.009102 
3873.062528  	-0.009837 
3874.991344  	-0.010045 
3876.920160  	-0.010731 
3878.848976  	-0.010394 
3880.777792  	-0.009435 
3882.706608  	-0.009726 
3884.635424  	-0.009863 
3886.564240  	-0.009800 
3888.493056  	-0.010713 
3890.421872  	-0.010494 
3892.350688  	-0.009978 
3894.279504  	-0.010301 
3896.208320  	-0.010714 
3898.137136  	-0.010254 
3900.065952  	-0.009345 
3901.994768  	-0.009180 
3903.923584  	-0.009172 
3905.852400  	-0.009490 
3907.781216  	-0.010333 
3909.710032  	-0.010870 
3911.638848  	-0.011075 
3913.567664  	-0.010907 
3915.496480  	-0.010244 
3917.425296  	-0.009563 
3919.354112  	-0.009659 
3921.282928  	-0.009916 
3923.211744  	-0.009778 
3925.140560  	-0.009724 
3927.069376  	-0.010351 
3928.998192  	-0.010182 
3930.927008  	-0.009837 
3932.855824  	-0.009777 
3934.784640  	-0.010127 
3936.713456  	-0.010301 
3938.642272  	-0.010470 
3940.571088  	-0.010573 
3942.499904  	-0.009908 
3944.428720  	-0.009875 
3946.357536  	-0.010342 
3948.286352  	-0.009943 
3950.215168  	-0.010103 
3952.143984  	-0.010644 
3954.072800  	-0.010797 
3956.001616  	-0.010600 
3957.930432  	-0.010446 
3959.859248  	-0.010352 
3961.788064  	-0.010183 
3963.716880  	-0.010391 
3965.645696  	-0.010727 
3967.574512  	-0.010653 
3969.503328  	-0.010686 
3971.432144  	-0.010618 
3973.360960  	-0.010235 
3975.289776  	-0.010006 
3977.218592  	-0.010224 
3979.147408  	-0.010459 
3981.076224  	-0.010563 
3983.005040  	-0.010628 
3984.933856  	-0.010484 
3986.862672  	-0.010382 
3988.791488  	-0.010469 
3990.720304  	-0.010356 
3992.649120  	-0.010436 
3994.577936  	-0.010591 
3996.506752  	-0.010636 
3998.435568  	-0.010608 
4000.364384  	-0.010572 