##TITLE=No Description
##DATA TYPE=INFRARED SPECTRUM
##XUNITS=1/CM
##YUNITS=Abs
399.264912  	0.457522 
401.193728  	0.442763 
403.122544  	0.435313 
405.051360  	0.421792 
406.980176  	0.423354 
408.908992  	0.424314 
410.837808  	0.420589 
412.766624  	0.425449 
414.695440  	0.432062 
416.624256  	0.426984 
418.553072  	0.434554 
420.481888  	0.424508 
422.410704  	0.417416 
424.339520  	0.409629 
426.268336  	0.403728 
428.197152  	0.400506 
430.125968  	0.399780 
432.054784  	0.393386 
433.983600  	0.393908 
435.912416  	0.393099 
437.841232  	0.387921 
439.770048  	0.381941 
441.698864  	0.385200 
443.627680  	0.385735 
445.556496  	0.387661 
447.485312  	0.380899 
449.414128  	0.379373 
451.342944  	0.379059 
453.271760  	0.379114 
455.200576  	0.378476 
457.129392  	0.378441 
459.058208  	0.372858 
460.987024  	0.374138 
462.915840  	0.374512 
464.844656  	0.369873 
466.773472  	0.364807 
468.702288  	0.364248 
470.631104  	0.364275 
472.559920  	0.365888 
474.488736  	0.362306 
476.417552  	0.365979 
478.346368  	0.364809 
480.275184  	0.362693 
482.204000  	0.359982 
484.132816  	0.359161 
486.061632  	0.357804 
487.990448  	0.358727 
489.919264  	0.359712 
491.848080  	0.357487 
493.776896  	0.356290 
495.705712  	0.354018 
497.634528  	0.347722 
499.563344  	0.347207 
501.492160  	0.348906 
503.420976  	0.352781 
505.349792  	0.350530 
507.278608  	0.349406 
509.207424  	0.346010 
511.136240  	0.349192 
513.065056  	0.350981 
514.993872  	0.350791 
516.922688  	0.350438 
518.851504  	0.348473 
520.780320  	0.346106 
522.709136  	0.346150 
524.637952  	0.343870 
526.566768  	0.343587 
528.495584  	0.341862 
530.424400  	0.341320 
532.353216  	0.339736 
534.282032  	0.336633 
536.210848  	0.332739 
538.139664  	0.328592 
540.068480  	0.325527 
541.997296  	0.324032 
543.926112  	0.322594 
545.854928  	0.322685 
547.783744  	0.319690 
549.712560  	0.318394 
551.641376  	0.316158 
553.570192  	0.315094 
555.499008  	0.312581 
557.427824  	0.309845 
559.356640  	0.306507 
561.285456  	0.305233 
563.214272  	0.302947 
565.143088  	0.300534 
567.071904  	0.299033 
569.000720  	0.298004 
570.929536  	0.295326 
572.858352  	0.293776 
574.787168  	0.292568 
576.715984  	0.290718 
578.644800  	0.287520 
580.573616  	0.284988 
582.502432  	0.282359 
584.431248  	0.280570 
586.360064  	0.277819 
588.288880  	0.275884 
590.217696  	0.274433 
592.146512  	0.273603 
594.075328  	0.271563 
596.004144  	0.269788 
597.932960  	0.267649 
599.861776  	0.267137 
601.790592  	0.265975 
603.719408  	0.264349 
605.648224  	0.262702 
607.577040  	0.261825 
609.505856  	0.260226 
611.434672  	0.259155 
613.363488  	0.257948 
615.292304  	0.257484 
617.221120  	0.256555 
619.149936  	0.254950 
621.078752  	0.252885 
623.007568  	0.251904 
624.936384  	0.250329 
626.865200  	0.249373 
628.794016  	0.248458 
630.722832  	0.247326 
632.651648  	0.246486 
634.580464  	0.245913 
636.509280  	0.245299 
638.438096  	0.245187 
640.366912  	0.244743 
642.295728  	0.243488 
644.224544  	0.241572 
646.153360  	0.239823 
648.082176  	0.237166 
650.010992  	0.234813 
651.939808  	0.232365 
653.868624  	0.230364 
655.797440  	0.228020 
657.726256  	0.226281 
659.655072  	0.223987 
661.583888  	0.221659 
663.512704  	0.218981 
665.441520  	0.215922 
667.370336  	0.214545 
669.299152  	0.214814 
671.227968  	0.210045 
673.156784  	0.206620 
675.085600  	0.204666 
677.014416  	0.203086 
678.943232  	0.201161 
680.872048  	0.200134 
682.800864  	0.199106 
684.729680  	0.197818 
686.658496  	0.196203 
688.587312  	0.195037 
690.516128  	0.193591 
692.444944  	0.192410 
694.373760  	0.190861 
696.302576  	0.189402 
698.231392  	0.187943 
700.160208  	0.186301 
702.089024  	0.184144 
704.017840  	0.182739 
705.946656  	0.180623 
707.875472  	0.178297 
709.804288  	0.176826 
711.733104  	0.175703 
713.661920  	0.174433 
715.590736  	0.173169 
717.519552  	0.172255 
719.448368  	0.172024 
721.377184  	0.171680 
723.306000  	0.171220 
725.234816  	0.170780 
727.163632  	0.169757 
729.092448  	0.168358 
731.021264  	0.166542 
732.950080  	0.164358 
734.878896  	0.162505 
736.807712  	0.160660 
738.736528  	0.159341 
740.665344  	0.158110 
742.594160  	0.157044 
744.522976  	0.155642 
746.451792  	0.154300 
748.380608  	0.152780 
750.309424  	0.151510 
752.238240  	0.150062 
754.167056  	0.149027 
756.095872  	0.148226 
758.024688  	0.147242 
759.953504  	0.146365 
761.882320  	0.146175 
763.811136  	0.146179 
765.739952  	0.144791 
767.668768  	0.142893 
769.597584  	0.141268 
771.526400  	0.140284 
773.455216  	0.140367 
775.384032  	0.140937 
777.312848  	0.142510 
779.241664  	0.143975 
781.170480  	0.143616 
783.099296  	0.141105 
785.028112  	0.137933 
786.956928  	0.134864 
788.885744  	0.132423 
790.814560  	0.130521 
792.743376  	0.129120 
794.672192  	0.127853 
796.601008  	0.127060 
798.529824  	0.125051 
800.458640  	0.122074 
802.387456  	0.119477 
804.316272  	0.117844 
806.245088  	0.116859 
808.173904  	0.116069 
810.102720  	0.115333 
812.031536  	0.114460 
813.960352  	0.113708 
815.889168  	0.113083 
817.817984  	0.112585 
819.746800  	0.112337 
821.675616  	0.111905 
823.604432  	0.111366 
825.533248  	0.110751 
827.462064  	0.110349 
829.390880  	0.109675 
831.319696  	0.108988 
833.248512  	0.107968 
835.177328  	0.106681 
837.106144  	0.105031 
839.034960  	0.103410 
840.963776  	0.101316 
842.892592  	0.099282 
844.821408  	0.097139 
846.750224  	0.095109 
848.679040  	0.093516 
850.607856  	0.092135 
852.536672  	0.090955 
854.465488  	0.090010 
856.394304  	0.089142 
858.323120  	0.087814 
860.251936  	0.086501 
862.180752  	0.085588 
864.109568  	0.084149 
866.038384  	0.082506 
867.967200  	0.080915 
869.896016  	0.079676 
871.824832  	0.078817 
873.753648  	0.078646 
875.682464  	0.078407 
877.611280  	0.078380 
879.540096  	0.078727 
881.468912  	0.079430 
883.397728  	0.080286 
885.326544  	0.080704 
887.255360  	0.080783 
889.184176  	0.080570 
891.112992  	0.080110 
893.041808  	0.079305 
894.970624  	0.078069 
896.899440  	0.076121 
898.828256  	0.073940 
900.757072  	0.072050 
902.685888  	0.069999 
904.614704  	0.068543 
906.543520  	0.067927 
908.472336  	0.068211 
910.401152  	0.069028 
912.329968  	0.070076 
914.258784  	0.070938 
916.187600  	0.072015 
918.116416  	0.072963 
920.045232  	0.073530 
921.974048  	0.073703 
923.902864  	0.073814 
925.831680  	0.073837 
927.760496  	0.073768 
929.689312  	0.073697 
931.618128  	0.073902 
933.546944  	0.074142 
935.475760  	0.074089 
937.404576  	0.073760 
939.333392  	0.073299 
941.262208  	0.072890 
943.191024  	0.073119 
945.119840  	0.074064 
947.048656  	0.075905 
948.977472  	0.078869 
950.906288  	0.082473 
952.835104  	0.086775 
954.763920  	0.091777 
956.692736  	0.096766 
958.621552  	0.101369 
960.550368  	0.104966 
962.479184  	0.107358 
964.408000  	0.107805 
966.336816  	0.106409 
968.265632  	0.103006 
970.194448  	0.098178 
972.123264  	0.092128 
974.052080  	0.085469 
975.980896  	0.078586 
977.909712  	0.072121 
979.838528  	0.066526 
981.767344  	0.061808 
983.696160  	0.058224 
985.624976  	0.055694 
987.553792  	0.054602 
989.482608  	0.054884 
991.411424  	0.056359 
993.340240  	0.058914 
995.269056  	0.061805 
997.197872  	0.065033 
999.126688  	0.068289 
1001.055504  	0.071767 
1002.984320  	0.074895 
1004.913136  	0.078116 
1006.841952  	0.081102 
1008.770768  	0.083705 
1010.699584  	0.085782 
1012.628400  	0.087569 
1014.557216  	0.089000 
1016.486032  	0.089858 
1018.414848  	0.090395 
1020.343664  	0.090487 
1022.272480  	0.090454 
1024.201296  	0.090460 
1026.130112  	0.090163 
1028.058928  	0.090093 
1029.987744  	0.090670 
1031.916560  	0.091525 
1033.845376  	0.092646 
1035.774192  	0.094163 
1037.703008  	0.096087 
1039.631824  	0.099308 
1041.560640  	0.103773 
1043.489456  	0.109473 
1045.418272  	0.116028 
1047.347088  	0.123387 
1049.275904  	0.129895 
1051.204720  	0.134853 
1053.133536  	0.138126 
1055.062352  	0.139708 
1056.991168  	0.139805 
1058.919984  	0.139930 
1060.848800  	0.140004 
1062.777616  	0.139465 
1064.706432  	0.137969 
1066.635248  	0.136504 
1068.564064  	0.135036 
1070.492880  	0.132664 
1072.421696  	0.129545 
1074.350512  	0.127437 
1076.279328  	0.126807 
1078.208144  	0.127774 
1080.136960  	0.129698 
1082.065776  	0.131783 
1083.994592  	0.132605 
1085.923408  	0.132210 
1087.852224  	0.130082 
1089.781040  	0.127045 
1091.709856  	0.122762 
1093.638672  	0.117317 
1095.567488  	0.110988 
1097.496304  	0.104411 
1099.425120  	0.097748 
1101.353936  	0.091088 
1103.282752  	0.084522 
1105.211568  	0.078565 
1107.140384  	0.073141 
1109.069200  	0.067817 
1110.998016  	0.062999 
1112.926832  	0.058646 
1114.855648  	0.054761 
1116.784464  	0.050885 
1118.713280  	0.047232 
1120.642096  	0.043814 
1122.570912  	0.040528 
1124.499728  	0.037679 
1126.428544  	0.035163 
1128.357360  	0.032750 
1130.286176  	0.030653 
1132.214992  	0.029175 
1134.143808  	0.027857 
1136.072624  	0.026655 
1138.001440  	0.025569 
1139.930256  	0.024552 
1141.859072  	0.023626 
1143.787888  	0.022821 
1145.716704  	0.022141 
1147.645520  	0.021485 
1149.574336  	0.021245 
1151.503152  	0.020902 
1153.431968  	0.020494 
1155.360784  	0.020460 
1157.289600  	0.020941 
1159.218416  	0.021377 
1161.147232  	0.021973 
1163.076048  	0.022663 
1165.004864  	0.023163 
1166.933680  	0.023646 
1168.862496  	0.024364 
1170.791312  	0.025305 
1172.720128  	0.026444 
1174.648944  	0.027559 
1176.577760  	0.028574 
1178.506576  	0.030078 
1180.435392  	0.031651 
1182.364208  	0.032924 
1184.293024  	0.034436 
1186.221840  	0.036267 
1188.150656  	0.038173 
1190.079472  	0.040415 
1192.008288  	0.043258 
1193.937104  	0.046465 
1195.865920  	0.050080 
1197.794736  	0.053944 
1199.723552  	0.058163 
1201.652368  	0.062204 
1203.581184  	0.066102 
1205.510000  	0.070188 
1207.438816  	0.074005 
1209.367632  	0.077364 
1211.296448  	0.080105 
1213.225264  	0.082360 
1215.154080  	0.083935 
1217.082896  	0.084848 
1219.011712  	0.085104 
1220.940528  	0.085352 
1222.869344  	0.085316 
1224.798160  	0.084824 
1226.726976  	0.083741 
1228.655792  	0.082369 
1230.584608  	0.080876 
1232.513424  	0.078990 
1234.442240  	0.076847 
1236.371056  	0.074634 
1238.299872  	0.071981 
1240.228688  	0.068775 
1242.157504  	0.065610 
1244.086320  	0.062485 
1246.015136  	0.059107 
1247.943952  	0.055863 
1249.872768  	0.052451 
1251.801584  	0.049175 
1253.730400  	0.046172 
1255.659216  	0.043212 
1257.588032  	0.040302 
1259.516848  	0.037813 
1261.445664  	0.035414 
1263.374480  	0.033032 
1265.303296  	0.031002 
1267.232112  	0.029596 
1269.160928  	0.028525 
1271.089744  	0.027662 
1273.018560  	0.027217 
1274.947376  	0.027137 
1276.876192  	0.027380 
1278.805008  	0.027632 
1280.733824  	0.027534 
1282.662640  	0.026683 
1284.591456  	0.025617 
1286.520272  	0.024858 
1288.449088  	0.024296 
1290.377904  	0.024000 
1292.306720  	0.024195 
1294.235536  	0.024338 
1296.164352  	0.024186 
1298.093168  	0.023380 
1300.021984  	0.022192 
1301.950800  	0.020797 
1303.879616  	0.019330 
1305.808432  	0.017943 
1307.737248  	0.016591 
1309.666064  	0.015213 
1311.594880  	0.014369 
1313.523696  	0.013820 
1315.452512  	0.013177 
1317.381328  	0.013070 
1319.310144  	0.013173 
1321.238960  	0.013104 
1323.167776  	0.013251 
1325.096592  	0.013503 
1327.025408  	0.013583 
1328.954224  	0.013564 
1330.883040  	0.013231 
1332.811856  	0.012476 
1334.740672  	0.011885 
1336.669488  	0.012072 
1338.598304  	0.012927 
1340.527120  	0.012686 
1342.455936  	0.011112 
1344.384752  	0.010546 
1346.313568  	0.010742 
1348.242384  	0.011166 
1350.171200  	0.011658 
1352.100016  	0.012385 
1354.028832  	0.013407 
1355.957648  	0.014465 
1357.886464  	0.015374 
1359.815280  	0.016522 
1361.744096  	0.018320 
1363.672912  	0.019466 
1365.601728  	0.019245 
1367.530544  	0.019876 
1369.459360  	0.020656 
1371.388176  	0.020644 
1373.316992  	0.020986 
1375.245808  	0.020667 
1377.174624  	0.019059 
1379.103440  	0.017746 
1381.032256  	0.016271 
1382.961072  	0.014924 
1384.889888  	0.014089 
1386.818704  	0.014336 
1388.747520  	0.013572 
1390.676336  	0.011940 
1392.605152  	0.010799 
1394.533968  	0.011079 
1396.462784  	0.011804 
1398.391600  	0.011548 
1400.320416  	0.010998 
1402.249232  	0.010500 
1404.178048  	0.011153 
1406.106864  	0.011716 
1408.035680  	0.012058 
1409.964496  	0.012984 
1411.893312  	0.014106 
1413.822128  	0.015071 
1415.750944  	0.016557 
1417.679760  	0.018061 
1419.608576  	0.019050 
1421.537392  	0.018213 
1423.466208  	0.017820 
1425.395024  	0.017008 
1427.323840  	0.015547 
1429.252656  	0.014888 
1431.181472  	0.014255 
1433.110288  	0.013536 
1435.039104  	0.013463 
1436.967920  	0.014667 
1438.896736  	0.014515 
1440.825552  	0.014289 
1442.754368  	0.014404 
1444.683184  	0.014232 
1446.612000  	0.014461 
1448.540816  	0.014834 
1450.469632  	0.014689 
1452.398448  	0.014801 
1454.327264  	0.014925 
1456.256080  	0.016387 
1458.184896  	0.018188 
1460.113712  	0.016280 
1462.042528  	0.014725 
1463.971344  	0.014702 
1465.900160  	0.015668 
1467.828976  	0.015588 
1469.757792  	0.015856 
1471.686608  	0.018251 
1473.615424  	0.022898 
1475.544240  	0.024476 
1477.473056  	0.025931 
1479.401872  	0.026639 
1481.330688  	0.028318 
1483.259504  	0.029244 
1485.188320  	0.029544 
1487.117136  	0.030280 
1489.045952  	0.031739 
1490.974768  	0.031180 
1492.903584  	0.028348 
1494.832400  	0.026024 
1496.761216  	0.024718 
1498.690032  	0.022612 
1500.618848  	0.020234 
1502.547664  	0.017601 
1504.476480  	0.015419 
1506.405296  	0.016543 
1508.334112  	0.018629 
1510.262928  	0.015633 
1512.191744  	0.013476 
1514.120560  	0.012724 
1516.049376  	0.013728 
1517.978192  	0.014401 
1519.907008  	0.014346 
1521.835824  	0.016914 
1523.764640  	0.017643 
1525.693456  	0.018812 
1527.622272  	0.020003 
1529.551088  	0.019467 
1531.479904  	0.018576 
1533.408720  	0.018730 
1535.337536  	0.017626 
1537.266352  	0.015455 
1539.195168  	0.014855 
1541.123984  	0.015593 
1543.052800  	0.014830 
1544.981616  	0.013995 
1546.910432  	0.011783 
1548.839248  	0.011274 
1550.768064  	0.011874 
1552.696880  	0.010985 
1554.625696  	0.011417 
1556.554512  	0.010879 
1558.483328  	0.012808 
1560.412144  	0.015840 
1562.340960  	0.014469 
1564.269776  	0.015012 
1566.198592  	0.016853 
1568.127408  	0.017875 
1570.056224  	0.021729 
1571.985040  	0.023239 
1573.913856  	0.023328 
1575.842672  	0.025336 
1577.771488  	0.027877 
1579.700304  	0.026611 
1581.629120  	0.025963 
1583.557936  	0.025666 
1585.486752  	0.026050 
1587.415568  	0.026860 
1589.344384  	0.028633 
1591.273200  	0.030776 
1593.202016  	0.033584 
1595.130832  	0.036694 
1597.059648  	0.039758 
1598.988464  	0.042167 
1600.917280  	0.044701 
1602.846096  	0.046762 
1604.774912  	0.048076 
1606.703728  	0.048336 
1608.632544  	0.048608 
1610.561360  	0.047923 
1612.490176  	0.046997 
1614.418992  	0.045446 
1616.347808  	0.046596 
1618.276624  	0.048756 
1620.205440  	0.048500 
1622.134256  	0.049256 
1624.063072  	0.053605 
1625.991888  	0.055507 
1627.920704  	0.058905 
1629.849520  	0.062793 
1631.778336  	0.064955 
1633.707152  	0.066262 
1635.635968  	0.072888 
1637.564784  	0.079580 
1639.493600  	0.079986 
1641.422416  	0.081175 
1643.351232  	0.081597 
1645.280048  	0.081427 
1647.208864  	0.086888 
1649.137680  	0.086873 
1651.066496  	0.081719 
1652.995312  	0.084464 
1654.924128  	0.090439 
1656.852944  	0.085571 
1658.781760  	0.082884 
1660.710576  	0.080811 
1662.639392  	0.080741 
1664.568208  	0.079692 
1666.497024  	0.076180 
1668.425840  	0.074170 
1670.354656  	0.074199 
1672.283472  	0.071665 
1674.212288  	0.068998 
1676.141104  	0.069380 
1678.069920  	0.067202 
1679.998736  	0.066282 
1681.927552  	0.064487 
1683.856368  	0.065155 
1685.785184  	0.067557 
1687.714000  	0.064869 
1689.642816  	0.064419 
1691.571632  	0.063161 
1693.500448  	0.060768 
1695.429264  	0.060852 
1697.358080  	0.062279 
1699.286896  	0.059654 
1701.215712  	0.062044 
1703.144528  	0.058800 
1705.073344  	0.056927 
1707.002160  	0.055658 
1708.930976  	0.052751 
1710.859792  	0.049975 
1712.788608  	0.046919 
1714.717424  	0.043681 
1716.646240  	0.040248 
1718.575056  	0.035965 
1720.503872  	0.030317 
1722.432688  	0.025501 
1724.361504  	0.021122 
1726.290320  	0.017029 
1728.219136  	0.013905 
1730.147952  	0.011672 
1732.076768  	0.009205 
1734.005584  	0.007628 
1735.934400  	0.005213 
1737.863216  	0.003216 
1739.792032  	0.001728 
1741.720848  	0.000798 
1743.649664  	0.000711 
1745.578480  	-0.000046 
1747.507296  	-0.000686 
1749.436112  	-0.000597 
1751.364928  	-0.001132 
1753.293744  	-0.002499 
1755.222560  	-0.003327 
1757.151376  	-0.003033 
1759.080192  	-0.003519 
1761.009008  	-0.003636 
1762.937824  	-0.003939 
1764.866640  	-0.004653 
1766.795456  	-0.004603 
1768.724272  	-0.004181 
1770.653088  	-0.004691 
1772.581904  	-0.004310 
1774.510720  	-0.004367 
1776.439536  	-0.004759 
1778.368352  	-0.005390 
1780.297168  	-0.005294 
1782.225984  	-0.005606 
1784.154800  	-0.005696 
1786.083616  	-0.005910 
1788.012432  	-0.006310 
1789.941248  	-0.006048 
1791.870064  	-0.005387 
1793.798880  	-0.005705 
1795.727696  	-0.005882 
1797.656512  	-0.006429 
1799.585328  	-0.006632 
1801.514144  	-0.006177 
1803.442960  	-0.006465 
1805.371776  	-0.006879 
1807.300592  	-0.006904 
1809.229408  	-0.006988 
1811.158224  	-0.006924 
1813.087040  	-0.007224 
1815.015856  	-0.007609 
1816.944672  	-0.007232 
1818.873488  	-0.006964 
1820.802304  	-0.007008 
1822.731120  	-0.006838 
1824.659936  	-0.006873 
1826.588752  	-0.007176 
1828.517568  	-0.007464 
1830.446384  	-0.006965 
1832.375200  	-0.007261 
1834.304016  	-0.007447 
1836.232832  	-0.007419 
1838.161648  	-0.007328 
1840.090464  	-0.007513 
1842.019280  	-0.007673 
1843.948096  	-0.007468 
1845.876912  	-0.006987 
1847.805728  	-0.007358 
1849.734544  	-0.007816 
1851.663360  	-0.008066 
1853.592176  	-0.007986 
1855.520992  	-0.007922 
1857.449808  	-0.007832 
1859.378624  	-0.008151 
1861.307440  	-0.008136 
1863.236256  	-0.008320 
1865.165072  	-0.008252 
1867.093888  	-0.007753 
1869.022704  	-0.006674 
1870.951520  	-0.007147 
1872.880336  	-0.007694 
1874.809152  	-0.008146 
1876.737968  	-0.008573 
1878.666784  	-0.008700 
1880.595600  	-0.008829 
1882.524416  	-0.008662 
1884.453232  	-0.008263 
1886.382048  	-0.008550 
1888.310864  	-0.008321 
1890.239680  	-0.008225 
1892.168496  	-0.008314 
1894.097312  	-0.008244 
1896.026128  	-0.008308 
1897.954944  	-0.008413 
1899.883760  	-0.008336 
1901.812576  	-0.008279 
1903.741392  	-0.008042 
1905.670208  	-0.008643 
1907.599024  	-0.008764 
1909.527840  	-0.008079 
1911.456656  	-0.007842 
1913.385472  	-0.007905 
1915.314288  	-0.007792 
1917.243104  	-0.008019 
1919.171920  	-0.007873 
1921.100736  	-0.008039 
1923.029552  	-0.008046 
1924.958368  	-0.008866 
1926.887184  	-0.009191 
1928.816000  	-0.009336 
1930.744816  	-0.009107 
1932.673632  	-0.008720 
1934.602448  	-0.008197 
1936.531264  	-0.008361 
1938.460080  	-0.008114 
1940.388896  	-0.008170 
1942.317712  	-0.007528 
1944.246528  	-0.008149 
1946.175344  	-0.008201 
1948.104160  	-0.008301 
1950.032976  	-0.008256 
1951.961792  	-0.008793 
1953.890608  	-0.009176 
1955.819424  	-0.009280 
1957.748240  	-0.009439 
1959.677056  	-0.009589 
1961.605872  	-0.009037 
1963.534688  	-0.008312 
1965.463504  	-0.007140 
1967.392320  	-0.007104 
1969.321136  	-0.007718 
1971.249952  	-0.008911 
1973.178768  	-0.009692 
1975.107584  	-0.009157 
1977.036400  	-0.007234 
1978.965216  	-0.007243 
1980.894032  	-0.008377 
1982.822848  	-0.008372 
1984.751664  	-0.007485 
1986.680480  	-0.007088 
1988.609296  	-0.007162 
1990.538112  	-0.007012 
1992.466928  	-0.006526 
1994.395744  	-0.007633 
1996.324560  	-0.008293 
1998.253376  	-0.008312 
2000.182192  	-0.008483 
2002.111008  	-0.007830 
2004.039824  	-0.007846 
2005.968640  	-0.009062 
2007.897456  	-0.008737 
2009.826272  	-0.007794 
2011.755088  	-0.007195 
2013.683904  	-0.007736 
2015.612720  	-0.007444 
2017.541536  	-0.006813 
2019.470352  	-0.006628 
2021.399168  	-0.007895 
2023.327984  	-0.008149 
2025.256800  	-0.007347 
2027.185616  	-0.006480 
2029.114432  	-0.006102 
2031.043248  	-0.006461 
2032.972064  	-0.007177 
2034.900880  	-0.006449 
2036.829696  	-0.006286 
2038.758512  	-0.006596 
2040.687328  	-0.007847 
2042.616144  	-0.007598 
2044.544960  	-0.007203 
2046.473776  	-0.006554 
2048.402592  	-0.005920 
2050.331408  	-0.005905 
2052.260224  	-0.006399 
2054.189040  	-0.006831 
2056.117856  	-0.007401 
2058.046672  	-0.007310 
2059.975488  	-0.007343 
2061.904304  	-0.006674 
2063.833120  	-0.005890 
2065.761936  	-0.005835 
2067.690752  	-0.006665 
2069.619568  	-0.006677 
2071.548384  	-0.006708 
2073.477200  	-0.006286 
2075.406016  	-0.005974 
2077.334832  	-0.006099 
2079.263648  	-0.006040 
2081.192464  	-0.005813 
2083.121280  	-0.006274 
2085.050096  	-0.006627 
2086.978912  	-0.006796 
2088.907728  	-0.006591 
2090.836544  	-0.006372 
2092.765360  	-0.006161 
2094.694176  	-0.006196 
2096.622992  	-0.006119 
2098.551808  	-0.006302 
2100.480624  	-0.006293 
2102.409440  	-0.006226 
2104.338256  	-0.006152 
2106.267072  	-0.006282 
2108.195888  	-0.006168 
2110.124704  	-0.006329 
2112.053520  	-0.006124 
2113.982336  	-0.005751 
2115.911152  	-0.005821 
2117.839968  	-0.006128 
2119.768784  	-0.006231 
2121.697600  	-0.006035 
2123.626416  	-0.006229 
2125.555232  	-0.006774 
2127.484048  	-0.007129 
2129.412864  	-0.007085 
2131.341680  	-0.006506 
2133.270496  	-0.006141 
2135.199312  	-0.006216 
2137.128128  	-0.006254 
2139.056944  	-0.005258 
2140.985760  	-0.005381 
2142.914576  	-0.006068 
2144.843392  	-0.006781 
2146.772208  	-0.006719 
2148.701024  	-0.006579 
2150.629840  	-0.006488 
2152.558656  	-0.005995 
2154.487472  	-0.005284 
2156.416288  	-0.005767 
2158.345104  	-0.003937 
2160.273920  	-0.001064 
2162.202736  	-0.001192 
2164.131552  	-0.002641 
2166.060368  	-0.003375 
2167.989184  	-0.004297 
2169.918000  	-0.005351 
2171.846816  	-0.005086 
2173.775632  	-0.004260 
2175.704448  	-0.004658 
2177.633264  	-0.004755 
2179.562080  	-0.005417 
2181.490896  	-0.004593 
2183.419712  	-0.003511 
2185.348528  	-0.004217 
2187.277344  	-0.005163 
2189.206160  	-0.005087 
2191.134976  	-0.005357 
2193.063792  	-0.005585 
2194.992608  	-0.005355 
2196.921424  	-0.004747 
2198.850240  	-0.005215 
2200.779056  	-0.005916 
2202.707872  	-0.005260 
2204.636688  	-0.004915 
2206.565504  	-0.005708 
2208.494320  	-0.006416 
2210.423136  	-0.006206 
2212.351952  	-0.005498 
2214.280768  	-0.005613 
2216.209584  	-0.006243 
2218.138400  	-0.006742 
2220.067216  	-0.006567 
2221.996032  	-0.006678 
2223.924848  	-0.006619 
2225.853664  	-0.005760 
2227.782480  	-0.005543 
2229.711296  	-0.006615 
2231.640112  	-0.006905 
2233.568928  	-0.007011 
2235.497744  	-0.006931 
2237.426560  	-0.006567 
2239.355376  	-0.006254 
2241.284192  	-0.006816 
2243.213008  	-0.007220 
2245.141824  	-0.007183 
2247.070640  	-0.006547 
2248.999456  	-0.006195 
2250.928272  	-0.006061 
2252.857088  	-0.006232 
2254.785904  	-0.006248 
2256.714720  	-0.006175 
2258.643536  	-0.006035 
2260.572352  	-0.005606 
2262.501168  	-0.005479 
2264.429984  	-0.005586 
2266.358800  	-0.005655 
2268.287616  	-0.006001 
2270.216432  	-0.006043 
2272.145248  	-0.005708 
2274.074064  	-0.005234 
2276.002880  	-0.005279 
2277.931696  	-0.005431 
2279.860512  	-0.005466 
2281.789328  	-0.005448 
2283.718144  	-0.005622 
2285.646960  	-0.005185 
2287.575776  	-0.005019 
2289.504592  	-0.005102 
2291.433408  	-0.005079 
2293.362224  	-0.004736 
2295.291040  	-0.004635 
2297.219856  	-0.004472 
2299.148672  	-0.004341 
2301.077488  	-0.004163 
2303.006304  	-0.003651 
2304.935120  	-0.003125 
2306.863936  	-0.003013 
2308.792752  	-0.002735 
2310.721568  	-0.002423 
2312.650384  	-0.002378 
2314.579200  	-0.002540 
2316.508016  	-0.002358 
2318.436832  	-0.002025 
2320.365648  	-0.001389 
2322.294464  	-0.001001 
2324.223280  	-0.001587 
2326.152096  	-0.002769 
2328.080912  	-0.003610 
2330.009728  	-0.003642 
2331.938544  	-0.003682 
2333.867360  	-0.004215 
2335.796176  	-0.004494 
2337.724992  	-0.004768 
2339.653808  	-0.004883 
2341.582624  	-0.004412 
2343.511440  	-0.003456 
2345.440256  	-0.002514 
2347.369072  	-0.002632 
2349.297888  	-0.003300 
2351.226704  	-0.003798 
2353.155520  	-0.003954 
2355.084336  	-0.003731 
2357.013152  	-0.003650 
2358.941968  	-0.003628 
2360.870784  	-0.003679 
2362.799600  	-0.003791 
2364.728416  	-0.003379 
2366.657232  	-0.002975 
2368.586048  	-0.002985 
2370.514864  	-0.002846 
2372.443680  	-0.002736 
2374.372496  	-0.002374 
2376.301312  	-0.002362 
2378.230128  	-0.002758 
2380.158944  	-0.003467 
2382.087760  	-0.004240 
2384.016576  	-0.005100 
2385.945392  	-0.005753 
2387.874208  	-0.006125 
2389.803024  	-0.006442 
2391.731840  	-0.006714 
2393.660656  	-0.006646 
2395.589472  	-0.006385 
2397.518288  	-0.006333 
2399.447104  	-0.006470 
2401.375920  	-0.006352 
2403.304736  	-0.006451 
2405.233552  	-0.006594 
2407.162368  	-0.006700 
2409.091184  	-0.006564 
2411.020000  	-0.006424 
2412.948816  	-0.006616 
2414.877632  	-0.006657 
2416.806448  	-0.006503 
2418.735264  	-0.006629 
2420.664080  	-0.006614 
2422.592896  	-0.006603 
2424.521712  	-0.006643 
2426.450528  	-0.006584 
2428.379344  	-0.006405 
2430.308160  	-0.006296 
2432.236976  	-0.006237 
2434.165792  	-0.006030 
2436.094608  	-0.005877 
2438.023424  	-0.006013 
2439.952240  	-0.006037 
2441.881056  	-0.006035 
2443.809872  	-0.005925 
2445.738688  	-0.005949 
2447.667504  	-0.005886 
2449.596320  	-0.005610 
2451.525136  	-0.005641 
2453.453952  	-0.005801 
2455.382768  	-0.005646 
2457.311584  	-0.005597 
2459.240400  	-0.005745 
2461.169216  	-0.005772 
2463.098032  	-0.005686 
2465.026848  	-0.005695 
2466.955664  	-0.005809 
2468.884480  	-0.006016 
2470.813296  	-0.006023 
2472.742112  	-0.005838 
2474.670928  	-0.005673 
2476.599744  	-0.005486 
2478.528560  	-0.005193 
2480.457376  	-0.005086 
2482.386192  	-0.005178 
2484.315008  	-0.005420 
2486.243824  	-0.005334 
2488.172640  	-0.005060 
2490.101456  	-0.004906 
2492.030272  	-0.004637 
2493.959088  	-0.004746 
2495.887904  	-0.005045 
2497.816720  	-0.004786 
2499.745536  	-0.004651 
2501.674352  	-0.004702 
2503.603168  	-0.004763 
2505.531984  	-0.004809 
2507.460800  	-0.004767 
2509.389616  	-0.004806 
2511.318432  	-0.005005 
2513.247248  	-0.004878 
2515.176064  	-0.004723 
2517.104880  	-0.004818 
2519.033696  	-0.004865 
2520.962512  	-0.004666 
2522.891328  	-0.004495 
2524.820144  	-0.004220 
2526.748960  	-0.004181 
2528.677776  	-0.004229 
2530.606592  	-0.004219 
2532.535408  	-0.004097 
2534.464224  	-0.004220 
2536.393040  	-0.004467 
2538.321856  	-0.004358 
2540.250672  	-0.004282 
2542.179488  	-0.004231 
2544.108304  	-0.004032 
2546.037120  	-0.003796 
2547.965936  	-0.003722 
2549.894752  	-0.003743 
2551.823568  	-0.003535 
2553.752384  	-0.003406 
2555.681200  	-0.003518 
2557.610016  	-0.003562 
2559.538832  	-0.003597 
2561.467648  	-0.003408 
2563.396464  	-0.003290 
2565.325280  	-0.003527 
2567.254096  	-0.003724 
2569.182912  	-0.003621 
2571.111728  	-0.003467 
2573.040544  	-0.003367 
2574.969360  	-0.003345 
2576.898176  	-0.003296 
2578.826992  	-0.003338 
2580.755808  	-0.003385 
2582.684624  	-0.003266 
2584.613440  	-0.003108 
2586.542256  	-0.002918 
2588.471072  	-0.003083 
2590.399888  	-0.003132 
2592.328704  	-0.002896 
2594.257520  	-0.002788 
2596.186336  	-0.002981 
2598.115152  	-0.002898 
2600.043968  	-0.002653 
2601.972784  	-0.002604 
2603.901600  	-0.002526 
2605.830416  	-0.002579 
2607.759232  	-0.002670 
2609.688048  	-0.002541 
2611.616864  	-0.002362 
2613.545680  	-0.002410 
2615.474496  	-0.002444 
2617.403312  	-0.002335 
2619.332128  	-0.002226 
2621.260944  	-0.002189 
2623.189760  	-0.002112 
2625.118576  	-0.001887 
2627.047392  	-0.001972 
2628.976208  	-0.001983 
2630.905024  	-0.001840 
2632.833840  	-0.001866 
2634.762656  	-0.001866 
2636.691472  	-0.001814 
2638.620288  	-0.001776 
2640.549104  	-0.001670 
2642.477920  	-0.001412 
2644.406736  	-0.001345 
2646.335552  	-0.001383 
2648.264368  	-0.001339 
2650.193184  	-0.001365 
2652.122000  	-0.001361 
2654.050816  	-0.001226 
2655.979632  	-0.001202 
2657.908448  	-0.001192 
2659.837264  	-0.001142 
2661.766080  	-0.001107 
2663.694896  	-0.001033 
2665.623712  	-0.000924 
2667.552528  	-0.000825 
2669.481344  	-0.000887 
2671.410160  	-0.000934 
2673.338976  	-0.000841 
2675.267792  	-0.000669 
2677.196608  	-0.000440 
2679.125424  	-0.000387 
2681.054240  	-0.000428 
2682.983056  	-0.000309 
2684.911872  	-0.000184 
2686.840688  	-0.000242 
2688.769504  	-0.000335 
2690.698320  	-0.000240 
2692.627136  	-0.000137 
2694.555952  	-0.000122 
2696.484768  	-0.000051 
2698.413584  	-0.000022 
2700.342400  	-0.000031 
2702.271216  	0.000099 
2704.200032  	0.000247 
2706.128848  	0.000310 
2708.057664  	0.000347 
2709.986480  	0.000368 
2711.915296  	0.000488 
2713.844112  	0.000578 
2715.772928  	0.000559 
2717.701744  	0.000586 
2719.630560  	0.000788 
2721.559376  	0.000888 
2723.488192  	0.000831 
2725.417008  	0.000885 
2727.345824  	0.000948 
2729.274640  	0.001106 
2731.203456  	0.001260 
2733.132272  	0.001331 
2735.061088  	0.001420 
2736.989904  	0.001420 
2738.918720  	0.001485 
2740.847536  	0.001569 
2742.776352  	0.001643 
2744.705168  	0.001644 
2746.633984  	0.001658 
2748.562800  	0.001805 
2750.491616  	0.001813 
2752.420432  	0.001813 
2754.349248  	0.001849 
2756.278064  	0.001824 
2758.206880  	0.001731 
2760.135696  	0.001708 
2762.064512  	0.001844 
2763.993328  	0.001924 
2765.922144  	0.001922 
2767.850960  	0.001968 
2769.779776  	0.001930 
2771.708592  	0.001888 
2773.637408  	0.001978 
2775.566224  	0.001957 
2777.495040  	0.001888 
2779.423856  	0.001976 
2781.352672  	0.002076 
2783.281488  	0.002171 
2785.210304  	0.002243 
2787.139120  	0.002239 
2789.067936  	0.002191 
2790.996752  	0.002263 
2792.925568  	0.002348 
2794.854384  	0.002315 
2796.783200  	0.002318 
2798.712016  	0.002292 
2800.640832  	0.002266 
2802.569648  	0.002327 
2804.498464  	0.002458 
2806.427280  	0.002547 
2808.356096  	0.002596 
2810.284912  	0.002478 
2812.213728  	0.002349 
2814.142544  	0.002514 
2816.071360  	0.002589 
2818.000176  	0.002560 
2819.928992  	0.002619 
2821.857808  	0.002619 
2823.786624  	0.002537 
2825.715440  	0.002551 
2827.644256  	0.002587 
2829.573072  	0.002591 
2831.501888  	0.002610 
2833.430704  	0.002536 
2835.359520  	0.002421 
2837.288336  	0.002378 
2839.217152  	0.002470 
2841.145968  	0.002424 
2843.074784  	0.002292 
2845.003600  	0.002364 
2846.932416  	0.002428 
2848.861232  	0.002350 
2850.790048  	0.002249 
2852.718864  	0.002213 
2854.647680  	0.002206 
2856.576496  	0.002242 
2858.505312  	0.002298 
2860.434128  	0.002325 
2862.362944  	0.002242 
2864.291760  	0.002169 
2866.220576  	0.002135 
2868.149392  	0.002026 
2870.078208  	0.001998 
2872.007024  	0.002198 
2873.935840  	0.002446 
2875.864656  	0.002554 
2877.793472  	0.002565 
2879.722288  	0.002697 
2881.651104  	0.002909 
2883.579920  	0.003037 
2885.508736  	0.003152 
2887.437552  	0.003130 
2889.366368  	0.003001 
2891.295184  	0.003042 
2893.224000  	0.003179 
2895.152816  	0.003192 
2897.081632  	0.003134 
2899.010448  	0.002885 
2900.939264  	0.002637 
2902.868080  	0.002875 
2904.796896  	0.003189 
2906.725712  	0.003258 
2908.654528  	0.003302 
2910.583344  	0.003441 
2912.512160  	0.003625 
2914.440976  	0.003818 
2916.369792  	0.004199 
2918.298608  	0.004453 
2920.227424  	0.004676 
2922.156240  	0.004900 
2924.085056  	0.005112 
2926.013872  	0.005351 
2927.942688  	0.005856 
2929.871504  	0.006237 
2931.800320  	0.006436 
2933.729136  	0.006761 
2935.657952  	0.007179 
2937.586768  	0.007498 
2939.515584  	0.007571 
2941.444400  	0.007560 
2943.373216  	0.007725 
2945.302032  	0.008035 
2947.230848  	0.008222 
2949.159664  	0.008208 
2951.088480  	0.007978 
2953.017296  	0.007736 
2954.946112  	0.007624 
2956.874928  	0.007534 
2958.803744  	0.007314 
2960.732560  	0.007134 
2962.661376  	0.006990 
2964.590192  	0.006892 
2966.519008  	0.006805 
2968.447824  	0.006581 
2970.376640  	0.006303 
2972.305456  	0.005942 
2974.234272  	0.006078 
2976.163088  	0.006354 
2978.091904  	0.006280 
2980.020720  	0.006066 
2981.949536  	0.006082 
2983.878352  	0.006067 
2985.807168  	0.005874 
2987.735984  	0.005764 
2989.664800  	0.005807 
2991.593616  	0.006271 
2993.522432  	0.006553 
2995.451248  	0.006598 
2997.380064  	0.006841 
2999.308880  	0.007274 
3001.237696  	0.007717 
3003.166512  	0.008070 
3005.095328  	0.008293 
3007.024144  	0.008500 
3008.952960  	0.008840 
3010.881776  	0.009200 
3012.810592  	0.009575 
3014.739408  	0.009963 
3016.668224  	0.010300 
3018.597040  	0.010673 
3020.525856  	0.010940 
3022.454672  	0.011120 
3024.383488  	0.011512 
3026.312304  	0.011921 
3028.241120  	0.012170 
3030.169936  	0.012471 
3032.098752  	0.012770 
3034.027568  	0.012990 
3035.956384  	0.013239 
3037.885200  	0.013462 
3039.814016  	0.013795 
3041.742832  	0.014038 
3043.671648  	0.014393 
3045.600464  	0.014597 
3047.529280  	0.014641 
3049.458096  	0.014897 
3051.386912  	0.015125 
3053.315728  	0.015339 
3055.244544  	0.015555 
3057.173360  	0.016005 
3059.102176  	0.016446 
3061.030992  	0.016704 
3062.959808  	0.016845 
3064.888624  	0.017202 
3066.817440  	0.017629 
3068.746256  	0.017842 
3070.675072  	0.018115 
3072.603888  	0.018515 
3074.532704  	0.018836 
3076.461520  	0.019123 
3078.390336  	0.019486 
3080.319152  	0.020062 
3082.247968  	0.020412 
3084.176784  	0.020589 
3086.105600  	0.021015 
3088.034416  	0.021451 
3089.963232  	0.021606 
3091.892048  	0.021863 
3093.820864  	0.022125 
3095.749680  	0.022592 
3097.678496  	0.023043 
3099.607312  	0.023312 
3101.536128  	0.023797 
3103.464944  	0.024155 
3105.393760  	0.024322 
3107.322576  	0.024721 
3109.251392  	0.025258 
3111.180208  	0.025456 
3113.109024  	0.025506 
3115.037840  	0.025854 
3116.966656  	0.026364 
3118.895472  	0.026661 
3120.824288  	0.026930 
3122.753104  	0.027386 
3124.681920  	0.027661 
3126.610736  	0.027830 
3128.539552  	0.028009 
3130.468368  	0.028135 
3132.397184  	0.028595 
3134.326000  	0.029007 
3136.254816  	0.029219 
3138.183632  	0.029503 
3140.112448  	0.029741 
3142.041264  	0.030067 
3143.970080  	0.030382 
3145.898896  	0.030566 
3147.827712  	0.030719 
3149.756528  	0.031088 
3151.685344  	0.031390 
3153.614160  	0.031615 
3155.542976  	0.031841 
3157.471792  	0.032249 
3159.400608  	0.032662 
3161.329424  	0.032902 
3163.258240  	0.033238 
3165.187056  	0.033462 
3167.115872  	0.033504 
3169.044688  	0.033814 
3170.973504  	0.034273 
3172.902320  	0.034455 
3174.831136  	0.034365 
3176.759952  	0.034461 
3178.688768  	0.034773 
3180.617584  	0.035019 
3182.546400  	0.035220 
3184.475216  	0.035181 
3186.404032  	0.035270 
3188.332848  	0.035440 
3190.261664  	0.035546 
3192.190480  	0.035674 
3194.119296  	0.035806 
3196.048112  	0.035767 
3197.976928  	0.036045 
3199.905744  	0.036187 
3201.834560  	0.036095 
3203.763376  	0.036032 
3205.692192  	0.035901 
3207.621008  	0.035808 
3209.549824  	0.035920 
3211.478640  	0.035951 
3213.407456  	0.035860 
3215.336272  	0.036028 
3217.265088  	0.036079 
3219.193904  	0.036120 
3221.122720  	0.036116 
3223.051536  	0.035956 
3224.980352  	0.035740 
3226.909168  	0.035570 
3228.837984  	0.035388 
3230.766800  	0.035219 
3232.695616  	0.035440 
3234.624432  	0.035620 
3236.553248  	0.035682 
3238.482064  	0.035640 
3240.410880  	0.035538 
3242.339696  	0.035324 
3244.268512  	0.035279 
3246.197328  	0.035470 
3248.126144  	0.035391 
3250.054960  	0.035474 
3251.983776  	0.035654 
3253.912592  	0.035967 
3255.841408  	0.036069 
3257.770224  	0.035940 
3259.699040  	0.036160 
3261.627856  	0.036399 
3263.556672  	0.036393 
3265.485488  	0.036510 
3267.414304  	0.036561 
3269.343120  	0.036742 
3271.271936  	0.036814 
3273.200752  	0.036804 
3275.129568  	0.036872 
3277.058384  	0.036943 
3278.987200  	0.036985 
3280.916016  	0.037074 
3282.844832  	0.037187 
3284.773648  	0.037267 
3286.702464  	0.037286 
3288.631280  	0.037552 
3290.560096  	0.037668 
3292.488912  	0.037592 
3294.417728  	0.037711 
3296.346544  	0.037937 
3298.275360  	0.038037 
3300.204176  	0.037970 
3302.132992  	0.038002 
3304.061808  	0.038371 
3305.990624  	0.038520 
3307.919440  	0.038662 
3309.848256  	0.038858 
3311.777072  	0.039077 
3313.705888  	0.039417 
3315.634704  	0.039589 
3317.563520  	0.039712 
3319.492336  	0.039652 
3321.421152  	0.039771 
3323.349968  	0.040038 
3325.278784  	0.040229 
3327.207600  	0.040351 
3329.136416  	0.040138 
3331.065232  	0.040077 
3332.994048  	0.040244 
3334.922864  	0.040449 
3336.851680  	0.040650 
3338.780496  	0.040622 
3340.709312  	0.040293 
3342.638128  	0.040348 
3344.566944  	0.040309 
3346.495760  	0.040099 
3348.424576  	0.039969 
3350.353392  	0.039917 
3352.282208  	0.039836 
3354.211024  	0.039663 
3356.139840  	0.039564 
3358.068656  	0.039383 
3359.997472  	0.039254 
3361.926288  	0.039175 
3363.855104  	0.039040 
3365.783920  	0.038910 
3367.712736  	0.038688 
3369.641552  	0.038489 
3371.570368  	0.038230 
3373.499184  	0.038167 
3375.428000  	0.038185 
3377.356816  	0.038125 
3379.285632  	0.038019 
3381.214448  	0.037677 
3383.143264  	0.037561 
3385.072080  	0.037685 
3387.000896  	0.037336 
3388.929712  	0.036999 
3390.858528  	0.036755 
3392.787344  	0.036969 
3394.716160  	0.036895 
3396.644976  	0.036733 
3398.573792  	0.036463 
3400.502608  	0.035877 
3402.431424  	0.035483 
3404.360240  	0.035292 
3406.289056  	0.035075 
3408.217872  	0.034662 
3410.146688  	0.034372 
3412.075504  	0.034303 
3414.004320  	0.034244 
3415.933136  	0.034023 
3417.861952  	0.033642 
3419.790768  	0.033750 
3421.719584  	0.033953 
3423.648400  	0.033473 
3425.577216  	0.032770 
3427.506032  	0.032528 
3429.434848  	0.032380 
3431.363664  	0.032388 
3433.292480  	0.032275 
3435.221296  	0.031875 
3437.150112  	0.031415 
3439.078928  	0.031023 
3441.007744  	0.030732 
3442.936560  	0.030803 
3444.865376  	0.030257 
3446.794192  	0.030519 
3448.723008  	0.030729 
3450.651824  	0.029661 
3452.580640  	0.029155 
3454.509456  	0.028859 
3456.438272  	0.028482 
3458.367088  	0.028180 
3460.295904  	0.027909 
3462.224720  	0.027787 
3464.153536  	0.027315 
3466.082352  	0.026744 
3468.011168  	0.026498 
3469.939984  	0.026131 
3471.868800  	0.025612 
3473.797616  	0.025072 
3475.726432  	0.024859 
3477.655248  	0.024369 
3479.584064  	0.023906 
3481.512880  	0.024050 
3483.441696  	0.023855 
3485.370512  	0.022863 
3487.299328  	0.022408 
3489.228144  	0.022147 
3491.156960  	0.021624 
3493.085776  	0.021326 
3495.014592  	0.021126 
3496.943408  	0.020873 
3498.872224  	0.020216 
3500.801040  	0.019796 
3502.729856  	0.020148 
3504.658672  	0.020294 
3506.587488  	0.019091 
3508.516304  	0.018634 
3510.445120  	0.018931 
3512.373936  	0.018271 
3514.302752  	0.017663 
3516.231568  	0.017245 
3518.160384  	0.016923 
3520.089200  	0.016368 
3522.018016  	0.016130 
3523.946832  	0.016767 
3525.875648  	0.016390 
3527.804464  	0.016018 
3529.733280  	0.015785 
3531.662096  	0.015045 
3533.590912  	0.014177 
3535.519728  	0.014047 
3537.448544  	0.014172 
3539.377360  	0.013348 
3541.306176  	0.012533 
3543.234992  	0.012518 
3545.163808  	0.013469 
3547.092624  	0.013649 
3549.021440  	0.012267 
3550.950256  	0.011410 
3552.879072  	0.011932 
3554.807888  	0.011111 
3556.736704  	0.010201 
3558.665520  	0.010221 
3560.594336  	0.010331 
3562.523152  	0.009511 
3564.451968  	0.009008 
3566.380784  	0.010874 
3568.309600  	0.012526 
3570.238416  	0.010087 
3572.167232  	0.008205 
3574.096048  	0.007630 
3576.024864  	0.007273 
3577.953680  	0.006889 
3579.882496  	0.006589 
3581.811312  	0.005973 
3583.740128  	0.005305 
3585.668944  	0.005302 
3587.597760  	0.007534 
3589.526576  	0.006989 
3591.455392  	0.004458 
3593.384208  	0.004195 
3595.313024  	0.004724 
3597.241840  	0.003891 
3599.170656  	0.002963 
3601.099472  	0.002968 
3603.028288  	0.002317 
3604.957104  	0.001343 
3606.885920  	0.001857 
3608.814736  	0.002939 
3610.743552  	0.001586 
3612.672368  	0.000945 
3614.601184  	0.000916 
3616.530000  	-0.000392 
3618.458816  	-0.000100 
3620.387632  	0.000312 
3622.316448  	-0.001150 
3624.245264  	-0.002340 
3626.174080  	-0.003058 
3628.102896  	-0.002170 
3630.031712  	0.000230 
3631.960528  	-0.002269 
3633.889344  	-0.003365 
3635.818160  	-0.004097 
3637.746976  	-0.004951 
3639.675792  	-0.005474 
3641.604608  	-0.005776 
3643.533424  	-0.006373 
3645.462240  	-0.007287 
3647.391056  	-0.005985 
3649.319872  	-0.004162 
3651.248688  	-0.004066 
3653.177504  	-0.007057 
3655.106320  	-0.008529 
3657.035136  	-0.007680 
3658.963952  	-0.008335 
3660.892768  	-0.008892 
3662.821584  	-0.009498 
3664.750400  	-0.010032 
3666.679216  	-0.010541 
3668.608032  	-0.010537 
3670.536848  	-0.008630 
3672.465664  	-0.009778 
3674.394480  	-0.010716 
3676.323296  	-0.008296 
3678.252112  	-0.009247 
3680.180928  	-0.010043 
3682.109744  	-0.010762 
3684.038560  	-0.011045 
3685.967376  	-0.011652 
3687.896192  	-0.011199 
3689.825008  	-0.009397 
3691.753824  	-0.009354 
3693.682640  	-0.010270 
3695.611456  	-0.010775 
3697.540272  	-0.010876 
3699.469088  	-0.011616 
3701.397904  	-0.011060 
3703.326720  	-0.010216 
3705.255536  	-0.010519 
3707.184352  	-0.010748 
3709.113168  	-0.010530 
3711.041984  	-0.009286 
3712.970800  	-0.008789 
3714.899616  	-0.009939 
3716.828432  	-0.010759 
3718.757248  	-0.010646 
3720.686064  	-0.010545 
3722.614880  	-0.010193 
3724.543696  	-0.009852 
3726.472512  	-0.009141 
3728.401328  	-0.009992 
3730.330144  	-0.011728 
3732.258960  	-0.011616 
3734.187776  	-0.009674 
3736.116592  	-0.007177 
3738.045408  	-0.008448 
3739.974224  	-0.009790 
3741.903040  	-0.010898 
3743.831856  	-0.010859 
3745.760672  	-0.008847 
3747.689488  	-0.010765 
3749.618304  	-0.010450 
3751.547120  	-0.008448 
3753.475936  	-0.008721 
3755.404752  	-0.010121 
3757.333568  	-0.010302 
3759.262384  	-0.009750 
3761.191200  	-0.009804 
3763.120016  	-0.010818 
3765.048832  	-0.010470 
3766.977648  	-0.010418 
3768.906464  	-0.010732 
3770.835280  	-0.010022 
3772.764096  	-0.010347 
3774.692912  	-0.010855 
3776.621728  	-0.011191 
3778.550544  	-0.010846 
3780.479360  	-0.009994 
3782.408176  	-0.010535 
3784.336992  	-0.010500 
3786.265808  	-0.010354 
3788.194624  	-0.010682 
3790.123440  	-0.010711 
3792.052256  	-0.010856 
3793.981072  	-0.011584 
3795.909888  	-0.011029 
3797.838704  	-0.010174 
3799.767520  	-0.010984 
3801.696336  	-0.009382 
3803.625152  	-0.009732 
3805.553968  	-0.011238 
3807.482784  	-0.010087 
3809.411600  	-0.010090 
3811.340416  	-0.010850 
3813.269232  	-0.011656 
3815.198048  	-0.011217 
3817.126864  	-0.009791 
3819.055680  	-0.010706 
3820.984496  	-0.009384 
3822.913312  	-0.008785 
3824.842128  	-0.010435 
3826.770944  	-0.010435 
3828.699760  	-0.010581 
3830.628576  	-0.010784 
3832.557392  	-0.010584 
3834.486208  	-0.011056 
3836.415024  	-0.011098 
3838.343840  	-0.009933 
3840.272656  	-0.008931 
3842.201472  	-0.009318 
3844.130288  	-0.009426 
3846.059104  	-0.009983 
3847.987920  	-0.010836 
3849.916736  	-0.011440 
3851.845552  	-0.011504 
3853.774368  	-0.007720 
3855.703184  	-0.007515 
3857.632000  	-0.009042 
3859.560816  	-0.010375 
3861.489632  	-0.010580 
3863.418448  	-0.009842 
3865.347264  	-0.008812 
3867.276080  	-0.010136 
3869.204896  	-0.009889 
3871.133712  	-0.008367 
3873.062528  	-0.009372 
3874.991344  	-0.009008 
3876.920160  	-0.010526 
3878.848976  	-0.010946 
3880.777792  	-0.009008 
3882.706608  	-0.009076 
3884.635424  	-0.009713 
3886.564240  	-0.009069 
3888.493056  	-0.010629 
3890.421872  	-0.010789 
3892.350688  	-0.009547 
3894.279504  	-0.009946 
3896.208320  	-0.010926 
3898.137136  	-0.010707 
3900.065952  	-0.009283 
3901.994768  	-0.009097 
3903.923584  	-0.008696 
3905.852400  	-0.008681 
3907.781216  	-0.010040 
3909.710032  	-0.010868 
3911.638848  	-0.011123 
3913.567664  	-0.011106 
3915.496480  	-0.010577 
3917.425296  	-0.009463 
3919.354112  	-0.009396 
3921.282928  	-0.009740 
3923.211744  	-0.009939 
3925.140560  	-0.009392 
3927.069376  	-0.009990 
3928.998192  	-0.010226 
3930.927008  	-0.009593 
3932.855824  	-0.009208 
3934.784640  	-0.009861 
3936.713456  	-0.010428 
3938.642272  	-0.010529 
3940.571088  	-0.010669 
3942.499904  	-0.009826 
3944.428720  	-0.009821 
3946.357536  	-0.010468 
3948.286352  	-0.009907 
3950.215168  	-0.009910 
3952.143984  	-0.010507 
3954.072800  	-0.010844 
3956.001616  	-0.010738 
3957.930432  	-0.010458 
3959.859248  	-0.010475 
3961.788064  	-0.010395 
3963.716880  	-0.010519 
3965.645696  	-0.010862 
3967.574512  	-0.010940 
3969.503328  	-0.010847 
3971.432144  	-0.010634 
3973.360960  	-0.010357 
3975.289776  	-0.010066 
3977.218592  	-0.010335 
3979.147408  	-0.010777 
3981.076224  	-0.010769 
3983.005040  	-0.010751 
3984.933856  	-0.010679 
3986.862672  	-0.010492 
3988.791488  	-0.010517 
3990.720304  	-0.010384 
3992.649120  	-0.010524 
3994.577936  	-0.010564 
3996.506752  	-0.010607 
3998.435568  	-0.010745 
4000.364384  	-0.010714 