##TITLE=No Description
##DATA TYPE=INFRARED SPECTRUM
##XUNITS=1/CM
##YUNITS=Abs
399.264912  	0.554983 
401.193728  	0.556485 
403.122544  	0.558818 
405.051360  	0.547339 
406.980176  	0.553086 
408.908992  	0.550934 
410.837808  	0.554013 
412.766624  	0.544402 
414.695440  	0.525154 
416.624256  	0.509723 
418.553072  	0.528918 
420.481888  	0.528505 
422.410704  	0.518346 
424.339520  	0.499634 
426.268336  	0.493273 
428.197152  	0.494994 
430.125968  	0.501820 
432.054784  	0.495484 
433.983600  	0.495825 
435.912416  	0.497727 
437.841232  	0.494865 
439.770048  	0.488022 
441.698864  	0.491105 
443.627680  	0.484983 
445.556496  	0.486352 
447.485312  	0.485421 
449.414128  	0.483170 
451.342944  	0.477625 
453.271760  	0.474609 
455.200576  	0.469771 
457.129392  	0.473701 
459.058208  	0.469648 
460.987024  	0.467313 
462.915840  	0.463695 
464.844656  	0.464617 
466.773472  	0.470334 
468.702288  	0.472115 
470.631104  	0.467429 
472.559920  	0.468402 
474.488736  	0.463216 
476.417552  	0.464677 
478.346368  	0.463008 
480.275184  	0.459789 
482.204000  	0.453095 
484.132816  	0.455999 
486.061632  	0.460093 
487.990448  	0.460234 
489.919264  	0.457399 
491.848080  	0.454835 
493.776896  	0.454769 
495.705712  	0.453686 
497.634528  	0.445756 
499.563344  	0.443422 
501.492160  	0.443328 
503.420976  	0.444468 
505.349792  	0.444891 
507.278608  	0.447043 
509.207424  	0.444105 
511.136240  	0.444008 
513.065056  	0.442079 
514.993872  	0.443136 
516.922688  	0.443352 
518.851504  	0.446442 
520.780320  	0.444397 
522.709136  	0.442925 
524.637952  	0.440368 
526.566768  	0.437592 
528.495584  	0.435117 
530.424400  	0.435052 
532.353216  	0.433310 
534.282032  	0.430986 
536.210848  	0.427262 
538.139664  	0.422884 
540.068480  	0.417676 
541.997296  	0.416083 
543.926112  	0.414184 
545.854928  	0.412835 
547.783744  	0.409963 
549.712560  	0.407945 
551.641376  	0.404538 
553.570192  	0.402246 
555.499008  	0.398933 
557.427824  	0.397642 
559.356640  	0.395801 
561.285456  	0.393723 
563.214272  	0.389954 
565.143088  	0.388412 
567.071904  	0.386484 
569.000720  	0.385523 
570.929536  	0.382742 
572.858352  	0.379599 
574.787168  	0.377264 
576.715984  	0.376720 
578.644800  	0.373204 
580.573616  	0.370123 
582.502432  	0.366174 
584.431248  	0.363453 
586.360064  	0.360588 
588.288880  	0.358251 
590.217696  	0.356134 
592.146512  	0.355168 
594.075328  	0.353165 
596.004144  	0.351739 
597.932960  	0.349608 
599.861776  	0.347600 
601.790592  	0.345536 
603.719408  	0.344719 
605.648224  	0.343457 
607.577040  	0.342027 
609.505856  	0.340313 
611.434672  	0.339061 
613.363488  	0.337393 
615.292304  	0.336222 
617.221120  	0.333833 
619.149936  	0.332031 
621.078752  	0.329900 
623.007568  	0.328957 
624.936384  	0.327403 
626.865200  	0.325819 
628.794016  	0.324794 
630.722832  	0.324304 
632.651648  	0.323748 
634.580464  	0.322876 
636.509280  	0.321536 
638.438096  	0.320990 
640.366912  	0.319916 
642.295728  	0.318381 
644.224544  	0.315677 
646.153360  	0.313359 
648.082176  	0.310310 
650.010992  	0.307644 
651.939808  	0.304752 
653.868624  	0.302185 
655.797440  	0.298876 
657.726256  	0.296399 
659.655072  	0.293346 
661.583888  	0.290097 
663.512704  	0.287231 
665.441520  	0.284257 
667.370336  	0.281467 
669.299152  	0.279516 
671.227968  	0.274957 
673.156784  	0.271654 
675.085600  	0.269616 
677.014416  	0.267470 
678.943232  	0.265390 
680.872048  	0.264047 
682.800864  	0.261743 
684.729680  	0.260043 
686.658496  	0.258416 
688.587312  	0.257199 
690.516128  	0.255360 
692.444944  	0.253970 
694.373760  	0.252098 
696.302576  	0.250462 
698.231392  	0.248411 
700.160208  	0.246051 
702.089024  	0.243625 
704.017840  	0.241675 
705.946656  	0.239231 
707.875472  	0.236953 
709.804288  	0.235284 
711.733104  	0.234161 
713.661920  	0.232662 
715.590736  	0.230669 
717.519552  	0.229013 
719.448368  	0.228527 
721.377184  	0.228151 
723.306000  	0.227266 
725.234816  	0.226398 
727.163632  	0.225243 
729.092448  	0.223014 
731.021264  	0.220923 
732.950080  	0.218672 
734.878896  	0.215915 
736.807712  	0.213195 
738.736528  	0.211326 
740.665344  	0.209500 
742.594160  	0.208042 
744.522976  	0.206233 
746.451792  	0.204784 
748.380608  	0.203280 
750.309424  	0.202015 
752.238240  	0.200690 
754.167056  	0.199636 
756.095872  	0.198590 
758.024688  	0.197177 
759.953504  	0.196047 
761.882320  	0.195766 
763.811136  	0.195227 
765.739952  	0.193592 
767.668768  	0.190872 
769.597584  	0.188515 
771.526400  	0.187365 
773.455216  	0.187170 
775.384032  	0.187466 
777.312848  	0.189156 
779.241664  	0.190798 
781.170480  	0.189932 
783.099296  	0.186274 
785.028112  	0.182241 
786.956928  	0.178262 
788.885744  	0.174780 
790.814560  	0.171824 
792.743376  	0.170155 
794.672192  	0.169128 
796.601008  	0.167766 
798.529824  	0.164933 
800.458640  	0.161740 
802.387456  	0.159020 
804.316272  	0.157039 
806.245088  	0.155584 
808.173904  	0.154298 
810.102720  	0.153305 
812.031536  	0.152306 
813.960352  	0.151370 
815.889168  	0.150821 
817.817984  	0.150236 
819.746800  	0.149808 
821.675616  	0.149282 
823.604432  	0.148720 
825.533248  	0.148102 
827.462064  	0.147505 
829.390880  	0.146272 
831.319696  	0.145414 
833.248512  	0.144434 
835.177328  	0.142793 
837.106144  	0.140547 
839.034960  	0.138423 
840.963776  	0.135710 
842.892592  	0.132742 
844.821408  	0.130017 
846.750224  	0.127471 
848.679040  	0.125360 
850.607856  	0.123528 
852.536672  	0.122208 
854.465488  	0.121045 
856.394304  	0.120067 
858.323120  	0.118623 
860.251936  	0.116960 
862.180752  	0.115678 
864.109568  	0.114000 
866.038384  	0.112180 
867.967200  	0.110518 
869.896016  	0.109235 
871.824832  	0.108122 
873.753648  	0.107977 
875.682464  	0.107875 
877.611280  	0.108038 
879.540096  	0.108497 
881.468912  	0.109423 
883.397728  	0.110572 
885.326544  	0.111431 
887.255360  	0.111776 
889.184176  	0.111582 
891.112992  	0.111075 
893.041808  	0.110029 
894.970624  	0.108245 
896.899440  	0.105555 
898.828256  	0.102491 
900.757072  	0.099635 
902.685888  	0.096990 
904.614704  	0.095189 
906.543520  	0.094418 
908.472336  	0.094664 
910.401152  	0.095457 
912.329968  	0.096597 
914.258784  	0.097678 
916.187600  	0.098843 
918.116416  	0.099565 
920.045232  	0.100091 
921.974048  	0.100329 
923.902864  	0.100359 
925.831680  	0.100385 
927.760496  	0.100292 
929.689312  	0.100300 
931.618128  	0.100616 
933.546944  	0.100734 
935.475760  	0.100347 
937.404576  	0.099646 
939.333392  	0.098905 
941.262208  	0.098232 
943.191024  	0.098144 
945.119840  	0.099049 
947.048656  	0.101032 
948.977472  	0.104411 
950.906288  	0.108904 
952.835104  	0.114629 
954.763920  	0.121278 
956.692736  	0.127993 
958.621552  	0.134550 
960.550368  	0.139620 
962.479184  	0.142937 
964.408000  	0.143828 
966.336816  	0.142315 
968.265632  	0.138034 
970.194448  	0.131673 
972.123264  	0.123660 
974.052080  	0.114963 
975.980896  	0.106036 
977.909712  	0.097412 
979.838528  	0.089838 
981.767344  	0.083469 
983.696160  	0.078553 
985.624976  	0.075263 
987.553792  	0.073825 
989.482608  	0.073845 
991.411424  	0.075465 
993.340240  	0.078484 
995.269056  	0.081903 
997.197872  	0.085791 
999.126688  	0.089748 
1001.055504  	0.093775 
1002.984320  	0.097544 
1004.913136  	0.101491 
1006.841952  	0.105209 
1008.770768  	0.108840 
1010.699584  	0.112073 
1012.628400  	0.114756 
1014.557216  	0.116800 
1016.486032  	0.118032 
1018.414848  	0.118730 
1020.343664  	0.118976 
1022.272480  	0.119237 
1024.201296  	0.119276 
1026.130112  	0.118880 
1028.058928  	0.119056 
1029.987744  	0.120325 
1031.916560  	0.121715 
1033.845376  	0.123153 
1035.774192  	0.125415 
1037.703008  	0.128459 
1039.631824  	0.133256 
1041.560640  	0.139621 
1043.489456  	0.147928 
1045.418272  	0.157471 
1047.347088  	0.167779 
1049.275904  	0.176559 
1051.204720  	0.182870 
1053.133536  	0.186410 
1055.062352  	0.187474 
1056.991168  	0.186863 
1058.919984  	0.186384 
1060.848800  	0.186499 
1062.777616  	0.186388 
1064.706432  	0.185675 
1066.635248  	0.184690 
1068.564064  	0.183009 
1070.492880  	0.180114 
1072.421696  	0.176554 
1074.350512  	0.173981 
1076.279328  	0.173163 
1078.208144  	0.175417 
1080.136960  	0.179320 
1082.065776  	0.183022 
1083.994592  	0.184490 
1085.923408  	0.183920 
1087.852224  	0.180511 
1089.781040  	0.175472 
1091.709856  	0.168815 
1093.638672  	0.161079 
1095.567488  	0.152079 
1097.496304  	0.142799 
1099.425120  	0.133562 
1101.353936  	0.124452 
1103.282752  	0.115911 
1105.211568  	0.107959 
1107.140384  	0.100529 
1109.069200  	0.093670 
1110.998016  	0.087634 
1112.926832  	0.082036 
1114.855648  	0.076867 
1116.784464  	0.071938 
1118.713280  	0.067175 
1120.642096  	0.062682 
1122.570912  	0.058520 
1124.499728  	0.054811 
1126.428544  	0.051470 
1128.357360  	0.048528 
1130.286176  	0.045776 
1132.214992  	0.043693 
1134.143808  	0.042206 
1136.072624  	0.040872 
1138.001440  	0.039565 
1139.930256  	0.038524 
1141.859072  	0.037561 
1143.787888  	0.036437 
1145.716704  	0.035486 
1147.645520  	0.034647 
1149.574336  	0.034343 
1151.503152  	0.033930 
1153.431968  	0.033643 
1155.360784  	0.033628 
1157.289600  	0.034187 
1159.218416  	0.034793 
1161.147232  	0.035366 
1163.076048  	0.036159 
1165.004864  	0.036868 
1166.933680  	0.037628 
1168.862496  	0.038577 
1170.791312  	0.039766 
1172.720128  	0.041164 
1174.648944  	0.042712 
1176.577760  	0.044112 
1178.506576  	0.045825 
1180.435392  	0.047794 
1182.364208  	0.049509 
1184.293024  	0.051440 
1186.221840  	0.053849 
1188.150656  	0.056613 
1190.079472  	0.059725 
1192.008288  	0.063454 
1193.937104  	0.067476 
1195.865920  	0.071976 
1197.794736  	0.077020 
1199.723552  	0.082592 
1201.652368  	0.088246 
1203.581184  	0.093746 
1205.510000  	0.099012 
1207.438816  	0.103774 
1209.367632  	0.108296 
1211.296448  	0.111961 
1213.225264  	0.115042 
1215.154080  	0.117084 
1217.082896  	0.118410 
1219.011712  	0.118897 
1220.940528  	0.119057 
1222.869344  	0.118710 
1224.798160  	0.117930 
1226.726976  	0.116475 
1228.655792  	0.114607 
1230.584608  	0.112447 
1232.513424  	0.109682 
1234.442240  	0.106522 
1236.371056  	0.103250 
1238.299872  	0.099424 
1240.228688  	0.095094 
1242.157504  	0.090801 
1244.086320  	0.086736 
1246.015136  	0.082411 
1247.943952  	0.078069 
1249.872768  	0.073663 
1251.801584  	0.069566 
1253.730400  	0.065666 
1255.659216  	0.061831 
1257.588032  	0.058072 
1259.516848  	0.054718 
1261.445664  	0.051508 
1263.374480  	0.048507 
1265.303296  	0.045841 
1267.232112  	0.043815 
1269.160928  	0.042440 
1271.089744  	0.041482 
1273.018560  	0.040899 
1274.947376  	0.040921 
1276.876192  	0.041371 
1278.805008  	0.041650 
1280.733824  	0.041580 
1282.662640  	0.040637 
1284.591456  	0.039352 
1286.520272  	0.038345 
1288.449088  	0.037771 
1290.377904  	0.037461 
1292.306720  	0.037790 
1294.235536  	0.038286 
1296.164352  	0.038166 
1298.093168  	0.037157 
1300.021984  	0.035635 
1301.950800  	0.033829 
1303.879616  	0.031912 
1305.808432  	0.029932 
1307.737248  	0.027882 
1309.666064  	0.025928 
1311.594880  	0.024504 
1313.523696  	0.023496 
1315.452512  	0.022614 
1317.381328  	0.022377 
1319.310144  	0.022600 
1321.238960  	0.022583 
1323.167776  	0.022785 
1325.096592  	0.023109 
1327.025408  	0.023231 
1328.954224  	0.023170 
1330.883040  	0.022745 
1332.811856  	0.021789 
1334.740672  	0.020938 
1336.669488  	0.020808 
1338.598304  	0.021459 
1340.527120  	0.021480 
1342.455936  	0.020080 
1344.384752  	0.019562 
1346.313568  	0.019691 
1348.242384  	0.020116 
1350.171200  	0.020701 
1352.100016  	0.021629 
1354.028832  	0.022877 
1355.957648  	0.024093 
1357.886464  	0.025073 
1359.815280  	0.026329 
1361.744096  	0.028463 
1363.672912  	0.030184 
1365.601728  	0.030286 
1367.530544  	0.031239 
1369.459360  	0.032655 
1371.388176  	0.032910 
1373.316992  	0.033225 
1375.245808  	0.033045 
1377.174624  	0.031174 
1379.103440  	0.029611 
1381.032256  	0.027936 
1382.961072  	0.026329 
1384.889888  	0.025076 
1386.818704  	0.025020 
1388.747520  	0.024177 
1390.676336  	0.022246 
1392.605152  	0.020679 
1394.533968  	0.020703 
1396.462784  	0.021305 
1398.391600  	0.021004 
1400.320416  	0.020803 
1402.249232  	0.020220 
1404.178048  	0.020876 
1406.106864  	0.021616 
1408.035680  	0.021935 
1409.964496  	0.022790 
1411.893312  	0.024125 
1413.822128  	0.025391 
1415.750944  	0.026869 
1417.679760  	0.028350 
1419.608576  	0.030191 
1421.537392  	0.029601 
1423.466208  	0.029134 
1425.395024  	0.028363 
1427.323840  	0.026517 
1429.252656  	0.025472 
1431.181472  	0.024629 
1433.110288  	0.023689 
1435.039104  	0.023422 
1436.967920  	0.025235 
1438.896736  	0.025599 
1440.825552  	0.025490 
1442.754368  	0.025802 
1444.683184  	0.025707 
1446.612000  	0.025925 
1448.540816  	0.026472 
1450.469632  	0.026333 
1452.398448  	0.026372 
1454.327264  	0.026144 
1456.256080  	0.027234 
1458.184896  	0.029879 
1460.113712  	0.028037 
1462.042528  	0.026008 
1463.971344  	0.025618 
1465.900160  	0.026649 
1467.828976  	0.026360 
1469.757792  	0.026261 
1471.686608  	0.028553 
1473.615424  	0.034131 
1475.544240  	0.036277 
1477.473056  	0.038635 
1479.401872  	0.039883 
1481.330688  	0.042207 
1483.259504  	0.043797 
1485.188320  	0.044488 
1487.117136  	0.045551 
1489.045952  	0.047442 
1490.974768  	0.047357 
1492.903584  	0.044254 
1494.832400  	0.041264 
1496.761216  	0.039482 
1498.690032  	0.036431 
1500.618848  	0.032945 
1502.547664  	0.029231 
1504.476480  	0.026100 
1506.405296  	0.026798 
1508.334112  	0.029017 
1510.262928  	0.025661 
1512.191744  	0.023334 
1514.120560  	0.022247 
1516.049376  	0.023242 
1517.978192  	0.024419 
1519.907008  	0.024256 
1521.835824  	0.027909 
1523.764640  	0.029287 
1525.693456  	0.030833 
1527.622272  	0.032650 
1529.551088  	0.032105 
1531.479904  	0.030742 
1533.408720  	0.030742 
1535.337536  	0.029075 
1537.266352  	0.025869 
1539.195168  	0.024602 
1541.123984  	0.025750 
1543.052800  	0.024994 
1544.981616  	0.024024 
1546.910432  	0.021721 
1548.839248  	0.020910 
1550.768064  	0.021594 
1552.696880  	0.020366 
1554.625696  	0.020730 
1556.554512  	0.019964 
1558.483328  	0.022189 
1560.412144  	0.026907 
1562.340960  	0.025145 
1564.269776  	0.025691 
1566.198592  	0.028000 
1568.127408  	0.029130 
1570.056224  	0.033992 
1571.985040  	0.036019 
1573.913856  	0.036136 
1575.842672  	0.038699 
1577.771488  	0.042336 
1579.700304  	0.041014 
1581.629120  	0.040304 
1583.557936  	0.039894 
1585.486752  	0.040321 
1587.415568  	0.041307 
1589.344384  	0.043552 
1591.273200  	0.046314 
1593.202016  	0.049943 
1595.130832  	0.054079 
1597.059648  	0.058348 
1598.988464  	0.061718 
1600.917280  	0.065248 
1602.846096  	0.068197 
1604.774912  	0.070191 
1606.703728  	0.070876 
1608.632544  	0.071598 
1610.561360  	0.071091 
1612.490176  	0.069989 
1614.418992  	0.067754 
1616.347808  	0.068968 
1618.276624  	0.071760 
1620.205440  	0.071422 
1622.134256  	0.072180 
1624.063072  	0.077544 
1625.991888  	0.080084 
1627.920704  	0.084643 
1629.849520  	0.089657 
1631.778336  	0.092477 
1633.707152  	0.094197 
1635.635968  	0.102783 
1637.564784  	0.111713 
1639.493600  	0.112669 
1641.422416  	0.114493 
1643.351232  	0.115392 
1645.280048  	0.115402 
1647.208864  	0.122169 
1649.137680  	0.122545 
1651.066496  	0.116797 
1652.995312  	0.119909 
1654.924128  	0.127897 
1656.852944  	0.122324 
1658.781760  	0.119333 
1660.710576  	0.117053 
1662.639392  	0.116908 
1664.568208  	0.115582 
1666.497024  	0.111135 
1668.425840  	0.107991 
1670.354656  	0.107168 
1672.283472  	0.103776 
1674.212288  	0.100184 
1676.141104  	0.099940 
1678.069920  	0.097047 
1679.998736  	0.095393 
1681.927552  	0.092798 
1683.856368  	0.093134 
1685.785184  	0.096556 
1687.714000  	0.093277 
1689.642816  	0.092721 
1691.571632  	0.091642 
1693.500448  	0.088986 
1695.429264  	0.089061 
1697.358080  	0.091032 
1699.286896  	0.088302 
1701.215712  	0.091568 
1703.144528  	0.087924 
1705.073344  	0.085967 
1707.002160  	0.085108 
1708.930976  	0.081907 
1710.859792  	0.078262 
1712.788608  	0.074078 
1714.717424  	0.069345 
1716.646240  	0.064424 
1718.575056  	0.058073 
1720.503872  	0.050471 
1722.432688  	0.043801 
1724.361504  	0.037326 
1726.290320  	0.031280 
1728.219136  	0.026519 
1730.147952  	0.022636 
1732.076768  	0.018638 
1734.005584  	0.016297 
1735.934400  	0.013429 
1737.863216  	0.010862 
1739.792032  	0.009143 
1741.720848  	0.007730 
1743.649664  	0.007162 
1745.578480  	0.005820 
1747.507296  	0.004614 
1749.436112  	0.004698 
1751.364928  	0.004216 
1753.293744  	0.002475 
1755.222560  	0.001325 
1757.151376  	0.001858 
1759.080192  	0.001202 
1761.009008  	0.000926 
1762.937824  	0.000857 
1764.866640  	0.000077 
1766.795456  	-0.000163 
1768.724272  	-0.000012 
1770.653088  	-0.000993 
1772.581904  	-0.000084 
1774.510720  	0.000023 
1776.439536  	-0.000629 
1778.368352  	-0.001595 
1780.297168  	-0.001512 
1782.225984  	-0.001817 
1784.154800  	-0.001901 
1786.083616  	-0.002196 
1788.012432  	-0.002685 
1789.941248  	-0.002459 
1791.870064  	-0.001531 
1793.798880  	-0.001742 
1795.727696  	-0.002354 
1797.656512  	-0.003134 
1799.585328  	-0.003165 
1801.514144  	-0.002371 
1803.442960  	-0.002620 
1805.371776  	-0.003122 
1807.300592  	-0.003329 
1809.229408  	-0.003588 
1811.158224  	-0.003420 
1813.087040  	-0.003769 
1815.015856  	-0.004369 
1816.944672  	-0.004001 
1818.873488  	-0.003682 
1820.802304  	-0.003802 
1822.731120  	-0.003772 
1824.659936  	-0.003748 
1826.588752  	-0.003910 
1828.517568  	-0.004365 
1830.446384  	-0.003838 
1832.375200  	-0.004332 
1834.304016  	-0.004476 
1836.232832  	-0.004300 
1838.161648  	-0.004155 
1840.090464  	-0.004481 
1842.019280  	-0.005023 
1843.948096  	-0.004717 
1845.876912  	-0.004069 
1847.805728  	-0.004458 
1849.734544  	-0.004752 
1851.663360  	-0.004902 
1853.592176  	-0.004665 
1855.520992  	-0.004744 
1857.449808  	-0.004759 
1859.378624  	-0.005072 
1861.307440  	-0.004831 
1863.236256  	-0.005141 
1865.165072  	-0.005617 
1867.093888  	-0.005738 
1869.022704  	-0.004453 
1870.951520  	-0.004258 
1872.880336  	-0.004795 
1874.809152  	-0.005295 
1876.737968  	-0.005589 
1878.666784  	-0.005822 
1880.595600  	-0.006067 
1882.524416  	-0.005851 
1884.453232  	-0.005535 
1886.382048  	-0.005928 
1888.310864  	-0.005604 
1890.239680  	-0.005095 
1892.168496  	-0.004990 
1894.097312  	-0.005226 
1896.026128  	-0.005588 
1897.954944  	-0.005837 
1899.883760  	-0.005657 
1901.812576  	-0.005581 
1903.741392  	-0.005505 
1905.670208  	-0.005927 
1907.599024  	-0.006167 
1909.527840  	-0.005944 
1911.456656  	-0.005257 
1913.385472  	-0.005132 
1915.314288  	-0.005515 
1917.243104  	-0.005898 
1919.171920  	-0.005441 
1921.100736  	-0.005460 
1923.029552  	-0.005350 
1924.958368  	-0.006261 
1926.887184  	-0.006378 
1928.816000  	-0.006739 
1930.744816  	-0.006806 
1932.673632  	-0.006803 
1934.602448  	-0.006312 
1936.531264  	-0.006143 
1938.460080  	-0.005475 
1940.388896  	-0.005657 
1942.317712  	-0.005673 
1944.246528  	-0.006171 
1946.175344  	-0.005951 
1948.104160  	-0.005845 
1950.032976  	-0.006034 
1951.961792  	-0.006677 
1953.890608  	-0.007114 
1955.819424  	-0.006970 
1957.748240  	-0.006992 
1959.677056  	-0.007500 
1961.605872  	-0.006916 
1963.534688  	-0.006411 
1965.463504  	-0.005860 
1967.392320  	-0.006006 
1969.321136  	-0.006407 
1971.249952  	-0.007344 
1973.178768  	-0.006793 
1975.107584  	-0.005717 
1977.036400  	-0.003936 
1978.965216  	-0.003675 
1980.894032  	-0.004691 
1982.822848  	-0.005402 
1984.751664  	-0.005190 
1986.680480  	-0.004759 
1988.609296  	-0.004635 
1990.538112  	-0.004934 
1992.466928  	-0.004050 
1994.395744  	-0.005658 
1996.324560  	-0.006273 
1998.253376  	-0.005425 
2000.182192  	-0.005368 
2002.111008  	-0.006080 
2004.039824  	-0.005868 
2005.968640  	-0.005923 
2007.897456  	-0.005734 
2009.826272  	-0.006634 
2011.755088  	-0.006535 
2013.683904  	-0.006146 
2015.612720  	-0.005707 
2017.541536  	-0.005884 
2019.470352  	-0.005731 
2021.399168  	-0.006415 
2023.327984  	-0.005953 
2025.256800  	-0.005124 
2027.185616  	-0.004238 
2029.114432  	-0.003752 
2031.043248  	-0.004575 
2032.972064  	-0.005270 
2034.900880  	-0.003890 
2036.829696  	-0.003484 
2038.758512  	-0.003512 
2040.687328  	-0.004490 
2042.616144  	-0.004550 
2044.544960  	-0.004552 
2046.473776  	-0.004065 
2048.402592  	-0.003278 
2050.331408  	-0.002619 
2052.260224  	-0.002845 
2054.189040  	-0.003335 
2056.117856  	-0.004598 
2058.046672  	-0.004312 
2059.975488  	-0.003579 
2061.904304  	-0.003099 
2063.833120  	-0.003153 
2065.761936  	-0.003309 
2067.690752  	-0.003645 
2069.619568  	-0.003538 
2071.548384  	-0.003567 
2073.477200  	-0.003275 
2075.406016  	-0.003071 
2077.334832  	-0.002842 
2079.263648  	-0.002536 
2081.192464  	-0.002178 
2083.121280  	-0.002254 
2085.050096  	-0.002928 
2086.978912  	-0.003577 
2088.907728  	-0.003160 
2090.836544  	-0.002611 
2092.765360  	-0.002838 
2094.694176  	-0.002797 
2096.622992  	-0.002450 
2098.551808  	-0.002595 
2100.480624  	-0.002519 
2102.409440  	-0.002566 
2104.338256  	-0.002546 
2106.267072  	-0.002809 
2108.195888  	-0.002872 
2110.124704  	-0.002702 
2112.053520  	-0.002471 
2113.982336  	-0.002374 
2115.911152  	-0.002492 
2117.839968  	-0.002715 
2119.768784  	-0.002458 
2121.697600  	-0.002502 
2123.626416  	-0.002932 
2125.555232  	-0.003236 
2127.484048  	-0.003188 
2129.412864  	-0.003000 
2131.341680  	-0.002644 
2133.270496  	-0.002337 
2135.199312  	-0.002266 
2137.128128  	-0.002456 
2139.056944  	-0.002321 
2140.985760  	-0.002312 
2142.914576  	-0.002239 
2144.843392  	-0.002839 
2146.772208  	-0.002388 
2148.701024  	-0.002210 
2150.629840  	-0.002639 
2152.558656  	-0.003015 
2154.487472  	-0.002856 
2156.416288  	-0.002525 
2158.345104  	-0.000073 
2160.273920  	0.002193 
2162.202736  	0.001750 
2164.131552  	-0.000050 
2166.060368  	-0.000082 
2167.989184  	-0.000961 
2169.918000  	-0.001402 
2171.846816  	-0.001146 
2173.775632  	-0.000795 
2175.704448  	-0.001134 
2177.633264  	-0.001250 
2179.562080  	-0.002332 
2181.490896  	-0.001978 
2183.419712  	-0.000984 
2185.348528  	-0.001077 
2187.277344  	-0.001476 
2189.206160  	-0.001508 
2191.134976  	-0.001651 
2193.063792  	-0.001798 
2194.992608  	-0.002225 
2196.921424  	-0.002309 
2198.850240  	-0.002610 
2200.779056  	-0.002632 
2202.707872  	-0.002729 
2204.636688  	-0.001961 
2206.565504  	-0.002140 
2208.494320  	-0.003087 
2210.423136  	-0.002773 
2212.351952  	-0.001874 
2214.280768  	-0.002323 
2216.209584  	-0.002343 
2218.138400  	-0.002810 
2220.067216  	-0.002871 
2221.996032  	-0.002628 
2223.924848  	-0.002419 
2225.853664  	-0.002454 
2227.782480  	-0.002181 
2229.711296  	-0.002557 
2231.640112  	-0.002952 
2233.568928  	-0.003145 
2235.497744  	-0.002801 
2237.426560  	-0.002269 
2239.355376  	-0.002424 
2241.284192  	-0.003562 
2243.213008  	-0.003924 
2245.141824  	-0.003416 
2247.070640  	-0.003280 
2248.999456  	-0.003269 
2250.928272  	-0.003113 
2252.857088  	-0.003424 
2254.785904  	-0.003023 
2256.714720  	-0.002399 
2258.643536  	-0.002204 
2260.572352  	-0.002145 
2262.501168  	-0.002157 
2264.429984  	-0.002093 
2266.358800  	-0.002122 
2268.287616  	-0.002276 
2270.216432  	-0.002343 
2272.145248  	-0.002172 
2274.074064  	-0.001787 
2276.002880  	-0.001916 
2277.931696  	-0.001811 
2279.860512  	-0.001885 
2281.789328  	-0.001714 
2283.718144  	-0.001735 
2285.646960  	-0.001659 
2287.575776  	-0.001528 
2289.504592  	-0.001378 
2291.433408  	-0.001257 
2293.362224  	-0.001138 
2295.291040  	-0.001207 
2297.219856  	-0.001018 
2299.148672  	-0.000892 
2301.077488  	-0.000700 
2303.006304  	-0.000145 
2304.935120  	0.000414 
2306.863936  	0.000398 
2308.792752  	0.000406 
2310.721568  	0.000473 
2312.650384  	0.000269 
2314.579200  	-0.000070 
2316.508016  	0.000093 
2318.436832  	0.000359 
2320.365648  	0.000636 
2322.294464  	0.000764 
2324.223280  	0.000380 
2326.152096  	-0.001090 
2328.080912  	-0.002208 
2330.009728  	-0.002328 
2331.938544  	-0.002325 
2333.867360  	-0.002797 
2335.796176  	-0.003003 
2337.724992  	-0.003413 
2339.653808  	-0.003761 
2341.582624  	-0.003436 
2343.511440  	-0.002276 
2345.440256  	-0.000971 
2347.369072  	-0.000675 
2349.297888  	-0.001370 
2351.226704  	-0.002542 
2353.155520  	-0.003761 
2355.084336  	-0.004053 
2357.013152  	-0.003914 
2358.941968  	-0.003967 
2360.870784  	-0.004110 
2362.799600  	-0.003886 
2364.728416  	-0.003154 
2366.657232  	-0.002363 
2368.586048  	-0.002310 
2370.514864  	-0.001803 
2372.443680  	-0.001273 
2374.372496  	-0.000559 
2376.301312  	-0.000149 
2378.230128  	-0.000024 
2380.158944  	-0.000287 
2382.087760  	-0.000689 
2384.016576  	-0.001391 
2385.945392  	-0.001973 
2387.874208  	-0.002196 
2389.803024  	-0.002372 
2391.731840  	-0.002571 
2393.660656  	-0.002572 
2395.589472  	-0.002458 
2397.518288  	-0.002362 
2399.447104  	-0.002367 
2401.375920  	-0.002538 
2403.304736  	-0.002827 
2405.233552  	-0.002797 
2407.162368  	-0.002724 
2409.091184  	-0.002595 
2411.020000  	-0.002560 
2412.948816  	-0.002717 
2414.877632  	-0.002708 
2416.806448  	-0.002389 
2418.735264  	-0.002349 
2420.664080  	-0.002504 
2422.592896  	-0.002592 
2424.521712  	-0.002522 
2426.450528  	-0.002444 
2428.379344  	-0.002535 
2430.308160  	-0.002527 
2432.236976  	-0.002396 
2434.165792  	-0.001996 
2436.094608  	-0.001814 
2438.023424  	-0.001989 
2439.952240  	-0.001871 
2441.881056  	-0.001958 
2443.809872  	-0.002129 
2445.738688  	-0.002027 
2447.667504  	-0.001828 
2449.596320  	-0.001515 
2451.525136  	-0.001323 
2453.453952  	-0.001364 
2455.382768  	-0.001241 
2457.311584  	-0.001374 
2459.240400  	-0.001671 
2461.169216  	-0.001538 
2463.098032  	-0.001259 
2465.026848  	-0.001338 
2466.955664  	-0.001500 
2468.884480  	-0.001777 
2470.813296  	-0.001716 
2472.742112  	-0.001486 
2474.670928  	-0.001272 
2476.599744  	-0.000994 
2478.528560  	-0.000820 
2480.457376  	-0.000664 
2482.386192  	-0.000459 
2484.315008  	-0.000588 
2486.243824  	-0.000720 
2488.172640  	-0.000506 
2490.101456  	-0.000130 
2492.030272  	0.000051 
2493.959088  	-0.000165 
2495.887904  	-0.000506 
2497.816720  	-0.000301 
2499.745536  	-0.000149 
2501.674352  	-0.000146 
2503.603168  	-0.000103 
2505.531984  	-0.000025 
2507.460800  	-0.000129 
2509.389616  	-0.000424 
2511.318432  	-0.000371 
2513.247248  	-0.000146 
2515.176064  	-0.000089 
2517.104880  	-0.000038 
2519.033696  	-0.000057 
2520.962512  	0.000001 
2522.891328  	0.000203 
2524.820144  	0.000485 
2526.748960  	0.000567 
2528.677776  	0.000566 
2530.606592  	0.000464 
2532.535408  	0.000663 
2534.464224  	0.000763 
2536.393040  	0.000629 
2538.321856  	0.000630 
2540.250672  	0.000808 
2542.179488  	0.000939 
2544.108304  	0.001086 
2546.037120  	0.001311 
2547.965936  	0.001505 
2549.894752  	0.001510 
2551.823568  	0.001542 
2553.752384  	0.001670 
2555.681200  	0.001695 
2557.610016  	0.001576 
2559.538832  	0.001754 
2561.467648  	0.001855 
2563.396464  	0.001959 
2565.325280  	0.001991 
2567.254096  	0.001984 
2569.182912  	0.001879 
2571.111728  	0.001890 
2573.040544  	0.002116 
2574.969360  	0.002432 
2576.898176  	0.002539 
2578.826992  	0.002428 
2580.755808  	0.002322 
2582.684624  	0.002535 
2584.613440  	0.002805 
2586.542256  	0.003094 
2588.471072  	0.002930 
2590.399888  	0.002784 
2592.328704  	0.002957 
2594.257520  	0.003162 
2596.186336  	0.003039 
2598.115152  	0.002992 
2600.043968  	0.003256 
2601.972784  	0.003289 
2603.901600  	0.003370 
2605.830416  	0.003340 
2607.759232  	0.003293 
2609.688048  	0.003397 
2611.616864  	0.003637 
2613.545680  	0.003855 
2615.474496  	0.003829 
2617.403312  	0.004035 
2619.332128  	0.004289 
2621.260944  	0.004287 
2623.189760  	0.004272 
2625.118576  	0.004420 
2627.047392  	0.004422 
2628.976208  	0.004528 
2630.905024  	0.004695 
2632.833840  	0.004631 
2634.762656  	0.004686 
2636.691472  	0.004947 
2638.620288  	0.005009 
2640.549104  	0.005087 
2642.477920  	0.005283 
2644.406736  	0.005356 
2646.335552  	0.005388 
2648.264368  	0.005502 
2650.193184  	0.005662 
2652.122000  	0.005764 
2654.050816  	0.005795 
2655.979632  	0.005883 
2657.908448  	0.005983 
2659.837264  	0.006031 
2661.766080  	0.006050 
2663.694896  	0.006091 
2665.623712  	0.006209 
2667.552528  	0.006342 
2669.481344  	0.006360 
2671.410160  	0.006360 
2673.338976  	0.006466 
2675.267792  	0.006561 
2677.196608  	0.006752 
2679.125424  	0.006979 
2681.054240  	0.007116 
2682.983056  	0.007168 
2684.911872  	0.007204 
2686.840688  	0.007245 
2688.769504  	0.007297 
2690.698320  	0.007392 
2692.627136  	0.007455 
2694.555952  	0.007545 
2696.484768  	0.007634 
2698.413584  	0.007619 
2700.342400  	0.007598 
2702.271216  	0.007800 
2704.200032  	0.008011 
2706.128848  	0.008085 
2708.057664  	0.008225 
2709.986480  	0.008328 
2711.915296  	0.008350 
2713.844112  	0.008453 
2715.772928  	0.008576 
2717.701744  	0.008662 
2719.630560  	0.008764 
2721.559376  	0.008866 
2723.488192  	0.008985 
2725.417008  	0.009142 
2727.345824  	0.009219 
2729.274640  	0.009377 
2731.203456  	0.009479 
2733.132272  	0.009499 
2735.061088  	0.009586 
2736.989904  	0.009562 
2738.918720  	0.009661 
2740.847536  	0.009831 
2742.776352  	0.009974 
2744.705168  	0.010032 
2746.633984  	0.010087 
2748.562800  	0.010238 
2750.491616  	0.010290 
2752.420432  	0.010327 
2754.349248  	0.010285 
2756.278064  	0.010316 
2758.206880  	0.010317 
2760.135696  	0.010313 
2762.064512  	0.010298 
2763.993328  	0.010332 
2765.922144  	0.010365 
2767.850960  	0.010387 
2769.779776  	0.010423 
2771.708592  	0.010455 
2773.637408  	0.010401 
2775.566224  	0.010368 
2777.495040  	0.010366 
2779.423856  	0.010445 
2781.352672  	0.010547 
2783.281488  	0.010576 
2785.210304  	0.010640 
2787.139120  	0.010676 
2789.067936  	0.010658 
2790.996752  	0.010667 
2792.925568  	0.010671 
2794.854384  	0.010622 
2796.783200  	0.010573 
2798.712016  	0.010576 
2800.640832  	0.010651 
2802.569648  	0.010802 
2804.498464  	0.010799 
2806.427280  	0.010835 
2808.356096  	0.011031 
2810.284912  	0.011000 
2812.213728  	0.010829 
2814.142544  	0.010857 
2816.071360  	0.010892 
2818.000176  	0.010971 
2819.928992  	0.011057 
2821.857808  	0.010985 
2823.786624  	0.010872 
2825.715440  	0.010899 
2827.644256  	0.010935 
2829.573072  	0.010960 
2831.501888  	0.011021 
2833.430704  	0.011053 
2835.359520  	0.011006 
2837.288336  	0.010929 
2839.217152  	0.010912 
2841.145968  	0.010904 
2843.074784  	0.010894 
2845.003600  	0.010930 
2846.932416  	0.010873 
2848.861232  	0.011022 
2850.790048  	0.011089 
2852.718864  	0.011071 
2854.647680  	0.011082 
2856.576496  	0.011060 
2858.505312  	0.011003 
2860.434128  	0.011033 
2862.362944  	0.011017 
2864.291760  	0.011065 
2866.220576  	0.011103 
2868.149392  	0.011102 
2870.078208  	0.011150 
2872.007024  	0.011391 
2873.935840  	0.011635 
2875.864656  	0.011780 
2877.793472  	0.011919 
2879.722288  	0.012179 
2881.651104  	0.012401 
2883.579920  	0.012606 
2885.508736  	0.012905 
2887.437552  	0.013140 
2889.366368  	0.013116 
2891.295184  	0.013083 
2893.224000  	0.013046 
2895.152816  	0.013129 
2897.081632  	0.013203 
2899.010448  	0.012796 
2900.939264  	0.012354 
2902.868080  	0.012651 
2904.796896  	0.013091 
2906.725712  	0.013290 
2908.654528  	0.013487 
2910.583344  	0.013726 
2912.512160  	0.013904 
2914.440976  	0.014165 
2916.369792  	0.014624 
2918.298608  	0.014913 
2920.227424  	0.015105 
2922.156240  	0.015478 
2924.085056  	0.015938 
2926.013872  	0.016246 
2927.942688  	0.016697 
2929.871504  	0.017345 
2931.800320  	0.017778 
2933.729136  	0.018199 
2935.657952  	0.018759 
2937.586768  	0.019243 
2939.515584  	0.019500 
2941.444400  	0.019630 
2943.373216  	0.019965 
2945.302032  	0.020344 
2947.230848  	0.020453 
2949.159664  	0.020362 
2951.088480  	0.020241 
2953.017296  	0.020138 
2954.946112  	0.020001 
2956.874928  	0.019850 
2958.803744  	0.019735 
2960.732560  	0.019672 
2962.661376  	0.019543 
2964.590192  	0.019198 
2966.519008  	0.018935 
2968.447824  	0.018724 
2970.376640  	0.018597 
2972.305456  	0.018437 
2974.234272  	0.018455 
2976.163088  	0.018497 
2978.091904  	0.018403 
2980.020720  	0.018337 
2981.949536  	0.018252 
2983.878352  	0.018073 
2985.807168  	0.017861 
2987.735984  	0.017854 
2989.664800  	0.017970 
2991.593616  	0.018396 
2993.522432  	0.018631 
2995.451248  	0.018829 
2997.380064  	0.019239 
2999.308880  	0.019630 
3001.237696  	0.020046 
3003.166512  	0.020501 
3005.095328  	0.020725 
3007.024144  	0.021010 
3008.952960  	0.021585 
3010.881776  	0.022054 
3012.810592  	0.022475 
3014.739408  	0.022822 
3016.668224  	0.023159 
3018.597040  	0.023696 
3020.525856  	0.024259 
3022.454672  	0.024649 
3024.383488  	0.025098 
3026.312304  	0.025557 
3028.241120  	0.025770 
3030.169936  	0.026107 
3032.098752  	0.026758 
3034.027568  	0.027045 
3035.956384  	0.027446 
3037.885200  	0.027810 
3039.814016  	0.028162 
3041.742832  	0.028486 
3043.671648  	0.029011 
3045.600464  	0.029491 
3047.529280  	0.029789 
3049.458096  	0.030086 
3051.386912  	0.030296 
3053.315728  	0.030718 
3055.244544  	0.031166 
3057.173360  	0.031677 
3059.102176  	0.032143 
3061.030992  	0.032625 
3062.959808  	0.033152 
3064.888624  	0.033724 
3066.817440  	0.034260 
3068.746256  	0.034857 
3070.675072  	0.035347 
3072.603888  	0.035874 
3074.532704  	0.036403 
3076.461520  	0.036876 
3078.390336  	0.037314 
3080.319152  	0.038044 
3082.247968  	0.038686 
3084.176784  	0.039073 
3086.105600  	0.039738 
3088.034416  	0.040446 
3089.963232  	0.040748 
3091.892048  	0.040945 
3093.820864  	0.041417 
3095.749680  	0.042370 
3097.678496  	0.043053 
3099.607312  	0.043576 
3101.536128  	0.044409 
3103.464944  	0.045050 
3105.393760  	0.045400 
3107.322576  	0.045887 
3109.251392  	0.046379 
3111.180208  	0.046835 
3113.109024  	0.047250 
3115.037840  	0.047941 
3116.966656  	0.048589 
3118.895472  	0.048969 
3120.824288  	0.049487 
3122.753104  	0.050133 
3124.681920  	0.050447 
3126.610736  	0.050766 
3128.539552  	0.051223 
3130.468368  	0.051440 
3132.397184  	0.051999 
3134.326000  	0.052546 
3136.254816  	0.052874 
3138.183632  	0.053320 
3140.112448  	0.053710 
3142.041264  	0.054347 
3143.970080  	0.054923 
3145.898896  	0.055339 
3147.827712  	0.055827 
3149.756528  	0.056405 
3151.685344  	0.056760 
3153.614160  	0.057129 
3155.542976  	0.057589 
3157.471792  	0.058132 
3159.400608  	0.058742 
3161.329424  	0.059148 
3163.258240  	0.059649 
3165.187056  	0.060143 
3167.115872  	0.060494 
3169.044688  	0.060780 
3170.973504  	0.061048 
3172.902320  	0.061244 
3174.831136  	0.061611 
3176.759952  	0.062067 
3178.688768  	0.062528 
3180.617584  	0.062708 
3182.546400  	0.062957 
3184.475216  	0.063104 
3186.404032  	0.063307 
3188.332848  	0.063540 
3190.261664  	0.063657 
3192.190480  	0.063788 
3194.119296  	0.063937 
3196.048112  	0.063949 
3197.976928  	0.064289 
3199.905744  	0.064404 
3201.834560  	0.064283 
3203.763376  	0.064190 
3205.692192  	0.064017 
3207.621008  	0.063971 
3209.549824  	0.064151 
3211.478640  	0.064188 
3213.407456  	0.064100 
3215.336272  	0.064144 
3217.265088  	0.063986 
3219.193904  	0.064148 
3221.122720  	0.064309 
3223.051536  	0.063958 
3224.980352  	0.063638 
3226.909168  	0.063641 
3228.837984  	0.063449 
3230.766800  	0.063260 
3232.695616  	0.063467 
3234.624432  	0.063548 
3236.553248  	0.063839 
3238.482064  	0.064011 
3240.410880  	0.063888 
3242.339696  	0.063733 
3244.268512  	0.063740 
3246.197328  	0.063873 
3248.126144  	0.063827 
3250.054960  	0.063936 
3251.983776  	0.064010 
3253.912592  	0.064419 
3255.841408  	0.064685 
3257.770224  	0.064682 
3259.699040  	0.064824 
3261.627856  	0.064998 
3263.556672  	0.065009 
3265.485488  	0.065283 
3267.414304  	0.065423 
3269.343120  	0.065508 
3271.271936  	0.065601 
3273.200752  	0.065876 
3275.129568  	0.066063 
3277.058384  	0.066220 
3278.987200  	0.066262 
3280.916016  	0.066302 
3282.844832  	0.066312 
3284.773648  	0.066425 
3286.702464  	0.066746 
3288.631280  	0.067055 
3290.560096  	0.067270 
3292.488912  	0.067289 
3294.417728  	0.067333 
3296.346544  	0.067606 
3298.275360  	0.067905 
3300.204176  	0.067988 
3302.132992  	0.067988 
3304.061808  	0.068301 
3305.990624  	0.068405 
3307.919440  	0.068680 
3309.848256  	0.069161 
3311.777072  	0.069349 
3313.705888  	0.069524 
3315.634704  	0.069868 
3317.563520  	0.070137 
3319.492336  	0.070390 
3321.421152  	0.070655 
3323.349968  	0.070745 
3325.278784  	0.070867 
3327.207600  	0.071086 
3329.136416  	0.070985 
3331.065232  	0.070784 
3332.994048  	0.070847 
3334.922864  	0.071134 
3336.851680  	0.071403 
3338.780496  	0.071378 
3340.709312  	0.071116 
3342.638128  	0.071181 
3344.566944  	0.071108 
3346.495760  	0.070812 
3348.424576  	0.070538 
3350.353392  	0.070404 
3352.282208  	0.070275 
3354.211024  	0.069994 
3356.139840  	0.069789 
3358.068656  	0.069775 
3359.997472  	0.069625 
3361.926288  	0.069331 
3363.855104  	0.069091 
3365.783920  	0.069158 
3367.712736  	0.068899 
3369.641552  	0.068456 
3371.570368  	0.068197 
3373.499184  	0.068133 
3375.428000  	0.067947 
3377.356816  	0.067850 
3379.285632  	0.067699 
3381.214448  	0.067368 
3383.143264  	0.067063 
3385.072080  	0.067078 
3387.000896  	0.066640 
3388.929712  	0.066078 
3390.858528  	0.065777 
3392.787344  	0.066127 
3394.716160  	0.065916 
3396.644976  	0.065609 
3398.573792  	0.065296 
3400.502608  	0.064516 
3402.431424  	0.063950 
3404.360240  	0.063723 
3406.289056  	0.063292 
3408.217872  	0.062924 
3410.146688  	0.062575 
3412.075504  	0.062082 
3414.004320  	0.061769 
3415.933136  	0.061554 
3417.861952  	0.061183 
3419.790768  	0.061116 
3421.719584  	0.061194 
3423.648400  	0.060679 
3425.577216  	0.059906 
3427.506032  	0.059389 
3429.434848  	0.058935 
3431.363664  	0.058787 
3433.292480  	0.058584 
3435.221296  	0.058092 
3437.150112  	0.057410 
3439.078928  	0.056925 
3441.007744  	0.056408 
3442.936560  	0.056135 
3444.865376  	0.055369 
3446.794192  	0.055646 
3448.723008  	0.055886 
3450.651824  	0.054760 
3452.580640  	0.053939 
3454.509456  	0.053281 
3456.438272  	0.052789 
3458.367088  	0.052309 
3460.295904  	0.051868 
3462.224720  	0.051503 
3464.153536  	0.050759 
3466.082352  	0.049953 
3468.011168  	0.049624 
3469.939984  	0.048949 
3471.868800  	0.048200 
3473.797616  	0.047591 
3475.726432  	0.047284 
3477.655248  	0.046596 
3479.584064  	0.045802 
3481.512880  	0.045654 
3483.441696  	0.045226 
3485.370512  	0.044054 
3487.299328  	0.043415 
3489.228144  	0.042964 
3491.156960  	0.042084 
3493.085776  	0.041244 
3495.014592  	0.040878 
3496.943408  	0.040688 
3498.872224  	0.039757 
3500.801040  	0.039090 
3502.729856  	0.039465 
3504.658672  	0.039272 
3506.587488  	0.037788 
3508.516304  	0.037145 
3510.445120  	0.037284 
3512.373936  	0.036580 
3514.302752  	0.035817 
3516.231568  	0.034986 
3518.160384  	0.034453 
3520.089200  	0.033757 
3522.018016  	0.033265 
3523.946832  	0.033741 
3525.875648  	0.033123 
3527.804464  	0.032607 
3529.733280  	0.032166 
3531.662096  	0.031127 
3533.590912  	0.029892 
3535.519728  	0.029682 
3537.448544  	0.029779 
3539.377360  	0.028813 
3541.306176  	0.027808 
3543.234992  	0.027400 
3545.163808  	0.028109 
3547.092624  	0.028354 
3549.021440  	0.026753 
3550.950256  	0.025580 
3552.879072  	0.026052 
3554.807888  	0.025118 
3556.736704  	0.023813 
3558.665520  	0.023575 
3560.594336  	0.023420 
3562.523152  	0.022318 
3564.451968  	0.021507 
3566.380784  	0.023369 
3568.309600  	0.025013 
3570.238416  	0.022112 
3572.167232  	0.020002 
3574.096048  	0.019456 
3576.024864  	0.018935 
3577.953680  	0.018291 
3579.882496  	0.017957 
3581.811312  	0.017203 
3583.740128  	0.015958 
3585.668944  	0.015320 
3587.597760  	0.017777 
3589.526576  	0.017245 
3591.455392  	0.014282 
3593.384208  	0.013704 
3595.313024  	0.014325 
3597.241840  	0.013420 
3599.170656  	0.011980 
3601.099472  	0.011897 
3603.028288  	0.010948 
3604.957104  	0.009343 
3606.885920  	0.009515 
3608.814736  	0.010549 
3610.743552  	0.008824 
3612.672368  	0.008330 
3614.601184  	0.008470 
3616.530000  	0.006656 
3618.458816  	0.006991 
3620.387632  	0.007873 
3622.316448  	0.005899 
3624.245264  	0.003812 
3626.174080  	0.002089 
3628.102896  	0.003040 
3630.031712  	0.006275 
3631.960528  	0.003243 
3633.889344  	0.002084 
3635.818160  	0.001251 
3637.746976  	0.000247 
3639.675792  	-0.000348 
3641.604608  	-0.000788 
3643.533424  	-0.001694 
3645.462240  	-0.003201 
3647.391056  	-0.002345 
3649.319872  	-0.000263 
3651.248688  	0.000353 
3653.177504  	-0.003520 
3655.106320  	-0.005464 
3657.035136  	-0.004288 
3658.963952  	-0.005057 
3660.892768  	-0.005799 
3662.821584  	-0.006496 
3664.750400  	-0.007205 
3666.679216  	-0.008183 
3668.608032  	-0.008606 
3670.536848  	-0.006471 
3672.465664  	-0.008087 
3674.394480  	-0.009028 
3676.323296  	-0.005332 
3678.252112  	-0.006763 
3680.180928  	-0.007699 
3682.109744  	-0.008448 
3684.038560  	-0.008967 
3685.967376  	-0.010067 
3687.896192  	-0.009614 
3689.825008  	-0.007435 
3691.753824  	-0.007198 
3693.682640  	-0.008208 
3695.611456  	-0.008846 
3697.540272  	-0.008983 
3699.469088  	-0.009963 
3701.397904  	-0.009255 
3703.326720  	-0.008299 
3705.255536  	-0.009011 
3707.184352  	-0.009713 
3709.113168  	-0.009715 
3711.041984  	-0.008188 
3712.970800  	-0.006962 
3714.899616  	-0.008161 
3716.828432  	-0.009236 
3718.757248  	-0.009274 
3720.686064  	-0.009247 
3722.614880  	-0.008676 
3724.543696  	-0.008581 
3726.472512  	-0.007784 
3728.401328  	-0.008757 
3730.330144  	-0.010785 
3732.258960  	-0.010719 
3734.187776  	-0.009067 
3736.116592  	-0.006247 
3738.045408  	-0.007229 
3739.974224  	-0.008666 
3741.903040  	-0.010142 
3743.831856  	-0.009705 
3745.760672  	-0.007548 
3747.689488  	-0.009952 
3749.618304  	-0.008968 
3751.547120  	-0.006028 
3753.475936  	-0.006484 
3755.404752  	-0.008794 
3757.333568  	-0.009128 
3759.262384  	-0.008209 
3761.191200  	-0.008118 
3763.120016  	-0.009544 
3765.048832  	-0.008910 
3766.977648  	-0.008771 
3768.906464  	-0.008815 
3770.835280  	-0.007682 
3772.764096  	-0.008510 
3774.692912  	-0.009373 
3776.621728  	-0.009815 
3778.550544  	-0.009219 
3780.479360  	-0.008184 
3782.408176  	-0.009139 
3784.336992  	-0.009006 
3786.265808  	-0.008582 
3788.194624  	-0.008928 
3790.123440  	-0.009106 
3792.052256  	-0.009370 
3793.981072  	-0.010171 
3795.909888  	-0.009316 
3797.838704  	-0.008593 
3799.767520  	-0.009821 
3801.696336  	-0.007170 
3803.625152  	-0.007777 
3805.553968  	-0.009651 
3807.482784  	-0.007875 
3809.411600  	-0.008294 
3811.340416  	-0.009349 
3813.269232  	-0.010480 
3815.198048  	-0.009705 
3817.126864  	-0.008009 
3819.055680  	-0.009920 
3820.984496  	-0.007988 
3822.913312  	-0.006852 
3824.842128  	-0.008916 
3826.770944  	-0.008767 
3828.699760  	-0.009241 
3830.628576  	-0.009647 
3832.557392  	-0.009410 
3834.486208  	-0.010052 
3836.415024  	-0.010062 
3838.343840  	-0.008360 
3840.272656  	-0.007243 
3842.201472  	-0.007826 
3844.130288  	-0.007639 
3846.059104  	-0.008473 
3847.987920  	-0.009698 
3849.916736  	-0.010785 
3851.845552  	-0.010894 
3853.774368  	-0.005617 
3855.703184  	-0.005446 
3857.632000  	-0.007328 
3859.560816  	-0.008913 
3861.489632  	-0.009406 
3863.418448  	-0.008723 
3865.347264  	-0.007176 
3867.276080  	-0.008797 
3869.204896  	-0.008263 
3871.133712  	-0.006257 
3873.062528  	-0.007814 
3874.991344  	-0.007463 
3876.920160  	-0.009203 
3878.848976  	-0.009638 
3880.777792  	-0.007324 
3882.706608  	-0.007724 
3884.635424  	-0.008405 
3886.564240  	-0.007253 
3888.493056  	-0.009334 
3890.421872  	-0.009401 
3892.350688  	-0.007726 
3894.279504  	-0.008321 
3896.208320  	-0.009638 
3898.137136  	-0.009463 
3900.065952  	-0.008105 
3901.994768  	-0.007790 
3903.923584  	-0.006895 
3905.852400  	-0.006873 
3907.781216  	-0.008373 
3909.710032  	-0.009281 
3911.638848  	-0.009506 
3913.567664  	-0.009677 
3915.496480  	-0.009224 
3917.425296  	-0.007787 
3919.354112  	-0.007948 
3921.282928  	-0.008433 
3923.211744  	-0.008362 
3925.140560  	-0.007641 
3927.069376  	-0.008522 
3928.998192  	-0.008961 
3930.927008  	-0.008378 
3932.855824  	-0.007889 
3934.784640  	-0.008365 
3936.713456  	-0.008923 
3938.642272  	-0.009258 
3940.571088  	-0.009433 
3942.499904  	-0.008241 
3944.428720  	-0.008141 
3946.357536  	-0.008968 
3948.286352  	-0.008335 
3950.215168  	-0.008392 
3952.143984  	-0.009063 
3954.072800  	-0.009379 
3956.001616  	-0.009172 
3957.930432  	-0.008846 
3959.859248  	-0.008637 
3961.788064  	-0.008439 
3963.716880  	-0.008669 
3965.645696  	-0.009149 
3967.574512  	-0.009292 
3969.503328  	-0.009405 
3971.432144  	-0.009382 
3973.360960  	-0.008911 
3975.289776  	-0.008358 
3977.218592  	-0.008528 
3979.147408  	-0.008985 
3981.076224  	-0.009125 
3983.005040  	-0.009088 
3984.933856  	-0.008878 
3986.862672  	-0.008805 
3988.791488  	-0.009082 
3990.720304  	-0.008932 
3992.649120  	-0.009048 
3994.577936  	-0.008971 
3996.506752  	-0.008948 
3998.435568  	-0.009103 
4000.364384  	-0.009076 