##TITLE=No Description
##DATA TYPE=INFRARED SPECTRUM
##XUNITS=1/CM
##YUNITS=Abs
399.264912  	0.420996 
401.193728  	0.416583 
403.122544  	0.412643 
405.051360  	0.409148 
406.980176  	0.415761 
408.908992  	0.414768 
410.837808  	0.411441 
412.766624  	0.407405 
414.695440  	0.398242 
416.624256  	0.389631 
418.553072  	0.403238 
420.481888  	0.402192 
422.410704  	0.397780 
424.339520  	0.402489 
426.268336  	0.398199 
428.197152  	0.385670 
430.125968  	0.382386 
432.054784  	0.378478 
433.983600  	0.379187 
435.912416  	0.380641 
437.841232  	0.376864 
439.770048  	0.369588 
441.698864  	0.369453 
443.627680  	0.366683 
445.556496  	0.364577 
447.485312  	0.363854 
449.414128  	0.366395 
451.342944  	0.363845 
453.271760  	0.363168 
455.200576  	0.359645 
457.129392  	0.364877 
459.058208  	0.365285 
460.987024  	0.361169 
462.915840  	0.357016 
464.844656  	0.356726 
466.773472  	0.353437 
468.702288  	0.352094 
470.631104  	0.352628 
472.559920  	0.352427 
474.488736  	0.347164 
476.417552  	0.350542 
478.346368  	0.351412 
480.275184  	0.349616 
482.204000  	0.347507 
484.132816  	0.348609 
486.061632  	0.347241 
487.990448  	0.344448 
489.919264  	0.343279 
491.848080  	0.344739 
493.776896  	0.343294 
495.705712  	0.339139 
497.634528  	0.336014 
499.563344  	0.338316 
501.492160  	0.335286 
503.420976  	0.336837 
505.349792  	0.336105 
507.278608  	0.334710 
509.207424  	0.332481 
511.136240  	0.334597 
513.065056  	0.335692 
514.993872  	0.339227 
516.922688  	0.340732 
518.851504  	0.341330 
520.780320  	0.338060 
522.709136  	0.335827 
524.637952  	0.333655 
526.566768  	0.332591 
528.495584  	0.330516 
530.424400  	0.328681 
532.353216  	0.327000 
534.282032  	0.324529 
536.210848  	0.321745 
538.139664  	0.319037 
540.068480  	0.315615 
541.997296  	0.313314 
543.926112  	0.310690 
545.854928  	0.309559 
547.783744  	0.307796 
549.712560  	0.306092 
551.641376  	0.303574 
553.570192  	0.302172 
555.499008  	0.299155 
557.427824  	0.297373 
559.356640  	0.295620 
561.285456  	0.294776 
563.214272  	0.291391 
565.143088  	0.289126 
567.071904  	0.286495 
569.000720  	0.284191 
570.929536  	0.282064 
572.858352  	0.280145 
574.787168  	0.278746 
576.715984  	0.277202 
578.644800  	0.274330 
580.573616  	0.272007 
582.502432  	0.268809 
584.431248  	0.266420 
586.360064  	0.263853 
588.288880  	0.262118 
590.217696  	0.260750 
592.146512  	0.259815 
594.075328  	0.257588 
596.004144  	0.255844 
597.932960  	0.253895 
599.861776  	0.253007 
601.790592  	0.252204 
603.719408  	0.251898 
605.648224  	0.250867 
607.577040  	0.249771 
609.505856  	0.247921 
611.434672  	0.246101 
613.363488  	0.244729 
615.292304  	0.244184 
617.221120  	0.242855 
619.149936  	0.241822 
621.078752  	0.240515 
623.007568  	0.239361 
624.936384  	0.238287 
626.865200  	0.237488 
628.794016  	0.236740 
630.722832  	0.236316 
632.651648  	0.236027 
634.580464  	0.235597 
636.509280  	0.235128 
638.438096  	0.234505 
640.366912  	0.233297 
642.295728  	0.231987 
644.224544  	0.230587 
646.153360  	0.228886 
648.082176  	0.226185 
650.010992  	0.224058 
651.939808  	0.221727 
653.868624  	0.219828 
655.797440  	0.217237 
657.726256  	0.214955 
659.655072  	0.212650 
661.583888  	0.210294 
663.512704  	0.207833 
665.441520  	0.204316 
667.370336  	0.201722 
669.299152  	0.201888 
671.227968  	0.197930 
673.156784  	0.194825 
675.085600  	0.193077 
677.014416  	0.191233 
678.943232  	0.189808 
680.872048  	0.188765 
682.800864  	0.187514 
684.729680  	0.186523 
686.658496  	0.185194 
688.587312  	0.184084 
690.516128  	0.182655 
692.444944  	0.182004 
694.373760  	0.180779 
696.302576  	0.179486 
698.231392  	0.177994 
700.160208  	0.176367 
702.089024  	0.174620 
704.017840  	0.173058 
705.946656  	0.170946 
707.875472  	0.169068 
709.804288  	0.167701 
711.733104  	0.166634 
713.661920  	0.165242 
715.590736  	0.164127 
717.519552  	0.163769 
719.448368  	0.163690 
721.377184  	0.163529 
723.306000  	0.163081 
725.234816  	0.163175 
727.163632  	0.162573 
729.092448  	0.160945 
731.021264  	0.159016 
732.950080  	0.156783 
734.878896  	0.154759 
736.807712  	0.152602 
738.736528  	0.150946 
740.665344  	0.149657 
742.594160  	0.148905 
744.522976  	0.147696 
746.451792  	0.146579 
748.380608  	0.145467 
750.309424  	0.144478 
752.238240  	0.143314 
754.167056  	0.142669 
756.095872  	0.142086 
758.024688  	0.141206 
759.953504  	0.140411 
761.882320  	0.140557 
763.811136  	0.140696 
765.739952  	0.139456 
767.668768  	0.137438 
769.597584  	0.135591 
771.526400  	0.134784 
773.455216  	0.135265 
775.384032  	0.136791 
777.312848  	0.139481 
779.241664  	0.141743 
781.170480  	0.141284 
783.099296  	0.137860 
785.028112  	0.134209 
786.956928  	0.130977 
788.885744  	0.128496 
790.814560  	0.126000 
792.743376  	0.124565 
794.672192  	0.124349 
796.601008  	0.123646 
798.529824  	0.121439 
800.458640  	0.118692 
802.387456  	0.116147 
804.316272  	0.114409 
806.245088  	0.113650 
808.173904  	0.112922 
810.102720  	0.112309 
812.031536  	0.111999 
813.960352  	0.111625 
815.889168  	0.111388 
817.817984  	0.111383 
819.746800  	0.111619 
821.675616  	0.111803 
823.604432  	0.111852 
825.533248  	0.111597 
827.462064  	0.111432 
829.390880  	0.110891 
831.319696  	0.110447 
833.248512  	0.109696 
835.177328  	0.108520 
837.106144  	0.106791 
839.034960  	0.104922 
840.963776  	0.102698 
842.892592  	0.100272 
844.821408  	0.097831 
846.750224  	0.095609 
848.679040  	0.093983 
850.607856  	0.092858 
852.536672  	0.091818 
854.465488  	0.090731 
856.394304  	0.089947 
858.323120  	0.088778 
860.251936  	0.087721 
862.180752  	0.086821 
864.109568  	0.085321 
866.038384  	0.083858 
867.967200  	0.082358 
869.896016  	0.081046 
871.824832  	0.080209 
873.753648  	0.080273 
875.682464  	0.080415 
877.611280  	0.081011 
879.540096  	0.081884 
881.468912  	0.082979 
883.397728  	0.084258 
885.326544  	0.085190 
887.255360  	0.085810 
889.184176  	0.086020 
891.112992  	0.085621 
893.041808  	0.084668 
894.970624  	0.083216 
896.899440  	0.080931 
898.828256  	0.078262 
900.757072  	0.075672 
902.685888  	0.073371 
904.614704  	0.071909 
906.543520  	0.071399 
908.472336  	0.072007 
910.401152  	0.073060 
912.329968  	0.074551 
914.258784  	0.076035 
916.187600  	0.077487 
918.116416  	0.078528 
920.045232  	0.079232 
921.974048  	0.079712 
923.902864  	0.080141 
925.831680  	0.080390 
927.760496  	0.080480 
929.689312  	0.080745 
931.618128  	0.081220 
933.546944  	0.081574 
935.475760  	0.081504 
937.404576  	0.081179 
939.333392  	0.080751 
941.262208  	0.080474 
943.191024  	0.080839 
945.119840  	0.082329 
947.048656  	0.084976 
948.977472  	0.088973 
950.906288  	0.094003 
952.835104  	0.100188 
954.763920  	0.107337 
956.692736  	0.114238 
958.621552  	0.120688 
960.550368  	0.125577 
962.479184  	0.128661 
964.408000  	0.129090 
966.336816  	0.127205 
968.265632  	0.122973 
970.194448  	0.116862 
972.123264  	0.109219 
974.052080  	0.100969 
975.980896  	0.092710 
977.909712  	0.084941 
979.838528  	0.078033 
981.767344  	0.072200 
983.696160  	0.067881 
985.624976  	0.064964 
987.553792  	0.063813 
989.482608  	0.064390 
991.411424  	0.066654 
993.340240  	0.070096 
995.269056  	0.073897 
997.197872  	0.077946 
999.126688  	0.081985 
1001.055504  	0.086351 
1002.984320  	0.090471 
1004.913136  	0.094606 
1006.841952  	0.098450 
1008.770768  	0.102159 
1010.699584  	0.105038 
1012.628400  	0.107314 
1014.557216  	0.109147 
1016.486032  	0.110178 
1018.414848  	0.110693 
1020.343664  	0.110817 
1022.272480  	0.110880 
1024.201296  	0.110640 
1026.130112  	0.110362 
1028.058928  	0.110645 
1029.987744  	0.111725 
1031.916560  	0.112941 
1033.845376  	0.114496 
1035.774192  	0.116753 
1037.703008  	0.119705 
1039.631824  	0.124207 
1041.560640  	0.130041 
1043.489456  	0.137607 
1045.418272  	0.146194 
1047.347088  	0.155143 
1049.275904  	0.162030 
1051.204720  	0.166337 
1053.133536  	0.168301 
1055.062352  	0.168346 
1056.991168  	0.166988 
1058.919984  	0.166161 
1060.848800  	0.165534 
1062.777616  	0.164526 
1064.706432  	0.162927 
1066.635248  	0.161252 
1068.564064  	0.159417 
1070.492880  	0.156472 
1072.421696  	0.152944 
1074.350512  	0.150601 
1076.279328  	0.150010 
1078.208144  	0.151719 
1080.136960  	0.154329 
1082.065776  	0.156529 
1083.994592  	0.157026 
1085.923408  	0.155739 
1087.852224  	0.152003 
1089.781040  	0.147271 
1091.709856  	0.141401 
1093.638672  	0.134731 
1095.567488  	0.126875 
1097.496304  	0.118884 
1099.425120  	0.110921 
1101.353936  	0.103156 
1103.282752  	0.095802 
1105.211568  	0.089001 
1107.140384  	0.082725 
1109.069200  	0.076922 
1110.998016  	0.071607 
1112.926832  	0.066679 
1114.855648  	0.062313 
1116.784464  	0.057972 
1118.713280  	0.053717 
1120.642096  	0.049733 
1122.570912  	0.046086 
1124.499728  	0.042721 
1126.428544  	0.039780 
1128.357360  	0.037124 
1130.286176  	0.034908 
1132.214992  	0.033200 
1134.143808  	0.031778 
1136.072624  	0.030683 
1138.001440  	0.029572 
1139.930256  	0.028597 
1141.859072  	0.027640 
1143.787888  	0.026673 
1145.716704  	0.025895 
1147.645520  	0.025206 
1149.574336  	0.024823 
1151.503152  	0.024347 
1153.431968  	0.024130 
1155.360784  	0.024409 
1157.289600  	0.025160 
1159.218416  	0.025727 
1161.147232  	0.026366 
1163.076048  	0.027360 
1165.004864  	0.028310 
1166.933680  	0.029184 
1168.862496  	0.030158 
1170.791312  	0.031524 
1172.720128  	0.033034 
1174.648944  	0.034659 
1176.577760  	0.036195 
1178.506576  	0.038043 
1180.435392  	0.040031 
1182.364208  	0.041885 
1184.293024  	0.043914 
1186.221840  	0.046306 
1188.150656  	0.049023 
1190.079472  	0.052001 
1192.008288  	0.055698 
1193.937104  	0.059826 
1195.865920  	0.064305 
1197.794736  	0.069127 
1199.723552  	0.074381 
1201.652368  	0.079543 
1203.581184  	0.084543 
1205.510000  	0.089471 
1207.438816  	0.093617 
1209.367632  	0.097432 
1211.296448  	0.100589 
1213.225264  	0.103025 
1215.154080  	0.104393 
1217.082896  	0.105238 
1219.011712  	0.105373 
1220.940528  	0.105297 
1222.869344  	0.104636 
1224.798160  	0.103685 
1226.726976  	0.102119 
1228.655792  	0.100303 
1230.584608  	0.098310 
1232.513424  	0.095775 
1234.442240  	0.092899 
1236.371056  	0.089900 
1238.299872  	0.086672 
1240.228688  	0.082835 
1242.157504  	0.078944 
1244.086320  	0.075464 
1246.015136  	0.071645 
1247.943952  	0.067807 
1249.872768  	0.063865 
1251.801584  	0.060256 
1253.730400  	0.056835 
1255.659216  	0.053419 
1257.588032  	0.050014 
1259.516848  	0.047122 
1261.445664  	0.044357 
1263.374480  	0.041629 
1265.303296  	0.039277 
1267.232112  	0.037607 
1269.160928  	0.036497 
1271.089744  	0.035687 
1273.018560  	0.035124 
1274.947376  	0.035089 
1276.876192  	0.035531 
1278.805008  	0.035799 
1280.733824  	0.035630 
1282.662640  	0.034745 
1284.591456  	0.033620 
1286.520272  	0.032773 
1288.449088  	0.032270 
1290.377904  	0.032048 
1292.306720  	0.032381 
1294.235536  	0.032775 
1296.164352  	0.032661 
1298.093168  	0.031690 
1300.021984  	0.030207 
1301.950800  	0.028520 
1303.879616  	0.026671 
1305.808432  	0.024919 
1307.737248  	0.023151 
1309.666064  	0.021363 
1311.594880  	0.020070 
1313.523696  	0.019318 
1315.452512  	0.018599 
1317.381328  	0.018379 
1319.310144  	0.018576 
1321.238960  	0.018704 
1323.167776  	0.018884 
1325.096592  	0.019168 
1327.025408  	0.019291 
1328.954224  	0.019180 
1330.883040  	0.018755 
1332.811856  	0.017956 
1334.740672  	0.017294 
1336.669488  	0.017289 
1338.598304  	0.018000 
1340.527120  	0.017968 
1342.455936  	0.016506 
1344.384752  	0.015937 
1346.313568  	0.016125 
1348.242384  	0.016600 
1350.171200  	0.017281 
1352.100016  	0.018097 
1354.028832  	0.019188 
1355.957648  	0.020506 
1357.886464  	0.021626 
1359.815280  	0.022822 
1361.744096  	0.024799 
1363.672912  	0.026580 
1365.601728  	0.026617 
1367.530544  	0.027261 
1369.459360  	0.028356 
1371.388176  	0.028479 
1373.316992  	0.028681 
1375.245808  	0.028501 
1377.174624  	0.026684 
1379.103440  	0.025124 
1381.032256  	0.023329 
1382.961072  	0.021823 
1384.889888  	0.020677 
1386.818704  	0.020687 
1388.747520  	0.019897 
1390.676336  	0.018010 
1392.605152  	0.016504 
1394.533968  	0.016732 
1396.462784  	0.017482 
1398.391600  	0.017264 
1400.320416  	0.017132 
1402.249232  	0.016311 
1404.178048  	0.016873 
1406.106864  	0.017799 
1408.035680  	0.018114 
1409.964496  	0.019038 
1411.893312  	0.020490 
1413.822128  	0.021595 
1415.750944  	0.022944 
1417.679760  	0.024464 
1419.608576  	0.026392 
1421.537392  	0.025596 
1423.466208  	0.024913 
1425.395024  	0.024175 
1427.323840  	0.022254 
1429.252656  	0.021333 
1431.181472  	0.020647 
1433.110288  	0.019719 
1435.039104  	0.019326 
1436.967920  	0.021318 
1438.896736  	0.021552 
1440.825552  	0.021209 
1442.754368  	0.021507 
1444.683184  	0.021344 
1446.612000  	0.021491 
1448.540816  	0.022210 
1450.469632  	0.021951 
1452.398448  	0.021854 
1454.327264  	0.021574 
1456.256080  	0.022560 
1458.184896  	0.025673 
1460.113712  	0.023828 
1462.042528  	0.021686 
1463.971344  	0.021346 
1465.900160  	0.022747 
1467.828976  	0.022575 
1469.757792  	0.022341 
1471.686608  	0.024619 
1473.615424  	0.030595 
1475.544240  	0.032867 
1477.473056  	0.035054 
1479.401872  	0.035855 
1481.330688  	0.037869 
1483.259504  	0.039209 
1485.188320  	0.039360 
1487.117136  	0.039961 
1489.045952  	0.041840 
1490.974768  	0.042175 
1492.903584  	0.038752 
1494.832400  	0.035266 
1496.761216  	0.033634 
1498.690032  	0.031201 
1500.618848  	0.028220 
1502.547664  	0.024723 
1504.476480  	0.021343 
1506.405296  	0.021942 
1508.334112  	0.025220 
1510.262928  	0.021779 
1512.191744  	0.019363 
1514.120560  	0.018294 
1516.049376  	0.019133 
1517.978192  	0.020395 
1519.907008  	0.019900 
1521.835824  	0.023669 
1523.764640  	0.025171 
1525.693456  	0.026458 
1527.622272  	0.028084 
1529.551088  	0.027314 
1531.479904  	0.025731 
1533.408720  	0.025907 
1535.337536  	0.024619 
1537.266352  	0.021045 
1539.195168  	0.019475 
1541.123984  	0.021143 
1543.052800  	0.020643 
1544.981616  	0.019900 
1546.910432  	0.017594 
1548.839248  	0.016624 
1550.768064  	0.017431 
1552.696880  	0.016297 
1554.625696  	0.016674 
1556.554512  	0.015610 
1558.483328  	0.017558 
1560.412144  	0.023715 
1562.340960  	0.021764 
1564.269776  	0.022083 
1566.198592  	0.024269 
1568.127408  	0.025175 
1570.056224  	0.030355 
1571.985040  	0.032335 
1573.913856  	0.031875 
1575.842672  	0.034450 
1577.771488  	0.038599 
1579.700304  	0.036894 
1581.629120  	0.035974 
1583.557936  	0.035659 
1585.486752  	0.036210 
1587.415568  	0.037230 
1589.344384  	0.039514 
1591.273200  	0.042224 
1593.202016  	0.045718 
1595.130832  	0.049622 
1597.059648  	0.053385 
1598.988464  	0.056130 
1600.917280  	0.059074 
1602.846096  	0.061524 
1604.774912  	0.063145 
1606.703728  	0.063333 
1608.632544  	0.063821 
1610.561360  	0.063351 
1612.490176  	0.062181 
1614.418992  	0.059462 
1616.347808  	0.060982 
1618.276624  	0.064746 
1620.205440  	0.063605 
1622.134256  	0.063879 
1624.063072  	0.069726 
1625.991888  	0.071694 
1627.920704  	0.075704 
1629.849520  	0.080352 
1631.778336  	0.081745 
1633.707152  	0.081637 
1635.635968  	0.090058 
1637.564784  	0.099299 
1639.493600  	0.098406 
1641.422416  	0.098934 
1643.351232  	0.098173 
1645.280048  	0.096692 
1647.208864  	0.104323 
1649.137680  	0.104396 
1651.066496  	0.095748 
1652.995312  	0.099001 
1654.924128  	0.109105 
1656.852944  	0.101858 
1658.781760  	0.097812 
1660.710576  	0.094828 
1662.639392  	0.095059 
1664.568208  	0.094391 
1666.497024  	0.089139 
1668.425840  	0.086110 
1670.354656  	0.087015 
1672.283472  	0.083980 
1674.212288  	0.080033 
1676.141104  	0.081374 
1678.069920  	0.078382 
1679.998736  	0.076692 
1681.927552  	0.073798 
1683.856368  	0.074790 
1685.785184  	0.079651 
1687.714000  	0.075500 
1689.642816  	0.074721 
1691.571632  	0.073349 
1693.500448  	0.069724 
1695.429264  	0.069481 
1697.358080  	0.071967 
1699.286896  	0.068433 
1701.215712  	0.073236 
1703.144528  	0.068985 
1705.073344  	0.066487 
1707.002160  	0.065881 
1708.930976  	0.062594 
1710.859792  	0.059144 
1712.788608  	0.055125 
1714.717424  	0.051068 
1716.646240  	0.047109 
1718.575056  	0.043113 
1720.503872  	0.036902 
1722.432688  	0.031018 
1724.361504  	0.025996 
1726.290320  	0.021239 
1728.219136  	0.017295 
1730.147952  	0.014379 
1732.076768  	0.011260 
1734.005584  	0.009434 
1735.934400  	0.007560 
1737.863216  	0.005120 
1739.792032  	0.003625 
1741.720848  	0.002666 
1743.649664  	0.002425 
1745.578480  	0.001408 
1747.507296  	0.000602 
1749.436112  	0.000661 
1751.364928  	0.000147 
1753.293744  	-0.001231 
1755.222560  	-0.002121 
1757.151376  	-0.001586 
1759.080192  	-0.002170 
1761.009008  	-0.002566 
1762.937824  	-0.002755 
1764.866640  	-0.003494 
1766.795456  	-0.003617 
1768.724272  	-0.003265 
1770.653088  	-0.004079 
1772.581904  	-0.003530 
1774.510720  	-0.003383 
1776.439536  	-0.003962 
1778.368352  	-0.004745 
1780.297168  	-0.004652 
1782.225984  	-0.004783 
1784.154800  	-0.004967 
1786.083616  	-0.005230 
1788.012432  	-0.005585 
1789.941248  	-0.005378 
1791.870064  	-0.004664 
1793.798880  	-0.004823 
1795.727696  	-0.005162 
1797.656512  	-0.005792 
1799.585328  	-0.005954 
1801.514144  	-0.005281 
1803.442960  	-0.005504 
1805.371776  	-0.005976 
1807.300592  	-0.006293 
1809.229408  	-0.006631 
1811.158224  	-0.006503 
1813.087040  	-0.006687 
1815.015856  	-0.007149 
1816.944672  	-0.006715 
1818.873488  	-0.006439 
1820.802304  	-0.006559 
1822.731120  	-0.006544 
1824.659936  	-0.006539 
1826.588752  	-0.006650 
1828.517568  	-0.007129 
1830.446384  	-0.006604 
1832.375200  	-0.006798 
1834.304016  	-0.007169 
1836.232832  	-0.007242 
1838.161648  	-0.006954 
1840.090464  	-0.006980 
1842.019280  	-0.007509 
1843.948096  	-0.007371 
1845.876912  	-0.006851 
1847.805728  	-0.007250 
1849.734544  	-0.007519 
1851.663360  	-0.007662 
1853.592176  	-0.007359 
1855.520992  	-0.007377 
1857.449808  	-0.007414 
1859.378624  	-0.007653 
1861.307440  	-0.007607 
1863.236256  	-0.007892 
1865.165072  	-0.007885 
1867.093888  	-0.007740 
1869.022704  	-0.006849 
1870.951520  	-0.006965 
1872.880336  	-0.007587 
1874.809152  	-0.007969 
1876.737968  	-0.008172 
1878.666784  	-0.008276 
1880.595600  	-0.008374 
1882.524416  	-0.008183 
1884.453232  	-0.007974 
1886.382048  	-0.008219 
1888.310864  	-0.008080 
1890.239680  	-0.007677 
1892.168496  	-0.007599 
1894.097312  	-0.007890 
1896.026128  	-0.007902 
1897.954944  	-0.007909 
1899.883760  	-0.007973 
1901.812576  	-0.008261 
1903.741392  	-0.008302 
1905.670208  	-0.008434 
1907.599024  	-0.008524 
1909.527840  	-0.008244 
1911.456656  	-0.007874 
1913.385472  	-0.007727 
1915.314288  	-0.007745 
1917.243104  	-0.008112 
1919.171920  	-0.007739 
1921.100736  	-0.008062 
1923.029552  	-0.008251 
1924.958368  	-0.008967 
1926.887184  	-0.008851 
1928.816000  	-0.008956 
1930.744816  	-0.008849 
1932.673632  	-0.008785 
1934.602448  	-0.008556 
1936.531264  	-0.008728 
1938.460080  	-0.008411 
1940.388896  	-0.008217 
1942.317712  	-0.007515 
1944.246528  	-0.008569 
1946.175344  	-0.008742 
1948.104160  	-0.008044 
1950.032976  	-0.007892 
1951.961792  	-0.008964 
1953.890608  	-0.009408 
1955.819424  	-0.010025 
1957.748240  	-0.010677 
1959.677056  	-0.010502 
1961.605872  	-0.009559 
1963.534688  	-0.008879 
1965.463504  	-0.008867 
1967.392320  	-0.009306 
1969.321136  	-0.008958 
1971.249952  	-0.009916 
1973.178768  	-0.009758 
1975.107584  	-0.008313 
1977.036400  	-0.007446 
1978.965216  	-0.007684 
1980.894032  	-0.008353 
1982.822848  	-0.008626 
1984.751664  	-0.008166 
1986.680480  	-0.007766 
1988.609296  	-0.007528 
1990.538112  	-0.007391 
1992.466928  	-0.006974 
1994.395744  	-0.008365 
1996.324560  	-0.008759 
1998.253376  	-0.008991 
2000.182192  	-0.009776 
2002.111008  	-0.009554 
2004.039824  	-0.008745 
2005.968640  	-0.009164 
2007.897456  	-0.009136 
2009.826272  	-0.008564 
2011.755088  	-0.007966 
2013.683904  	-0.007799 
2015.612720  	-0.007295 
2017.541536  	-0.006544 
2019.470352  	-0.006294 
2021.399168  	-0.007251 
2023.327984  	-0.007700 
2025.256800  	-0.007651 
2027.185616  	-0.006302 
2029.114432  	-0.005887 
2031.043248  	-0.006573 
2032.972064  	-0.006836 
2034.900880  	-0.006467 
2036.829696  	-0.005894 
2038.758512  	-0.005057 
2040.687328  	-0.006142 
2042.616144  	-0.006619 
2044.544960  	-0.006690 
2046.473776  	-0.006971 
2048.402592  	-0.006141 
2050.331408  	-0.005276 
2052.260224  	-0.005640 
2054.189040  	-0.005641 
2056.117856  	-0.006039 
2058.046672  	-0.006069 
2059.975488  	-0.006321 
2061.904304  	-0.006198 
2063.833120  	-0.005966 
2065.761936  	-0.005747 
2067.690752  	-0.005730 
2069.619568  	-0.005715 
2071.548384  	-0.006241 
2073.477200  	-0.006194 
2075.406016  	-0.005711 
2077.334832  	-0.005676 
2079.263648  	-0.005312 
2081.192464  	-0.005190 
2083.121280  	-0.005689 
2085.050096  	-0.005739 
2086.978912  	-0.005690 
2088.907728  	-0.005190 
2090.836544  	-0.004975 
2092.765360  	-0.005320 
2094.694176  	-0.005361 
2096.622992  	-0.004909 
2098.551808  	-0.004787 
2100.480624  	-0.005030 
2102.409440  	-0.005294 
2104.338256  	-0.005134 
2106.267072  	-0.005294 
2108.195888  	-0.005306 
2110.124704  	-0.005240 
2112.053520  	-0.004637 
2113.982336  	-0.004684 
2115.911152  	-0.005209 
2117.839968  	-0.005532 
2119.768784  	-0.005448 
2121.697600  	-0.005485 
2123.626416  	-0.005677 
2125.555232  	-0.005573 
2127.484048  	-0.005848 
2129.412864  	-0.005921 
2131.341680  	-0.005230 
2133.270496  	-0.005046 
2135.199312  	-0.005222 
2137.128128  	-0.004797 
2139.056944  	-0.004038 
2140.985760  	-0.004027 
2142.914576  	-0.003875 
2144.843392  	-0.004675 
2146.772208  	-0.004658 
2148.701024  	-0.004911 
2150.629840  	-0.004909 
2152.558656  	-0.005004 
2154.487472  	-0.005343 
2156.416288  	-0.005473 
2158.345104  	-0.003380 
2160.273920  	-0.001065 
2162.202736  	-0.002078 
2164.131552  	-0.003325 
2166.060368  	-0.002600 
2167.989184  	-0.002835 
2169.918000  	-0.004381 
2171.846816  	-0.004368 
2173.775632  	-0.003522 
2175.704448  	-0.003435 
2177.633264  	-0.003829 
2179.562080  	-0.004849 
2181.490896  	-0.004905 
2183.419712  	-0.004173 
2185.348528  	-0.003697 
2187.277344  	-0.003453 
2189.206160  	-0.003428 
2191.134976  	-0.003865 
2193.063792  	-0.004555 
2194.992608  	-0.004879 
2196.921424  	-0.004053 
2198.850240  	-0.004282 
2200.779056  	-0.005459 
2202.707872  	-0.005808 
2204.636688  	-0.004931 
2206.565504  	-0.004950 
2208.494320  	-0.005498 
2210.423136  	-0.005423 
2212.351952  	-0.004730 
2214.280768  	-0.004971 
2216.209584  	-0.005135 
2218.138400  	-0.005425 
2220.067216  	-0.005789 
2221.996032  	-0.006071 
2223.924848  	-0.005419 
2225.853664  	-0.005051 
2227.782480  	-0.005137 
2229.711296  	-0.005706 
2231.640112  	-0.005898 
2233.568928  	-0.005685 
2235.497744  	-0.005569 
2237.426560  	-0.005375 
2239.355376  	-0.005022 
2241.284192  	-0.005482 
2243.213008  	-0.005824 
2245.141824  	-0.005560 
2247.070640  	-0.005379 
2248.999456  	-0.005420 
2250.928272  	-0.005467 
2252.857088  	-0.005884 
2254.785904  	-0.005691 
2256.714720  	-0.005342 
2258.643536  	-0.005115 
2260.572352  	-0.004677 
2262.501168  	-0.004638 
2264.429984  	-0.004531 
2266.358800  	-0.004781 
2268.287616  	-0.005333 
2270.216432  	-0.005230 
2272.145248  	-0.004997 
2274.074064  	-0.004951 
2276.002880  	-0.004914 
2277.931696  	-0.004384 
2279.860512  	-0.004389 
2281.789328  	-0.004413 
2283.718144  	-0.004440 
2285.646960  	-0.004144 
2287.575776  	-0.004022 
2289.504592  	-0.003998 
2291.433408  	-0.004018 
2293.362224  	-0.003827 
2295.291040  	-0.004082 
2297.219856  	-0.004163 
2299.148672  	-0.004052 
2301.077488  	-0.003869 
2303.006304  	-0.003399 
2304.935120  	-0.002917 
2306.863936  	-0.002777 
2308.792752  	-0.002613 
2310.721568  	-0.002653 
2312.650384  	-0.002945 
2314.579200  	-0.003455 
2316.508016  	-0.003517 
2318.436832  	-0.003297 
2320.365648  	-0.002888 
2322.294464  	-0.002741 
2324.223280  	-0.003608 
2326.152096  	-0.005091 
2328.080912  	-0.005970 
2330.009728  	-0.006225 
2331.938544  	-0.006507 
2333.867360  	-0.006947 
2335.796176  	-0.007314 
2337.724992  	-0.007951 
2339.653808  	-0.007867 
2341.582624  	-0.007055 
2343.511440  	-0.006277 
2345.440256  	-0.005338 
2347.369072  	-0.004694 
2349.297888  	-0.005133 
2351.226704  	-0.006291 
2353.155520  	-0.007567 
2355.084336  	-0.008039 
2357.013152  	-0.007759 
2358.941968  	-0.007454 
2360.870784  	-0.008252 
2362.799600  	-0.008607 
2364.728416  	-0.007942 
2366.657232  	-0.007509 
2368.586048  	-0.006549 
2370.514864  	-0.005480 
2372.443680  	-0.004468 
2374.372496  	-0.003625 
2376.301312  	-0.003286 
2378.230128  	-0.003236 
2380.158944  	-0.003363 
2382.087760  	-0.003647 
2384.016576  	-0.004181 
2385.945392  	-0.004727 
2387.874208  	-0.004915 
2389.803024  	-0.005186 
2391.731840  	-0.005491 
2393.660656  	-0.005505 
2395.589472  	-0.005444 
2397.518288  	-0.005430 
2399.447104  	-0.005486 
2401.375920  	-0.005437 
2403.304736  	-0.005589 
2405.233552  	-0.005745 
2407.162368  	-0.005790 
2409.091184  	-0.005648 
2411.020000  	-0.005555 
2412.948816  	-0.005548 
2414.877632  	-0.005406 
2416.806448  	-0.005168 
2418.735264  	-0.005241 
2420.664080  	-0.005391 
2422.592896  	-0.005433 
2424.521712  	-0.005384 
2426.450528  	-0.005380 
2428.379344  	-0.005323 
2430.308160  	-0.005214 
2432.236976  	-0.005092 
2434.165792  	-0.004871 
2436.094608  	-0.004901 
2438.023424  	-0.004996 
2439.952240  	-0.005026 
2441.881056  	-0.004955 
2443.809872  	-0.004866 
2445.738688  	-0.004841 
2447.667504  	-0.004605 
2449.596320  	-0.004386 
2451.525136  	-0.004374 
2453.453952  	-0.004324 
2455.382768  	-0.004227 
2457.311584  	-0.004422 
2459.240400  	-0.004643 
2461.169216  	-0.004650 
2463.098032  	-0.004558 
2465.026848  	-0.004448 
2466.955664  	-0.004414 
2468.884480  	-0.004637 
2470.813296  	-0.004840 
2472.742112  	-0.004632 
2474.670928  	-0.004440 
2476.599744  	-0.004282 
2478.528560  	-0.004049 
2480.457376  	-0.003748 
2482.386192  	-0.003611 
2484.315008  	-0.003589 
2486.243824  	-0.003676 
2488.172640  	-0.003618 
2490.101456  	-0.003444 
2492.030272  	-0.003384 
2493.959088  	-0.003614 
2495.887904  	-0.003756 
2497.816720  	-0.003407 
2499.745536  	-0.003382 
2501.674352  	-0.003570 
2503.603168  	-0.003468 
2505.531984  	-0.003331 
2507.460800  	-0.003372 
2509.389616  	-0.003590 
2511.318432  	-0.003710 
2513.247248  	-0.003389 
2515.176064  	-0.003169 
2517.104880  	-0.003336 
2519.033696  	-0.003533 
2520.962512  	-0.003268 
2522.891328  	-0.003099 
2524.820144  	-0.002891 
2526.748960  	-0.002841 
2528.677776  	-0.002967 
2530.606592  	-0.002932 
2532.535408  	-0.002842 
2534.464224  	-0.002916 
2536.393040  	-0.002955 
2538.321856  	-0.002863 
2540.250672  	-0.002658 
2542.179488  	-0.002434 
2544.108304  	-0.002344 
2546.037120  	-0.002395 
2547.965936  	-0.002340 
2549.894752  	-0.002048 
2551.823568  	-0.001848 
2553.752384  	-0.001743 
2555.681200  	-0.001794 
2557.610016  	-0.002132 
2559.538832  	-0.002176 
2561.467648  	-0.002038 
2563.396464  	-0.001723 
2565.325280  	-0.001696 
2567.254096  	-0.001896 
2569.182912  	-0.001943 
2571.111728  	-0.001787 
2573.040544  	-0.001651 
2574.969360  	-0.001416 
2576.898176  	-0.001215 
2578.826992  	-0.001336 
2580.755808  	-0.001421 
2582.684624  	-0.001209 
2584.613440  	-0.001110 
2586.542256  	-0.000923 
2588.471072  	-0.001039 
2590.399888  	-0.001155 
2592.328704  	-0.000918 
2594.257520  	-0.000786 
2596.186336  	-0.000935 
2598.115152  	-0.000842 
2600.043968  	-0.000453 
2601.972784  	-0.000438 
2603.901600  	-0.000475 
2605.830416  	-0.000589 
2607.759232  	-0.000677 
2609.688048  	-0.000552 
2611.616864  	-0.000325 
2613.545680  	-0.000168 
2615.474496  	-0.000038 
2617.403312  	0.000010 
2619.332128  	0.000019 
2621.260944  	0.000106 
2623.189760  	0.000225 
2625.118576  	0.000284 
2627.047392  	0.000303 
2628.976208  	0.000436 
2630.905024  	0.000577 
2632.833840  	0.000701 
2634.762656  	0.000623 
2636.691472  	0.000659 
2638.620288  	0.000899 
2640.549104  	0.001039 
2642.477920  	0.001088 
2644.406736  	0.001075 
2646.335552  	0.001092 
2648.264368  	0.001221 
2650.193184  	0.001379 
2652.122000  	0.001412 
2654.050816  	0.001484 
2655.979632  	0.001631 
2657.908448  	0.001692 
2659.837264  	0.001694 
2661.766080  	0.001785 
2663.694896  	0.001910 
2665.623712  	0.002008 
2667.552528  	0.002123 
2669.481344  	0.002097 
2671.410160  	0.002014 
2673.338976  	0.002130 
2675.267792  	0.002315 
2677.196608  	0.002541 
2679.125424  	0.002718 
2681.054240  	0.002741 
2682.983056  	0.002808 
2684.911872  	0.002833 
2686.840688  	0.002802 
2688.769504  	0.002824 
2690.698320  	0.002962 
2692.627136  	0.003021 
2694.555952  	0.003030 
2696.484768  	0.003163 
2698.413584  	0.003280 
2700.342400  	0.003301 
2702.271216  	0.003371 
2704.200032  	0.003445 
2706.128848  	0.003556 
2708.057664  	0.003655 
2709.986480  	0.003712 
2711.915296  	0.003823 
2713.844112  	0.003940 
2715.772928  	0.003991 
2717.701744  	0.004035 
2719.630560  	0.004160 
2721.559376  	0.004270 
2723.488192  	0.004278 
2725.417008  	0.004377 
2727.345824  	0.004535 
2729.274640  	0.004728 
2731.203456  	0.004769 
2733.132272  	0.004770 
2735.061088  	0.004878 
2736.989904  	0.004949 
2738.918720  	0.005078 
2740.847536  	0.005126 
2742.776352  	0.005221 
2744.705168  	0.005349 
2746.633984  	0.005351 
2748.562800  	0.005455 
2750.491616  	0.005518 
2752.420432  	0.005493 
2754.349248  	0.005351 
2756.278064  	0.005334 
2758.206880  	0.005365 
2760.135696  	0.005377 
2762.064512  	0.005434 
2763.993328  	0.005446 
2765.922144  	0.005449 
2767.850960  	0.005493 
2769.779776  	0.005512 
2771.708592  	0.005527 
2773.637408  	0.005470 
2775.566224  	0.005498 
2777.495040  	0.005550 
2779.423856  	0.005592 
2781.352672  	0.005644 
2783.281488  	0.005688 
2785.210304  	0.005653 
2787.139120  	0.005712 
2789.067936  	0.005651 
2790.996752  	0.005642 
2792.925568  	0.005759 
2794.854384  	0.005776 
2796.783200  	0.005755 
2798.712016  	0.005705 
2800.640832  	0.005724 
2802.569648  	0.005929 
2804.498464  	0.005953 
2806.427280  	0.005893 
2808.356096  	0.006046 
2810.284912  	0.006105 
2812.213728  	0.006070 
2814.142544  	0.006046 
2816.071360  	0.005937 
2818.000176  	0.005924 
2819.928992  	0.006032 
2821.857808  	0.006077 
2823.786624  	0.006029 
2825.715440  	0.006033 
2827.644256  	0.006088 
2829.573072  	0.006036 
2831.501888  	0.006072 
2833.430704  	0.006093 
2835.359520  	0.006044 
2837.288336  	0.005966 
2839.217152  	0.005964 
2841.145968  	0.005898 
2843.074784  	0.005800 
2845.003600  	0.005860 
2846.932416  	0.005892 
2848.861232  	0.005907 
2850.790048  	0.005856 
2852.718864  	0.005885 
2854.647680  	0.005874 
2856.576496  	0.005959 
2858.505312  	0.005980 
2860.434128  	0.005941 
2862.362944  	0.005956 
2864.291760  	0.006011 
2866.220576  	0.006044 
2868.149392  	0.005981 
2870.078208  	0.005939 
2872.007024  	0.006077 
2873.935840  	0.006305 
2875.864656  	0.006483 
2877.793472  	0.006661 
2879.722288  	0.006905 
2881.651104  	0.007027 
2883.579920  	0.007128 
2885.508736  	0.007342 
2887.437552  	0.007525 
2889.366368  	0.007562 
2891.295184  	0.007487 
2893.224000  	0.007527 
2895.152816  	0.007698 
2897.081632  	0.007664 
2899.010448  	0.007270 
2900.939264  	0.006867 
2902.868080  	0.007078 
2904.796896  	0.007498 
2906.725712  	0.007715 
2908.654528  	0.007924 
2910.583344  	0.008097 
2912.512160  	0.008285 
2914.440976  	0.008619 
2916.369792  	0.008923 
2918.298608  	0.009111 
2920.227424  	0.009392 
2922.156240  	0.009688 
2924.085056  	0.010025 
2926.013872  	0.010335 
2927.942688  	0.010856 
2929.871504  	0.011367 
2931.800320  	0.011679 
2933.729136  	0.012021 
2935.657952  	0.012419 
2937.586768  	0.012752 
2939.515584  	0.013076 
2941.444400  	0.013235 
2943.373216  	0.013391 
2945.302032  	0.013660 
2947.230848  	0.013740 
2949.159664  	0.013679 
2951.088480  	0.013620 
2953.017296  	0.013591 
2954.946112  	0.013404 
2956.874928  	0.013222 
2958.803744  	0.012977 
2960.732560  	0.012776 
2962.661376  	0.012726 
2964.590192  	0.012678 
2966.519008  	0.012473 
2968.447824  	0.012122 
2970.376640  	0.011898 
2972.305456  	0.011672 
2974.234272  	0.011753 
2976.163088  	0.011878 
2978.091904  	0.011779 
2980.020720  	0.011690 
2981.949536  	0.011651 
2983.878352  	0.011604 
2985.807168  	0.011384 
2987.735984  	0.011248 
2989.664800  	0.011374 
2991.593616  	0.011960 
2993.522432  	0.012255 
2995.451248  	0.012368 
2997.380064  	0.012692 
2999.308880  	0.013209 
3001.237696  	0.013646 
3003.166512  	0.014018 
3005.095328  	0.014282 
3007.024144  	0.014436 
3008.952960  	0.014817 
3010.881776  	0.015410 
3012.810592  	0.015868 
3014.739408  	0.016168 
3016.668224  	0.016529 
3018.597040  	0.016939 
3020.525856  	0.017370 
3022.454672  	0.017662 
3024.383488  	0.017972 
3026.312304  	0.018443 
3028.241120  	0.018787 
3030.169936  	0.019143 
3032.098752  	0.019711 
3034.027568  	0.020014 
3035.956384  	0.020216 
3037.885200  	0.020539 
3039.814016  	0.020929 
3041.742832  	0.021247 
3043.671648  	0.021565 
3045.600464  	0.021816 
3047.529280  	0.022108 
3049.458096  	0.022579 
3051.386912  	0.022751 
3053.315728  	0.022906 
3055.244544  	0.023293 
3057.173360  	0.023743 
3059.102176  	0.024215 
3061.030992  	0.024614 
3062.959808  	0.024930 
3064.888624  	0.025418 
3066.817440  	0.026043 
3068.746256  	0.026449 
3070.675072  	0.026730 
3072.603888  	0.027235 
3074.532704  	0.027724 
3076.461520  	0.028141 
3078.390336  	0.028581 
3080.319152  	0.029052 
3082.247968  	0.029410 
3084.176784  	0.029832 
3086.105600  	0.030457 
3088.034416  	0.031037 
3089.963232  	0.031181 
3091.892048  	0.031423 
3093.820864  	0.031735 
3095.749680  	0.032427 
3097.678496  	0.033012 
3099.607312  	0.033359 
3101.536128  	0.034105 
3103.464944  	0.034670 
3105.393760  	0.034748 
3107.322576  	0.035103 
3109.251392  	0.035620 
3111.180208  	0.035970 
3113.109024  	0.036162 
3115.037840  	0.036551 
3116.966656  	0.037180 
3118.895472  	0.037647 
3120.824288  	0.037864 
3122.753104  	0.038273 
3124.681920  	0.038584 
3126.610736  	0.038760 
3128.539552  	0.039027 
3130.468368  	0.039175 
3132.397184  	0.039594 
3134.326000  	0.040076 
3136.254816  	0.040389 
3138.183632  	0.040753 
3140.112448  	0.041014 
3142.041264  	0.041400 
3143.970080  	0.041755 
3145.898896  	0.041931 
3147.827712  	0.042228 
3149.756528  	0.042795 
3151.685344  	0.043140 
3153.614160  	0.043326 
3155.542976  	0.043551 
3157.471792  	0.043999 
3159.400608  	0.044408 
3161.329424  	0.044575 
3163.258240  	0.044757 
3165.187056  	0.045010 
3167.115872  	0.045312 
3169.044688  	0.045638 
3170.973504  	0.045866 
3172.902320  	0.046080 
3174.831136  	0.046234 
3176.759952  	0.046333 
3178.688768  	0.046705 
3180.617584  	0.046825 
3182.546400  	0.046882 
3184.475216  	0.047057 
3186.404032  	0.047211 
3188.332848  	0.047289 
3190.261664  	0.047255 
3192.190480  	0.047275 
3194.119296  	0.047367 
3196.048112  	0.047218 
3197.976928  	0.047460 
3199.905744  	0.047616 
3201.834560  	0.047464 
3203.763376  	0.047249 
3205.692192  	0.047027 
3207.621008  	0.046919 
3209.549824  	0.047084 
3211.478640  	0.047169 
3213.407456  	0.047038 
3215.336272  	0.047180 
3217.265088  	0.047126 
3219.193904  	0.047168 
3221.122720  	0.047072 
3223.051536  	0.046750 
3224.980352  	0.046605 
3226.909168  	0.046621 
3228.837984  	0.046515 
3230.766800  	0.046280 
3232.695616  	0.046332 
3234.624432  	0.046337 
3236.553248  	0.046389 
3238.482064  	0.046417 
3240.410880  	0.046236 
3242.339696  	0.046158 
3244.268512  	0.046259 
3246.197328  	0.046415 
3248.126144  	0.046221 
3250.054960  	0.046332 
3251.983776  	0.046451 
3253.912592  	0.046710 
3255.841408  	0.046902 
3257.770224  	0.047034 
3259.699040  	0.047189 
3261.627856  	0.047329 
3263.556672  	0.047218 
3265.485488  	0.047310 
3267.414304  	0.047415 
3269.343120  	0.047351 
3271.271936  	0.047379 
3273.200752  	0.047588 
3275.129568  	0.047705 
3277.058384  	0.047829 
3278.987200  	0.047922 
3280.916016  	0.048031 
3282.844832  	0.047980 
3284.773648  	0.048023 
3286.702464  	0.048128 
3288.631280  	0.048335 
3290.560096  	0.048392 
3292.488912  	0.048355 
3294.417728  	0.048383 
3296.346544  	0.048591 
3298.275360  	0.048844 
3300.204176  	0.048777 
3302.132992  	0.048709 
3304.061808  	0.048949 
3305.990624  	0.049042 
3307.919440  	0.049243 
3309.848256  	0.049575 
3311.777072  	0.049652 
3313.705888  	0.049725 
3315.634704  	0.050033 
3317.563520  	0.050343 
3319.492336  	0.050405 
3321.421152  	0.050479 
3323.349968  	0.050509 
3325.278784  	0.050503 
3327.207600  	0.050566 
3329.136416  	0.050399 
3331.065232  	0.050292 
3332.994048  	0.050323 
3334.922864  	0.050573 
3336.851680  	0.050767 
3338.780496  	0.050725 
3340.709312  	0.050410 
3342.638128  	0.050254 
3344.566944  	0.050203 
3346.495760  	0.050048 
3348.424576  	0.049939 
3350.353392  	0.049819 
3352.282208  	0.049536 
3354.211024  	0.049209 
3356.139840  	0.049163 
3358.068656  	0.049094 
3359.997472  	0.048749 
3361.926288  	0.048392 
3363.855104  	0.047994 
3365.783920  	0.047972 
3367.712736  	0.048041 
3369.641552  	0.047772 
3371.570368  	0.047493 
3373.499184  	0.047416 
3375.428000  	0.047284 
3377.356816  	0.047151 
3379.285632  	0.046963 
3381.214448  	0.046588 
3383.143264  	0.046346 
3385.072080  	0.046482 
3387.000896  	0.046276 
3388.929712  	0.045850 
3390.858528  	0.045434 
3392.787344  	0.045598 
3394.716160  	0.045319 
3396.644976  	0.045103 
3398.573792  	0.045005 
3400.502608  	0.044333 
3402.431424  	0.043911 
3404.360240  	0.043691 
3406.289056  	0.043350 
3408.217872  	0.042970 
3410.146688  	0.042743 
3412.075504  	0.042444 
3414.004320  	0.042203 
3415.933136  	0.042086 
3417.861952  	0.041768 
3419.790768  	0.041727 
3421.719584  	0.041872 
3423.648400  	0.041364 
3425.577216  	0.040714 
3427.506032  	0.040360 
3429.434848  	0.040005 
3431.363664  	0.039883 
3433.292480  	0.039541 
3435.221296  	0.039085 
3437.150112  	0.038679 
3439.078928  	0.038393 
3441.007744  	0.037890 
3442.936560  	0.037891 
3444.865376  	0.037242 
3446.794192  	0.037506 
3448.723008  	0.037915 
3450.651824  	0.036869 
3452.580640  	0.036354 
3454.509456  	0.035739 
3456.438272  	0.035166 
3458.367088  	0.034865 
3460.295904  	0.034506 
3462.224720  	0.034289 
3464.153536  	0.033757 
3466.082352  	0.033048 
3468.011168  	0.032742 
3469.939984  	0.032354 
3471.868800  	0.031872 
3473.797616  	0.031319 
3475.726432  	0.031027 
3477.655248  	0.030240 
3479.584064  	0.029499 
3481.512880  	0.029759 
3483.441696  	0.029725 
3485.370512  	0.028651 
3487.299328  	0.028137 
3489.228144  	0.027766 
3491.156960  	0.027207 
3493.085776  	0.026688 
3495.014592  	0.026374 
3496.943408  	0.026291 
3498.872224  	0.025598 
3500.801040  	0.024969 
3502.729856  	0.025384 
3504.658672  	0.025709 
3506.587488  	0.024419 
3508.516304  	0.023821 
3510.445120  	0.024008 
3512.373936  	0.023249 
3514.302752  	0.022678 
3516.231568  	0.022232 
3518.160384  	0.021775 
3520.089200  	0.021117 
3522.018016  	0.020621 
3523.946832  	0.021239 
3525.875648  	0.020866 
3527.804464  	0.020568 
3529.733280  	0.020412 
3531.662096  	0.019549 
3533.590912  	0.018402 
3535.519728  	0.018232 
3537.448544  	0.018300 
3539.377360  	0.017230 
3541.306176  	0.016293 
3543.234992  	0.016171 
3545.163808  	0.017233 
3547.092624  	0.017831 
3549.021440  	0.016428 
3550.950256  	0.015119 
3552.879072  	0.015700 
3554.807888  	0.015030 
3556.736704  	0.013800 
3558.665520  	0.013461 
3560.594336  	0.013591 
3562.523152  	0.012891 
3564.451968  	0.012068 
3566.380784  	0.014026 
3568.309600  	0.016113 
3570.238416  	0.013467 
3572.167232  	0.011363 
3574.096048  	0.010758 
3576.024864  	0.010343 
3577.953680  	0.009745 
3579.882496  	0.009489 
3581.811312  	0.009020 
3583.740128  	0.007853 
3585.668944  	0.007211 
3587.597760  	0.009827 
3589.526576  	0.009746 
3591.455392  	0.006754 
3593.384208  	0.006153 
3595.313024  	0.006823 
3597.241840  	0.006037 
3599.170656  	0.004917 
3601.099472  	0.005128 
3603.028288  	0.004485 
3604.957104  	0.002974 
3606.885920  	0.002918 
3608.814736  	0.004024 
3610.743552  	0.002837 
3612.672368  	0.002259 
3614.601184  	0.002651 
3616.530000  	0.000870 
3618.458816  	0.000956 
3620.387632  	0.001829 
3622.316448  	0.000217 
3624.245264  	-0.001359 
3626.174080  	-0.002765 
3628.102896  	-0.002268 
3630.031712  	0.001328 
3631.960528  	-0.001375 
3633.889344  	-0.002755 
3635.818160  	-0.003385 
3637.746976  	-0.004279 
3639.675792  	-0.004943 
3641.604608  	-0.005489 
3643.533424  	-0.005989 
3645.462240  	-0.007240 
3647.391056  	-0.006615 
3649.319872  	-0.004704 
3651.248688  	-0.004200 
3653.177504  	-0.007084 
3655.106320  	-0.008613 
3657.035136  	-0.007657 
3658.963952  	-0.008519 
3660.892768  	-0.009274 
3662.821584  	-0.009728 
3664.750400  	-0.010336 
3666.679216  	-0.011088 
3668.608032  	-0.010981 
3670.536848  	-0.008895 
3672.465664  	-0.010613 
3674.394480  	-0.011939 
3676.323296  	-0.008689 
3678.252112  	-0.009592 
3680.180928  	-0.010272 
3682.109744  	-0.010889 
3684.038560  	-0.011297 
3685.967376  	-0.012267 
3687.896192  	-0.012131 
3689.825008  	-0.010316 
3691.753824  	-0.010054 
3693.682640  	-0.010842 
3695.611456  	-0.011426 
3697.540272  	-0.011383 
3699.469088  	-0.012002 
3701.397904  	-0.011474 
3703.326720  	-0.010843 
3705.255536  	-0.011342 
3707.184352  	-0.011909 
3709.113168  	-0.012076 
3711.041984  	-0.010486 
3712.970800  	-0.009310 
3714.899616  	-0.010363 
3716.828432  	-0.011328 
3718.757248  	-0.011337 
3720.686064  	-0.011456 
3722.614880  	-0.011071 
3724.543696  	-0.010792 
3726.472512  	-0.010293 
3728.401328  	-0.010976 
3730.330144  	-0.012554 
3732.258960  	-0.012588 
3734.187776  	-0.011020 
3736.116592  	-0.008565 
3738.045408  	-0.009312 
3739.974224  	-0.010472 
3741.903040  	-0.011654 
3743.831856  	-0.011807 
3745.760672  	-0.010005 
3747.689488  	-0.011767 
3749.618304  	-0.010960 
3751.547120  	-0.008583 
3753.475936  	-0.008597 
3755.404752  	-0.010372 
3757.333568  	-0.010839 
3759.262384  	-0.010368 
3761.191200  	-0.010301 
3763.120016  	-0.011256 
3765.048832  	-0.010880 
3766.977648  	-0.010850 
3768.906464  	-0.011064 
3770.835280  	-0.010167 
3772.764096  	-0.010706 
3774.692912  	-0.011238 
3776.621728  	-0.011489 
3778.550544  	-0.011124 
3780.479360  	-0.010378 
3782.408176  	-0.011186 
3784.336992  	-0.011073 
3786.265808  	-0.010706 
3788.194624  	-0.011085 
3790.123440  	-0.011253 
3792.052256  	-0.011404 
3793.981072  	-0.012004 
3795.909888  	-0.011247 
3797.838704  	-0.010522 
3799.767520  	-0.011615 
3801.696336  	-0.009791 
3803.625152  	-0.010176 
3805.553968  	-0.011849 
3807.482784  	-0.010412 
3809.411600  	-0.010436 
3811.340416  	-0.011314 
3813.269232  	-0.012299 
3815.198048  	-0.011981 
3817.126864  	-0.010445 
3819.055680  	-0.011732 
3820.984496  	-0.010202 
3822.913312  	-0.009249 
3824.842128  	-0.010996 
3826.770944  	-0.010894 
3828.699760  	-0.011174 
3830.628576  	-0.011561 
3832.557392  	-0.011206 
3834.486208  	-0.011805 
3836.415024  	-0.011950 
3838.343840  	-0.010441 
3840.272656  	-0.009289 
3842.201472  	-0.009907 
3844.130288  	-0.010008 
3846.059104  	-0.010501 
3847.987920  	-0.011416 
3849.916736  	-0.012232 
3851.845552  	-0.012521 
3853.774368  	-0.008696 
3855.703184  	-0.008235 
3857.632000  	-0.009655 
3859.560816  	-0.010944 
3861.489632  	-0.011198 
3863.418448  	-0.010600 
3865.347264  	-0.009477 
3867.276080  	-0.010860 
3869.204896  	-0.010626 
3871.133712  	-0.008820 
3873.062528  	-0.010192 
3874.991344  	-0.009999 
3876.920160  	-0.011349 
3878.848976  	-0.011752 
3880.777792  	-0.009786 
3882.706608  	-0.009976 
3884.635424  	-0.010702 
3886.564240  	-0.009829 
3888.493056  	-0.011337 
3890.421872  	-0.011483 
3892.350688  	-0.010120 
3894.279504  	-0.010422 
3896.208320  	-0.011478 
3898.137136  	-0.011522 
3900.065952  	-0.010140 
3901.994768  	-0.009671 
3903.923584  	-0.009296 
3905.852400  	-0.009243 
3907.781216  	-0.010456 
3909.710032  	-0.011299 
3911.638848  	-0.011631 
3913.567664  	-0.011736 
3915.496480  	-0.011211 
3917.425296  	-0.010041 
3919.354112  	-0.010058 
3921.282928  	-0.010390 
3923.211744  	-0.010453 
3925.140560  	-0.009969 
3927.069376  	-0.010697 
3928.998192  	-0.010962 
3930.927008  	-0.010493 
3932.855824  	-0.010101 
3934.784640  	-0.010533 
3936.713456  	-0.011040 
3938.642272  	-0.011219 
3940.571088  	-0.011258 
3942.499904  	-0.010228 
3944.428720  	-0.010116 
3946.357536  	-0.010781 
3948.286352  	-0.010348 
3950.215168  	-0.010489 
3952.143984  	-0.011186 
3954.072800  	-0.011453 
3956.001616  	-0.011209 
3957.930432  	-0.010944 
3959.859248  	-0.010843 
3961.788064  	-0.010744 
3963.716880  	-0.010849 
3965.645696  	-0.011219 
3967.574512  	-0.011370 
3969.503328  	-0.011368 
3971.432144  	-0.011309 
3973.360960  	-0.010921 
3975.289776  	-0.010521 
3977.218592  	-0.010626 
3979.147408  	-0.010990 
3981.076224  	-0.011188 
3983.005040  	-0.011289 
3984.933856  	-0.011105 
3986.862672  	-0.010800 
3988.791488  	-0.010954 
3990.720304  	-0.010922 
3992.649120  	-0.010939 
3994.577936  	-0.010958 
3996.506752  	-0.011001 
3998.435568  	-0.011128 
4000.364384  	-0.011080 