##TITLE=No Description
##DATA TYPE=INFRARED SPECTRUM
##XUNITS=1/CM
##YUNITS=Abs
399.264912  	0.391521 
401.193728  	0.395922 
403.122544  	0.396585 
405.051360  	0.383366 
406.980176  	0.385363 
408.908992  	0.393580 
410.837808  	0.395709 
412.766624  	0.384188 
414.695440  	0.380958 
416.624256  	0.379775 
418.553072  	0.396346 
420.481888  	0.398585 
422.410704  	0.385789 
424.339520  	0.378698 
426.268336  	0.374211 
428.197152  	0.366829 
430.125968  	0.361917 
432.054784  	0.358441 
433.983600  	0.361273 
435.912416  	0.365266 
437.841232  	0.360559 
439.770048  	0.350960 
441.698864  	0.351225 
443.627680  	0.349979 
445.556496  	0.349469 
447.485312  	0.343469 
449.414128  	0.340160 
451.342944  	0.340714 
453.271760  	0.342953 
455.200576  	0.339172 
457.129392  	0.338750 
459.058208  	0.338113 
460.987024  	0.340040 
462.915840  	0.337307 
464.844656  	0.334923 
466.773472  	0.332503 
468.702288  	0.334431 
470.631104  	0.334273 
472.559920  	0.335178 
474.488736  	0.333301 
476.417552  	0.332921 
478.346368  	0.328623 
480.275184  	0.327754 
482.204000  	0.327797 
484.132816  	0.327286 
486.061632  	0.322461 
487.990448  	0.321375 
489.919264  	0.324114 
491.848080  	0.325312 
493.776896  	0.321884 
495.705712  	0.319184 
497.634528  	0.316609 
499.563344  	0.318340 
501.492160  	0.318756 
503.420976  	0.315950 
505.349792  	0.312628 
507.278608  	0.312283 
509.207424  	0.312447 
511.136240  	0.313421 
513.065056  	0.313210 
514.993872  	0.315565 
516.922688  	0.316320 
518.851504  	0.316406 
520.780320  	0.315840 
522.709136  	0.316341 
524.637952  	0.315378 
526.566768  	0.313940 
528.495584  	0.310984 
530.424400  	0.309716 
532.353216  	0.308383 
534.282032  	0.305256 
536.210848  	0.301487 
538.139664  	0.298574 
540.068480  	0.295952 
541.997296  	0.294138 
543.926112  	0.291728 
545.854928  	0.290272 
547.783744  	0.288430 
549.712560  	0.287277 
551.641376  	0.285628 
553.570192  	0.284852 
555.499008  	0.281771 
557.427824  	0.279262 
559.356640  	0.276813 
561.285456  	0.275575 
563.214272  	0.274336 
565.143088  	0.273095 
567.071904  	0.270519 
569.000720  	0.268974 
570.929536  	0.266969 
572.858352  	0.264993 
574.787168  	0.263453 
576.715984  	0.262048 
578.644800  	0.259263 
580.573616  	0.256269 
582.502432  	0.252881 
584.431248  	0.251171 
586.360064  	0.249315 
588.288880  	0.247505 
590.217696  	0.245283 
592.146512  	0.244031 
594.075328  	0.242252 
596.004144  	0.240925 
597.932960  	0.239274 
599.861776  	0.238281 
601.790592  	0.237083 
603.719408  	0.236191 
605.648224  	0.234877 
607.577040  	0.234070 
609.505856  	0.232721 
611.434672  	0.231564 
613.363488  	0.230148 
615.292304  	0.229271 
617.221120  	0.228185 
619.149936  	0.227719 
621.078752  	0.226414 
623.007568  	0.225013 
624.936384  	0.223878 
626.865200  	0.222828 
628.794016  	0.221727 
630.722832  	0.221557 
632.651648  	0.221739 
634.580464  	0.221421 
636.509280  	0.220683 
638.438096  	0.220123 
640.366912  	0.219155 
642.295728  	0.218112 
644.224544  	0.216827 
646.153360  	0.214862 
648.082176  	0.211948 
650.010992  	0.209806 
651.939808  	0.208156 
653.868624  	0.206749 
655.797440  	0.204259 
657.726256  	0.202316 
659.655072  	0.200019 
661.583888  	0.197650 
663.512704  	0.195065 
665.441520  	0.191614 
667.370336  	0.190225 
669.299152  	0.190941 
671.227968  	0.186071 
673.156784  	0.182838 
675.085600  	0.181451 
677.014416  	0.179921 
678.943232  	0.178068 
680.872048  	0.176760 
682.800864  	0.175486 
684.729680  	0.174420 
686.658496  	0.173392 
688.587312  	0.172536 
690.516128  	0.171353 
692.444944  	0.170828 
694.373760  	0.169846 
696.302576  	0.168733 
698.231392  	0.167071 
700.160208  	0.165231 
702.089024  	0.163350 
704.017840  	0.161793 
705.946656  	0.159965 
707.875472  	0.158285 
709.804288  	0.156864 
711.733104  	0.155908 
713.661920  	0.155003 
715.590736  	0.154037 
717.519552  	0.153372 
719.448368  	0.153289 
721.377184  	0.153184 
723.306000  	0.152987 
725.234816  	0.153054 
727.163632  	0.152162 
729.092448  	0.150318 
731.021264  	0.148570 
732.950080  	0.146474 
734.878896  	0.144624 
736.807712  	0.142582 
738.736528  	0.141012 
740.665344  	0.139957 
742.594160  	0.139428 
744.522976  	0.138211 
746.451792  	0.137170 
748.380608  	0.136033 
750.309424  	0.134928 
752.238240  	0.133865 
754.167056  	0.133390 
756.095872  	0.132935 
758.024688  	0.132091 
759.953504  	0.131392 
761.882320  	0.131624 
763.811136  	0.131748 
765.739952  	0.130395 
767.668768  	0.128518 
769.597584  	0.126800 
771.526400  	0.125839 
773.455216  	0.126121 
775.384032  	0.127624 
777.312848  	0.130180 
779.241664  	0.131996 
781.170480  	0.131383 
783.099296  	0.128661 
785.028112  	0.125503 
786.956928  	0.122251 
788.885744  	0.119653 
790.814560  	0.117450 
792.743376  	0.116342 
794.672192  	0.115512 
796.601008  	0.114647 
798.529824  	0.112937 
800.458640  	0.110514 
802.387456  	0.108219 
804.316272  	0.106771 
806.245088  	0.105844 
808.173904  	0.105196 
810.102720  	0.104735 
812.031536  	0.104258 
813.960352  	0.103816 
815.889168  	0.103529 
817.817984  	0.103633 
819.746800  	0.103869 
821.675616  	0.103811 
823.604432  	0.103837 
825.533248  	0.103912 
827.462064  	0.103829 
829.390880  	0.103240 
831.319696  	0.103017 
833.248512  	0.102461 
835.177328  	0.101265 
837.106144  	0.099345 
839.034960  	0.097610 
840.963776  	0.095484 
842.892592  	0.093130 
844.821408  	0.090929 
846.750224  	0.088894 
848.679040  	0.087195 
850.607856  	0.086052 
852.536672  	0.085177 
854.465488  	0.084173 
856.394304  	0.083495 
858.323120  	0.082562 
860.251936  	0.081565 
862.180752  	0.080597 
864.109568  	0.079209 
866.038384  	0.077802 
867.967200  	0.076378 
869.896016  	0.075311 
871.824832  	0.074796 
873.753648  	0.074856 
875.682464  	0.074822 
877.611280  	0.075477 
879.540096  	0.076456 
881.468912  	0.077490 
883.397728  	0.078722 
885.326544  	0.079795 
887.255360  	0.080418 
889.184176  	0.080464 
891.112992  	0.080180 
893.041808  	0.079329 
894.970624  	0.078015 
896.899440  	0.075925 
898.828256  	0.073395 
900.757072  	0.070854 
902.685888  	0.068750 
904.614704  	0.067600 
906.543520  	0.067175 
908.472336  	0.067795 
910.401152  	0.069004 
912.329968  	0.070364 
914.258784  	0.071590 
916.187600  	0.073039 
918.116416  	0.074006 
920.045232  	0.074522 
921.974048  	0.074808 
923.902864  	0.075092 
925.831680  	0.075388 
927.760496  	0.075681 
929.689312  	0.075956 
931.618128  	0.076545 
933.546944  	0.076864 
935.475760  	0.076662 
937.404576  	0.076282 
939.333392  	0.075817 
941.262208  	0.075515 
943.191024  	0.075786 
945.119840  	0.077002 
947.048656  	0.079263 
948.977472  	0.082983 
950.906288  	0.087644 
952.835104  	0.093326 
954.763920  	0.099869 
956.692736  	0.106186 
958.621552  	0.112010 
960.550368  	0.116326 
962.479184  	0.119057 
964.408000  	0.119581 
966.336816  	0.117863 
968.265632  	0.113741 
970.194448  	0.108138 
972.123264  	0.101268 
974.052080  	0.093647 
975.980896  	0.085989 
977.909712  	0.078682 
979.838528  	0.072349 
981.767344  	0.067040 
983.696160  	0.063030 
985.624976  	0.060569 
987.553792  	0.059672 
989.482608  	0.060152 
991.411424  	0.062076 
993.340240  	0.065259 
995.269056  	0.068909 
997.197872  	0.072639 
999.126688  	0.076202 
1001.055504  	0.080232 
1002.984320  	0.083996 
1004.913136  	0.087666 
1006.841952  	0.091160 
1008.770768  	0.094489 
1010.699584  	0.097215 
1012.628400  	0.099470 
1014.557216  	0.101133 
1016.486032  	0.102038 
1018.414848  	0.102322 
1020.343664  	0.102433 
1022.272480  	0.102621 
1024.201296  	0.102493 
1026.130112  	0.102018 
1028.058928  	0.102144 
1029.987744  	0.103129 
1031.916560  	0.104259 
1033.845376  	0.105568 
1035.774192  	0.107493 
1037.703008  	0.110125 
1039.631824  	0.114223 
1041.560640  	0.119548 
1043.489456  	0.126498 
1045.418272  	0.134191 
1047.347088  	0.141923 
1049.275904  	0.147783 
1051.204720  	0.151406 
1053.133536  	0.152762 
1055.062352  	0.152455 
1056.991168  	0.151003 
1058.919984  	0.149757 
1060.848800  	0.148897 
1062.777616  	0.148211 
1064.706432  	0.146839 
1066.635248  	0.145305 
1068.564064  	0.143668 
1070.492880  	0.141042 
1072.421696  	0.137778 
1074.350512  	0.135571 
1076.279328  	0.135115 
1078.208144  	0.136884 
1080.136960  	0.139465 
1082.065776  	0.141610 
1083.994592  	0.142105 
1085.923408  	0.140772 
1087.852224  	0.137421 
1089.781040  	0.133314 
1091.709856  	0.128080 
1093.638672  	0.121927 
1095.567488  	0.114692 
1097.496304  	0.107461 
1099.425120  	0.100387 
1101.353936  	0.093265 
1103.282752  	0.086506 
1105.211568  	0.080371 
1107.140384  	0.074722 
1109.069200  	0.069514 
1110.998016  	0.064748 
1112.926832  	0.060452 
1114.855648  	0.056558 
1116.784464  	0.052735 
1118.713280  	0.048803 
1120.642096  	0.045107 
1122.570912  	0.041786 
1124.499728  	0.038964 
1126.428544  	0.036477 
1128.357360  	0.034114 
1130.286176  	0.032003 
1132.214992  	0.030357 
1134.143808  	0.029053 
1136.072624  	0.028120 
1138.001440  	0.027211 
1139.930256  	0.026393 
1141.859072  	0.025539 
1143.787888  	0.024582 
1145.716704  	0.023870 
1147.645520  	0.023207 
1149.574336  	0.022950 
1151.503152  	0.022635 
1153.431968  	0.022415 
1155.360784  	0.022521 
1157.289600  	0.023062 
1159.218416  	0.023589 
1161.147232  	0.024438 
1163.076048  	0.025425 
1165.004864  	0.026253 
1166.933680  	0.027078 
1168.862496  	0.028165 
1170.791312  	0.029415 
1172.720128  	0.030683 
1174.648944  	0.032255 
1176.577760  	0.033684 
1178.506576  	0.035424 
1180.435392  	0.037349 
1182.364208  	0.039082 
1184.293024  	0.041113 
1186.221840  	0.043314 
1188.150656  	0.045640 
1190.079472  	0.048504 
1192.008288  	0.051980 
1193.937104  	0.055862 
1195.865920  	0.060110 
1197.794736  	0.064479 
1199.723552  	0.069164 
1201.652368  	0.073948 
1203.581184  	0.078551 
1205.510000  	0.082965 
1207.438816  	0.086738 
1209.367632  	0.090169 
1211.296448  	0.092830 
1213.225264  	0.094894 
1215.154080  	0.096098 
1217.082896  	0.096799 
1219.011712  	0.096826 
1220.940528  	0.096621 
1222.869344  	0.095832 
1224.798160  	0.094921 
1226.726976  	0.093594 
1228.655792  	0.091985 
1230.584608  	0.090066 
1232.513424  	0.087711 
1234.442240  	0.085108 
1236.371056  	0.082471 
1238.299872  	0.079414 
1240.228688  	0.075740 
1242.157504  	0.072204 
1244.086320  	0.069134 
1246.015136  	0.065770 
1247.943952  	0.062293 
1249.872768  	0.058737 
1251.801584  	0.055485 
1253.730400  	0.052428 
1255.659216  	0.049360 
1257.588032  	0.046377 
1259.516848  	0.043734 
1261.445664  	0.041266 
1263.374480  	0.038909 
1265.303296  	0.036733 
1267.232112  	0.035108 
1269.160928  	0.034011 
1271.089744  	0.033356 
1273.018560  	0.032914 
1274.947376  	0.032851 
1276.876192  	0.033159 
1278.805008  	0.033416 
1280.733824  	0.033391 
1282.662640  	0.032580 
1284.591456  	0.031530 
1286.520272  	0.030816 
1288.449088  	0.030397 
1290.377904  	0.030197 
1292.306720  	0.030510 
1294.235536  	0.030891 
1296.164352  	0.030798 
1298.093168  	0.029877 
1300.021984  	0.028547 
1301.950800  	0.027109 
1303.879616  	0.025418 
1305.808432  	0.023745 
1307.737248  	0.022060 
1309.666064  	0.020358 
1311.594880  	0.019240 
1313.523696  	0.018528 
1315.452512  	0.017771 
1317.381328  	0.017591 
1319.310144  	0.017759 
1321.238960  	0.017716 
1323.167776  	0.017884 
1325.096592  	0.018226 
1327.025408  	0.018320 
1328.954224  	0.018306 
1330.883040  	0.017962 
1332.811856  	0.017178 
1334.740672  	0.016414 
1336.669488  	0.016373 
1338.598304  	0.017286 
1340.527120  	0.017485 
1342.455936  	0.015953 
1344.384752  	0.015414 
1346.313568  	0.015600 
1348.242384  	0.015958 
1350.171200  	0.016479 
1352.100016  	0.017226 
1354.028832  	0.018363 
1355.957648  	0.019597 
1357.886464  	0.020473 
1359.815280  	0.021497 
1361.744096  	0.023472 
1363.672912  	0.025308 
1365.601728  	0.025052 
1367.530544  	0.025508 
1369.459360  	0.026615 
1371.388176  	0.026650 
1373.316992  	0.026864 
1375.245808  	0.026971 
1377.174624  	0.025221 
1379.103440  	0.023739 
1381.032256  	0.022128 
1382.961072  	0.020612 
1384.889888  	0.019398 
1386.818704  	0.019716 
1388.747520  	0.019249 
1390.676336  	0.017216 
1392.605152  	0.015618 
1394.533968  	0.015980 
1396.462784  	0.016788 
1398.391600  	0.016546 
1400.320416  	0.016435 
1402.249232  	0.015552 
1404.178048  	0.016133 
1406.106864  	0.017082 
1408.035680  	0.017316 
1409.964496  	0.018138 
1411.893312  	0.019363 
1413.822128  	0.020407 
1415.750944  	0.021592 
1417.679760  	0.022743 
1419.608576  	0.024862 
1421.537392  	0.024066 
1423.466208  	0.023410 
1425.395024  	0.022907 
1427.323840  	0.020994 
1429.252656  	0.020266 
1431.181472  	0.019782 
1433.110288  	0.018771 
1435.039104  	0.018181 
1436.967920  	0.020342 
1438.896736  	0.020652 
1440.825552  	0.020237 
1442.754368  	0.020434 
1444.683184  	0.020297 
1446.612000  	0.020455 
1448.540816  	0.021367 
1450.469632  	0.021208 
1452.398448  	0.020961 
1454.327264  	0.020209 
1456.256080  	0.021298 
1458.184896  	0.025109 
1460.113712  	0.023129 
1462.042528  	0.020785 
1463.971344  	0.020590 
1465.900160  	0.022261 
1467.828976  	0.021780 
1469.757792  	0.021037 
1471.686608  	0.023159 
1473.615424  	0.029365 
1475.544240  	0.031358 
1477.473056  	0.033227 
1479.401872  	0.033694 
1481.330688  	0.035638 
1483.259504  	0.036804 
1485.188320  	0.036807 
1487.117136  	0.037578 
1489.045952  	0.039512 
1490.974768  	0.040105 
1492.903584  	0.036625 
1494.832400  	0.033013 
1496.761216  	0.031824 
1498.690032  	0.029923 
1500.618848  	0.026910 
1502.547664  	0.023175 
1504.476480  	0.019675 
1506.405296  	0.021149 
1508.334112  	0.025292 
1510.262928  	0.021211 
1512.191744  	0.018559 
1514.120560  	0.017272 
1516.049376  	0.018290 
1517.978192  	0.019729 
1519.907008  	0.019100 
1521.835824  	0.023141 
1523.764640  	0.024107 
1525.693456  	0.025232 
1527.622272  	0.026939 
1529.551088  	0.025879 
1531.479904  	0.023996 
1533.408720  	0.024571 
1535.337536  	0.023542 
1537.266352  	0.019667 
1539.195168  	0.018561 
1541.123984  	0.021265 
1543.052800  	0.020393 
1544.981616  	0.019419 
1546.910432  	0.016956 
1548.839248  	0.015878 
1550.768064  	0.016895 
1552.696880  	0.015556 
1554.625696  	0.015923 
1556.554512  	0.014891 
1558.483328  	0.018091 
1560.412144  	0.024212 
1562.340960  	0.020947 
1564.269776  	0.021022 
1566.198592  	0.023123 
1568.127408  	0.023863 
1570.056224  	0.029182 
1571.985040  	0.030678 
1573.913856  	0.029665 
1575.842672  	0.032556 
1577.771488  	0.036916 
1579.700304  	0.034847 
1581.629120  	0.034006 
1583.557936  	0.033727 
1585.486752  	0.034304 
1587.415568  	0.035176 
1589.344384  	0.037206 
1591.273200  	0.039636 
1593.202016  	0.042810 
1595.130832  	0.046397 
1597.059648  	0.049874 
1598.988464  	0.052240 
1600.917280  	0.054905 
1602.846096  	0.057182 
1604.774912  	0.058568 
1606.703728  	0.058715 
1608.632544  	0.059315 
1610.561360  	0.058790 
1612.490176  	0.057493 
1614.418992  	0.054751 
1616.347808  	0.056698 
1618.276624  	0.060667 
1620.205440  	0.059014 
1622.134256  	0.059015 
1624.063072  	0.064710 
1625.991888  	0.066229 
1627.920704  	0.069852 
1629.849520  	0.073970 
1631.778336  	0.074811 
1633.707152  	0.074327 
1635.635968  	0.082584 
1637.564784  	0.091199 
1639.493600  	0.089516 
1641.422416  	0.089571 
1643.351232  	0.088453 
1645.280048  	0.086976 
1647.208864  	0.094654 
1649.137680  	0.094230 
1651.066496  	0.085310 
1652.995312  	0.089520 
1654.924128  	0.099553 
1656.852944  	0.092081 
1658.781760  	0.088179 
1660.710576  	0.085429 
1662.639392  	0.085921 
1664.568208  	0.085368 
1666.497024  	0.080126 
1668.425840  	0.077462 
1670.354656  	0.078924 
1672.283472  	0.075905 
1674.212288  	0.072086 
1676.141104  	0.073847 
1678.069920  	0.070890 
1679.998736  	0.069269 
1681.927552  	0.066133 
1683.856368  	0.067505 
1685.785184  	0.072672 
1687.714000  	0.068134 
1689.642816  	0.067507 
1691.571632  	0.066244 
1693.500448  	0.062453 
1695.429264  	0.062719 
1697.358080  	0.065318 
1699.286896  	0.061871 
1701.215712  	0.066952 
1703.144528  	0.062488 
1705.073344  	0.060424 
1707.002160  	0.060120 
1708.930976  	0.056798 
1710.859792  	0.053566 
1712.788608  	0.049913 
1714.717424  	0.046354 
1716.646240  	0.043193 
1718.575056  	0.040039 
1720.503872  	0.034010 
1722.432688  	0.028588 
1724.361504  	0.024028 
1726.290320  	0.019459 
1728.219136  	0.015916 
1730.147952  	0.013496 
1732.076768  	0.010502 
1734.005584  	0.009315 
1735.934400  	0.007598 
1737.863216  	0.004892 
1739.792032  	0.003776 
1741.720848  	0.002903 
1743.649664  	0.002564 
1745.578480  	0.001527 
1747.507296  	0.000744 
1749.436112  	0.000956 
1751.364928  	0.000821 
1753.293744  	-0.000693 
1755.222560  	-0.001916 
1757.151376  	-0.001209 
1759.080192  	-0.001857 
1761.009008  	-0.002302 
1762.937824  	-0.002180 
1764.866640  	-0.002956 
1766.795456  	-0.003125 
1768.724272  	-0.002740 
1770.653088  	-0.003639 
1772.581904  	-0.002552 
1774.510720  	-0.002412 
1776.439536  	-0.003138 
1778.368352  	-0.004015 
1780.297168  	-0.003948 
1782.225984  	-0.004080 
1784.154800  	-0.004109 
1786.083616  	-0.004231 
1788.012432  	-0.004926 
1789.941248  	-0.004853 
1791.870064  	-0.003878 
1793.798880  	-0.003944 
1795.727696  	-0.004491 
1797.656512  	-0.005177 
1799.585328  	-0.005423 
1801.514144  	-0.004642 
1803.442960  	-0.004889 
1805.371776  	-0.005397 
1807.300592  	-0.005631 
1809.229408  	-0.005890 
1811.158224  	-0.005708 
1813.087040  	-0.005892 
1815.015856  	-0.006378 
1816.944672  	-0.006033 
1818.873488  	-0.005766 
1820.802304  	-0.005801 
1822.731120  	-0.005903 
1824.659936  	-0.005931 
1826.588752  	-0.006013 
1828.517568  	-0.006349 
1830.446384  	-0.005547 
1832.375200  	-0.005877 
1834.304016  	-0.006318 
1836.232832  	-0.006221 
1838.161648  	-0.005950 
1840.090464  	-0.006317 
1842.019280  	-0.006847 
1843.948096  	-0.006198 
1845.876912  	-0.005748 
1847.805728  	-0.006212 
1849.734544  	-0.006486 
1851.663360  	-0.006766 
1853.592176  	-0.006576 
1855.520992  	-0.006590 
1857.449808  	-0.006693 
1859.378624  	-0.007161 
1861.307440  	-0.007147 
1863.236256  	-0.007252 
1865.165072  	-0.007246 
1867.093888  	-0.006965 
1869.022704  	-0.005739 
1870.951520  	-0.006112 
1872.880336  	-0.006975 
1874.809152  	-0.007176 
1876.737968  	-0.007360 
1878.666784  	-0.007356 
1880.595600  	-0.007478 
1882.524416  	-0.007539 
1884.453232  	-0.007287 
1886.382048  	-0.007406 
1888.310864  	-0.007180 
1890.239680  	-0.006843 
1892.168496  	-0.006972 
1894.097312  	-0.007023 
1896.026128  	-0.007161 
1897.954944  	-0.007417 
1899.883760  	-0.007360 
1901.812576  	-0.007271 
1903.741392  	-0.007434 
1905.670208  	-0.007775 
1907.599024  	-0.007804 
1909.527840  	-0.007782 
1911.456656  	-0.007396 
1913.385472  	-0.007044 
1915.314288  	-0.007009 
1917.243104  	-0.007029 
1919.171920  	-0.006473 
1921.100736  	-0.006879 
1923.029552  	-0.007101 
1924.958368  	-0.007772 
1926.887184  	-0.007782 
1928.816000  	-0.007969 
1930.744816  	-0.008145 
1932.673632  	-0.008226 
1934.602448  	-0.008214 
1936.531264  	-0.008228 
1938.460080  	-0.007811 
1940.388896  	-0.007643 
1942.317712  	-0.006941 
1944.246528  	-0.007247 
1946.175344  	-0.007498 
1948.104160  	-0.007549 
1950.032976  	-0.007690 
1951.961792  	-0.008183 
1953.890608  	-0.008840 
1955.819424  	-0.009335 
1957.748240  	-0.008935 
1959.677056  	-0.008858 
1961.605872  	-0.008783 
1963.534688  	-0.008633 
1965.463504  	-0.008258 
1967.392320  	-0.008604 
1969.321136  	-0.008730 
1971.249952  	-0.008814 
1973.178768  	-0.009180 
1975.107584  	-0.008936 
1977.036400  	-0.006966 
1978.965216  	-0.006182 
1980.894032  	-0.007595 
1982.822848  	-0.008753 
1984.751664  	-0.007542 
1986.680480  	-0.006930 
1988.609296  	-0.007019 
1990.538112  	-0.006879 
1992.466928  	-0.005977 
1994.395744  	-0.007380 
1996.324560  	-0.008038 
1998.253376  	-0.007375 
2000.182192  	-0.007925 
2002.111008  	-0.008485 
2004.039824  	-0.007818 
2005.968640  	-0.007971 
2007.897456  	-0.008146 
2009.826272  	-0.007727 
2011.755088  	-0.006931 
2013.683904  	-0.007690 
2015.612720  	-0.007886 
2017.541536  	-0.008074 
2019.470352  	-0.008249 
2021.399168  	-0.007897 
2023.327984  	-0.007577 
2025.256800  	-0.007677 
2027.185616  	-0.007329 
2029.114432  	-0.007682 
2031.043248  	-0.007466 
2032.972064  	-0.007231 
2034.900880  	-0.006849 
2036.829696  	-0.006683 
2038.758512  	-0.006439 
2040.687328  	-0.007319 
2042.616144  	-0.006802 
2044.544960  	-0.006236 
2046.473776  	-0.006395 
2048.402592  	-0.005900 
2050.331408  	-0.005355 
2052.260224  	-0.005524 
2054.189040  	-0.005720 
2056.117856  	-0.006447 
2058.046672  	-0.006400 
2059.975488  	-0.006281 
2061.904304  	-0.005833 
2063.833120  	-0.005503 
2065.761936  	-0.005289 
2067.690752  	-0.005359 
2069.619568  	-0.005458 
2071.548384  	-0.005755 
2073.477200  	-0.005148 
2075.406016  	-0.004659 
2077.334832  	-0.004724 
2079.263648  	-0.004753 
2081.192464  	-0.004694 
2083.121280  	-0.004921 
2085.050096  	-0.004933 
2086.978912  	-0.005214 
2088.907728  	-0.005003 
2090.836544  	-0.004780 
2092.765360  	-0.005288 
2094.694176  	-0.005067 
2096.622992  	-0.004361 
2098.551808  	-0.004804 
2100.480624  	-0.005099 
2102.409440  	-0.004730 
2104.338256  	-0.004384 
2106.267072  	-0.004458 
2108.195888  	-0.004290 
2110.124704  	-0.004314 
2112.053520  	-0.004273 
2113.982336  	-0.004034 
2115.911152  	-0.004314 
2117.839968  	-0.004965 
2119.768784  	-0.005010 
2121.697600  	-0.004925 
2123.626416  	-0.005181 
2125.555232  	-0.005609 
2127.484048  	-0.005618 
2129.412864  	-0.004803 
2131.341680  	-0.004322 
2133.270496  	-0.004655 
2135.199312  	-0.004527 
2137.128128  	-0.004327 
2139.056944  	-0.004243 
2140.985760  	-0.004235 
2142.914576  	-0.004096 
2144.843392  	-0.004542 
2146.772208  	-0.004731 
2148.701024  	-0.004283 
2150.629840  	-0.003632 
2152.558656  	-0.003526 
2154.487472  	-0.004010 
2156.416288  	-0.005056 
2158.345104  	-0.003044 
2160.273920  	-0.000076 
2162.202736  	-0.000240 
2164.131552  	-0.001582 
2166.060368  	-0.001331 
2167.989184  	-0.002064 
2169.918000  	-0.003879 
2171.846816  	-0.003839 
2173.775632  	-0.002985 
2175.704448  	-0.003191 
2177.633264  	-0.002874 
2179.562080  	-0.003246 
2181.490896  	-0.002938 
2183.419712  	-0.002539 
2185.348528  	-0.002582 
2187.277344  	-0.002806 
2189.206160  	-0.003277 
2191.134976  	-0.002652 
2193.063792  	-0.002572 
2194.992608  	-0.002900 
2196.921424  	-0.003247 
2198.850240  	-0.003961 
2200.779056  	-0.004251 
2202.707872  	-0.004044 
2204.636688  	-0.003570 
2206.565504  	-0.004080 
2208.494320  	-0.004510 
2210.423136  	-0.004561 
2212.351952  	-0.004152 
2214.280768  	-0.003785 
2216.209584  	-0.003531 
2218.138400  	-0.004014 
2220.067216  	-0.004562 
2221.996032  	-0.004607 
2223.924848  	-0.004031 
2225.853664  	-0.003699 
2227.782480  	-0.003785 
2229.711296  	-0.004541 
2231.640112  	-0.004988 
2233.568928  	-0.004902 
2235.497744  	-0.005144 
2237.426560  	-0.005218 
2239.355376  	-0.004857 
2241.284192  	-0.005136 
2243.213008  	-0.005338 
2245.141824  	-0.005341 
2247.070640  	-0.005146 
2248.999456  	-0.004767 
2250.928272  	-0.004643 
2252.857088  	-0.004813 
2254.785904  	-0.004386 
2256.714720  	-0.004098 
2258.643536  	-0.003995 
2260.572352  	-0.003743 
2262.501168  	-0.003627 
2264.429984  	-0.003468 
2266.358800  	-0.003525 
2268.287616  	-0.004079 
2270.216432  	-0.003978 
2272.145248  	-0.003642 
2274.074064  	-0.003602 
2276.002880  	-0.003598 
2277.931696  	-0.003537 
2279.860512  	-0.003723 
2281.789328  	-0.003861 
2283.718144  	-0.003833 
2285.646960  	-0.003287 
2287.575776  	-0.003151 
2289.504592  	-0.003000 
2291.433408  	-0.003091 
2293.362224  	-0.003123 
2295.291040  	-0.003139 
2297.219856  	-0.002917 
2299.148672  	-0.002810 
2301.077488  	-0.002651 
2303.006304  	-0.002208 
2304.935120  	-0.001971 
2306.863936  	-0.001842 
2308.792752  	-0.001557 
2310.721568  	-0.001591 
2312.650384  	-0.001962 
2314.579200  	-0.002401 
2316.508016  	-0.002213 
2318.436832  	-0.001833 
2320.365648  	-0.001511 
2322.294464  	-0.001460 
2324.223280  	-0.002100 
2326.152096  	-0.003423 
2328.080912  	-0.004335 
2330.009728  	-0.004474 
2331.938544  	-0.004557 
2333.867360  	-0.004908 
2335.796176  	-0.005399 
2337.724992  	-0.005949 
2339.653808  	-0.006038 
2341.582624  	-0.005563 
2343.511440  	-0.004427 
2345.440256  	-0.003050 
2347.369072  	-0.002710 
2349.297888  	-0.003750 
2351.226704  	-0.004853 
2353.155520  	-0.005575 
2355.084336  	-0.006081 
2357.013152  	-0.006129 
2358.941968  	-0.005604 
2360.870784  	-0.005590 
2362.799600  	-0.005573 
2364.728416  	-0.004910 
2366.657232  	-0.004651 
2368.586048  	-0.003982 
2370.514864  	-0.003040 
2372.443680  	-0.002858 
2374.372496  	-0.002210 
2376.301312  	-0.001775 
2378.230128  	-0.001854 
2380.158944  	-0.002026 
2382.087760  	-0.002489 
2384.016576  	-0.003275 
2385.945392  	-0.003765 
2387.874208  	-0.003909 
2389.803024  	-0.004180 
2391.731840  	-0.004470 
2393.660656  	-0.004601 
2395.589472  	-0.004509 
2397.518288  	-0.004357 
2399.447104  	-0.004401 
2401.375920  	-0.004486 
2403.304736  	-0.004589 
2405.233552  	-0.004542 
2407.162368  	-0.004578 
2409.091184  	-0.004630 
2411.020000  	-0.004566 
2412.948816  	-0.004681 
2414.877632  	-0.004756 
2416.806448  	-0.004570 
2418.735264  	-0.004397 
2420.664080  	-0.004289 
2422.592896  	-0.004331 
2424.521712  	-0.004386 
2426.450528  	-0.004372 
2428.379344  	-0.004270 
2430.308160  	-0.004160 
2432.236976  	-0.004083 
2434.165792  	-0.003897 
2436.094608  	-0.003718 
2438.023424  	-0.003766 
2439.952240  	-0.003803 
2441.881056  	-0.003690 
2443.809872  	-0.003776 
2445.738688  	-0.003688 
2447.667504  	-0.003503 
2449.596320  	-0.003395 
2451.525136  	-0.003282 
2453.453952  	-0.003243 
2455.382768  	-0.003307 
2457.311584  	-0.003499 
2459.240400  	-0.003637 
2461.169216  	-0.003476 
2463.098032  	-0.003344 
2465.026848  	-0.003560 
2466.955664  	-0.003629 
2468.884480  	-0.003643 
2470.813296  	-0.003649 
2472.742112  	-0.003557 
2474.670928  	-0.003408 
2476.599744  	-0.003129 
2478.528560  	-0.002939 
2480.457376  	-0.002851 
2482.386192  	-0.002713 
2484.315008  	-0.002820 
2486.243824  	-0.002778 
2488.172640  	-0.002532 
2490.101456  	-0.002450 
2492.030272  	-0.002432 
2493.959088  	-0.002497 
2495.887904  	-0.002567 
2497.816720  	-0.002265 
2499.745536  	-0.002173 
2501.674352  	-0.002252 
2503.603168  	-0.002106 
2505.531984  	-0.002111 
2507.460800  	-0.002379 
2509.389616  	-0.002563 
2511.318432  	-0.002520 
2513.247248  	-0.002303 
2515.176064  	-0.002013 
2517.104880  	-0.002106 
2519.033696  	-0.002359 
2520.962512  	-0.002255 
2522.891328  	-0.001962 
2524.820144  	-0.001662 
2526.748960  	-0.001641 
2528.677776  	-0.001571 
2530.606592  	-0.001574 
2532.535408  	-0.001580 
2534.464224  	-0.001569 
2536.393040  	-0.001762 
2538.321856  	-0.001541 
2540.250672  	-0.001219 
2542.179488  	-0.001255 
2544.108304  	-0.001329 
2546.037120  	-0.001187 
2547.965936  	-0.000965 
2549.894752  	-0.000860 
2551.823568  	-0.000723 
2553.752384  	-0.000680 
2555.681200  	-0.000922 
2557.610016  	-0.000890 
2559.538832  	-0.000862 
2561.467648  	-0.000783 
2563.396464  	-0.000536 
2565.325280  	-0.000476 
2567.254096  	-0.000658 
2569.182912  	-0.000685 
2571.111728  	-0.000557 
2573.040544  	-0.000456 
2574.969360  	-0.000307 
2576.898176  	-0.000154 
2578.826992  	-0.000211 
2580.755808  	-0.000222 
2582.684624  	-0.000019 
2584.613440  	0.000059 
2586.542256  	0.000057 
2588.471072  	-0.000044 
2590.399888  	0.000042 
2592.328704  	0.000178 
2594.257520  	0.000235 
2596.186336  	0.000146 
2598.115152  	0.000178 
2600.043968  	0.000496 
2601.972784  	0.000635 
2603.901600  	0.000550 
2605.830416  	0.000393 
2607.759232  	0.000339 
2609.688048  	0.000349 
2611.616864  	0.000605 
2613.545680  	0.000776 
2615.474496  	0.000814 
2617.403312  	0.000865 
2619.332128  	0.000886 
2621.260944  	0.001015 
2623.189760  	0.001080 
2625.118576  	0.001167 
2627.047392  	0.001186 
2628.976208  	0.001333 
2630.905024  	0.001449 
2632.833840  	0.001477 
2634.762656  	0.001483 
2636.691472  	0.001599 
2638.620288  	0.001660 
2640.549104  	0.001739 
2642.477920  	0.001902 
2644.406736  	0.001895 
2646.335552  	0.001861 
2648.264368  	0.001999 
2650.193184  	0.002128 
2652.122000  	0.002123 
2654.050816  	0.002154 
2655.979632  	0.002203 
2657.908448  	0.002282 
2659.837264  	0.002335 
2661.766080  	0.002383 
2663.694896  	0.002470 
2665.623712  	0.002499 
2667.552528  	0.002544 
2669.481344  	0.002557 
2671.410160  	0.002555 
2673.338976  	0.002667 
2675.267792  	0.002839 
2677.196608  	0.003004 
2679.125424  	0.003034 
2681.054240  	0.003130 
2682.983056  	0.003340 
2684.911872  	0.003375 
2686.840688  	0.003374 
2688.769504  	0.003442 
2690.698320  	0.003535 
2692.627136  	0.003624 
2694.555952  	0.003573 
2696.484768  	0.003631 
2698.413584  	0.003716 
2700.342400  	0.003737 
2702.271216  	0.003821 
2704.200032  	0.003905 
2706.128848  	0.004054 
2708.057664  	0.004207 
2709.986480  	0.004238 
2711.915296  	0.004286 
2713.844112  	0.004320 
2715.772928  	0.004323 
2717.701744  	0.004354 
2719.630560  	0.004507 
2721.559376  	0.004593 
2723.488192  	0.004635 
2725.417008  	0.004794 
2727.345824  	0.004845 
2729.274640  	0.005011 
2731.203456  	0.005119 
2733.132272  	0.005122 
2735.061088  	0.005242 
2736.989904  	0.005318 
2738.918720  	0.005395 
2740.847536  	0.005442 
2742.776352  	0.005555 
2744.705168  	0.005661 
2746.633984  	0.005664 
2748.562800  	0.005715 
2750.491616  	0.005786 
2752.420432  	0.005794 
2754.349248  	0.005738 
2756.278064  	0.005659 
2758.206880  	0.005604 
2760.135696  	0.005632 
2762.064512  	0.005685 
2763.993328  	0.005801 
2765.922144  	0.005873 
2767.850960  	0.005831 
2769.779776  	0.005791 
2771.708592  	0.005765 
2773.637408  	0.005760 
2775.566224  	0.005734 
2777.495040  	0.005777 
2779.423856  	0.005761 
2781.352672  	0.005773 
2783.281488  	0.005814 
2785.210304  	0.005864 
2787.139120  	0.005973 
2789.067936  	0.006025 
2790.996752  	0.005990 
2792.925568  	0.005950 
2794.854384  	0.005959 
2796.783200  	0.005999 
2798.712016  	0.006030 
2800.640832  	0.006064 
2802.569648  	0.006093 
2804.498464  	0.006154 
2806.427280  	0.006266 
2808.356096  	0.006374 
2810.284912  	0.006267 
2812.213728  	0.006202 
2814.142544  	0.006318 
2816.071360  	0.006339 
2818.000176  	0.006329 
2819.928992  	0.006289 
2821.857808  	0.006249 
2823.786624  	0.006257 
2825.715440  	0.006294 
2827.644256  	0.006205 
2829.573072  	0.006195 
2831.501888  	0.006318 
2833.430704  	0.006394 
2835.359520  	0.006323 
2837.288336  	0.006187 
2839.217152  	0.006186 
2841.145968  	0.006037 
2843.074784  	0.005921 
2845.003600  	0.006052 
2846.932416  	0.006077 
2848.861232  	0.006040 
2850.790048  	0.005959 
2852.718864  	0.006019 
2854.647680  	0.006070 
2856.576496  	0.006030 
2858.505312  	0.006001 
2860.434128  	0.005985 
2862.362944  	0.005937 
2864.291760  	0.006000 
2866.220576  	0.006014 
2868.149392  	0.005904 
2870.078208  	0.005943 
2872.007024  	0.006174 
2873.935840  	0.006402 
2875.864656  	0.006478 
2877.793472  	0.006549 
2879.722288  	0.006764 
2881.651104  	0.006916 
2883.579920  	0.007048 
2885.508736  	0.007259 
2887.437552  	0.007419 
2889.366368  	0.007389 
2891.295184  	0.007335 
2893.224000  	0.007269 
2895.152816  	0.007269 
2897.081632  	0.007306 
2899.010448  	0.007029 
2900.939264  	0.006712 
2902.868080  	0.006913 
2904.796896  	0.007270 
2906.725712  	0.007465 
2908.654528  	0.007642 
2910.583344  	0.007760 
2912.512160  	0.007922 
2914.440976  	0.008257 
2916.369792  	0.008695 
2918.298608  	0.008931 
2920.227424  	0.009136 
2922.156240  	0.009475 
2924.085056  	0.009798 
2926.013872  	0.009955 
2927.942688  	0.010306 
2929.871504  	0.010839 
2931.800320  	0.011172 
2933.729136  	0.011668 
2935.657952  	0.012081 
2937.586768  	0.012361 
2939.515584  	0.012523 
2941.444400  	0.012547 
2943.373216  	0.012730 
2945.302032  	0.013063 
2947.230848  	0.013246 
2949.159664  	0.013118 
2951.088480  	0.012904 
2953.017296  	0.012844 
2954.946112  	0.012806 
2956.874928  	0.012680 
2958.803744  	0.012489 
2960.732560  	0.012307 
2962.661376  	0.012188 
2964.590192  	0.012051 
2966.519008  	0.011805 
2968.447824  	0.011497 
2970.376640  	0.011291 
2972.305456  	0.011153 
2974.234272  	0.011336 
2976.163088  	0.011335 
2978.091904  	0.011224 
2980.020720  	0.011226 
2981.949536  	0.011128 
2983.878352  	0.011003 
2985.807168  	0.010861 
2987.735984  	0.010839 
2989.664800  	0.010961 
2991.593616  	0.011422 
2993.522432  	0.011758 
2995.451248  	0.011966 
2997.380064  	0.012318 
2999.308880  	0.012770 
3001.237696  	0.013150 
3003.166512  	0.013380 
3005.095328  	0.013563 
3007.024144  	0.013808 
3008.952960  	0.014243 
3010.881776  	0.014786 
3012.810592  	0.015235 
3014.739408  	0.015525 
3016.668224  	0.015800 
3018.597040  	0.016085 
3020.525856  	0.016517 
3022.454672  	0.017049 
3024.383488  	0.017422 
3026.312304  	0.017796 
3028.241120  	0.018010 
3030.169936  	0.018334 
3032.098752  	0.018823 
3034.027568  	0.018992 
3035.956384  	0.019299 
3037.885200  	0.019628 
3039.814016  	0.019835 
3041.742832  	0.020119 
3043.671648  	0.020533 
3045.600464  	0.020858 
3047.529280  	0.021079 
3049.458096  	0.021468 
3051.386912  	0.021644 
3053.315728  	0.021730 
3055.244544  	0.022093 
3057.173360  	0.022717 
3059.102176  	0.023156 
3061.030992  	0.023409 
3062.959808  	0.023550 
3064.888624  	0.024024 
3066.817440  	0.024596 
3068.746256  	0.025024 
3070.675072  	0.025341 
3072.603888  	0.025678 
3074.532704  	0.026080 
3076.461520  	0.026428 
3078.390336  	0.026762 
3080.319152  	0.027273 
3082.247968  	0.027703 
3084.176784  	0.028193 
3086.105600  	0.028616 
3088.034416  	0.028987 
3089.963232  	0.029160 
3091.892048  	0.029413 
3093.820864  	0.029726 
3095.749680  	0.030419 
3097.678496  	0.030919 
3099.607312  	0.031215 
3101.536128  	0.031810 
3103.464944  	0.032199 
3105.393760  	0.032363 
3107.322576  	0.032721 
3109.251392  	0.033187 
3111.180208  	0.033461 
3113.109024  	0.033448 
3115.037840  	0.033792 
3116.966656  	0.034482 
3118.895472  	0.034764 
3120.824288  	0.034839 
3122.753104  	0.035139 
3124.681920  	0.035360 
3126.610736  	0.035793 
3128.539552  	0.036209 
3130.468368  	0.036159 
3132.397184  	0.036452 
3134.326000  	0.036884 
3136.254816  	0.037142 
3138.183632  	0.037433 
3140.112448  	0.037666 
3142.041264  	0.037940 
3143.970080  	0.038275 
3145.898896  	0.038456 
3147.827712  	0.038716 
3149.756528  	0.039220 
3151.685344  	0.039405 
3153.614160  	0.039532 
3155.542976  	0.039832 
3157.471792  	0.040099 
3159.400608  	0.040296 
3161.329424  	0.040559 
3163.258240  	0.041002 
3165.187056  	0.041278 
3167.115872  	0.041320 
3169.044688  	0.041498 
3170.973504  	0.041673 
3172.902320  	0.041700 
3174.831136  	0.041811 
3176.759952  	0.041927 
3178.688768  	0.042314 
3180.617584  	0.042348 
3182.546400  	0.042292 
3184.475216  	0.042377 
3186.404032  	0.042626 
3188.332848  	0.042702 
3190.261664  	0.042664 
3192.190480  	0.042727 
3194.119296  	0.042863 
3196.048112  	0.042687 
3197.976928  	0.042869 
3199.905744  	0.042960 
3201.834560  	0.042842 
3203.763376  	0.042792 
3205.692192  	0.042581 
3207.621008  	0.042362 
3209.549824  	0.042523 
3211.478640  	0.042541 
3213.407456  	0.042283 
3215.336272  	0.042448 
3217.265088  	0.042264 
3219.193904  	0.042203 
3221.122720  	0.042323 
3223.051536  	0.042134 
3224.980352  	0.041927 
3226.909168  	0.041894 
3228.837984  	0.041688 
3230.766800  	0.041506 
3232.695616  	0.041715 
3234.624432  	0.041679 
3236.553248  	0.041705 
3238.482064  	0.041792 
3240.410880  	0.041566 
3242.339696  	0.041283 
3244.268512  	0.041346 
3246.197328  	0.041521 
3248.126144  	0.041399 
3250.054960  	0.041581 
3251.983776  	0.041603 
3253.912592  	0.041788 
3255.841408  	0.041976 
3257.770224  	0.042056 
3259.699040  	0.042236 
3261.627856  	0.042331 
3263.556672  	0.042093 
3265.485488  	0.042171 
3267.414304  	0.042314 
3269.343120  	0.042406 
3271.271936  	0.042400 
3273.200752  	0.042619 
3275.129568  	0.042785 
3277.058384  	0.042966 
3278.987200  	0.042950 
3280.916016  	0.042869 
3282.844832  	0.042894 
3284.773648  	0.042972 
3286.702464  	0.043125 
3288.631280  	0.043291 
3290.560096  	0.043261 
3292.488912  	0.043249 
3294.417728  	0.043270 
3296.346544  	0.043396 
3298.275360  	0.043689 
3300.204176  	0.043683 
3302.132992  	0.043496 
3304.061808  	0.043587 
3305.990624  	0.043771 
3307.919440  	0.043909 
3309.848256  	0.044060 
3311.777072  	0.044085 
3313.705888  	0.044254 
3315.634704  	0.044312 
3317.563520  	0.044428 
3319.492336  	0.044553 
3321.421152  	0.044698 
3323.349968  	0.044905 
3325.278784  	0.044948 
3327.207600  	0.045095 
3329.136416  	0.044959 
3331.065232  	0.044778 
3332.994048  	0.044758 
3334.922864  	0.044974 
3336.851680  	0.045220 
3338.780496  	0.044977 
3340.709312  	0.044709 
3342.638128  	0.044678 
3344.566944  	0.044510 
3346.495760  	0.044350 
3348.424576  	0.044314 
3350.353392  	0.044265 
3352.282208  	0.043881 
3354.211024  	0.043577 
3356.139840  	0.043484 
3358.068656  	0.043326 
3359.997472  	0.043066 
3361.926288  	0.042905 
3363.855104  	0.042597 
3365.783920  	0.042479 
3367.712736  	0.042366 
3369.641552  	0.042044 
3371.570368  	0.041827 
3373.499184  	0.041844 
3375.428000  	0.041728 
3377.356816  	0.041559 
3379.285632  	0.041512 
3381.214448  	0.041178 
3383.143264  	0.041007 
3385.072080  	0.041207 
3387.000896  	0.040810 
3388.929712  	0.040344 
3390.858528  	0.040134 
3392.787344  	0.040425 
3394.716160  	0.040155 
3396.644976  	0.039860 
3398.573792  	0.039712 
3400.502608  	0.039053 
3402.431424  	0.038681 
3404.360240  	0.038441 
3406.289056  	0.038142 
3408.217872  	0.038025 
3410.146688  	0.037799 
3412.075504  	0.037252 
3414.004320  	0.037044 
3415.933136  	0.037044 
3417.861952  	0.036732 
3419.790768  	0.036744 
3421.719584  	0.037079 
3423.648400  	0.036578 
3425.577216  	0.035793 
3427.506032  	0.035437 
3429.434848  	0.035250 
3431.363664  	0.035308 
3433.292480  	0.035231 
3435.221296  	0.034856 
3437.150112  	0.034317 
3439.078928  	0.033924 
3441.007744  	0.033509 
3442.936560  	0.033533 
3444.865376  	0.032726 
3446.794192  	0.033038 
3448.723008  	0.033466 
3450.651824  	0.032265 
3452.580640  	0.031796 
3454.509456  	0.031527 
3456.438272  	0.031168 
3458.367088  	0.030733 
3460.295904  	0.030512 
3462.224720  	0.030452 
3464.153536  	0.029937 
3466.082352  	0.029360 
3468.011168  	0.029300 
3469.939984  	0.028823 
3471.868800  	0.028091 
3473.797616  	0.027563 
3475.726432  	0.027480 
3477.655248  	0.026686 
3479.584064  	0.026030 
3481.512880  	0.026498 
3483.441696  	0.026583 
3485.370512  	0.025611 
3487.299328  	0.025248 
3489.228144  	0.024852 
3491.156960  	0.024088 
3493.085776  	0.023688 
3495.014592  	0.023552 
3496.943408  	0.023538 
3498.872224  	0.022804 
3500.801040  	0.022156 
3502.729856  	0.022685 
3504.658672  	0.023010 
3506.587488  	0.021492 
3508.516304  	0.020836 
3510.445120  	0.021361 
3512.373936  	0.020835 
3514.302752  	0.020350 
3516.231568  	0.019713 
3518.160384  	0.019404 
3520.089200  	0.018812 
3522.018016  	0.018347 
3523.946832  	0.018948 
3525.875648  	0.018345 
3527.804464  	0.018180 
3529.733280  	0.018284 
3531.662096  	0.017405 
3533.590912  	0.016206 
3535.519728  	0.016005 
3537.448544  	0.016421 
3539.377360  	0.015713 
3541.306176  	0.014657 
3543.234992  	0.014375 
3545.163808  	0.015547 
3547.092624  	0.016300 
3549.021440  	0.014780 
3550.950256  	0.013395 
3552.879072  	0.014164 
3554.807888  	0.013555 
3556.736704  	0.012266 
3558.665520  	0.011955 
3560.594336  	0.012143 
3562.523152  	0.011310 
3564.451968  	0.010330 
3566.380784  	0.012632 
3568.309600  	0.015529 
3570.238416  	0.012612 
3572.167232  	0.010180 
3574.096048  	0.009512 
3576.024864  	0.009282 
3577.953680  	0.008975 
3579.882496  	0.008738 
3581.811312  	0.008031 
3583.740128  	0.006773 
3585.668944  	0.006056 
3587.597760  	0.009223 
3589.526576  	0.009485 
3591.455392  	0.006249 
3593.384208  	0.005726 
3595.313024  	0.006632 
3597.241840  	0.005872 
3599.170656  	0.004693 
3601.099472  	0.004940 
3603.028288  	0.004214 
3604.957104  	0.002512 
3606.885920  	0.002694 
3608.814736  	0.004255 
3610.743552  	0.002781 
3612.672368  	0.002294 
3614.601184  	0.002603 
3616.530000  	0.000698 
3618.458816  	0.001335 
3620.387632  	0.002825 
3622.316448  	0.000909 
3624.245264  	-0.001403 
3626.174080  	-0.003187 
3628.102896  	-0.001719 
3630.031712  	0.002997 
3631.960528  	-0.000656 
3633.889344  	-0.001858 
3635.818160  	-0.002399 
3637.746976  	-0.003518 
3639.675792  	-0.004134 
3641.604608  	-0.004636 
3643.533424  	-0.005549 
3645.462240  	-0.007163 
3647.391056  	-0.005637 
3649.319872  	-0.002312 
3651.248688  	-0.001143 
3653.177504  	-0.005465 
3655.106320  	-0.007592 
3657.035136  	-0.005663 
3658.963952  	-0.006653 
3660.892768  	-0.007668 
3662.821584  	-0.008217 
3664.750400  	-0.008865 
3666.679216  	-0.009911 
3668.608032  	-0.009784 
3670.536848  	-0.006623 
3672.465664  	-0.008752 
3674.394480  	-0.010173 
3676.323296  	-0.005118 
3678.252112  	-0.006874 
3680.180928  	-0.008116 
3682.109744  	-0.009210 
3684.038560  	-0.009943 
3685.967376  	-0.011306 
3687.896192  	-0.010672 
3689.825008  	-0.007762 
3691.753824  	-0.007437 
3693.682640  	-0.008754 
3695.611456  	-0.009727 
3697.540272  	-0.009840 
3699.469088  	-0.010889 
3701.397904  	-0.009987 
3703.326720  	-0.008784 
3705.255536  	-0.009807 
3707.184352  	-0.010749 
3709.113168  	-0.010693 
3711.041984  	-0.008502 
3712.970800  	-0.006787 
3714.899616  	-0.008419 
3716.828432  	-0.009923 
3718.757248  	-0.009842 
3720.686064  	-0.010091 
3722.614880  	-0.009570 
3724.543696  	-0.008990 
3726.472512  	-0.007999 
3728.401328  	-0.009234 
3730.330144  	-0.011912 
3732.258960  	-0.011977 
3734.187776  	-0.009760 
3736.116592  	-0.005777 
3738.045408  	-0.006747 
3739.974224  	-0.008831 
3741.903040  	-0.010900 
3743.831856  	-0.010236 
3745.760672  	-0.006647 
3747.689488  	-0.010032 
3749.618304  	-0.009374 
3751.547120  	-0.005767 
3753.475936  	-0.006367 
3755.404752  	-0.009161 
3757.333568  	-0.009677 
3759.262384  	-0.008531 
3761.191200  	-0.007917 
3763.120016  	-0.009795 
3765.048832  	-0.009366 
3766.977648  	-0.009003 
3768.906464  	-0.009382 
3770.835280  	-0.007946 
3772.764096  	-0.008618 
3774.692912  	-0.009662 
3776.621728  	-0.010426 
3778.550544  	-0.009896 
3780.479360  	-0.008430 
3782.408176  	-0.009539 
3784.336992  	-0.009524 
3786.265808  	-0.009001 
3788.194624  	-0.009430 
3790.123440  	-0.009642 
3792.052256  	-0.009941 
3793.981072  	-0.010900 
3795.909888  	-0.009923 
3797.838704  	-0.008963 
3799.767520  	-0.010544 
3801.696336  	-0.007510 
3803.625152  	-0.007899 
3805.553968  	-0.010305 
3807.482784  	-0.007931 
3809.411600  	-0.008347 
3811.340416  	-0.009826 
3813.269232  	-0.011140 
3815.198048  	-0.010307 
3817.126864  	-0.008021 
3819.055680  	-0.010312 
3820.984496  	-0.007926 
3822.913312  	-0.006470 
3824.842128  	-0.009313 
3826.770944  	-0.009068 
3828.699760  	-0.009404 
3830.628576  	-0.009954 
3832.557392  	-0.009540 
3834.486208  	-0.010260 
3836.415024  	-0.010169 
3838.343840  	-0.008292 
3840.272656  	-0.007038 
3842.201472  	-0.007722 
3844.130288  	-0.007715 
3846.059104  	-0.008764 
3847.987920  	-0.010401 
3849.916736  	-0.011457 
3851.845552  	-0.011354 
3853.774368  	-0.005027 
3855.703184  	-0.005013 
3857.632000  	-0.007395 
3859.560816  	-0.009350 
3861.489632  	-0.009787 
3863.418448  	-0.008846 
3865.347264  	-0.007330 
3867.276080  	-0.009416 
3869.204896  	-0.008931 
3871.133712  	-0.006253 
3873.062528  	-0.008284 
3874.991344  	-0.007609 
3876.920160  	-0.009561 
3878.848976  	-0.010620 
3880.777792  	-0.007918 
3882.706608  	-0.008057 
3884.635424  	-0.008975 
3886.564240  	-0.007224 
3888.493056  	-0.009612 
3890.421872  	-0.010038 
3892.350688  	-0.007892 
3894.279504  	-0.008541 
3896.208320  	-0.010258 
3898.137136  	-0.010240 
3900.065952  	-0.008464 
3901.994768  	-0.007918 
3903.923584  	-0.006855 
3905.852400  	-0.006500 
3907.781216  	-0.008357 
3909.710032  	-0.009607 
3911.638848  	-0.009945 
3913.567664  	-0.010205 
3915.496480  	-0.009815 
3917.425296  	-0.008253 
3919.354112  	-0.008164 
3921.282928  	-0.008563 
3923.211744  	-0.008817 
3925.140560  	-0.007992 
3927.069376  	-0.008856 
3928.998192  	-0.009399 
3930.927008  	-0.008554 
3932.855824  	-0.007793 
3934.784640  	-0.008413 
3936.713456  	-0.009123 
3938.642272  	-0.009372 
3940.571088  	-0.009648 
3942.499904  	-0.008497 
3944.428720  	-0.008360 
3946.357536  	-0.009369 
3948.286352  	-0.008607 
3950.215168  	-0.008358 
3952.143984  	-0.009125 
3954.072800  	-0.009611 
3956.001616  	-0.009533 
3957.930432  	-0.009230 
3959.859248  	-0.009037 
3961.788064  	-0.008779 
3963.716880  	-0.008955 
3965.645696  	-0.009417 
3967.574512  	-0.009552 
3969.503328  	-0.009620 
3971.432144  	-0.009559 
3973.360960  	-0.009135 
3975.289776  	-0.008675 
3977.218592  	-0.008937 
3979.147408  	-0.009319 
3981.076224  	-0.009325 
3983.005040  	-0.009280 
3984.933856  	-0.009204 
3986.862672  	-0.009200 
3988.791488  	-0.009484 
3990.720304  	-0.009284 
3992.649120  	-0.009294 
3994.577936  	-0.009303 
3996.506752  	-0.009385 
3998.435568  	-0.009440 
4000.364384  	-0.009279 