##TITLE=No Description
##DATA TYPE=INFRARED SPECTRUM
##XUNITS=1/CM
##YUNITS=Abs
399.264912  	0.570349 
401.193728  	0.571362 
403.122544  	0.575330 
405.051360  	0.575759 
406.980176  	0.569717 
408.908992  	0.552796 
410.837808  	0.549787 
412.766624  	0.552124 
414.695440  	0.558809 
416.624256  	0.553222 
418.553072  	0.563532 
420.481888  	0.550937 
422.410704  	0.547490 
424.339520  	0.533524 
426.268336  	0.535520 
428.197152  	0.536961 
430.125968  	0.531988 
432.054784  	0.525292 
433.983600  	0.524209 
435.912416  	0.518827 
437.841232  	0.515486 
439.770048  	0.508260 
441.698864  	0.513787 
443.627680  	0.512271 
445.556496  	0.511500 
447.485312  	0.504653 
449.414128  	0.503190 
451.342944  	0.501926 
453.271760  	0.504804 
455.200576  	0.503019 
457.129392  	0.500639 
459.058208  	0.499104 
460.987024  	0.502380 
462.915840  	0.498576 
464.844656  	0.495573 
466.773472  	0.491650 
468.702288  	0.493552 
470.631104  	0.494474 
472.559920  	0.493437 
474.488736  	0.486773 
476.417552  	0.490464 
478.346368  	0.488690 
480.275184  	0.487787 
482.204000  	0.488266 
484.132816  	0.487293 
486.061632  	0.480093 
487.990448  	0.476079 
489.919264  	0.476476 
491.848080  	0.480192 
493.776896  	0.478024 
495.705712  	0.475824 
497.634528  	0.470346 
499.563344  	0.471083 
501.492160  	0.471430 
503.420976  	0.471947 
505.349792  	0.470402 
507.278608  	0.471887 
509.207424  	0.467237 
511.136240  	0.466319 
513.065056  	0.466976 
514.993872  	0.470042 
516.922688  	0.468761 
518.851504  	0.469879 
520.780320  	0.466655 
522.709136  	0.464609 
524.637952  	0.463767 
526.566768  	0.464442 
528.495584  	0.462506 
530.424400  	0.461693 
532.353216  	0.459310 
534.282032  	0.455844 
536.210848  	0.450970 
538.139664  	0.447953 
540.068480  	0.443502 
541.997296  	0.441140 
543.926112  	0.437993 
545.854928  	0.436514 
547.783744  	0.433908 
549.712560  	0.433273 
551.641376  	0.430892 
553.570192  	0.428603 
555.499008  	0.425205 
557.427824  	0.423357 
559.356640  	0.419895 
561.285456  	0.417586 
563.214272  	0.414838 
565.143088  	0.412480 
567.071904  	0.409908 
569.000720  	0.407974 
570.929536  	0.405062 
572.858352  	0.403260 
574.787168  	0.400920 
576.715984  	0.397624 
578.644800  	0.393301 
580.573616  	0.391465 
582.502432  	0.388490 
584.431248  	0.385610 
586.360064  	0.381976 
588.288880  	0.380388 
590.217696  	0.379317 
592.146512  	0.378464 
594.075328  	0.375870 
596.004144  	0.373627 
597.932960  	0.371300 
599.861776  	0.370090 
601.790592  	0.367923 
603.719408  	0.366454 
605.648224  	0.364742 
607.577040  	0.363048 
609.505856  	0.361229 
611.434672  	0.360226 
613.363488  	0.358252 
615.292304  	0.356648 
617.221120  	0.354638 
619.149936  	0.353168 
621.078752  	0.351270 
623.007568  	0.350226 
624.936384  	0.348258 
626.865200  	0.346633 
628.794016  	0.345119 
630.722832  	0.344259 
632.651648  	0.343124 
634.580464  	0.341829 
636.509280  	0.340819 
638.438096  	0.340475 
640.366912  	0.339500 
642.295728  	0.337874 
644.224544  	0.335671 
646.153360  	0.333372 
648.082176  	0.329547 
650.010992  	0.326468 
651.939808  	0.323537 
653.868624  	0.320938 
655.797440  	0.317858 
657.726256  	0.314831 
659.655072  	0.311458 
661.583888  	0.308633 
663.512704  	0.305622 
665.441520  	0.302525 
667.370336  	0.299676 
669.299152  	0.297110 
671.227968  	0.293004 
673.156784  	0.289349 
675.085600  	0.286682 
677.014416  	0.284380 
678.943232  	0.281808 
680.872048  	0.280545 
682.800864  	0.278957 
684.729680  	0.276768 
686.658496  	0.274438 
688.587312  	0.273056 
690.516128  	0.271291 
692.444944  	0.270348 
694.373760  	0.268388 
696.302576  	0.266530 
698.231392  	0.264246 
700.160208  	0.261907 
702.089024  	0.259361 
704.017840  	0.257486 
705.946656  	0.254948 
707.875472  	0.252528 
709.804288  	0.250443 
711.733104  	0.248989 
713.661920  	0.247239 
715.590736  	0.245077 
717.519552  	0.243393 
719.448368  	0.242839 
721.377184  	0.242535 
723.306000  	0.241839 
725.234816  	0.240699 
727.163632  	0.239075 
729.092448  	0.236939 
731.021264  	0.234498 
732.950080  	0.231790 
734.878896  	0.229413 
736.807712  	0.226761 
738.736528  	0.224524 
740.665344  	0.223057 
742.594160  	0.221844 
744.522976  	0.220040 
746.451792  	0.218622 
748.380608  	0.216628 
750.309424  	0.215175 
752.238240  	0.213925 
754.167056  	0.212389 
756.095872  	0.210598 
758.024688  	0.209140 
759.953504  	0.207949 
761.882320  	0.207620 
763.811136  	0.206964 
765.739952  	0.205076 
767.668768  	0.202540 
769.597584  	0.200066 
771.526400  	0.198548 
773.455216  	0.198195 
775.384032  	0.199039 
777.312848  	0.201219 
779.241664  	0.202224 
781.170480  	0.200935 
783.099296  	0.197232 
785.028112  	0.192855 
786.956928  	0.188564 
788.885744  	0.185221 
790.814560  	0.182176 
792.743376  	0.180038 
794.672192  	0.178924 
796.601008  	0.177506 
798.529824  	0.174689 
800.458640  	0.171240 
802.387456  	0.168294 
804.316272  	0.166425 
806.245088  	0.164969 
808.173904  	0.163223 
810.102720  	0.161849 
812.031536  	0.160809 
813.960352  	0.159751 
815.889168  	0.158998 
817.817984  	0.158365 
819.746800  	0.157916 
821.675616  	0.157257 
823.604432  	0.156604 
825.533248  	0.155938 
827.462064  	0.155123 
829.390880  	0.153815 
831.319696  	0.152902 
833.248512  	0.151867 
835.177328  	0.149917 
837.106144  	0.147462 
839.034960  	0.145328 
840.963776  	0.142769 
842.892592  	0.139744 
844.821408  	0.136544 
846.750224  	0.134024 
848.679040  	0.131802 
850.607856  	0.129752 
852.536672  	0.128256 
854.465488  	0.127036 
856.394304  	0.125949 
858.323120  	0.124529 
860.251936  	0.122895 
862.180752  	0.121512 
864.109568  	0.119431 
866.038384  	0.117504 
867.967200  	0.115846 
869.896016  	0.114282 
871.824832  	0.113029 
873.753648  	0.112765 
875.682464  	0.112659 
877.611280  	0.112805 
879.540096  	0.113264 
881.468912  	0.113914 
883.397728  	0.114780 
885.326544  	0.115746 
887.255360  	0.116253 
889.184176  	0.115943 
891.112992  	0.115271 
893.041808  	0.114087 
894.970624  	0.112332 
896.899440  	0.109672 
898.828256  	0.106502 
900.757072  	0.103593 
902.685888  	0.100881 
904.614704  	0.098860 
906.543520  	0.098154 
908.472336  	0.098532 
910.401152  	0.099224 
912.329968  	0.100183 
914.258784  	0.101070 
916.187600  	0.102181 
918.116416  	0.103130 
920.045232  	0.103612 
921.974048  	0.103804 
923.902864  	0.103800 
925.831680  	0.103770 
927.760496  	0.103831 
929.689312  	0.103833 
931.618128  	0.104049 
933.546944  	0.104017 
935.475760  	0.103648 
937.404576  	0.103038 
939.333392  	0.102243 
941.262208  	0.101622 
943.191024  	0.101628 
945.119840  	0.102352 
947.048656  	0.104209 
948.977472  	0.107586 
950.906288  	0.112143 
952.835104  	0.117761 
954.763920  	0.124316 
956.692736  	0.131076 
958.621552  	0.137517 
960.550368  	0.142621 
962.479184  	0.145985 
964.408000  	0.146771 
966.336816  	0.144976 
968.265632  	0.140635 
970.194448  	0.134361 
972.123264  	0.126332 
974.052080  	0.117424 
975.980896  	0.108581 
977.909712  	0.099840 
979.838528  	0.092014 
981.767344  	0.085529 
983.696160  	0.080635 
985.624976  	0.077137 
987.553792  	0.075487 
989.482608  	0.075580 
991.411424  	0.077225 
993.340240  	0.080043 
995.269056  	0.083392 
997.197872  	0.087303 
999.126688  	0.091233 
1001.055504  	0.095284 
1002.984320  	0.098984 
1004.913136  	0.102837 
1006.841952  	0.106738 
1008.770768  	0.110514 
1010.699584  	0.113718 
1012.628400  	0.116230 
1014.557216  	0.118195 
1016.486032  	0.119329 
1018.414848  	0.120007 
1020.343664  	0.120359 
1022.272480  	0.120582 
1024.201296  	0.120660 
1026.130112  	0.120227 
1028.058928  	0.120407 
1029.987744  	0.121623 
1031.916560  	0.123127 
1033.845376  	0.124578 
1035.774192  	0.126743 
1037.703008  	0.129699 
1039.631824  	0.134297 
1041.560640  	0.140729 
1043.489456  	0.148991 
1045.418272  	0.158738 
1047.347088  	0.169385 
1049.275904  	0.178537 
1051.204720  	0.185175 
1053.133536  	0.189054 
1055.062352  	0.190607 
1056.991168  	0.190573 
1058.919984  	0.190507 
1060.848800  	0.190562 
1062.777616  	0.190464 
1064.706432  	0.189537 
1066.635248  	0.188328 
1068.564064  	0.186696 
1070.492880  	0.183850 
1072.421696  	0.180002 
1074.350512  	0.177423 
1076.279328  	0.176837 
1078.208144  	0.179111 
1080.136960  	0.182815 
1082.065776  	0.186689 
1083.994592  	0.188645 
1085.923408  	0.187960 
1087.852224  	0.184515 
1089.781040  	0.179680 
1091.709856  	0.173403 
1093.638672  	0.165599 
1095.567488  	0.156430 
1097.496304  	0.147171 
1099.425120  	0.137715 
1101.353936  	0.128470 
1103.282752  	0.119788 
1105.211568  	0.111619 
1107.140384  	0.104014 
1109.069200  	0.096894 
1110.998016  	0.090379 
1112.926832  	0.084681 
1114.855648  	0.079590 
1116.784464  	0.074554 
1118.713280  	0.069628 
1120.642096  	0.065105 
1122.570912  	0.060823 
1124.499728  	0.056913 
1126.428544  	0.053544 
1128.357360  	0.050513 
1130.286176  	0.047783 
1132.214992  	0.045688 
1134.143808  	0.044015 
1136.072624  	0.042486 
1138.001440  	0.041126 
1139.930256  	0.039931 
1141.859072  	0.038829 
1143.787888  	0.037622 
1145.716704  	0.036599 
1147.645520  	0.035854 
1149.574336  	0.035516 
1151.503152  	0.034962 
1153.431968  	0.034548 
1155.360784  	0.034498 
1157.289600  	0.035004 
1159.218416  	0.035554 
1161.147232  	0.036161 
1163.076048  	0.037060 
1165.004864  	0.037870 
1166.933680  	0.038626 
1168.862496  	0.039632 
1170.791312  	0.040752 
1172.720128  	0.042135 
1174.648944  	0.043585 
1176.577760  	0.044893 
1178.506576  	0.046624 
1180.435392  	0.048533 
1182.364208  	0.050336 
1184.293024  	0.052299 
1186.221840  	0.054746 
1188.150656  	0.057466 
1190.079472  	0.060555 
1192.008288  	0.064289 
1193.937104  	0.068438 
1195.865920  	0.073000 
1197.794736  	0.078126 
1199.723552  	0.083694 
1201.652368  	0.089339 
1203.581184  	0.094810 
1205.510000  	0.100171 
1207.438816  	0.105033 
1209.367632  	0.109740 
1211.296448  	0.113685 
1213.225264  	0.116616 
1215.154080  	0.118814 
1217.082896  	0.120332 
1219.011712  	0.120838 
1220.940528  	0.120866 
1222.869344  	0.120468 
1224.798160  	0.119886 
1226.726976  	0.118456 
1228.655792  	0.116485 
1230.584608  	0.114329 
1232.513424  	0.111768 
1234.442240  	0.108550 
1236.371056  	0.105133 
1238.299872  	0.101310 
1240.228688  	0.096951 
1242.157504  	0.092529 
1244.086320  	0.088215 
1246.015136  	0.083639 
1247.943952  	0.079357 
1249.872768  	0.074955 
1251.801584  	0.070633 
1253.730400  	0.066467 
1255.659216  	0.062498 
1257.588032  	0.058690 
1259.516848  	0.055154 
1261.445664  	0.051775 
1263.374480  	0.048723 
1265.303296  	0.046180 
1267.232112  	0.044115 
1269.160928  	0.042667 
1271.089744  	0.041673 
1273.018560  	0.041067 
1274.947376  	0.041039 
1276.876192  	0.041474 
1278.805008  	0.041847 
1280.733824  	0.041707 
1282.662640  	0.040709 
1284.591456  	0.039440 
1286.520272  	0.038369 
1288.449088  	0.037648 
1290.377904  	0.037354 
1292.306720  	0.037627 
1294.235536  	0.038030 
1296.164352  	0.037964 
1298.093168  	0.036979 
1300.021984  	0.035395 
1301.950800  	0.033580 
1303.879616  	0.031667 
1305.808432  	0.029691 
1307.737248  	0.027670 
1309.666064  	0.025602 
1311.594880  	0.024168 
1313.523696  	0.023256 
1315.452512  	0.022507 
1317.381328  	0.022191 
1319.310144  	0.022157 
1321.238960  	0.022125 
1323.167776  	0.022420 
1325.096592  	0.022820 
1327.025408  	0.022972 
1328.954224  	0.022880 
1330.883040  	0.022495 
1332.811856  	0.021726 
1334.740672  	0.021023 
1336.669488  	0.020844 
1338.598304  	0.021316 
1340.527120  	0.020892 
1342.455936  	0.019578 
1344.384752  	0.019202 
1346.313568  	0.019371 
1348.242384  	0.019836 
1350.171200  	0.020557 
1352.100016  	0.021451 
1354.028832  	0.022670 
1355.957648  	0.024009 
1357.886464  	0.025158 
1359.815280  	0.026406 
1361.744096  	0.028346 
1363.672912  	0.029878 
1365.601728  	0.030283 
1367.530544  	0.031344 
1369.459360  	0.032466 
1371.388176  	0.032916 
1373.316992  	0.033299 
1375.245808  	0.032744 
1377.174624  	0.031044 
1379.103440  	0.029457 
1381.032256  	0.027665 
1382.961072  	0.026057 
1384.889888  	0.025067 
1386.818704  	0.024903 
1388.747520  	0.023689 
1390.676336  	0.021891 
1392.605152  	0.020638 
1394.533968  	0.020514 
1396.462784  	0.020858 
1398.391600  	0.020647 
1400.320416  	0.020308 
1402.249232  	0.019949 
1404.178048  	0.020562 
1406.106864  	0.021250 
1408.035680  	0.021787 
1409.964496  	0.022797 
1411.893312  	0.024141 
1413.822128  	0.025423 
1415.750944  	0.027151 
1417.679760  	0.028833 
1419.608576  	0.029961 
1421.537392  	0.029372 
1423.466208  	0.029059 
1425.395024  	0.027950 
1427.323840  	0.026334 
1429.252656  	0.025261 
1431.181472  	0.024231 
1433.110288  	0.023405 
1435.039104  	0.023465 
1436.967920  	0.024626 
1438.896736  	0.024890 
1440.825552  	0.024999 
1442.754368  	0.025292 
1444.683184  	0.025317 
1446.612000  	0.025598 
1448.540816  	0.025941 
1450.469632  	0.025861 
1452.398448  	0.026014 
1454.327264  	0.026314 
1456.256080  	0.027272 
1458.184896  	0.028167 
1460.113712  	0.026708 
1462.042528  	0.025546 
1463.971344  	0.025447 
1465.900160  	0.026089 
1467.828976  	0.026037 
1469.757792  	0.026487 
1471.686608  	0.028897 
1473.615424  	0.033785 
1475.544240  	0.036160 
1477.473056  	0.038531 
1479.401872  	0.040116 
1481.330688  	0.042428 
1483.259504  	0.043996 
1485.188320  	0.044908 
1487.117136  	0.045908 
1489.045952  	0.047428 
1490.974768  	0.046715 
1492.903584  	0.044111 
1494.832400  	0.041557 
1496.761216  	0.039130 
1498.690032  	0.035802 
1500.618848  	0.032558 
1502.547664  	0.029347 
1504.476480  	0.026923 
1506.405296  	0.026800 
1508.334112  	0.027265 
1510.262928  	0.024706 
1512.191744  	0.022766 
1514.120560  	0.022128 
1516.049376  	0.023186 
1517.978192  	0.023896 
1519.907008  	0.024152 
1521.835824  	0.026954 
1523.764640  	0.028551 
1525.693456  	0.030485 
1527.622272  	0.032075 
1529.551088  	0.031822 
1531.479904  	0.031041 
1533.408720  	0.030548 
1535.337536  	0.028577 
1537.266352  	0.026508 
1539.195168  	0.025403 
1541.123984  	0.024664 
1543.052800  	0.023815 
1544.981616  	0.022786 
1546.910432  	0.020922 
1548.839248  	0.020503 
1550.768064  	0.020985 
1552.696880  	0.020269 
1554.625696  	0.020652 
1556.554512  	0.020231 
1558.483328  	0.022007 
1560.412144  	0.025034 
1562.340960  	0.024684 
1564.269776  	0.025593 
1566.198592  	0.027778 
1568.127408  	0.029347 
1570.056224  	0.033675 
1571.985040  	0.035858 
1573.913856  	0.036773 
1575.842672  	0.039119 
1577.771488  	0.041859 
1579.700304  	0.040958 
1581.629120  	0.040353 
1583.557936  	0.040022 
1585.486752  	0.040511 
1587.415568  	0.041514 
1589.344384  	0.043769 
1591.273200  	0.046560 
1593.202016  	0.050430 
1595.130832  	0.054732 
1597.059648  	0.058992 
1598.988464  	0.062447 
1600.917280  	0.066007 
1602.846096  	0.068841 
1604.774912  	0.070893 
1606.703728  	0.071726 
1608.632544  	0.072310 
1610.561360  	0.071759 
1612.490176  	0.070984 
1614.418992  	0.069504 
1616.347808  	0.070240 
1618.276624  	0.071952 
1620.205440  	0.072384 
1622.134256  	0.073732 
1624.063072  	0.078564 
1625.991888  	0.081531 
1627.920704  	0.086160 
1629.849520  	0.091280 
1631.778336  	0.095108 
1633.707152  	0.097920 
1635.635968  	0.105608 
1637.564784  	0.113269 
1639.493600  	0.115302 
1641.422416  	0.117720 
1643.351232  	0.119514 
1645.280048  	0.120288 
1647.208864  	0.125546 
1649.137680  	0.126009 
1651.066496  	0.122698 
1652.995312  	0.124279 
1654.924128  	0.128903 
1656.852944  	0.125076 
1658.781760  	0.122894 
1660.710576  	0.121020 
1662.639392  	0.120274 
1664.568208  	0.118341 
1666.497024  	0.114970 
1668.425840  	0.112090 
1670.354656  	0.110017 
1672.283472  	0.106609 
1674.212288  	0.103417 
1676.141104  	0.102026 
1678.069920  	0.099702 
1679.998736  	0.098505 
1681.927552  	0.096856 
1683.856368  	0.096477 
1685.785184  	0.097736 
1687.714000  	0.095752 
1689.642816  	0.095457 
1691.571632  	0.094322 
1693.500448  	0.092440 
1695.429264  	0.092120 
1697.358080  	0.093050 
1699.286896  	0.090809 
1701.215712  	0.092125 
1703.144528  	0.089858 
1705.073344  	0.088181 
1707.002160  	0.086380 
1708.930976  	0.083238 
1710.859792  	0.079717 
1712.788608  	0.075813 
1714.717424  	0.071153 
1716.646240  	0.065674 
1718.575056  	0.057930 
1720.503872  	0.050728 
1722.432688  	0.044456 
1724.361504  	0.037627 
1726.290320  	0.031521 
1728.219136  	0.026770 
1730.147952  	0.022880 
1732.076768  	0.019322 
1734.005584  	0.016270 
1735.934400  	0.012647 
1737.863216  	0.010804 
1739.792032  	0.008826 
1741.720848  	0.007254 
1743.649664  	0.006572 
1745.578480  	0.005507 
1747.507296  	0.004593 
1749.436112  	0.004395 
1751.364928  	0.003402 
1753.293744  	0.001925 
1755.222560  	0.001111 
1757.151376  	0.001331 
1759.080192  	0.000790 
1761.009008  	0.000523 
1762.937824  	-0.000078 
1764.866640  	-0.000609 
1766.795456  	-0.000549 
1768.724272  	-0.000363 
1770.653088  	-0.001224 
1772.581904  	-0.001150 
1774.510720  	-0.001232 
1776.439536  	-0.001448 
1778.368352  	-0.001989 
1780.297168  	-0.002023 
1782.225984  	-0.002430 
1784.154800  	-0.002530 
1786.083616  	-0.002898 
1788.012432  	-0.003004 
1789.941248  	-0.002641 
1791.870064  	-0.002253 
1793.798880  	-0.002839 
1795.727696  	-0.003012 
1797.656512  	-0.003640 
1799.585328  	-0.003713 
1801.514144  	-0.003199 
1803.442960  	-0.003395 
1805.371776  	-0.003750 
1807.300592  	-0.003898 
1809.229408  	-0.004200 
1811.158224  	-0.004180 
1813.087040  	-0.004572 
1815.015856  	-0.004775 
1816.944672  	-0.004437 
1818.873488  	-0.004236 
1820.802304  	-0.004303 
1822.731120  	-0.004271 
1824.659936  	-0.004465 
1826.588752  	-0.004413 
1828.517568  	-0.004774 
1830.446384  	-0.004647 
1832.375200  	-0.004800 
1834.304016  	-0.004808 
1836.232832  	-0.004859 
1838.161648  	-0.004681 
1840.090464  	-0.005010 
1842.019280  	-0.005277 
1843.948096  	-0.005065 
1845.876912  	-0.004674 
1847.805728  	-0.005157 
1849.734544  	-0.005514 
1851.663360  	-0.005462 
1853.592176  	-0.005114 
1855.520992  	-0.005257 
1857.449808  	-0.005345 
1859.378624  	-0.005708 
1861.307440  	-0.005802 
1863.236256  	-0.006148 
1865.165072  	-0.005843 
1867.093888  	-0.005365 
1869.022704  	-0.004708 
1870.951520  	-0.005381 
1872.880336  	-0.005779 
1874.809152  	-0.005888 
1876.737968  	-0.005910 
1878.666784  	-0.006111 
1880.595600  	-0.006199 
1882.524416  	-0.006091 
1884.453232  	-0.005833 
1886.382048  	-0.006171 
1888.310864  	-0.006127 
1890.239680  	-0.005904 
1892.168496  	-0.005481 
1894.097312  	-0.005497 
1896.026128  	-0.005994 
1897.954944  	-0.006191 
1899.883760  	-0.006160 
1901.812576  	-0.006186 
1903.741392  	-0.005885 
1905.670208  	-0.006393 
1907.599024  	-0.006746 
1909.527840  	-0.006487 
1911.456656  	-0.005807 
1913.385472  	-0.005869 
1915.314288  	-0.005939 
1917.243104  	-0.006041 
1919.171920  	-0.005693 
1921.100736  	-0.005830 
1923.029552  	-0.005966 
1924.958368  	-0.007113 
1926.887184  	-0.007275 
1928.816000  	-0.007247 
1930.744816  	-0.006986 
1932.673632  	-0.006788 
1934.602448  	-0.006173 
1936.531264  	-0.006571 
1938.460080  	-0.006319 
1940.388896  	-0.005682 
1942.317712  	-0.005322 
1944.246528  	-0.006195 
1946.175344  	-0.006109 
1948.104160  	-0.005961 
1950.032976  	-0.005964 
1951.961792  	-0.006346 
1953.890608  	-0.006530 
1955.819424  	-0.007490 
1957.748240  	-0.008118 
1959.677056  	-0.007787 
1961.605872  	-0.007028 
1963.534688  	-0.007302 
1965.463504  	-0.006901 
1967.392320  	-0.006996 
1969.321136  	-0.006897 
1971.249952  	-0.007429 
1973.178768  	-0.007288 
1975.107584  	-0.006765 
1977.036400  	-0.005488 
1978.965216  	-0.005629 
1980.894032  	-0.006119 
1982.822848  	-0.006575 
1984.751664  	-0.005698 
1986.680480  	-0.005704 
1988.609296  	-0.005691 
1990.538112  	-0.005093 
1992.466928  	-0.004120 
1994.395744  	-0.005278 
1996.324560  	-0.006051 
1998.253376  	-0.006566 
2000.182192  	-0.006720 
2002.111008  	-0.006523 
2004.039824  	-0.006783 
2005.968640  	-0.007872 
2007.897456  	-0.006596 
2009.826272  	-0.005481 
2011.755088  	-0.005049 
2013.683904  	-0.005896 
2015.612720  	-0.005339 
2017.541536  	-0.005256 
2019.470352  	-0.005640 
2021.399168  	-0.006067 
2023.327984  	-0.006140 
2025.256800  	-0.005967 
2027.185616  	-0.004726 
2029.114432  	-0.004437 
2031.043248  	-0.004955 
2032.972064  	-0.005841 
2034.900880  	-0.004202 
2036.829696  	-0.003011 
2038.758512  	-0.003511 
2040.687328  	-0.004564 
2042.616144  	-0.004061 
2044.544960  	-0.004551 
2046.473776  	-0.004648 
2048.402592  	-0.003840 
2050.331408  	-0.003174 
2052.260224  	-0.003219 
2054.189040  	-0.003340 
2056.117856  	-0.004404 
2058.046672  	-0.004397 
2059.975488  	-0.003898 
2061.904304  	-0.002933 
2063.833120  	-0.002698 
2065.761936  	-0.002708 
2067.690752  	-0.003220 
2069.619568  	-0.003548 
2071.548384  	-0.004179 
2073.477200  	-0.003843 
2075.406016  	-0.003366 
2077.334832  	-0.003229 
2079.263648  	-0.002596 
2081.192464  	-0.002182 
2083.121280  	-0.002872 
2085.050096  	-0.003617 
2086.978912  	-0.003908 
2088.907728  	-0.003450 
2090.836544  	-0.003243 
2092.765360  	-0.003175 
2094.694176  	-0.003222 
2096.622992  	-0.003015 
2098.551808  	-0.003017 
2100.480624  	-0.002815 
2102.409440  	-0.002581 
2104.338256  	-0.002351 
2106.267072  	-0.002531 
2108.195888  	-0.002760 
2110.124704  	-0.002716 
2112.053520  	-0.002378 
2113.982336  	-0.002423 
2115.911152  	-0.003002 
2117.839968  	-0.003501 
2119.768784  	-0.003169 
2121.697600  	-0.003266 
2123.626416  	-0.003506 
2125.555232  	-0.003759 
2127.484048  	-0.004159 
2129.412864  	-0.004011 
2131.341680  	-0.003794 
2133.270496  	-0.003391 
2135.199312  	-0.002386 
2137.128128  	-0.002273 
2139.056944  	-0.002103 
2140.985760  	-0.002032 
2142.914576  	-0.001929 
2144.843392  	-0.002445 
2146.772208  	-0.002704 
2148.701024  	-0.002605 
2150.629840  	-0.003184 
2152.558656  	-0.003618 
2154.487472  	-0.003209 
2156.416288  	-0.002249 
2158.345104  	0.000363 
2160.273920  	0.002432 
2162.202736  	0.001519 
2164.131552  	-0.000288 
2166.060368  	-0.000339 
2167.989184  	-0.000667 
2169.918000  	-0.001578 
2171.846816  	-0.001462 
2173.775632  	-0.000612 
2175.704448  	-0.001309 
2177.633264  	-0.001639 
2179.562080  	-0.001806 
2181.490896  	-0.001284 
2183.419712  	-0.000960 
2185.348528  	-0.000443 
2187.277344  	-0.001321 
2189.206160  	-0.001456 
2191.134976  	-0.001137 
2193.063792  	-0.001823 
2194.992608  	-0.002584 
2196.921424  	-0.002204 
2198.850240  	-0.002797 
2200.779056  	-0.003448 
2202.707872  	-0.003637 
2204.636688  	-0.002715 
2206.565504  	-0.002430 
2208.494320  	-0.002612 
2210.423136  	-0.002651 
2212.351952  	-0.002475 
2214.280768  	-0.002988 
2216.209584  	-0.003012 
2218.138400  	-0.003436 
2220.067216  	-0.003290 
2221.996032  	-0.003656 
2223.924848  	-0.003636 
2225.853664  	-0.003302 
2227.782480  	-0.002739 
2229.711296  	-0.003471 
2231.640112  	-0.003916 
2233.568928  	-0.003964 
2235.497744  	-0.003854 
2237.426560  	-0.003181 
2239.355376  	-0.002761 
2241.284192  	-0.003328 
2243.213008  	-0.003681 
2245.141824  	-0.003941 
2247.070640  	-0.004019 
2248.999456  	-0.003640 
2250.928272  	-0.003203 
2252.857088  	-0.003355 
2254.785904  	-0.003366 
2256.714720  	-0.003026 
2258.643536  	-0.002963 
2260.572352  	-0.003097 
2262.501168  	-0.002940 
2264.429984  	-0.002756 
2266.358800  	-0.002759 
2268.287616  	-0.003174 
2270.216432  	-0.003308 
2272.145248  	-0.003121 
2274.074064  	-0.002670 
2276.002880  	-0.002721 
2277.931696  	-0.002825 
2279.860512  	-0.002896 
2281.789328  	-0.002793 
2283.718144  	-0.002746 
2285.646960  	-0.002280 
2287.575776  	-0.002137 
2289.504592  	-0.002163 
2291.433408  	-0.002186 
2293.362224  	-0.001905 
2295.291040  	-0.001914 
2297.219856  	-0.001863 
2299.148672  	-0.001837 
2301.077488  	-0.001632 
2303.006304  	-0.001131 
2304.935120  	-0.000689 
2306.863936  	-0.000777 
2308.792752  	-0.000608 
2310.721568  	-0.000518 
2312.650384  	-0.000651 
2314.579200  	-0.001121 
2316.508016  	-0.000929 
2318.436832  	-0.000356 
2320.365648  	0.000063 
2322.294464  	0.000051 
2324.223280  	-0.000721 
2326.152096  	-0.002036 
2328.080912  	-0.002817 
2330.009728  	-0.002876 
2331.938544  	-0.003054 
2333.867360  	-0.003651 
2335.796176  	-0.003923 
2337.724992  	-0.004116 
2339.653808  	-0.004370 
2341.582624  	-0.004092 
2343.511440  	-0.003398 
2345.440256  	-0.002575 
2347.369072  	-0.002015 
2349.297888  	-0.002138 
2351.226704  	-0.002878 
2353.155520  	-0.003900 
2355.084336  	-0.004340 
2357.013152  	-0.004475 
2358.941968  	-0.004390 
2360.870784  	-0.004488 
2362.799600  	-0.004375 
2364.728416  	-0.003926 
2366.657232  	-0.003532 
2368.586048  	-0.003429 
2370.514864  	-0.003132 
2372.443680  	-0.002409 
2374.372496  	-0.001520 
2376.301312  	-0.001263 
2378.230128  	-0.001386 
2380.158944  	-0.001692 
2382.087760  	-0.001940 
2384.016576  	-0.002334 
2385.945392  	-0.002663 
2387.874208  	-0.002862 
2389.803024  	-0.003178 
2391.731840  	-0.003526 
2393.660656  	-0.003570 
2395.589472  	-0.003427 
2397.518288  	-0.003347 
2399.447104  	-0.003340 
2401.375920  	-0.003355 
2403.304736  	-0.003567 
2405.233552  	-0.003539 
2407.162368  	-0.003478 
2409.091184  	-0.003554 
2411.020000  	-0.003531 
2412.948816  	-0.003595 
2414.877632  	-0.003608 
2416.806448  	-0.003340 
2418.735264  	-0.003150 
2420.664080  	-0.003064 
2422.592896  	-0.003264 
2424.521712  	-0.003376 
2426.450528  	-0.003180 
2428.379344  	-0.002970 
2430.308160  	-0.003026 
2432.236976  	-0.002996 
2434.165792  	-0.002852 
2436.094608  	-0.002727 
2438.023424  	-0.002633 
2439.952240  	-0.002632 
2441.881056  	-0.002748 
2443.809872  	-0.002613 
2445.738688  	-0.002476 
2447.667504  	-0.002497 
2449.596320  	-0.002347 
2451.525136  	-0.002314 
2453.453952  	-0.002490 
2455.382768  	-0.002497 
2457.311584  	-0.002354 
2459.240400  	-0.002288 
2461.169216  	-0.002202 
2463.098032  	-0.002099 
2465.026848  	-0.002313 
2466.955664  	-0.002363 
2468.884480  	-0.002320 
2470.813296  	-0.002246 
2472.742112  	-0.002066 
2474.670928  	-0.001948 
2476.599744  	-0.001779 
2478.528560  	-0.001524 
2480.457376  	-0.001533 
2482.386192  	-0.001528 
2484.315008  	-0.001692 
2486.243824  	-0.001594 
2488.172640  	-0.001311 
2490.101456  	-0.001221 
2492.030272  	-0.001226 
2493.959088  	-0.001306 
2495.887904  	-0.001426 
2497.816720  	-0.001341 
2499.745536  	-0.001219 
2501.674352  	-0.001310 
2503.603168  	-0.001274 
2505.531984  	-0.001257 
2507.460800  	-0.001375 
2509.389616  	-0.001377 
2511.318432  	-0.001313 
2513.247248  	-0.000990 
2515.176064  	-0.001053 
2517.104880  	-0.001242 
2519.033696  	-0.001261 
2520.962512  	-0.001026 
2522.891328  	-0.000937 
2524.820144  	-0.000616 
2526.748960  	-0.000495 
2528.677776  	-0.000504 
2530.606592  	-0.000560 
2532.535408  	-0.000464 
2534.464224  	-0.000461 
2536.393040  	-0.000651 
2538.321856  	-0.000621 
2540.250672  	-0.000338 
2542.179488  	-0.000093 
2544.108304  	-0.000126 
2546.037120  	0.000001 
2547.965936  	0.000230 
2549.894752  	0.000169 
2551.823568  	0.000325 
2553.752384  	0.000476 
2555.681200  	0.000307 
2557.610016  	0.000304 
2559.538832  	0.000411 
2561.467648  	0.000504 
2563.396464  	0.000573 
2565.325280  	0.000574 
2567.254096  	0.000760 
2569.182912  	0.000962 
2571.111728  	0.000914 
2573.040544  	0.000958 
2574.969360  	0.001187 
2576.898176  	0.001282 
2578.826992  	0.001288 
2580.755808  	0.001252 
2582.684624  	0.001437 
2584.613440  	0.001550 
2586.542256  	0.001613 
2588.471072  	0.001592 
2590.399888  	0.001681 
2592.328704  	0.001909 
2594.257520  	0.001985 
2596.186336  	0.001748 
2598.115152  	0.001711 
2600.043968  	0.002082 
2601.972784  	0.002266 
2603.901600  	0.002268 
2605.830416  	0.002312 
2607.759232  	0.002305 
2609.688048  	0.002309 
2611.616864  	0.002568 
2613.545680  	0.002741 
2615.474496  	0.002756 
2617.403312  	0.002819 
2619.332128  	0.002861 
2621.260944  	0.002846 
2623.189760  	0.002784 
2625.118576  	0.002994 
2627.047392  	0.003072 
2628.976208  	0.003200 
2630.905024  	0.003491 
2632.833840  	0.003538 
2634.762656  	0.003456 
2636.691472  	0.003493 
2638.620288  	0.003642 
2640.549104  	0.003869 
2642.477920  	0.004100 
2644.406736  	0.004092 
2646.335552  	0.004069 
2648.264368  	0.004153 
2650.193184  	0.004279 
2652.122000  	0.004388 
2654.050816  	0.004528 
2655.979632  	0.004616 
2657.908448  	0.004651 
2659.837264  	0.004772 
2661.766080  	0.004852 
2663.694896  	0.004874 
2665.623712  	0.004983 
2667.552528  	0.005118 
2669.481344  	0.005157 
2671.410160  	0.005127 
2673.338976  	0.005240 
2675.267792  	0.005496 
2677.196608  	0.005716 
2679.125424  	0.005761 
2681.054240  	0.005764 
2682.983056  	0.005941 
2684.911872  	0.006020 
2686.840688  	0.006066 
2688.769504  	0.006147 
2690.698320  	0.006194 
2692.627136  	0.006272 
2694.555952  	0.006374 
2696.484768  	0.006532 
2698.413584  	0.006603 
2700.342400  	0.006547 
2702.271216  	0.006672 
2704.200032  	0.006793 
2706.128848  	0.006885 
2708.057664  	0.007036 
2709.986480  	0.007091 
2711.915296  	0.007175 
2713.844112  	0.007329 
2715.772928  	0.007381 
2717.701744  	0.007376 
2719.630560  	0.007556 
2721.559376  	0.007674 
2723.488192  	0.007723 
2725.417008  	0.007936 
2727.345824  	0.008056 
2729.274640  	0.008157 
2731.203456  	0.008226 
2733.132272  	0.008339 
2735.061088  	0.008540 
2736.989904  	0.008570 
2738.918720  	0.008611 
2740.847536  	0.008710 
2742.776352  	0.008864 
2744.705168  	0.009000 
2746.633984  	0.009089 
2748.562800  	0.009137 
2750.491616  	0.009183 
2752.420432  	0.009250 
2754.349248  	0.009192 
2756.278064  	0.009202 
2758.206880  	0.009227 
2760.135696  	0.009227 
2762.064512  	0.009201 
2763.993328  	0.009262 
2765.922144  	0.009334 
2767.850960  	0.009402 
2769.779776  	0.009414 
2771.708592  	0.009435 
2773.637408  	0.009409 
2775.566224  	0.009354 
2777.495040  	0.009339 
2779.423856  	0.009384 
2781.352672  	0.009470 
2783.281488  	0.009528 
2785.210304  	0.009530 
2787.139120  	0.009620 
2789.067936  	0.009559 
2790.996752  	0.009589 
2792.925568  	0.009696 
2794.854384  	0.009672 
2796.783200  	0.009676 
2798.712016  	0.009687 
2800.640832  	0.009772 
2802.569648  	0.009874 
2804.498464  	0.009859 
2806.427280  	0.009971 
2808.356096  	0.010123 
2810.284912  	0.010063 
2812.213728  	0.009965 
2814.142544  	0.010031 
2816.071360  	0.010029 
2818.000176  	0.010068 
2819.928992  	0.010170 
2821.857808  	0.010164 
2823.786624  	0.010066 
2825.715440  	0.010058 
2827.644256  	0.010155 
2829.573072  	0.010211 
2831.501888  	0.010199 
2833.430704  	0.010109 
2835.359520  	0.010015 
2837.288336  	0.010002 
2839.217152  	0.010018 
2841.145968  	0.009848 
2843.074784  	0.009821 
2845.003600  	0.010021 
2846.932416  	0.009879 
2848.861232  	0.009862 
2850.790048  	0.009911 
2852.718864  	0.009952 
2854.647680  	0.010004 
2856.576496  	0.010121 
2858.505312  	0.010187 
2860.434128  	0.010145 
2862.362944  	0.009999 
2864.291760  	0.010041 
2866.220576  	0.010217 
2868.149392  	0.010285 
2870.078208  	0.010346 
2872.007024  	0.010534 
2873.935840  	0.010761 
2875.864656  	0.010953 
2877.793472  	0.011079 
2879.722288  	0.011320 
2881.651104  	0.011592 
2883.579920  	0.011805 
2885.508736  	0.012095 
2887.437552  	0.012327 
2889.366368  	0.012319 
2891.295184  	0.012300 
2893.224000  	0.012339 
2895.152816  	0.012372 
2897.081632  	0.012421 
2899.010448  	0.012160 
2900.939264  	0.011806 
2902.868080  	0.012059 
2904.796896  	0.012398 
2906.725712  	0.012565 
2908.654528  	0.012776 
2910.583344  	0.012980 
2912.512160  	0.013112 
2914.440976  	0.013399 
2916.369792  	0.013842 
2918.298608  	0.014180 
2920.227424  	0.014495 
2922.156240  	0.014877 
2924.085056  	0.015189 
2926.013872  	0.015536 
2927.942688  	0.016088 
2929.871504  	0.016671 
2931.800320  	0.017104 
2933.729136  	0.017641 
2935.657952  	0.018132 
2937.586768  	0.018529 
2939.515584  	0.018849 
2941.444400  	0.019076 
2943.373216  	0.019377 
2945.302032  	0.019778 
2947.230848  	0.019926 
2949.159664  	0.019817 
2951.088480  	0.019596 
2953.017296  	0.019488 
2954.946112  	0.019359 
2956.874928  	0.019151 
2958.803744  	0.018945 
2960.732560  	0.018861 
2962.661376  	0.018789 
2964.590192  	0.018570 
2966.519008  	0.018375 
2968.447824  	0.018053 
2970.376640  	0.017824 
2972.305456  	0.017641 
2974.234272  	0.017639 
2976.163088  	0.017613 
2978.091904  	0.017527 
2980.020720  	0.017450 
2981.949536  	0.017417 
2983.878352  	0.017341 
2985.807168  	0.017155 
2987.735984  	0.017093 
2989.664800  	0.017225 
2991.593616  	0.017693 
2993.522432  	0.018006 
2995.451248  	0.018245 
2997.380064  	0.018589 
2999.308880  	0.019013 
3001.237696  	0.019463 
3003.166512  	0.019881 
3005.095328  	0.020117 
3007.024144  	0.020345 
3008.952960  	0.020886 
3010.881776  	0.021419 
3012.810592  	0.021889 
3014.739408  	0.022327 
3016.668224  	0.022707 
3018.597040  	0.023025 
3020.525856  	0.023467 
3022.454672  	0.023877 
3024.383488  	0.024330 
3026.312304  	0.024775 
3028.241120  	0.025140 
3030.169936  	0.025539 
3032.098752  	0.026066 
3034.027568  	0.026374 
3035.956384  	0.026757 
3037.885200  	0.027232 
3039.814016  	0.027708 
3041.742832  	0.028106 
3043.671648  	0.028500 
3045.600464  	0.028756 
3047.529280  	0.029067 
3049.458096  	0.029499 
3051.386912  	0.029761 
3053.315728  	0.030056 
3055.244544  	0.030539 
3057.173360  	0.031076 
3059.102176  	0.031604 
3061.030992  	0.032019 
3062.959808  	0.032500 
3064.888624  	0.033113 
3066.817440  	0.033602 
3068.746256  	0.034021 
3070.675072  	0.034524 
3072.603888  	0.035218 
3074.532704  	0.035864 
3076.461520  	0.036469 
3078.390336  	0.037063 
3080.319152  	0.037587 
3082.247968  	0.038123 
3084.176784  	0.038669 
3086.105600  	0.039171 
3088.034416  	0.039685 
3089.963232  	0.040100 
3091.892048  	0.040664 
3093.820864  	0.041146 
3095.749680  	0.041788 
3097.678496  	0.042532 
3099.607312  	0.043093 
3101.536128  	0.043724 
3103.464944  	0.044203 
3105.393760  	0.044673 
3107.322576  	0.045312 
3109.251392  	0.045978 
3111.180208  	0.046542 
3113.109024  	0.046984 
3115.037840  	0.047522 
3116.966656  	0.048042 
3118.895472  	0.048430 
3120.824288  	0.048936 
3122.753104  	0.049500 
3124.681920  	0.049970 
3126.610736  	0.050365 
3128.539552  	0.050845 
3130.468368  	0.051152 
3132.397184  	0.051630 
3134.326000  	0.052123 
3136.254816  	0.052651 
3138.183632  	0.053205 
3140.112448  	0.053490 
3142.041264  	0.053922 
3143.970080  	0.054404 
3145.898896  	0.054811 
3147.827712  	0.055297 
3149.756528  	0.055942 
3151.685344  	0.056518 
3153.614160  	0.056856 
3155.542976  	0.057152 
3157.471792  	0.057717 
3159.400608  	0.058330 
3161.329424  	0.058904 
3163.258240  	0.059377 
3165.187056  	0.059754 
3167.115872  	0.060108 
3169.044688  	0.060660 
3170.973504  	0.061305 
3172.902320  	0.061751 
3174.831136  	0.061762 
3176.759952  	0.061993 
3178.688768  	0.062597 
3180.617584  	0.063033 
3182.546400  	0.063145 
3184.475216  	0.063282 
3186.404032  	0.063720 
3188.332848  	0.064069 
3190.261664  	0.064180 
3192.190480  	0.064132 
3194.119296  	0.064157 
3196.048112  	0.064164 
3197.976928  	0.064506 
3199.905744  	0.064741 
3201.834560  	0.064683 
3203.763376  	0.064547 
3205.692192  	0.064279 
3207.621008  	0.064242 
3209.549824  	0.064496 
3211.478640  	0.064663 
3213.407456  	0.064650 
3215.336272  	0.064688 
3217.265088  	0.064620 
3219.193904  	0.064709 
3221.122720  	0.064766 
3223.051536  	0.064580 
3224.980352  	0.064324 
3226.909168  	0.064242 
3228.837984  	0.064118 
3230.766800  	0.063794 
3232.695616  	0.063748 
3234.624432  	0.063800 
3236.553248  	0.064062 
3238.482064  	0.064325 
3240.410880  	0.064210 
3242.339696  	0.064154 
3244.268512  	0.064211 
3246.197328  	0.064324 
3248.126144  	0.064419 
3250.054960  	0.064559 
3251.983776  	0.064610 
3253.912592  	0.064936 
3255.841408  	0.065097 
3257.770224  	0.065193 
3259.699040  	0.065567 
3261.627856  	0.065836 
3263.556672  	0.065646 
3265.485488  	0.065726 
3267.414304  	0.065918 
3269.343120  	0.066112 
3271.271936  	0.066330 
3273.200752  	0.066516 
3275.129568  	0.066526 
3277.058384  	0.066605 
3278.987200  	0.066739 
3280.916016  	0.066908 
3282.844832  	0.067084 
3284.773648  	0.067273 
3286.702464  	0.067406 
3288.631280  	0.067612 
3290.560096  	0.067731 
3292.488912  	0.067829 
3294.417728  	0.068086 
3296.346544  	0.068321 
3298.275360  	0.068614 
3300.204176  	0.068878 
3302.132992  	0.068976 
3304.061808  	0.069326 
3305.990624  	0.069503 
3307.919440  	0.069825 
3309.848256  	0.069998 
3311.777072  	0.070292 
3313.705888  	0.070635 
3315.634704  	0.070784 
3317.563520  	0.071052 
3319.492336  	0.071402 
3321.421152  	0.071598 
3323.349968  	0.071670 
3325.278784  	0.071839 
3327.207600  	0.072148 
3329.136416  	0.072018 
3331.065232  	0.071860 
3332.994048  	0.071980 
3334.922864  	0.072254 
3336.851680  	0.072510 
3338.780496  	0.072405 
3340.709312  	0.072134 
3342.638128  	0.072119 
3344.566944  	0.072032 
3346.495760  	0.071937 
3348.424576  	0.071757 
3350.353392  	0.071728 
3352.282208  	0.071442 
3354.211024  	0.071215 
3356.139840  	0.071272 
3358.068656  	0.071107 
3359.997472  	0.070690 
3361.926288  	0.070419 
3363.855104  	0.070268 
3365.783920  	0.070095 
3367.712736  	0.069888 
3369.641552  	0.069602 
3371.570368  	0.069340 
3373.499184  	0.069275 
3375.428000  	0.069112 
3377.356816  	0.068881 
3379.285632  	0.068688 
3381.214448  	0.068413 
3383.143264  	0.068229 
3385.072080  	0.068147 
3387.000896  	0.067710 
3388.929712  	0.067222 
3390.858528  	0.067054 
3392.787344  	0.067203 
3394.716160  	0.066841 
3396.644976  	0.066472 
3398.573792  	0.066073 
3400.502608  	0.065480 
3402.431424  	0.065180 
3404.360240  	0.064973 
3406.289056  	0.064470 
3408.217872  	0.064023 
3410.146688  	0.063758 
3412.075504  	0.063412 
3414.004320  	0.063097 
3415.933136  	0.062813 
3417.861952  	0.062413 
3419.790768  	0.062266 
3421.719584  	0.062197 
3423.648400  	0.061755 
3425.577216  	0.061146 
3427.506032  	0.060661 
3429.434848  	0.060182 
3431.363664  	0.059839 
3433.292480  	0.059484 
3435.221296  	0.058937 
3437.150112  	0.058330 
3439.078928  	0.057952 
3441.007744  	0.057492 
3442.936560  	0.057294 
3444.865376  	0.056539 
3446.794192  	0.056335 
3448.723008  	0.056091 
3450.651824  	0.055153 
3452.580640  	0.054666 
3454.509456  	0.054227 
3456.438272  	0.053552 
3458.367088  	0.053063 
3460.295904  	0.052591 
3462.224720  	0.052149 
3464.153536  	0.051471 
3466.082352  	0.050748 
3468.011168  	0.050253 
3469.939984  	0.049572 
3471.868800  	0.048879 
3473.797616  	0.048218 
3475.726432  	0.047577 
3477.655248  	0.046906 
3479.584064  	0.046299 
3481.512880  	0.046035 
3483.441696  	0.045406 
3485.370512  	0.044369 
3487.299328  	0.043789 
3489.228144  	0.043239 
3491.156960  	0.042460 
3493.085776  	0.041881 
3495.014592  	0.041351 
3496.943408  	0.040852 
3498.872224  	0.039982 
3500.801040  	0.039401 
3502.729856  	0.039346 
3504.658672  	0.039030 
3506.587488  	0.037914 
3508.516304  	0.037245 
3510.445120  	0.037043 
3512.373936  	0.036580 
3514.302752  	0.035946 
3516.231568  	0.035103 
3518.160384  	0.034563 
3520.089200  	0.033941 
3522.018016  	0.033371 
3523.946832  	0.033495 
3525.875648  	0.032868 
3527.804464  	0.032317 
3529.733280  	0.031809 
3531.662096  	0.030742 
3533.590912  	0.029864 
3535.519728  	0.029660 
3537.448544  	0.029282 
3539.377360  	0.028396 
3541.306176  	0.027638 
3543.234992  	0.027272 
3545.163808  	0.027610 
3547.092624  	0.027743 
3549.021440  	0.026605 
3550.950256  	0.025685 
3552.879072  	0.025696 
3554.807888  	0.024769 
3556.736704  	0.023598 
3558.665520  	0.023180 
3560.594336  	0.022904 
3562.523152  	0.022030 
3564.451968  	0.021600 
3566.380784  	0.023025 
3568.309600  	0.023564 
3570.238416  	0.021292 
3572.167232  	0.019753 
3574.096048  	0.019198 
3576.024864  	0.018595 
3577.953680  	0.017881 
3579.882496  	0.017467 
3581.811312  	0.016900 
3583.740128  	0.015988 
3585.668944  	0.015643 
3587.597760  	0.016873 
3589.526576  	0.015810 
3591.455392  	0.013732 
3593.384208  	0.013419 
3595.313024  	0.013494 
3597.241840  	0.012556 
3599.170656  	0.011563 
3601.099472  	0.011200 
3603.028288  	0.010098 
3604.957104  	0.009013 
3606.885920  	0.009248 
3608.814736  	0.009681 
3610.743552  	0.008371 
3612.672368  	0.007920 
3614.601184  	0.007546 
3616.530000  	0.005955 
3618.458816  	0.005646 
3620.387632  	0.005685 
3622.316448  	0.004395 
3624.245264  	0.003294 
3626.174080  	0.002453 
3628.102896  	0.002946 
3630.031712  	0.004047 
3631.960528  	0.001759 
3633.889344  	0.000718 
3635.818160  	-0.000124 
3637.746976  	-0.001029 
3639.675792  	-0.001649 
3641.604608  	-0.002232 
3643.533424  	-0.002845 
3645.462240  	-0.003648 
3647.391056  	-0.003353 
3649.319872  	-0.002498 
3651.248688  	-0.002825 
3653.177504  	-0.005225 
3655.106320  	-0.006381 
3657.035136  	-0.006060 
3658.963952  	-0.006668 
3660.892768  	-0.007282 
3662.821584  	-0.007882 
3664.750400  	-0.008407 
3666.679216  	-0.008906 
3668.608032  	-0.008924 
3670.536848  	-0.008127 
3672.465664  	-0.009381 
3674.394480  	-0.009477 
3676.323296  	-0.007989 
3678.252112  	-0.008737 
3680.180928  	-0.009106 
3682.109744  	-0.009784 
3684.038560  	-0.010155 
3685.967376  	-0.010743 
3687.896192  	-0.010339 
3689.825008  	-0.009368 
3691.753824  	-0.009366 
3693.682640  	-0.009926 
3695.611456  	-0.010266 
3697.540272  	-0.010441 
3699.469088  	-0.010891 
3701.397904  	-0.010385 
3703.326720  	-0.010123 
3705.255536  	-0.010382 
3707.184352  	-0.010593 
3709.113168  	-0.010558 
3711.041984  	-0.009723 
3712.970800  	-0.009264 
3714.899616  	-0.010015 
3716.828432  	-0.010544 
3718.757248  	-0.010456 
3720.686064  	-0.010510 
3722.614880  	-0.010339 
3724.543696  	-0.010135 
3726.472512  	-0.009714 
3728.401328  	-0.010437 
3730.330144  	-0.011421 
3732.258960  	-0.011154 
3734.187776  	-0.009778 
3736.116592  	-0.008099 
3738.045408  	-0.009204 
3739.974224  	-0.010051 
3741.903040  	-0.010627 
3743.831856  	-0.010322 
3745.760672  	-0.009809 
3747.689488  	-0.010828 
3749.618304  	-0.009784 
3751.547120  	-0.008222 
3753.475936  	-0.008894 
3755.404752  	-0.010237 
3757.333568  	-0.010312 
3759.262384  	-0.009866 
3761.191200  	-0.010062 
3763.120016  	-0.010630 
3765.048832  	-0.009996 
3766.977648  	-0.010066 
3768.906464  	-0.010270 
3770.835280  	-0.010042 
3772.764096  	-0.010461 
3774.692912  	-0.010781 
3776.621728  	-0.010834 
3778.550544  	-0.010343 
3780.479360  	-0.009879 
3782.408176  	-0.010544 
3784.336992  	-0.010362 
3786.265808  	-0.010236 
3788.194624  	-0.010588 
3790.123440  	-0.010617 
3792.052256  	-0.010856 
3793.981072  	-0.011483 
3795.909888  	-0.010779 
3797.838704  	-0.009995 
3799.767520  	-0.010482 
3801.696336  	-0.009457 
3803.625152  	-0.010119 
3805.553968  	-0.010955 
3807.482784  	-0.010210 
3809.411600  	-0.010483 
3811.340416  	-0.010889 
3813.269232  	-0.011276 
3815.198048  	-0.010583 
3817.126864  	-0.009875 
3819.055680  	-0.010830 
3820.984496  	-0.010039 
3822.913312  	-0.009779 
3824.842128  	-0.010553 
3826.770944  	-0.010542 
3828.699760  	-0.010809 
3830.628576  	-0.010945 
3832.557392  	-0.010845 
3834.486208  	-0.011264 
3836.415024  	-0.011137 
3838.343840  	-0.010157 
3840.272656  	-0.009482 
3842.201472  	-0.009683 
3844.130288  	-0.009716 
3846.059104  	-0.010357 
3847.987920  	-0.010972 
3849.916736  	-0.011219 
3851.845552  	-0.010947 
3853.774368  	-0.008632 
3855.703184  	-0.008764 
3857.632000  	-0.009549 
3859.560816  	-0.010261 
3861.489632  	-0.010275 
3863.418448  	-0.010052 
3865.347264  	-0.009547 
3867.276080  	-0.010356 
3869.204896  	-0.009797 
3871.133712  	-0.009332 
3873.062528  	-0.010250 
3874.991344  	-0.009884 
3876.920160  	-0.010784 
3878.848976  	-0.010742 
3880.777792  	-0.009440 
3882.706608  	-0.009785 
3884.635424  	-0.009917 
3886.564240  	-0.009564 
3888.493056  	-0.010875 
3890.421872  	-0.010740 
3892.350688  	-0.010054 
3894.279504  	-0.010422 
3896.208320  	-0.010894 
3898.137136  	-0.010591 
3900.065952  	-0.009599 
3901.994768  	-0.009465 
3903.923584  	-0.009249 
3905.852400  	-0.009408 
3907.781216  	-0.010290 
3909.710032  	-0.010870 
3911.638848  	-0.011080 
3913.567664  	-0.011058 
3915.496480  	-0.010527 
3917.425296  	-0.009673 
3919.354112  	-0.009816 
3921.282928  	-0.010187 
3923.211744  	-0.010075 
3925.140560  	-0.009767 
3927.069376  	-0.010399 
3928.998192  	-0.010469 
3930.927008  	-0.009961 
3932.855824  	-0.009755 
3934.784640  	-0.010353 
3936.713456  	-0.010644 
3938.642272  	-0.010733 
3940.571088  	-0.010747 
3942.499904  	-0.009985 
3944.428720  	-0.010070 
3946.357536  	-0.010529 
3948.286352  	-0.010010 
3950.215168  	-0.010309 
3952.143984  	-0.010854 
3954.072800  	-0.010882 
3956.001616  	-0.010619 
3957.930432  	-0.010365 
3959.859248  	-0.010264 
3961.788064  	-0.010240 
3963.716880  	-0.010507 
3965.645696  	-0.010890 
3967.574512  	-0.011074 
3969.503328  	-0.011056 
3971.432144  	-0.010915 
3973.360960  	-0.010531 
3975.289776  	-0.010191 
3977.218592  	-0.010284 
3979.147408  	-0.010582 
3981.076224  	-0.010826 
3983.005040  	-0.010916 
3984.933856  	-0.010766 
3986.862672  	-0.010643 
3988.791488  	-0.010665 
3990.720304  	-0.010544 
3992.649120  	-0.010623 
3994.577936  	-0.010692 
3996.506752  	-0.010841 
3998.435568  	-0.010863 
4000.364384  	-0.010747 