##TITLE=No Description
##DATA TYPE=INFRARED SPECTRUM
##XUNITS=1/CM
##YUNITS=Abs
399.264912  	0.536740 
401.193728  	0.523569 
403.122544  	0.521013 
405.051360  	0.514796 
406.980176  	0.523474 
408.908992  	0.514148 
410.837808  	0.507943 
412.766624  	0.509009 
414.695440  	0.516318 
416.624256  	0.504478 
418.553072  	0.493968 
420.481888  	0.495558 
422.410704  	0.500232 
424.339520  	0.494672 
426.268336  	0.481480 
428.197152  	0.476642 
430.125968  	0.477902 
432.054784  	0.467261 
433.983600  	0.471161 
435.912416  	0.476628 
437.841232  	0.472240 
439.770048  	0.464369 
441.698864  	0.465468 
443.627680  	0.463062 
445.556496  	0.461429 
447.485312  	0.459442 
449.414128  	0.459773 
451.342944  	0.455062 
453.271760  	0.454190 
455.200576  	0.452793 
457.129392  	0.462376 
459.058208  	0.463864 
460.987024  	0.455096 
462.915840  	0.447882 
464.844656  	0.451384 
466.773472  	0.447190 
468.702288  	0.444557 
470.631104  	0.444237 
472.559920  	0.447260 
474.488736  	0.439681 
476.417552  	0.439108 
478.346368  	0.437391 
480.275184  	0.436833 
482.204000  	0.433786 
484.132816  	0.437681 
486.061632  	0.435379 
487.990448  	0.429476 
489.919264  	0.429577 
491.848080  	0.433134 
493.776896  	0.431546 
495.705712  	0.429004 
497.634528  	0.424365 
499.563344  	0.425233 
501.492160  	0.423253 
503.420976  	0.425018 
505.349792  	0.422758 
507.278608  	0.424423 
509.207424  	0.422072 
511.136240  	0.420795 
513.065056  	0.420460 
514.993872  	0.423595 
516.922688  	0.423451 
518.851504  	0.423981 
520.780320  	0.420932 
522.709136  	0.419898 
524.637952  	0.417994 
526.566768  	0.417268 
528.495584  	0.413830 
530.424400  	0.413007 
532.353216  	0.411553 
534.282032  	0.408686 
536.210848  	0.404262 
538.139664  	0.401948 
540.068480  	0.397545 
541.997296  	0.394057 
543.926112  	0.392224 
545.854928  	0.391695 
547.783744  	0.389096 
549.712560  	0.387549 
551.641376  	0.384739 
553.570192  	0.383696 
555.499008  	0.381085 
557.427824  	0.379615 
559.356640  	0.375904 
561.285456  	0.374029 
563.214272  	0.372486 
565.143088  	0.370752 
567.071904  	0.368640 
569.000720  	0.366205 
570.929536  	0.363138 
572.858352  	0.360804 
574.787168  	0.358616 
576.715984  	0.357529 
578.644800  	0.354706 
580.573616  	0.351453 
582.502432  	0.347710 
584.431248  	0.345427 
586.360064  	0.342591 
588.288880  	0.341214 
590.217696  	0.339413 
592.146512  	0.338791 
594.075328  	0.336540 
596.004144  	0.334418 
597.932960  	0.332268 
599.861776  	0.331251 
601.790592  	0.329989 
603.719408  	0.328743 
605.648224  	0.327305 
607.577040  	0.325626 
609.505856  	0.322936 
611.434672  	0.321513 
613.363488  	0.319737 
615.292304  	0.318391 
617.221120  	0.316928 
619.149936  	0.316382 
621.078752  	0.314816 
623.007568  	0.313106 
624.936384  	0.311364 
626.865200  	0.310336 
628.794016  	0.309157 
630.722832  	0.308308 
632.651648  	0.307077 
634.580464  	0.305768 
636.509280  	0.304539 
638.438096  	0.304246 
640.366912  	0.303494 
642.295728  	0.302051 
644.224544  	0.299623 
646.153360  	0.297227 
648.082176  	0.294478 
650.010992  	0.292267 
651.939808  	0.289698 
653.868624  	0.287468 
655.797440  	0.284001 
657.726256  	0.281414 
659.655072  	0.278635 
661.583888  	0.275879 
663.512704  	0.273241 
665.441520  	0.269425 
667.370336  	0.265863 
669.299152  	0.265651 
671.227968  	0.262371 
673.156784  	0.258992 
675.085600  	0.256434 
677.014416  	0.254312 
678.943232  	0.252311 
680.872048  	0.251355 
682.800864  	0.249721 
684.729680  	0.247818 
686.658496  	0.246015 
688.587312  	0.244809 
690.516128  	0.243348 
692.444944  	0.242090 
694.373760  	0.239661 
696.302576  	0.238055 
698.231392  	0.236510 
700.160208  	0.234487 
702.089024  	0.231746 
704.017840  	0.229518 
705.946656  	0.227430 
707.875472  	0.225402 
709.804288  	0.223416 
711.733104  	0.221889 
713.661920  	0.220298 
715.590736  	0.218522 
717.519552  	0.217187 
719.448368  	0.216409 
721.377184  	0.215610 
723.306000  	0.215255 
725.234816  	0.214599 
727.163632  	0.213709 
729.092448  	0.211884 
731.021264  	0.209664 
732.950080  	0.207217 
734.878896  	0.204873 
736.807712  	0.202609 
738.736528  	0.201035 
740.665344  	0.199561 
742.594160  	0.198205 
744.522976  	0.196340 
746.451792  	0.194819 
748.380608  	0.193466 
750.309424  	0.192247 
752.238240  	0.190591 
754.167056  	0.189442 
756.095872  	0.188236 
758.024688  	0.186889 
759.953504  	0.185488 
761.882320  	0.185297 
763.811136  	0.185127 
765.739952  	0.183430 
767.668768  	0.180682 
769.597584  	0.178420 
771.526400  	0.176925 
773.455216  	0.176746 
775.384032  	0.177603 
777.312848  	0.179365 
779.241664  	0.180502 
781.170480  	0.179532 
783.099296  	0.176423 
785.028112  	0.172598 
786.956928  	0.168637 
788.885744  	0.165456 
790.814560  	0.162973 
792.743376  	0.161190 
794.672192  	0.159979 
796.601008  	0.158895 
798.529824  	0.156397 
800.458640  	0.153251 
802.387456  	0.150516 
804.316272  	0.148458 
806.245088  	0.147010 
808.173904  	0.145650 
810.102720  	0.144419 
812.031536  	0.143472 
813.960352  	0.142527 
815.889168  	0.141827 
817.817984  	0.141090 
819.746800  	0.140626 
821.675616  	0.140097 
823.604432  	0.139419 
825.533248  	0.138809 
827.462064  	0.138214 
829.390880  	0.137017 
831.319696  	0.136021 
833.248512  	0.135155 
835.177328  	0.133716 
837.106144  	0.131359 
839.034960  	0.129373 
840.963776  	0.126690 
842.892592  	0.124224 
844.821408  	0.121914 
846.750224  	0.119553 
848.679040  	0.117553 
850.607856  	0.115840 
852.536672  	0.114359 
854.465488  	0.113150 
856.394304  	0.112180 
858.323120  	0.110911 
860.251936  	0.109489 
862.180752  	0.108159 
864.109568  	0.106354 
866.038384  	0.104472 
867.967200  	0.102947 
869.896016  	0.101679 
871.824832  	0.100489 
873.753648  	0.100167 
875.682464  	0.099909 
877.611280  	0.100050 
879.540096  	0.100480 
881.468912  	0.101029 
883.397728  	0.101839 
885.326544  	0.102547 
887.255360  	0.102854 
889.184176  	0.102683 
891.112992  	0.102117 
893.041808  	0.101158 
894.970624  	0.099623 
896.899440  	0.097356 
898.828256  	0.094666 
900.757072  	0.092087 
902.685888  	0.089716 
904.614704  	0.088144 
906.543520  	0.087375 
908.472336  	0.087380 
910.401152  	0.088080 
912.329968  	0.089213 
914.258784  	0.090183 
916.187600  	0.091245 
918.116416  	0.092082 
920.045232  	0.092511 
921.974048  	0.092672 
923.902864  	0.092650 
925.831680  	0.092545 
927.760496  	0.092641 
929.689312  	0.092555 
931.618128  	0.092613 
933.546944  	0.092595 
935.475760  	0.092247 
937.404576  	0.091620 
939.333392  	0.090905 
941.262208  	0.090234 
943.191024  	0.090148 
945.119840  	0.091076 
947.048656  	0.092780 
948.977472  	0.095812 
950.906288  	0.099718 
952.835104  	0.104565 
954.763920  	0.110316 
956.692736  	0.116132 
958.621552  	0.121604 
960.550368  	0.125915 
962.479184  	0.128777 
964.408000  	0.129399 
966.336816  	0.127698 
968.265632  	0.123866 
970.194448  	0.118499 
972.123264  	0.111366 
974.052080  	0.103546 
975.980896  	0.095628 
977.909712  	0.088089 
979.838528  	0.081460 
981.767344  	0.075639 
983.696160  	0.071070 
985.624976  	0.068030 
987.553792  	0.066821 
989.482608  	0.067029 
991.411424  	0.068515 
993.340240  	0.071094 
995.269056  	0.074266 
997.197872  	0.077839 
999.126688  	0.081423 
1001.055504  	0.085139 
1002.984320  	0.088553 
1004.913136  	0.092093 
1006.841952  	0.095622 
1008.770768  	0.098802 
1010.699584  	0.101458 
1012.628400  	0.103688 
1014.557216  	0.105390 
1016.486032  	0.106436 
1018.414848  	0.107009 
1020.343664  	0.107305 
1022.272480  	0.107539 
1024.201296  	0.107442 
1026.130112  	0.106873 
1028.058928  	0.106915 
1029.987744  	0.107860 
1031.916560  	0.109000 
1033.845376  	0.110226 
1035.774192  	0.111886 
1037.703008  	0.114290 
1039.631824  	0.118169 
1041.560640  	0.123413 
1043.489456  	0.130280 
1045.418272  	0.138661 
1047.347088  	0.147746 
1049.275904  	0.155425 
1051.204720  	0.161182 
1053.133536  	0.164925 
1055.062352  	0.166576 
1056.991168  	0.166593 
1058.919984  	0.166829 
1060.848800  	0.166898 
1062.777616  	0.166768 
1064.706432  	0.165682 
1066.635248  	0.164417 
1068.564064  	0.162732 
1070.492880  	0.160165 
1072.421696  	0.156685 
1074.350512  	0.154233 
1076.279328  	0.153780 
1078.208144  	0.155417 
1080.136960  	0.158382 
1082.065776  	0.161142 
1083.994592  	0.162403 
1085.923408  	0.161907 
1087.852224  	0.159390 
1089.781040  	0.155465 
1091.709856  	0.150047 
1093.638672  	0.143634 
1095.567488  	0.136089 
1097.496304  	0.128157 
1099.425120  	0.120166 
1101.353936  	0.112150 
1103.282752  	0.104400 
1105.211568  	0.097345 
1107.140384  	0.090587 
1109.069200  	0.084378 
1110.998016  	0.078783 
1112.926832  	0.073791 
1114.855648  	0.069350 
1116.784464  	0.064907 
1118.713280  	0.060539 
1120.642096  	0.056301 
1122.570912  	0.052415 
1124.499728  	0.048880 
1126.428544  	0.045874 
1128.357360  	0.043244 
1130.286176  	0.040957 
1132.214992  	0.039057 
1134.143808  	0.037552 
1136.072624  	0.036194 
1138.001440  	0.034898 
1139.930256  	0.033815 
1141.859072  	0.032772 
1143.787888  	0.031572 
1145.716704  	0.030677 
1147.645520  	0.030011 
1149.574336  	0.029623 
1151.503152  	0.029267 
1153.431968  	0.029008 
1155.360784  	0.028980 
1157.289600  	0.029442 
1159.218416  	0.029893 
1161.147232  	0.030442 
1163.076048  	0.031239 
1165.004864  	0.032003 
1166.933680  	0.032752 
1168.862496  	0.033640 
1170.791312  	0.034585 
1172.720128  	0.035715 
1174.648944  	0.037061 
1176.577760  	0.038471 
1178.506576  	0.039947 
1180.435392  	0.041502 
1182.364208  	0.042986 
1184.293024  	0.044738 
1186.221840  	0.047015 
1188.150656  	0.049608 
1190.079472  	0.052436 
1192.008288  	0.055566 
1193.937104  	0.059165 
1195.865920  	0.063147 
1197.794736  	0.067558 
1199.723552  	0.072493 
1201.652368  	0.077534 
1203.581184  	0.082280 
1205.510000  	0.086897 
1207.438816  	0.091291 
1209.367632  	0.095243 
1211.296448  	0.098588 
1213.225264  	0.101345 
1215.154080  	0.103362 
1217.082896  	0.104612 
1219.011712  	0.105129 
1220.940528  	0.105352 
1222.869344  	0.105184 
1224.798160  	0.104690 
1226.726976  	0.103480 
1228.655792  	0.101824 
1230.584608  	0.099928 
1232.513424  	0.097705 
1234.442240  	0.094911 
1236.371056  	0.092009 
1238.299872  	0.088891 
1240.228688  	0.085071 
1242.157504  	0.081071 
1244.086320  	0.077395 
1246.015136  	0.073442 
1247.943952  	0.069527 
1249.872768  	0.065662 
1251.801584  	0.061999 
1253.730400  	0.058375 
1255.659216  	0.054741 
1257.588032  	0.051275 
1259.516848  	0.048278 
1261.445664  	0.045476 
1263.374480  	0.042769 
1265.303296  	0.040350 
1267.232112  	0.038414 
1269.160928  	0.036974 
1271.089744  	0.036142 
1273.018560  	0.035749 
1274.947376  	0.035782 
1276.876192  	0.036166 
1278.805008  	0.036421 
1280.733824  	0.036120 
1282.662640  	0.035178 
1284.591456  	0.034043 
1286.520272  	0.033108 
1288.449088  	0.032519 
1290.377904  	0.032242 
1292.306720  	0.032511 
1294.235536  	0.032777 
1296.164352  	0.032592 
1298.093168  	0.031507 
1300.021984  	0.030042 
1301.950800  	0.028544 
1303.879616  	0.026780 
1305.808432  	0.025007 
1307.737248  	0.023262 
1309.666064  	0.021456 
1311.594880  	0.020282 
1313.523696  	0.019613 
1315.452512  	0.018960 
1317.381328  	0.018710 
1319.310144  	0.018798 
1321.238960  	0.018833 
1323.167776  	0.018999 
1325.096592  	0.019408 
1327.025408  	0.019609 
1328.954224  	0.019443 
1330.883040  	0.018991 
1332.811856  	0.018193 
1334.740672  	0.017574 
1336.669488  	0.017587 
1338.598304  	0.018192 
1340.527120  	0.017927 
1342.455936  	0.016485 
1344.384752  	0.015954 
1346.313568  	0.016080 
1348.242384  	0.016541 
1350.171200  	0.017272 
1352.100016  	0.018177 
1354.028832  	0.019259 
1355.957648  	0.020411 
1357.886464  	0.021381 
1359.815280  	0.022552 
1361.744096  	0.024428 
1363.672912  	0.026004 
1365.601728  	0.026156 
1367.530544  	0.026871 
1369.459360  	0.027883 
1371.388176  	0.028062 
1373.316992  	0.028324 
1375.245808  	0.028104 
1377.174624  	0.026449 
1379.103440  	0.024879 
1381.032256  	0.023208 
1382.961072  	0.021803 
1384.889888  	0.020943 
1386.818704  	0.020981 
1388.747520  	0.019989 
1390.676336  	0.018106 
1392.605152  	0.016647 
1394.533968  	0.016708 
1396.462784  	0.017353 
1398.391600  	0.017247 
1400.320416  	0.017060 
1402.249232  	0.016473 
1404.178048  	0.017040 
1406.106864  	0.017722 
1408.035680  	0.018116 
1409.964496  	0.019089 
1411.893312  	0.020441 
1413.822128  	0.021595 
1415.750944  	0.023098 
1417.679760  	0.024617 
1419.608576  	0.026025 
1421.537392  	0.025339 
1423.466208  	0.024799 
1425.395024  	0.023856 
1427.323840  	0.022216 
1429.252656  	0.021321 
1431.181472  	0.020537 
1433.110288  	0.019675 
1435.039104  	0.019478 
1436.967920  	0.021025 
1438.896736  	0.021183 
1440.825552  	0.020909 
1442.754368  	0.021043 
1444.683184  	0.020854 
1446.612000  	0.021078 
1448.540816  	0.021670 
1450.469632  	0.021489 
1452.398448  	0.021465 
1454.327264  	0.021471 
1456.256080  	0.022442 
1458.184896  	0.024267 
1460.113712  	0.022803 
1462.042528  	0.021338 
1463.971344  	0.021171 
1465.900160  	0.022285 
1467.828976  	0.022158 
1469.757792  	0.022140 
1471.686608  	0.024215 
1473.615424  	0.029465 
1475.544240  	0.031822 
1477.473056  	0.034081 
1479.401872  	0.035156 
1481.330688  	0.037164 
1483.259504  	0.038496 
1485.188320  	0.038911 
1487.117136  	0.039575 
1489.045952  	0.040986 
1490.974768  	0.040779 
1492.903584  	0.038044 
1494.832400  	0.035281 
1496.761216  	0.033383 
1498.690032  	0.030729 
1500.618848  	0.027858 
1502.547664  	0.024710 
1504.476480  	0.021855 
1506.405296  	0.022067 
1508.334112  	0.024052 
1510.262928  	0.021232 
1512.191744  	0.019289 
1514.120560  	0.018496 
1516.049376  	0.019282 
1517.978192  	0.020155 
1519.907008  	0.019896 
1521.835824  	0.022970 
1523.764640  	0.024522 
1525.693456  	0.026051 
1527.622272  	0.027467 
1529.551088  	0.027039 
1531.479904  	0.026164 
1533.408720  	0.026111 
1535.337536  	0.024503 
1537.266352  	0.021653 
1539.195168  	0.020181 
1541.123984  	0.021185 
1543.052800  	0.020730 
1544.981616  	0.019810 
1546.910432  	0.017786 
1548.839248  	0.017087 
1550.768064  	0.017613 
1552.696880  	0.016567 
1554.625696  	0.016973 
1556.554512  	0.016069 
1558.483328  	0.017370 
1560.412144  	0.022144 
1562.340960  	0.021190 
1564.269776  	0.021801 
1566.198592  	0.023808 
1568.127408  	0.024816 
1570.056224  	0.029274 
1571.985040  	0.031363 
1573.913856  	0.031657 
1575.842672  	0.033972 
1577.771488  	0.037156 
1579.700304  	0.035939 
1581.629120  	0.035102 
1583.557936  	0.034712 
1585.486752  	0.035169 
1587.415568  	0.036037 
1589.344384  	0.038154 
1591.273200  	0.040735 
1593.202016  	0.044196 
1595.130832  	0.048012 
1597.059648  	0.051822 
1598.988464  	0.054751 
1600.917280  	0.057843 
1602.846096  	0.060299 
1604.774912  	0.061993 
1606.703728  	0.062471 
1608.632544  	0.062977 
1610.561360  	0.062522 
1612.490176  	0.061671 
1614.418992  	0.059753 
1616.347808  	0.060644 
1618.276624  	0.063232 
1620.205440  	0.063077 
1622.134256  	0.064029 
1624.063072  	0.069047 
1625.991888  	0.071520 
1627.920704  	0.075732 
1629.849520  	0.080261 
1631.778336  	0.082955 
1633.707152  	0.084557 
1635.635968  	0.092085 
1637.564784  	0.100093 
1639.493600  	0.101319 
1641.422416  	0.103111 
1643.351232  	0.103972 
1645.280048  	0.103913 
1647.208864  	0.109694 
1649.137680  	0.110146 
1651.066496  	0.105039 
1652.995312  	0.106749 
1654.924128  	0.113933 
1656.852944  	0.109467 
1658.781760  	0.106764 
1660.710576  	0.104552 
1662.639392  	0.104156 
1664.568208  	0.102962 
1666.497024  	0.099032 
1668.425840  	0.096105 
1670.354656  	0.095611 
1672.283472  	0.092841 
1674.212288  	0.089615 
1676.141104  	0.089388 
1678.069920  	0.087057 
1679.998736  	0.085774 
1681.927552  	0.083476 
1683.856368  	0.083434 
1685.785184  	0.086384 
1687.714000  	0.083680 
1689.642816  	0.083308 
1691.571632  	0.082153 
1693.500448  	0.079437 
1695.429264  	0.078975 
1697.358080  	0.080541 
1699.286896  	0.077871 
1701.215712  	0.080424 
1703.144528  	0.077296 
1705.073344  	0.075221 
1707.002160  	0.073829 
1708.930976  	0.070708 
1710.859792  	0.067356 
1712.788608  	0.063580 
1714.717424  	0.059256 
1716.646240  	0.054567 
1718.575056  	0.049124 
1720.503872  	0.042837 
1722.432688  	0.037039 
1724.361504  	0.031231 
1726.290320  	0.025935 
1728.219136  	0.021714 
1730.147952  	0.018358 
1732.076768  	0.014861 
1734.005584  	0.012665 
1735.934400  	0.010225 
1737.863216  	0.007885 
1739.792032  	0.006294 
1741.720848  	0.005103 
1743.649664  	0.004485 
1745.578480  	0.003392 
1747.507296  	0.002621 
1749.436112  	0.002636 
1751.364928  	0.002095 
1753.293744  	0.000648 
1755.222560  	-0.000433 
1757.151376  	0.000019 
1759.080192  	-0.000539 
1761.009008  	-0.000979 
1762.937824  	-0.001248 
1764.866640  	-0.001952 
1766.795456  	-0.002123 
1768.724272  	-0.001800 
1770.653088  	-0.002600 
1772.581904  	-0.002007 
1774.510720  	-0.001850 
1776.439536  	-0.002293 
1778.368352  	-0.003079 
1780.297168  	-0.002950 
1782.225984  	-0.003211 
1784.154800  	-0.003462 
1786.083616  	-0.003680 
1788.012432  	-0.004065 
1789.941248  	-0.003961 
1791.870064  	-0.003317 
1793.798880  	-0.003565 
1795.727696  	-0.003830 
1797.656512  	-0.004417 
1799.585328  	-0.004643 
1801.514144  	-0.004102 
1803.442960  	-0.004288 
1805.371776  	-0.004766 
1807.300592  	-0.004931 
1809.229408  	-0.005141 
1811.158224  	-0.005069 
1813.087040  	-0.005289 
1815.015856  	-0.005751 
1816.944672  	-0.005437 
1818.873488  	-0.005113 
1820.802304  	-0.005197 
1822.731120  	-0.005271 
1824.659936  	-0.005263 
1826.588752  	-0.005279 
1828.517568  	-0.005739 
1830.446384  	-0.005304 
1832.375200  	-0.005674 
1834.304016  	-0.005917 
1836.232832  	-0.005791 
1838.161648  	-0.005468 
1840.090464  	-0.005776 
1842.019280  	-0.006298 
1843.948096  	-0.006166 
1845.876912  	-0.005579 
1847.805728  	-0.005780 
1849.734544  	-0.006043 
1851.663360  	-0.006287 
1853.592176  	-0.006028 
1855.520992  	-0.006051 
1857.449808  	-0.006001 
1859.378624  	-0.006313 
1861.307440  	-0.006352 
1863.236256  	-0.006635 
1865.165072  	-0.006705 
1867.093888  	-0.006568 
1869.022704  	-0.005577 
1870.951520  	-0.005847 
1872.880336  	-0.006465 
1874.809152  	-0.006736 
1876.737968  	-0.006957 
1878.666784  	-0.007060 
1880.595600  	-0.007093 
1882.524416  	-0.007043 
1884.453232  	-0.006564 
1886.382048  	-0.006783 
1888.310864  	-0.006759 
1890.239680  	-0.006484 
1892.168496  	-0.006417 
1894.097312  	-0.006396 
1896.026128  	-0.006429 
1897.954944  	-0.006562 
1899.883760  	-0.006447 
1901.812576  	-0.006792 
1903.741392  	-0.006964 
1905.670208  	-0.007297 
1907.599024  	-0.007447 
1909.527840  	-0.006953 
1911.456656  	-0.006334 
1913.385472  	-0.006265 
1915.314288  	-0.006339 
1917.243104  	-0.006369 
1919.171920  	-0.005967 
1921.100736  	-0.006616 
1923.029552  	-0.006949 
1924.958368  	-0.007900 
1926.887184  	-0.007995 
1928.816000  	-0.008253 
1930.744816  	-0.007981 
1932.673632  	-0.007757 
1934.602448  	-0.007387 
1936.531264  	-0.007556 
1938.460080  	-0.008132 
1940.388896  	-0.008210 
1942.317712  	-0.007363 
1944.246528  	-0.007823 
1946.175344  	-0.008160 
1948.104160  	-0.008001 
1950.032976  	-0.007456 
1951.961792  	-0.008008 
1953.890608  	-0.008561 
1955.819424  	-0.008903 
1957.748240  	-0.009170 
1959.677056  	-0.009313 
1961.605872  	-0.009071 
1963.534688  	-0.009202 
1965.463504  	-0.008699 
1967.392320  	-0.008875 
1969.321136  	-0.009396 
1971.249952  	-0.010086 
1973.178768  	-0.009379 
1975.107584  	-0.008576 
1977.036400  	-0.008656 
1978.965216  	-0.008732 
1980.894032  	-0.008226 
1982.822848  	-0.008364 
1984.751664  	-0.007483 
1986.680480  	-0.007693 
1988.609296  	-0.007296 
1990.538112  	-0.006694 
1992.466928  	-0.006058 
1994.395744  	-0.007399 
1996.324560  	-0.008095 
1998.253376  	-0.008109 
2000.182192  	-0.008417 
2002.111008  	-0.009273 
2004.039824  	-0.009441 
2005.968640  	-0.009219 
2007.897456  	-0.008087 
2009.826272  	-0.007537 
2011.755088  	-0.007787 
2013.683904  	-0.008295 
2015.612720  	-0.008147 
2017.541536  	-0.008255 
2019.470352  	-0.007924 
2021.399168  	-0.008344 
2023.327984  	-0.008031 
2025.256800  	-0.007916 
2027.185616  	-0.006569 
2029.114432  	-0.006567 
2031.043248  	-0.007621 
2032.972064  	-0.007413 
2034.900880  	-0.005894 
2036.829696  	-0.006378 
2038.758512  	-0.006451 
2040.687328  	-0.006949 
2042.616144  	-0.006762 
2044.544960  	-0.006890 
2046.473776  	-0.006519 
2048.402592  	-0.006009 
2050.331408  	-0.005750 
2052.260224  	-0.005612 
2054.189040  	-0.005569 
2056.117856  	-0.006236 
2058.046672  	-0.005843 
2059.975488  	-0.005494 
2061.904304  	-0.005624 
2063.833120  	-0.005565 
2065.761936  	-0.005403 
2067.690752  	-0.005626 
2069.619568  	-0.005490 
2071.548384  	-0.005748 
2073.477200  	-0.005477 
2075.406016  	-0.005052 
2077.334832  	-0.004621 
2079.263648  	-0.004050 
2081.192464  	-0.003834 
2083.121280  	-0.004425 
2085.050096  	-0.004872 
2086.978912  	-0.005066 
2088.907728  	-0.004747 
2090.836544  	-0.004649 
2092.765360  	-0.004526 
2094.694176  	-0.004469 
2096.622992  	-0.004702 
2098.551808  	-0.004921 
2100.480624  	-0.004219 
2102.409440  	-0.003990 
2104.338256  	-0.004230 
2106.267072  	-0.004420 
2108.195888  	-0.004235 
2110.124704  	-0.004169 
2112.053520  	-0.003955 
2113.982336  	-0.004043 
2115.911152  	-0.004418 
2117.839968  	-0.004766 
2119.768784  	-0.004768 
2121.697600  	-0.004641 
2123.626416  	-0.004684 
2125.555232  	-0.004920 
2127.484048  	-0.005211 
2129.412864  	-0.005268 
2131.341680  	-0.004855 
2133.270496  	-0.005015 
2135.199312  	-0.004817 
2137.128128  	-0.004403 
2139.056944  	-0.004137 
2140.985760  	-0.004184 
2142.914576  	-0.004365 
2144.843392  	-0.005422 
2146.772208  	-0.006018 
2148.701024  	-0.005790 
2150.629840  	-0.006039 
2152.558656  	-0.006055 
2154.487472  	-0.005816 
2156.416288  	-0.006120 
2158.345104  	-0.003897 
2160.273920  	-0.001575 
2162.202736  	-0.002137 
2164.131552  	-0.003578 
2166.060368  	-0.003849 
2167.989184  	-0.004246 
2169.918000  	-0.004492 
2171.846816  	-0.004250 
2173.775632  	-0.003948 
2175.704448  	-0.003951 
2177.633264  	-0.003999 
2179.562080  	-0.005222 
2181.490896  	-0.004734 
2183.419712  	-0.003578 
2185.348528  	-0.003503 
2187.277344  	-0.004238 
2189.206160  	-0.004331 
2191.134976  	-0.004813 
2193.063792  	-0.005626 
2194.992608  	-0.005244 
2196.921424  	-0.004737 
2198.850240  	-0.005307 
2200.779056  	-0.005917 
2202.707872  	-0.006042 
2204.636688  	-0.005414 
2206.565504  	-0.005046 
2208.494320  	-0.005031 
2210.423136  	-0.004959 
2212.351952  	-0.004760 
2214.280768  	-0.004804 
2216.209584  	-0.004525 
2218.138400  	-0.005306 
2220.067216  	-0.005842 
2221.996032  	-0.005656 
2223.924848  	-0.005045 
2225.853664  	-0.004985 
2227.782480  	-0.004980 
2229.711296  	-0.005646 
2231.640112  	-0.005587 
2233.568928  	-0.005325 
2235.497744  	-0.005275 
2237.426560  	-0.005041 
2239.355376  	-0.004696 
2241.284192  	-0.005345 
2243.213008  	-0.005704 
2245.141824  	-0.005736 
2247.070640  	-0.005636 
2248.999456  	-0.005293 
2250.928272  	-0.005138 
2252.857088  	-0.005366 
2254.785904  	-0.005126 
2256.714720  	-0.005206 
2258.643536  	-0.005243 
2260.572352  	-0.004669 
2262.501168  	-0.004454 
2264.429984  	-0.004513 
2266.358800  	-0.004669 
2268.287616  	-0.005068 
2270.216432  	-0.005010 
2272.145248  	-0.004719 
2274.074064  	-0.004373 
2276.002880  	-0.004312 
2277.931696  	-0.004191 
2279.860512  	-0.004154 
2281.789328  	-0.004253 
2283.718144  	-0.004212 
2285.646960  	-0.003782 
2287.575776  	-0.003841 
2289.504592  	-0.003793 
2291.433408  	-0.003585 
2293.362224  	-0.003372 
2295.291040  	-0.003279 
2297.219856  	-0.002979 
2299.148672  	-0.003064 
2301.077488  	-0.002952 
2303.006304  	-0.002492 
2304.935120  	-0.002031 
2306.863936  	-0.001962 
2308.792752  	-0.001928 
2310.721568  	-0.001989 
2312.650384  	-0.002195 
2314.579200  	-0.002249 
2316.508016  	-0.002044 
2318.436832  	-0.001875 
2320.365648  	-0.001644 
2322.294464  	-0.001653 
2324.223280  	-0.002162 
2326.152096  	-0.003198 
2328.080912  	-0.004086 
2330.009728  	-0.004345 
2331.938544  	-0.004432 
2333.867360  	-0.004882 
2335.796176  	-0.005355 
2337.724992  	-0.005949 
2339.653808  	-0.006089 
2341.582624  	-0.005735 
2343.511440  	-0.004663 
2345.440256  	-0.003339 
2347.369072  	-0.003029 
2349.297888  	-0.003647 
2351.226704  	-0.004752 
2353.155520  	-0.006054 
2355.084336  	-0.006484 
2357.013152  	-0.006416 
2358.941968  	-0.006665 
2360.870784  	-0.006791 
2362.799600  	-0.006589 
2364.728416  	-0.005731 
2366.657232  	-0.005265 
2368.586048  	-0.004920 
2370.514864  	-0.003883 
2372.443680  	-0.003170 
2374.372496  	-0.002632 
2376.301312  	-0.002297 
2378.230128  	-0.002319 
2380.158944  	-0.002469 
2382.087760  	-0.002758 
2384.016576  	-0.003432 
2385.945392  	-0.004042 
2387.874208  	-0.004356 
2389.803024  	-0.004559 
2391.731840  	-0.004631 
2393.660656  	-0.004708 
2395.589472  	-0.004610 
2397.518288  	-0.004503 
2399.447104  	-0.004647 
2401.375920  	-0.004741 
2403.304736  	-0.004897 
2405.233552  	-0.004847 
2407.162368  	-0.004739 
2409.091184  	-0.004759 
2411.020000  	-0.004996 
2412.948816  	-0.005086 
2414.877632  	-0.004972 
2416.806448  	-0.004634 
2418.735264  	-0.004456 
2420.664080  	-0.004485 
2422.592896  	-0.004608 
2424.521712  	-0.004570 
2426.450528  	-0.004589 
2428.379344  	-0.004658 
2430.308160  	-0.004573 
2432.236976  	-0.004539 
2434.165792  	-0.004320 
2436.094608  	-0.004072 
2438.023424  	-0.004138 
2439.952240  	-0.004171 
2441.881056  	-0.004097 
2443.809872  	-0.004197 
2445.738688  	-0.004236 
2447.667504  	-0.004005 
2449.596320  	-0.003796 
2451.525136  	-0.003742 
2453.453952  	-0.003523 
2455.382768  	-0.003463 
2457.311584  	-0.003746 
2459.240400  	-0.003942 
2461.169216  	-0.004007 
2463.098032  	-0.003870 
2465.026848  	-0.003771 
2466.955664  	-0.003893 
2468.884480  	-0.004172 
2470.813296  	-0.004291 
2472.742112  	-0.004062 
2474.670928  	-0.003786 
2476.599744  	-0.003584 
2478.528560  	-0.003348 
2480.457376  	-0.003207 
2482.386192  	-0.003200 
2484.315008  	-0.003345 
2486.243824  	-0.003396 
2488.172640  	-0.003151 
2490.101456  	-0.003024 
2492.030272  	-0.003025 
2493.959088  	-0.003109 
2495.887904  	-0.003184 
2497.816720  	-0.002930 
2499.745536  	-0.003070 
2501.674352  	-0.003346 
2503.603168  	-0.003240 
2505.531984  	-0.002997 
2507.460800  	-0.003066 
2509.389616  	-0.003239 
2511.318432  	-0.003341 
2513.247248  	-0.003183 
2515.176064  	-0.002873 
2517.104880  	-0.002897 
2519.033696  	-0.003193 
2520.962512  	-0.003137 
2522.891328  	-0.003033 
2524.820144  	-0.002907 
2526.748960  	-0.002751 
2528.677776  	-0.002572 
2530.606592  	-0.002472 
2532.535408  	-0.002482 
2534.464224  	-0.002486 
2536.393040  	-0.002586 
2538.321856  	-0.002548 
2540.250672  	-0.002400 
2542.179488  	-0.002263 
2544.108304  	-0.002188 
2546.037120  	-0.002131 
2547.965936  	-0.002068 
2549.894752  	-0.002014 
2551.823568  	-0.001883 
2553.752384  	-0.001781 
2555.681200  	-0.001755 
2557.610016  	-0.001722 
2559.538832  	-0.001774 
2561.467648  	-0.001644 
2563.396464  	-0.001480 
2565.325280  	-0.001309 
2567.254096  	-0.001149 
2569.182912  	-0.001203 
2571.111728  	-0.001159 
2573.040544  	-0.001080 
2574.969360  	-0.001011 
2576.898176  	-0.000906 
2578.826992  	-0.001026 
2580.755808  	-0.001089 
2582.684624  	-0.001002 
2584.613440  	-0.000972 
2586.542256  	-0.000729 
2588.471072  	-0.000783 
2590.399888  	-0.000766 
2592.328704  	-0.000418 
2594.257520  	-0.000280 
2596.186336  	-0.000450 
2598.115152  	-0.000389 
2600.043968  	-0.000147 
2601.972784  	-0.000220 
2603.901600  	-0.000174 
2605.830416  	-0.000171 
2607.759232  	-0.000092 
2609.688048  	-0.000004 
2611.616864  	0.000192 
2613.545680  	0.000348 
2615.474496  	0.000463 
2617.403312  	0.000578 
2619.332128  	0.000564 
2621.260944  	0.000647 
2623.189760  	0.000783 
2625.118576  	0.000914 
2627.047392  	0.001042 
2628.976208  	0.001174 
2630.905024  	0.001275 
2632.833840  	0.001257 
2634.762656  	0.001131 
2636.691472  	0.001338 
2638.620288  	0.001545 
2640.549104  	0.001668 
2642.477920  	0.001833 
2644.406736  	0.001835 
2646.335552  	0.001812 
2648.264368  	0.001915 
2650.193184  	0.002088 
2652.122000  	0.002226 
2654.050816  	0.002347 
2655.979632  	0.002436 
2657.908448  	0.002505 
2659.837264  	0.002554 
2661.766080  	0.002538 
2663.694896  	0.002538 
2665.623712  	0.002639 
2667.552528  	0.002788 
2669.481344  	0.002778 
2671.410160  	0.002802 
2673.338976  	0.002985 
2675.267792  	0.003116 
2677.196608  	0.003237 
2679.125424  	0.003340 
2681.054240  	0.003371 
2682.983056  	0.003472 
2684.911872  	0.003637 
2686.840688  	0.003704 
2688.769504  	0.003697 
2690.698320  	0.003751 
2692.627136  	0.003802 
2694.555952  	0.003816 
2696.484768  	0.003937 
2698.413584  	0.003980 
2700.342400  	0.003989 
2702.271216  	0.004195 
2704.200032  	0.004433 
2706.128848  	0.004531 
2708.057664  	0.004599 
2709.986480  	0.004579 
2711.915296  	0.004637 
2713.844112  	0.004777 
2715.772928  	0.004815 
2717.701744  	0.004811 
2719.630560  	0.004993 
2721.559376  	0.005212 
2723.488192  	0.005238 
2725.417008  	0.005267 
2727.345824  	0.005343 
2729.274640  	0.005575 
2731.203456  	0.005659 
2733.132272  	0.005623 
2735.061088  	0.005646 
2736.989904  	0.005618 
2738.918720  	0.005749 
2740.847536  	0.005974 
2742.776352  	0.006117 
2744.705168  	0.006105 
2746.633984  	0.006020 
2748.562800  	0.006152 
2750.491616  	0.006245 
2752.420432  	0.006259 
2754.349248  	0.006286 
2756.278064  	0.006284 
2758.206880  	0.006281 
2760.135696  	0.006305 
2762.064512  	0.006269 
2763.993328  	0.006247 
2765.922144  	0.006337 
2767.850960  	0.006470 
2769.779776  	0.006479 
2771.708592  	0.006508 
2773.637408  	0.006532 
2775.566224  	0.006484 
2777.495040  	0.006474 
2779.423856  	0.006476 
2781.352672  	0.006545 
2783.281488  	0.006642 
2785.210304  	0.006621 
2787.139120  	0.006743 
2789.067936  	0.006780 
2790.996752  	0.006765 
2792.925568  	0.006792 
2794.854384  	0.006783 
2796.783200  	0.006816 
2798.712016  	0.006840 
2800.640832  	0.006894 
2802.569648  	0.007001 
2804.498464  	0.007062 
2806.427280  	0.007092 
2808.356096  	0.007194 
2810.284912  	0.007191 
2812.213728  	0.007157 
2814.142544  	0.007217 
2816.071360  	0.007198 
2818.000176  	0.007264 
2819.928992  	0.007258 
2821.857808  	0.007202 
2823.786624  	0.007160 
2825.715440  	0.007202 
2827.644256  	0.007232 
2829.573072  	0.007215 
2831.501888  	0.007242 
2833.430704  	0.007312 
2835.359520  	0.007309 
2837.288336  	0.007195 
2839.217152  	0.007141 
2841.145968  	0.007117 
2843.074784  	0.007050 
2845.003600  	0.007063 
2846.932416  	0.007027 
2848.861232  	0.007120 
2850.790048  	0.007132 
2852.718864  	0.007108 
2854.647680  	0.007098 
2856.576496  	0.007042 
2858.505312  	0.007041 
2860.434128  	0.007160 
2862.362944  	0.007221 
2864.291760  	0.007125 
2866.220576  	0.007056 
2868.149392  	0.007166 
2870.078208  	0.007147 
2872.007024  	0.007279 
2873.935840  	0.007565 
2875.864656  	0.007738 
2877.793472  	0.007846 
2879.722288  	0.007986 
2881.651104  	0.008194 
2883.579920  	0.008433 
2885.508736  	0.008653 
2887.437552  	0.008832 
2889.366368  	0.008818 
2891.295184  	0.008799 
2893.224000  	0.008780 
2895.152816  	0.008851 
2897.081632  	0.008931 
2899.010448  	0.008562 
2900.939264  	0.008184 
2902.868080  	0.008426 
2904.796896  	0.008778 
2906.725712  	0.008894 
2908.654528  	0.009120 
2910.583344  	0.009369 
2912.512160  	0.009515 
2914.440976  	0.009798 
2916.369792  	0.010174 
2918.298608  	0.010437 
2920.227424  	0.010769 
2922.156240  	0.011105 
2924.085056  	0.011393 
2926.013872  	0.011580 
2927.942688  	0.012061 
2929.871504  	0.012591 
2931.800320  	0.012994 
2933.729136  	0.013486 
2935.657952  	0.013971 
2937.586768  	0.014342 
2939.515584  	0.014548 
2941.444400  	0.014619 
2943.373216  	0.014829 
2945.302032  	0.015200 
2947.230848  	0.015362 
2949.159664  	0.015249 
2951.088480  	0.015073 
2953.017296  	0.015020 
2954.946112  	0.014811 
2956.874928  	0.014604 
2958.803744  	0.014451 
2960.732560  	0.014397 
2962.661376  	0.014226 
2964.590192  	0.013935 
2966.519008  	0.013793 
2968.447824  	0.013522 
2970.376640  	0.013264 
2972.305456  	0.013129 
2974.234272  	0.013227 
2976.163088  	0.013189 
2978.091904  	0.013005 
2980.020720  	0.012940 
2981.949536  	0.013009 
2983.878352  	0.012933 
2985.807168  	0.012673 
2987.735984  	0.012569 
2989.664800  	0.012718 
2991.593616  	0.013271 
2993.522432  	0.013719 
2995.451248  	0.013882 
2997.380064  	0.014093 
2999.308880  	0.014518 
3001.237696  	0.014885 
3003.166512  	0.015298 
3005.095328  	0.015643 
3007.024144  	0.015928 
3008.952960  	0.016317 
3010.881776  	0.016710 
3012.810592  	0.017211 
3014.739408  	0.017603 
3016.668224  	0.017908 
3018.597040  	0.018232 
3020.525856  	0.018621 
3022.454672  	0.018964 
3024.383488  	0.019346 
3026.312304  	0.019796 
3028.241120  	0.020081 
3030.169936  	0.020325 
3032.098752  	0.020870 
3034.027568  	0.021217 
3035.956384  	0.021560 
3037.885200  	0.021824 
3039.814016  	0.022201 
3041.742832  	0.022493 
3043.671648  	0.022859 
3045.600464  	0.023145 
3047.529280  	0.023415 
3049.458096  	0.023804 
3051.386912  	0.023997 
3053.315728  	0.024205 
3055.244544  	0.024564 
3057.173360  	0.025089 
3059.102176  	0.025543 
3061.030992  	0.025863 
3062.959808  	0.026209 
3064.888624  	0.026738 
3066.817440  	0.027352 
3068.746256  	0.027862 
3070.675072  	0.028129 
3072.603888  	0.028448 
3074.532704  	0.028909 
3076.461520  	0.029429 
3078.390336  	0.030043 
3080.319152  	0.030657 
3082.247968  	0.030899 
3084.176784  	0.031244 
3086.105600  	0.031866 
3088.034416  	0.032374 
3089.963232  	0.032738 
3091.892048  	0.033150 
3093.820864  	0.033486 
3095.749680  	0.034039 
3097.678496  	0.034600 
3099.607312  	0.035139 
3101.536128  	0.035854 
3103.464944  	0.036254 
3105.393760  	0.036532 
3107.322576  	0.037004 
3109.251392  	0.037539 
3111.180208  	0.037905 
3113.109024  	0.038068 
3115.037840  	0.038483 
3116.966656  	0.039113 
3118.895472  	0.039597 
3120.824288  	0.040118 
3122.753104  	0.040592 
3124.681920  	0.040764 
3126.610736  	0.041094 
3128.539552  	0.041456 
3130.468368  	0.041595 
3132.397184  	0.042122 
3134.326000  	0.042723 
3136.254816  	0.043022 
3138.183632  	0.043236 
3140.112448  	0.043477 
3142.041264  	0.043882 
3143.970080  	0.044371 
3145.898896  	0.044771 
3147.827712  	0.045167 
3149.756528  	0.045675 
3151.685344  	0.046060 
3153.614160  	0.046262 
3155.542976  	0.046636 
3157.471792  	0.047217 
3159.400608  	0.047736 
3161.329424  	0.047989 
3163.258240  	0.048294 
3165.187056  	0.048637 
3167.115872  	0.048921 
3169.044688  	0.049326 
3170.973504  	0.049750 
3172.902320  	0.049968 
3174.831136  	0.050154 
3176.759952  	0.050474 
3178.688768  	0.050898 
3180.617584  	0.051131 
3182.546400  	0.051369 
3184.475216  	0.051572 
3186.404032  	0.051732 
3188.332848  	0.051846 
3190.261664  	0.052008 
3192.190480  	0.052116 
3194.119296  	0.052153 
3196.048112  	0.052026 
3197.976928  	0.052562 
3199.905744  	0.052830 
3201.834560  	0.052677 
3203.763376  	0.052558 
3205.692192  	0.052280 
3207.621008  	0.052269 
3209.549824  	0.052603 
3211.478640  	0.052665 
3213.407456  	0.052472 
3215.336272  	0.052516 
3217.265088  	0.052347 
3219.193904  	0.052594 
3221.122720  	0.052607 
3223.051536  	0.052258 
3224.980352  	0.052032 
3226.909168  	0.051979 
3228.837984  	0.051839 
3230.766800  	0.051642 
3232.695616  	0.051725 
3234.624432  	0.051751 
3236.553248  	0.051862 
3238.482064  	0.051946 
3240.410880  	0.051764 
3242.339696  	0.051748 
3244.268512  	0.051923 
3246.197328  	0.052134 
3248.126144  	0.052101 
3250.054960  	0.052188 
3251.983776  	0.052342 
3253.912592  	0.052604 
3255.841408  	0.052768 
3257.770224  	0.052879 
3259.699040  	0.053061 
3261.627856  	0.053183 
3263.556672  	0.053135 
3265.485488  	0.053283 
3267.414304  	0.053245 
3269.343120  	0.053332 
3271.271936  	0.053618 
3273.200752  	0.053830 
3275.129568  	0.053825 
3277.058384  	0.053880 
3278.987200  	0.054091 
3280.916016  	0.054209 
3282.844832  	0.054284 
3284.773648  	0.054445 
3286.702464  	0.054483 
3288.631280  	0.054638 
3290.560096  	0.054740 
3292.488912  	0.054802 
3294.417728  	0.054938 
3296.346544  	0.055120 
3298.275360  	0.055533 
3300.204176  	0.055694 
3302.132992  	0.055705 
3304.061808  	0.056028 
3305.990624  	0.056276 
3307.919440  	0.056553 
3309.848256  	0.056864 
3311.777072  	0.056923 
3313.705888  	0.057100 
3315.634704  	0.057464 
3317.563520  	0.057761 
3319.492336  	0.057898 
3321.421152  	0.058127 
3323.349968  	0.058318 
3325.278784  	0.058360 
3327.207600  	0.058448 
3329.136416  	0.058314 
3331.065232  	0.058141 
3332.994048  	0.058235 
3334.922864  	0.058568 
3336.851680  	0.058841 
3338.780496  	0.058931 
3340.709312  	0.058639 
3342.638128  	0.058540 
3344.566944  	0.058469 
3346.495760  	0.058364 
3348.424576  	0.058241 
3350.353392  	0.058101 
3352.282208  	0.057874 
3354.211024  	0.057711 
3356.139840  	0.057518 
3358.068656  	0.057224 
3359.997472  	0.057128 
3361.926288  	0.057072 
3363.855104  	0.056870 
3365.783920  	0.056673 
3367.712736  	0.056484 
3369.641552  	0.056219 
3371.570368  	0.055997 
3373.499184  	0.055829 
3375.428000  	0.055667 
3377.356816  	0.055486 
3379.285632  	0.055482 
3381.214448  	0.055275 
3383.143264  	0.054926 
3385.072080  	0.054820 
3387.000896  	0.054598 
3388.929712  	0.054282 
3390.858528  	0.053859 
3392.787344  	0.053900 
3394.716160  	0.053708 
3396.644976  	0.053589 
3398.573792  	0.053431 
3400.502608  	0.052867 
3402.431424  	0.052438 
3404.360240  	0.052178 
3406.289056  	0.051755 
3408.217872  	0.051441 
3410.146688  	0.051182 
3412.075504  	0.050776 
3414.004320  	0.050654 
3415.933136  	0.050445 
3417.861952  	0.049913 
3419.790768  	0.049912 
3421.719584  	0.050084 
3423.648400  	0.049504 
3425.577216  	0.048714 
3427.506032  	0.048398 
3429.434848  	0.048093 
3431.363664  	0.047995 
3433.292480  	0.047797 
3435.221296  	0.047426 
3437.150112  	0.046758 
3439.078928  	0.046152 
3441.007744  	0.045785 
3442.936560  	0.045750 
3444.865376  	0.045067 
3446.794192  	0.045131 
3448.723008  	0.045266 
3450.651824  	0.044395 
3452.580640  	0.043747 
3454.509456  	0.043037 
3456.438272  	0.042625 
3458.367088  	0.042291 
3460.295904  	0.041878 
3462.224720  	0.041759 
3464.153536  	0.041185 
3466.082352  	0.040408 
3468.011168  	0.040059 
3469.939984  	0.039646 
3471.868800  	0.038874 
3473.797616  	0.038169 
3475.726432  	0.037833 
3477.655248  	0.037088 
3479.584064  	0.036324 
3481.512880  	0.036519 
3483.441696  	0.036387 
3485.370512  	0.035291 
3487.299328  	0.034637 
3489.228144  	0.034130 
3491.156960  	0.033513 
3493.085776  	0.033030 
3495.014592  	0.032693 
3496.943408  	0.032398 
3498.872224  	0.031623 
3500.801040  	0.030974 
3502.729856  	0.031061 
3504.658672  	0.031147 
3506.587488  	0.029890 
3508.516304  	0.029241 
3510.445120  	0.029283 
3512.373936  	0.028680 
3514.302752  	0.028103 
3516.231568  	0.027536 
3518.160384  	0.027029 
3520.089200  	0.026297 
3522.018016  	0.025754 
3523.946832  	0.026141 
3525.875648  	0.025791 
3527.804464  	0.025346 
3529.733280  	0.025147 
3531.662096  	0.024339 
3533.590912  	0.023354 
3535.519728  	0.023092 
3537.448544  	0.022945 
3539.377360  	0.021951 
3541.306176  	0.021041 
3543.234992  	0.020771 
3545.163808  	0.021482 
3547.092624  	0.021911 
3549.021440  	0.020615 
3550.950256  	0.019437 
3552.879072  	0.019992 
3554.807888  	0.019317 
3556.736704  	0.017996 
3558.665520  	0.017676 
3560.594336  	0.017502 
3562.523152  	0.016503 
3564.451968  	0.015817 
3566.380784  	0.017514 
3568.309600  	0.019052 
3570.238416  	0.016630 
3572.167232  	0.014788 
3574.096048  	0.014192 
3576.024864  	0.013741 
3577.953680  	0.013132 
3579.882496  	0.012614 
3581.811312  	0.011841 
3583.740128  	0.010983 
3585.668944  	0.010480 
3587.597760  	0.012440 
3589.526576  	0.012363 
3591.455392  	0.009852 
3593.384208  	0.009157 
3595.313024  	0.009605 
3597.241840  	0.008789 
3599.170656  	0.007646 
3601.099472  	0.007734 
3603.028288  	0.006935 
3604.957104  	0.005372 
3606.885920  	0.005202 
3608.814736  	0.006038 
3610.743552  	0.005076 
3612.672368  	0.004754 
3614.601184  	0.004858 
3616.530000  	0.003055 
3618.458816  	0.002920 
3620.387632  	0.003536 
3622.316448  	0.002251 
3624.245264  	0.000711 
3626.174080  	-0.000993 
3628.102896  	-0.000770 
3630.031712  	0.002226 
3631.960528  	-0.000019 
3633.889344  	-0.001070 
3635.818160  	-0.001739 
3637.746976  	-0.002656 
3639.675792  	-0.003222 
3641.604608  	-0.003835 
3643.533424  	-0.004718 
3645.462240  	-0.006257 
3647.391056  	-0.006349 
3649.319872  	-0.004629 
3651.248688  	-0.003508 
3653.177504  	-0.006343 
3655.106320  	-0.007710 
3657.035136  	-0.006416 
3658.963952  	-0.007358 
3660.892768  	-0.008349 
3662.821584  	-0.008743 
3664.750400  	-0.009183 
3666.679216  	-0.010039 
3668.608032  	-0.010514 
3670.536848  	-0.008835 
3672.465664  	-0.009913 
3674.394480  	-0.010856 
3676.323296  	-0.008176 
3678.252112  	-0.009070 
3680.180928  	-0.009438 
3682.109744  	-0.010174 
3684.038560  	-0.010804 
3685.967376  	-0.011672 
3687.896192  	-0.011778 
3689.825008  	-0.010363 
3691.753824  	-0.009850 
3693.682640  	-0.010395 
3695.611456  	-0.010767 
3697.540272  	-0.010571 
3699.469088  	-0.011307 
3701.397904  	-0.011057 
3703.326720  	-0.010275 
3705.255536  	-0.010671 
3707.184352  	-0.011118 
3709.113168  	-0.011252 
3711.041984  	-0.010034 
3712.970800  	-0.008819 
3714.899616  	-0.009717 
3716.828432  	-0.010579 
3718.757248  	-0.010536 
3720.686064  	-0.010651 
3722.614880  	-0.010505 
3724.543696  	-0.010522 
3726.472512  	-0.009860 
3728.401328  	-0.010470 
3730.330144  	-0.012068 
3732.258960  	-0.012256 
3734.187776  	-0.011119 
3736.116592  	-0.008689 
3738.045408  	-0.009269 
3739.974224  	-0.010449 
3741.903040  	-0.011822 
3743.831856  	-0.012220 
3745.760672  	-0.010080 
3747.689488  	-0.011610 
3749.618304  	-0.011290 
3751.547120  	-0.008971 
3753.475936  	-0.008811 
3755.404752  	-0.010479 
3757.333568  	-0.010819 
3759.262384  	-0.010065 
3761.191200  	-0.009765 
3763.120016  	-0.010796 
3765.048832  	-0.010528 
3766.977648  	-0.010530 
3768.906464  	-0.010670 
3770.835280  	-0.009810 
3772.764096  	-0.010371 
3774.692912  	-0.010945 
3776.621728  	-0.011280 
3778.550544  	-0.010852 
3780.479360  	-0.009815 
3782.408176  	-0.010518 
3784.336992  	-0.010686 
3786.265808  	-0.010342 
3788.194624  	-0.010561 
3790.123440  	-0.010761 
3792.052256  	-0.010892 
3793.981072  	-0.011434 
3795.909888  	-0.010773 
3797.838704  	-0.010200 
3799.767520  	-0.011502 
3801.696336  	-0.009839 
3803.625152  	-0.009957 
3805.553968  	-0.011526 
3807.482784  	-0.010153 
3809.411600  	-0.010023 
3811.340416  	-0.010779 
3813.269232  	-0.011705 
3815.198048  	-0.011320 
3817.126864  	-0.009988 
3819.055680  	-0.011524 
3820.984496  	-0.010247 
3822.913312  	-0.009161 
3824.842128  	-0.010660 
3826.770944  	-0.010369 
3828.699760  	-0.010584 
3830.628576  	-0.011199 
3832.557392  	-0.010999 
3834.486208  	-0.011490 
3836.415024  	-0.011699 
3838.343840  	-0.010552 
3840.272656  	-0.009549 
3842.201472  	-0.009794 
3844.130288  	-0.009647 
3846.059104  	-0.010141 
3847.987920  	-0.011160 
3849.916736  	-0.012134 
3851.845552  	-0.012817 
3853.774368  	-0.008832 
3855.703184  	-0.007828 
3857.632000  	-0.009259 
3859.560816  	-0.010545 
3861.489632  	-0.010896 
3863.418448  	-0.010441 
3865.347264  	-0.009271 
3867.276080  	-0.010769 
3869.204896  	-0.010513 
3871.133712  	-0.008829 
3873.062528  	-0.010216 
3874.991344  	-0.009697 
3876.920160  	-0.010853 
3878.848976  	-0.011282 
3880.777792  	-0.009374 
3882.706608  	-0.009716 
3884.635424  	-0.010475 
3886.564240  	-0.009445 
3888.493056  	-0.010963 
3890.421872  	-0.011115 
3892.350688  	-0.009693 
3894.279504  	-0.009984 
3896.208320  	-0.011169 
3898.137136  	-0.011396 
3900.065952  	-0.010184 
3901.994768  	-0.009630 
3903.923584  	-0.008849 
3905.852400  	-0.008608 
3907.781216  	-0.009912 
3909.710032  	-0.010893 
3911.638848  	-0.011246 
3913.567664  	-0.011284 
3915.496480  	-0.010880 
3917.425296  	-0.009687 
3919.354112  	-0.009677 
3921.282928  	-0.009946 
3923.211744  	-0.010114 
3925.140560  	-0.009654 
3927.069376  	-0.010212 
3928.998192  	-0.010428 
3930.927008  	-0.009813 
3932.855824  	-0.009401 
3934.784640  	-0.009996 
3936.713456  	-0.010474 
3938.642272  	-0.010618 
3940.571088  	-0.010763 
3942.499904  	-0.009809 
3944.428720  	-0.009795 
3946.357536  	-0.010601 
3948.286352  	-0.010036 
3950.215168  	-0.010043 
3952.143984  	-0.010604 
3954.072800  	-0.010970 
3956.001616  	-0.010785 
3957.930432  	-0.010417 
3959.859248  	-0.010286 
3961.788064  	-0.010199 
3963.716880  	-0.010259 
3965.645696  	-0.010651 
3967.574512  	-0.010922 
3969.503328  	-0.011022 
3971.432144  	-0.010875 
3973.360960  	-0.010421 
3975.289776  	-0.009991 
3977.218592  	-0.010120 
3979.147408  	-0.010448 
3981.076224  	-0.010536 
3983.005040  	-0.010574 
3984.933856  	-0.010566 
3986.862672  	-0.010505 
3988.791488  	-0.010479 
3990.720304  	-0.010217 
3992.649120  	-0.010197 
3994.577936  	-0.010418 
3996.506752  	-0.010615 
3998.435568  	-0.010784 
4000.364384  	-0.010673 