##TITLE=No Description
##DATA TYPE=INFRARED SPECTRUM
##XUNITS=1/CM
##YUNITS=Abs
399.264912  	0.553573 
401.193728  	0.577805 
403.122544  	0.604472 
405.051360  	0.593238 
406.980176  	0.587720 
408.908992  	0.583330 
410.837808  	0.583364 
412.766624  	0.583669 
414.695440  	0.597259 
416.624256  	0.605130 
418.553072  	0.624226 
420.481888  	0.607902 
422.410704  	0.587567 
424.339520  	0.574249 
426.268336  	0.574441 
428.197152  	0.561479 
430.125968  	0.558293 
432.054784  	0.562862 
433.983600  	0.568835 
435.912416  	0.560514 
437.841232  	0.552952 
439.770048  	0.545955 
441.698864  	0.552270 
443.627680  	0.545577 
445.556496  	0.540125 
447.485312  	0.532815 
449.414128  	0.531111 
451.342944  	0.532892 
453.271760  	0.536462 
455.200576  	0.536631 
457.129392  	0.542362 
459.058208  	0.545028 
460.987024  	0.542264 
462.915840  	0.540848 
464.844656  	0.545256 
466.773472  	0.537383 
468.702288  	0.537807 
470.631104  	0.539574 
472.559920  	0.538374 
474.488736  	0.532085 
476.417552  	0.535531 
478.346368  	0.532804 
480.275184  	0.528019 
482.204000  	0.522481 
484.132816  	0.527598 
486.061632  	0.528961 
487.990448  	0.528917 
489.919264  	0.526531 
491.848080  	0.526695 
493.776896  	0.524479 
495.705712  	0.521513 
497.634528  	0.515918 
499.563344  	0.515032 
501.492160  	0.515105 
503.420976  	0.516055 
505.349792  	0.512985 
507.278608  	0.512478 
509.207424  	0.511562 
511.136240  	0.516989 
513.065056  	0.517649 
514.993872  	0.518402 
516.922688  	0.515541 
518.851504  	0.517931 
520.780320  	0.517426 
522.709136  	0.518014 
524.637952  	0.516227 
526.566768  	0.514764 
528.495584  	0.511013 
530.424400  	0.509413 
532.353216  	0.507069 
534.282032  	0.503691 
536.210848  	0.497667 
538.139664  	0.493195 
540.068480  	0.487611 
541.997296  	0.483947 
543.926112  	0.481067 
545.854928  	0.479162 
547.783744  	0.475039 
549.712560  	0.472010 
551.641376  	0.468372 
553.570192  	0.466449 
555.499008  	0.464378 
557.427824  	0.462591 
559.356640  	0.458875 
561.285456  	0.456123 
563.214272  	0.452657 
565.143088  	0.450520 
567.071904  	0.446563 
569.000720  	0.442472 
570.929536  	0.438712 
572.858352  	0.437254 
574.787168  	0.434627 
576.715984  	0.431669 
578.644800  	0.427763 
580.573616  	0.423868 
582.502432  	0.419312 
584.431248  	0.415481 
586.360064  	0.411824 
588.288880  	0.409552 
590.217696  	0.407159 
592.146512  	0.405981 
594.075328  	0.403997 
596.004144  	0.401715 
597.932960  	0.398361 
599.861776  	0.396560 
601.790592  	0.394964 
603.719408  	0.394378 
605.648224  	0.392758 
607.577040  	0.391953 
609.505856  	0.390072 
611.434672  	0.389131 
613.363488  	0.387030 
615.292304  	0.385642 
617.221120  	0.383305 
619.149936  	0.381636 
621.078752  	0.380213 
623.007568  	0.378970 
624.936384  	0.376897 
626.865200  	0.375715 
628.794016  	0.375327 
630.722832  	0.374720 
632.651648  	0.373825 
634.580464  	0.373299 
636.509280  	0.373081 
638.438096  	0.372208 
640.366912  	0.370014 
642.295728  	0.368638 
644.224544  	0.367012 
646.153360  	0.364480 
648.082176  	0.360246 
650.010992  	0.357191 
651.939808  	0.353513 
653.868624  	0.350294 
655.797440  	0.346436 
657.726256  	0.342819 
659.655072  	0.338775 
661.583888  	0.334797 
663.512704  	0.330971 
665.441520  	0.327710 
667.370336  	0.324299 
669.299152  	0.320635 
671.227968  	0.315920 
673.156784  	0.312214 
675.085600  	0.308913 
677.014416  	0.306180 
678.943232  	0.304069 
680.872048  	0.302512 
682.800864  	0.300478 
684.729680  	0.298761 
686.658496  	0.297199 
688.587312  	0.295500 
690.516128  	0.293264 
692.444944  	0.291717 
694.373760  	0.289623 
696.302576  	0.287887 
698.231392  	0.285741 
700.160208  	0.283429 
702.089024  	0.281101 
704.017840  	0.278998 
705.946656  	0.276034 
707.875472  	0.273507 
709.804288  	0.270986 
711.733104  	0.269290 
713.661920  	0.267866 
715.590736  	0.265939 
717.519552  	0.264531 
719.448368  	0.264591 
721.377184  	0.264652 
723.306000  	0.264618 
725.234816  	0.264377 
727.163632  	0.262878 
729.092448  	0.260265 
731.021264  	0.257254 
732.950080  	0.253833 
734.878896  	0.250540 
736.807712  	0.247593 
738.736528  	0.245358 
740.665344  	0.243323 
742.594160  	0.242029 
744.522976  	0.240340 
746.451792  	0.238832 
748.380608  	0.237080 
750.309424  	0.235781 
752.238240  	0.234219 
754.167056  	0.233046 
756.095872  	0.232071 
758.024688  	0.230636 
759.953504  	0.229542 
761.882320  	0.229987 
763.811136  	0.230258 
765.739952  	0.228311 
767.668768  	0.225294 
769.597584  	0.222848 
771.526400  	0.221545 
773.455216  	0.222122 
775.384032  	0.224394 
777.312848  	0.228249 
779.241664  	0.231227 
781.170480  	0.230176 
783.099296  	0.225091 
785.028112  	0.219410 
786.956928  	0.214189 
788.885744  	0.209925 
790.814560  	0.206340 
792.743376  	0.204370 
794.672192  	0.202946 
796.601008  	0.201506 
798.529824  	0.198636 
800.458640  	0.194466 
802.387456  	0.190861 
804.316272  	0.188866 
806.245088  	0.187743 
808.173904  	0.186675 
810.102720  	0.185615 
812.031536  	0.185203 
813.960352  	0.184885 
815.889168  	0.184633 
817.817984  	0.184920 
819.746800  	0.185402 
821.675616  	0.185381 
823.604432  	0.185346 
825.533248  	0.185263 
827.462064  	0.185081 
829.390880  	0.184463 
831.319696  	0.183722 
833.248512  	0.182155 
835.177328  	0.180422 
837.106144  	0.177729 
839.034960  	0.174895 
840.963776  	0.171158 
842.892592  	0.167412 
844.821408  	0.163587 
846.750224  	0.160347 
848.679040  	0.157754 
850.607856  	0.155540 
852.536672  	0.153891 
854.465488  	0.152470 
856.394304  	0.151522 
858.323120  	0.149995 
860.251936  	0.148441 
862.180752  	0.147021 
864.109568  	0.145020 
866.038384  	0.143198 
867.967200  	0.141322 
869.896016  	0.139674 
871.824832  	0.138553 
873.753648  	0.138481 
875.682464  	0.138714 
877.611280  	0.139910 
879.540096  	0.141641 
881.468912  	0.143334 
883.397728  	0.145131 
885.326544  	0.146620 
887.255360  	0.147412 
889.184176  	0.147427 
891.112992  	0.146774 
893.041808  	0.145092 
894.970624  	0.142375 
896.899440  	0.138838 
898.828256  	0.134624 
900.757072  	0.130479 
902.685888  	0.126743 
904.614704  	0.124209 
906.543520  	0.123331 
908.472336  	0.124118 
910.401152  	0.125676 
912.329968  	0.127624 
914.258784  	0.129643 
916.187600  	0.131755 
918.116416  	0.133422 
920.045232  	0.134622 
921.974048  	0.135409 
923.902864  	0.135947 
925.831680  	0.136273 
927.760496  	0.136652 
929.689312  	0.137053 
931.618128  	0.137889 
933.546944  	0.138460 
935.475760  	0.138391 
937.404576  	0.137821 
939.333392  	0.136951 
941.262208  	0.136224 
943.191024  	0.136514 
945.119840  	0.138315 
947.048656  	0.141984 
948.977472  	0.148070 
950.906288  	0.155863 
952.835104  	0.165445 
954.763920  	0.176538 
956.692736  	0.187727 
958.621552  	0.198145 
960.550368  	0.206191 
962.479184  	0.211358 
964.408000  	0.212312 
966.336816  	0.209359 
968.265632  	0.202355 
970.194448  	0.192477 
972.123264  	0.180125 
974.052080  	0.166706 
975.980896  	0.153414 
977.909712  	0.141022 
979.838528  	0.130210 
981.767344  	0.121116 
983.696160  	0.114229 
985.624976  	0.109721 
987.553792  	0.108210 
989.482608  	0.109209 
991.411424  	0.112384 
993.340240  	0.117443 
995.269056  	0.123523 
997.197872  	0.130148 
999.126688  	0.136560 
1001.055504  	0.143356 
1002.984320  	0.149869 
1004.913136  	0.156302 
1006.841952  	0.162487 
1008.770768  	0.168385 
1010.699584  	0.173342 
1012.628400  	0.177387 
1014.557216  	0.180157 
1016.486032  	0.181563 
1018.414848  	0.182194 
1020.343664  	0.182554 
1022.272480  	0.182763 
1024.201296  	0.182834 
1026.130112  	0.182525 
1028.058928  	0.183001 
1029.987744  	0.184773 
1031.916560  	0.187414 
1033.845376  	0.190497 
1035.774192  	0.194583 
1037.703008  	0.200212 
1039.631824  	0.208291 
1041.560640  	0.218915 
1043.489456  	0.232581 
1045.418272  	0.248443 
1047.347088  	0.264702 
1049.275904  	0.277858 
1051.204720  	0.286829 
1053.133536  	0.290823 
1055.062352  	0.291109 
1056.991168  	0.289130 
1058.919984  	0.287454 
1060.848800  	0.285910 
1062.777616  	0.284764 
1064.706432  	0.282434 
1066.635248  	0.279674 
1068.564064  	0.275802 
1070.492880  	0.270473 
1072.421696  	0.264604 
1074.350512  	0.260753 
1076.279328  	0.259818 
1078.208144  	0.262662 
1080.136960  	0.267447 
1082.065776  	0.271929 
1083.994592  	0.273246 
1085.923408  	0.270486 
1087.852224  	0.263827 
1089.781040  	0.255107 
1091.709856  	0.244251 
1093.638672  	0.232187 
1095.567488  	0.218439 
1097.496304  	0.204734 
1099.425120  	0.191268 
1101.353936  	0.178508 
1103.282752  	0.166053 
1105.211568  	0.154432 
1107.140384  	0.143874 
1109.069200  	0.134424 
1110.998016  	0.126007 
1112.926832  	0.118628 
1114.855648  	0.111731 
1116.784464  	0.104646 
1118.713280  	0.097863 
1120.642096  	0.091523 
1122.570912  	0.085735 
1124.499728  	0.080639 
1126.428544  	0.076059 
1128.357360  	0.071956 
1130.286176  	0.068578 
1132.214992  	0.065786 
1134.143808  	0.063444 
1136.072624  	0.061516 
1138.001440  	0.059688 
1139.930256  	0.058117 
1141.859072  	0.056706 
1143.787888  	0.055077 
1145.716704  	0.053816 
1147.645520  	0.053068 
1149.574336  	0.052679 
1151.503152  	0.051945 
1153.431968  	0.051587 
1155.360784  	0.051711 
1157.289600  	0.052549 
1159.218416  	0.053546 
1161.147232  	0.054831 
1163.076048  	0.056270 
1165.004864  	0.057605 
1166.933680  	0.059005 
1168.862496  	0.060451 
1170.791312  	0.062207 
1172.720128  	0.064418 
1174.648944  	0.066896 
1176.577760  	0.069252 
1178.506576  	0.071893 
1180.435392  	0.074652 
1182.364208  	0.077387 
1184.293024  	0.080539 
1186.221840  	0.084171 
1188.150656  	0.088054 
1190.079472  	0.092815 
1192.008288  	0.098560 
1193.937104  	0.105045 
1195.865920  	0.112261 
1197.794736  	0.120157 
1199.723552  	0.128725 
1201.652368  	0.137326 
1203.581184  	0.145556 
1205.510000  	0.153585 
1207.438816  	0.160856 
1209.367632  	0.167300 
1211.296448  	0.172481 
1213.225264  	0.176886 
1215.154080  	0.179891 
1217.082896  	0.181525 
1219.011712  	0.181685 
1220.940528  	0.181444 
1222.869344  	0.180392 
1224.798160  	0.178866 
1226.726976  	0.176327 
1228.655792  	0.173221 
1230.584608  	0.169400 
1232.513424  	0.165143 
1234.442240  	0.160236 
1236.371056  	0.155065 
1238.299872  	0.149235 
1240.228688  	0.142670 
1242.157504  	0.136091 
1244.086320  	0.129803 
1246.015136  	0.123393 
1247.943952  	0.117148 
1249.872768  	0.110928 
1251.801584  	0.104894 
1253.730400  	0.099076 
1255.659216  	0.093514 
1257.588032  	0.088208 
1259.516848  	0.083475 
1261.445664  	0.078869 
1263.374480  	0.074597 
1265.303296  	0.071001 
1267.232112  	0.068252 
1269.160928  	0.066243 
1271.089744  	0.064919 
1273.018560  	0.064243 
1274.947376  	0.064424 
1276.876192  	0.065166 
1278.805008  	0.065657 
1280.733824  	0.065480 
1282.662640  	0.064095 
1284.591456  	0.062318 
1286.520272  	0.060782 
1288.449088  	0.059815 
1290.377904  	0.059603 
1292.306720  	0.060277 
1294.235536  	0.060983 
1296.164352  	0.060788 
1298.093168  	0.059204 
1300.021984  	0.056917 
1301.950800  	0.054324 
1303.879616  	0.051478 
1305.808432  	0.048647 
1307.737248  	0.045822 
1309.666064  	0.042950 
1311.594880  	0.040817 
1313.523696  	0.039383 
1315.452512  	0.038290 
1317.381328  	0.037922 
1319.310144  	0.038105 
1321.238960  	0.038421 
1323.167776  	0.038999 
1325.096592  	0.039603 
1327.025408  	0.039927 
1328.954224  	0.039780 
1330.883040  	0.039145 
1332.811856  	0.037999 
1334.740672  	0.036964 
1336.669488  	0.036638 
1338.598304  	0.037091 
1340.527120  	0.036794 
1342.455936  	0.035369 
1344.384752  	0.034882 
1346.313568  	0.035138 
1348.242384  	0.035751 
1350.171200  	0.036734 
1352.100016  	0.038063 
1354.028832  	0.039673 
1355.957648  	0.041514 
1357.886464  	0.043178 
1359.815280  	0.044963 
1361.744096  	0.047723 
1363.672912  	0.050149 
1365.601728  	0.050875 
1367.530544  	0.052277 
1369.459360  	0.054031 
1371.388176  	0.054674 
1373.316992  	0.055054 
1375.245808  	0.054379 
1377.174624  	0.052030 
1379.103440  	0.049747 
1381.032256  	0.047221 
1382.961072  	0.045022 
1384.889888  	0.043419 
1386.818704  	0.043133 
1388.747520  	0.041652 
1390.676336  	0.039121 
1392.605152  	0.037235 
1394.533968  	0.037104 
1396.462784  	0.037539 
1398.391600  	0.037229 
1400.320416  	0.037127 
1402.249232  	0.036693 
1404.178048  	0.037632 
1406.106864  	0.038643 
1408.035680  	0.039348 
1409.964496  	0.040686 
1411.893312  	0.042507 
1413.822128  	0.044251 
1415.750944  	0.046277 
1417.679760  	0.048219 
1419.608576  	0.050203 
1421.537392  	0.049522 
1423.466208  	0.048865 
1425.395024  	0.047536 
1427.323840  	0.045165 
1429.252656  	0.043538 
1431.181472  	0.042107 
1433.110288  	0.040794 
1435.039104  	0.040584 
1436.967920  	0.042891 
1438.896736  	0.043556 
1440.825552  	0.043600 
1442.754368  	0.044075 
1444.683184  	0.044026 
1446.612000  	0.044321 
1448.540816  	0.044903 
1450.469632  	0.044759 
1452.398448  	0.044776 
1454.327264  	0.044737 
1456.256080  	0.045936 
1458.184896  	0.048364 
1460.113712  	0.046372 
1462.042528  	0.044491 
1463.971344  	0.044088 
1465.900160  	0.045191 
1467.828976  	0.045204 
1469.757792  	0.045587 
1471.686608  	0.048665 
1473.615424  	0.055884 
1475.544240  	0.059572 
1477.473056  	0.063336 
1479.401872  	0.065859 
1481.330688  	0.069205 
1483.259504  	0.071365 
1485.188320  	0.072557 
1487.117136  	0.073781 
1489.045952  	0.075637 
1490.974768  	0.074527 
1492.903584  	0.070952 
1494.832400  	0.067337 
1496.761216  	0.063897 
1498.690032  	0.058921 
1500.618848  	0.054106 
1502.547664  	0.049370 
1504.476480  	0.045554 
1506.405296  	0.045344 
1508.334112  	0.046351 
1510.262928  	0.042571 
1512.191744  	0.039939 
1514.120560  	0.038705 
1516.049376  	0.039687 
1517.978192  	0.041315 
1519.907008  	0.041682 
1521.835824  	0.046346 
1523.764640  	0.048583 
1525.693456  	0.051155 
1527.622272  	0.053498 
1529.551088  	0.052881 
1531.479904  	0.051398 
1533.408720  	0.050764 
1535.337536  	0.047925 
1537.266352  	0.044397 
1539.195168  	0.042868 
1541.123984  	0.042693 
1543.052800  	0.041189 
1544.981616  	0.039881 
1546.910432  	0.037320 
1548.839248  	0.036376 
1550.768064  	0.037237 
1552.696880  	0.036137 
1554.625696  	0.036684 
1556.554512  	0.036079 
1558.483328  	0.039408 
1560.412144  	0.044847 
1562.340960  	0.043736 
1564.269776  	0.045169 
1566.198592  	0.048471 
1568.127408  	0.050745 
1570.056224  	0.057267 
1571.985040  	0.060608 
1573.913856  	0.062152 
1575.842672  	0.065606 
1577.771488  	0.069342 
1579.700304  	0.068027 
1581.629120  	0.067052 
1583.557936  	0.066344 
1585.486752  	0.067170 
1587.415568  	0.068856 
1589.344384  	0.072335 
1591.273200  	0.076780 
1593.202016  	0.082593 
1595.130832  	0.088849 
1597.059648  	0.095341 
1598.988464  	0.100861 
1600.917280  	0.106270 
1602.846096  	0.110370 
1604.774912  	0.113172 
1606.703728  	0.114165 
1608.632544  	0.114587 
1610.561360  	0.113444 
1612.490176  	0.112054 
1614.418992  	0.110117 
1616.347808  	0.111026 
1618.276624  	0.112982 
1620.205440  	0.114367 
1622.134256  	0.116729 
1624.063072  	0.123005 
1625.991888  	0.127757 
1627.920704  	0.134598 
1629.849520  	0.141674 
1631.778336  	0.147961 
1633.707152  	0.153271 
1635.635968  	0.162721 
1637.564784  	0.171289 
1639.493600  	0.175197 
1641.422416  	0.178747 
1643.351232  	0.181785 
1645.280048  	0.183309 
1647.208864  	0.186845 
1649.137680  	0.186614 
1651.066496  	0.185015 
1652.995312  	0.185143 
1654.924128  	0.186289 
1656.852944  	0.182960 
1658.781760  	0.180524 
1660.710576  	0.178020 
1662.639392  	0.175545 
1664.568208  	0.171296 
1666.497024  	0.167297 
1668.425840  	0.163089 
1670.354656  	0.158476 
1672.283472  	0.153625 
1674.212288  	0.149821 
1676.141104  	0.146322 
1678.069920  	0.143336 
1679.998736  	0.141725 
1681.927552  	0.139717 
1683.856368  	0.138695 
1685.785184  	0.138559 
1687.714000  	0.136722 
1689.642816  	0.136207 
1691.571632  	0.134747 
1693.500448  	0.132773 
1695.429264  	0.132257 
1697.358080  	0.132403 
1699.286896  	0.130143 
1701.215712  	0.129895 
1703.144528  	0.127125 
1705.073344  	0.124956 
1707.002160  	0.121813 
1708.930976  	0.117489 
1710.859792  	0.112419 
1712.788608  	0.106831 
1714.717424  	0.100300 
1716.646240  	0.092565 
1718.575056  	0.082053 
1720.503872  	0.072021 
1722.432688  	0.063702 
1724.361504  	0.054694 
1726.290320  	0.046671 
1728.219136  	0.040238 
1730.147952  	0.035072 
1732.076768  	0.029955 
1734.005584  	0.027205 
1735.934400  	0.023117 
1737.863216  	0.019703 
1739.792032  	0.017520 
1741.720848  	0.015667 
1743.649664  	0.014517 
1745.578480  	0.013062 
1747.507296  	0.011916 
1749.436112  	0.011937 
1751.364928  	0.011278 
1753.293744  	0.009457 
1755.222560  	0.007749 
1757.151376  	0.008427 
1759.080192  	0.007430 
1761.009008  	0.006959 
1762.937824  	0.006900 
1764.866640  	0.005789 
1766.795456  	0.005265 
1768.724272  	0.005635 
1770.653088  	0.004334 
1772.581904  	0.005891 
1774.510720  	0.005860 
1776.439536  	0.004922 
1778.368352  	0.003821 
1780.297168  	0.003937 
1782.225984  	0.003594 
1784.154800  	0.003416 
1786.083616  	0.003130 
1788.012432  	0.002452 
1789.941248  	0.002183 
1791.870064  	0.003389 
1793.798880  	0.003581 
1795.727696  	0.002893 
1797.656512  	0.001837 
1799.585328  	0.001517 
1801.514144  	0.002399 
1803.442960  	0.002317 
1805.371776  	0.001673 
1807.300592  	0.001251 
1809.229408  	0.000886 
1811.158224  	0.001166 
1813.087040  	0.000805 
1815.015856  	0.000110 
1816.944672  	0.000514 
1818.873488  	0.000961 
1820.802304  	0.000750 
1822.731120  	0.000582 
1824.659936  	0.000602 
1826.588752  	0.000730 
1828.517568  	0.000031 
1830.446384  	0.001138 
1832.375200  	0.000646 
1834.304016  	0.000125 
1836.232832  	0.000353 
1838.161648  	0.000667 
1840.090464  	0.000160 
1842.019280  	-0.000612 
1843.948096  	-0.000112 
1845.876912  	0.000844 
1847.805728  	0.000106 
1849.734544  	-0.000130 
1851.663360  	-0.000412 
1853.592176  	-0.000092 
1855.520992  	-0.000284 
1857.449808  	-0.000254 
1859.378624  	-0.000677 
1861.307440  	-0.000689 
1863.236256  	-0.001039 
1865.165072  	-0.001098 
1867.093888  	-0.001197 
1869.022704  	0.000573 
1870.951520  	0.000554 
1872.880336  	-0.000390 
1874.809152  	-0.001147 
1876.737968  	-0.001309 
1878.666784  	-0.001390 
1880.595600  	-0.001480 
1882.524416  	-0.001407 
1884.453232  	-0.001059 
1886.382048  	-0.001549 
1888.310864  	-0.001315 
1890.239680  	-0.000804 
1892.168496  	-0.000894 
1894.097312  	-0.001141 
1896.026128  	-0.001036 
1897.954944  	-0.001349 
1899.883760  	-0.001269 
1901.812576  	-0.001456 
1903.741392  	-0.001418 
1905.670208  	-0.001878 
1907.599024  	-0.002117 
1909.527840  	-0.001877 
1911.456656  	-0.000976 
1913.385472  	-0.001009 
1915.314288  	-0.001509 
1917.243104  	-0.001698 
1919.171920  	-0.000936 
1921.100736  	-0.001528 
1923.029552  	-0.001534 
1924.958368  	-0.002301 
1926.887184  	-0.002076 
1928.816000  	-0.002302 
1930.744816  	-0.002223 
1932.673632  	-0.001866 
1934.602448  	-0.001376 
1936.531264  	-0.001864 
1938.460080  	-0.001737 
1940.388896  	-0.002012 
1942.317712  	-0.001689 
1944.246528  	-0.002305 
1946.175344  	-0.001995 
1948.104160  	-0.001723 
1950.032976  	-0.001559 
1951.961792  	-0.002223 
1953.890608  	-0.002471 
1955.819424  	-0.003178 
1957.748240  	-0.003655 
1959.677056  	-0.004201 
1961.605872  	-0.003583 
1963.534688  	-0.003312 
1965.463504  	-0.002363 
1967.392320  	-0.002337 
1969.321136  	-0.002999 
1971.249952  	-0.004885 
1973.178768  	-0.004662 
1975.107584  	-0.003602 
1977.036400  	-0.002405 
1978.965216  	-0.001445 
1980.894032  	-0.000940 
1982.822848  	-0.002074 
1984.751664  	-0.002257 
1986.680480  	-0.002064 
1988.609296  	-0.000990 
1990.538112  	-0.000002 
1992.466928  	0.000441 
1994.395744  	-0.002083 
1996.324560  	-0.002743 
1998.253376  	-0.002595 
2000.182192  	-0.002229 
2002.111008  	-0.002402 
2004.039824  	-0.001955 
2005.968640  	-0.001964 
2007.897456  	-0.001885 
2009.826272  	-0.002509 
2011.755088  	-0.002318 
2013.683904  	-0.001976 
2015.612720  	-0.000670 
2017.541536  	-0.000299 
2019.470352  	-0.000066 
2021.399168  	-0.001614 
2023.327984  	-0.001308 
2025.256800  	-0.000299 
2027.185616  	0.000527 
2029.114432  	0.000050 
2031.043248  	0.000764 
2032.972064  	0.000089 
2034.900880  	0.000729 
2036.829696  	0.000736 
2038.758512  	0.000675 
2040.687328  	0.000035 
2042.616144  	0.000743 
2044.544960  	0.000685 
2046.473776  	0.000918 
2048.402592  	0.001417 
2050.331408  	0.001755 
2052.260224  	0.001132 
2054.189040  	0.001340 
2056.117856  	0.001380 
2058.046672  	0.001509 
2059.975488  	0.001193 
2061.904304  	0.001651 
2063.833120  	0.002077 
2065.761936  	0.002280 
2067.690752  	0.001557 
2069.619568  	0.001745 
2071.548384  	0.001612 
2073.477200  	0.001849 
2075.406016  	0.001962 
2077.334832  	0.002136 
2079.263648  	0.002921 
2081.192464  	0.003451 
2083.121280  	0.002578 
2085.050096  	0.002289 
2086.978912  	0.002194 
2088.907728  	0.002306 
2090.836544  	0.002198 
2092.765360  	0.001831 
2094.694176  	0.001893 
2096.622992  	0.002947 
2098.551808  	0.003093 
2100.480624  	0.003067 
2102.409440  	0.002949 
2104.338256  	0.002888 
2106.267072  	0.002815 
2108.195888  	0.003161 
2110.124704  	0.003165 
2112.053520  	0.003241 
2113.982336  	0.003183 
2115.911152  	0.003047 
2117.839968  	0.002795 
2119.768784  	0.002876 
2121.697600  	0.002494 
2123.626416  	0.002098 
2125.555232  	0.001942 
2127.484048  	0.001983 
2129.412864  	0.001904 
2131.341680  	0.002297 
2133.270496  	0.002506 
2135.199312  	0.002940 
2137.128128  	0.003504 
2139.056944  	0.004240 
2140.985760  	0.003929 
2142.914576  	0.003617 
2144.843392  	0.002782 
2146.772208  	0.002935 
2148.701024  	0.002942 
2150.629840  	0.002963 
2152.558656  	0.002694 
2154.487472  	0.002255 
2156.416288  	0.002912 
2158.345104  	0.006620 
2160.273920  	0.009438 
2162.202736  	0.008493 
2164.131552  	0.005673 
2166.060368  	0.005628 
2167.989184  	0.005213 
2169.918000  	0.004251 
2171.846816  	0.004281 
2173.775632  	0.005562 
2175.704448  	0.005195 
2177.633264  	0.004388 
2179.562080  	0.004258 
2181.490896  	0.005208 
2183.419712  	0.005315 
2185.348528  	0.005124 
2187.277344  	0.005001 
2189.206160  	0.005299 
2191.134976  	0.004582 
2193.063792  	0.004075 
2194.992608  	0.003824 
2196.921424  	0.004113 
2198.850240  	0.004019 
2200.779056  	0.003840 
2202.707872  	0.003360 
2204.636688  	0.004063 
2206.565504  	0.003529 
2208.494320  	0.002698 
2210.423136  	0.002834 
2212.351952  	0.003824 
2214.280768  	0.004212 
2216.209584  	0.004196 
2218.138400  	0.003084 
2220.067216  	0.002806 
2221.996032  	0.002781 
2223.924848  	0.003091 
2225.853664  	0.003389 
2227.782480  	0.003998 
2229.711296  	0.003425 
2231.640112  	0.003077 
2233.568928  	0.002631 
2235.497744  	0.002679 
2237.426560  	0.002819 
2239.355376  	0.003120 
2241.284192  	0.002621 
2243.213008  	0.002417 
2245.141824  	0.002240 
2247.070640  	0.002264 
2248.999456  	0.002521 
2250.928272  	0.002673 
2252.857088  	0.002545 
2254.785904  	0.002771 
2256.714720  	0.002907 
2258.643536  	0.003229 
2260.572352  	0.003485 
2262.501168  	0.003394 
2264.429984  	0.003814 
2266.358800  	0.003879 
2268.287616  	0.003508 
2270.216432  	0.003604 
2272.145248  	0.003398 
2274.074064  	0.003541 
2276.002880  	0.003400 
2277.931696  	0.003765 
2279.860512  	0.004110 
2281.789328  	0.003984 
2283.718144  	0.003864 
2285.646960  	0.004440 
2287.575776  	0.004629 
2289.504592  	0.004540 
2291.433408  	0.004593 
2293.362224  	0.004773 
2295.291040  	0.004554 
2297.219856  	0.004687 
2299.148672  	0.004863 
2301.077488  	0.005073 
2303.006304  	0.005595 
2304.935120  	0.006066 
2306.863936  	0.006032 
2308.792752  	0.006327 
2310.721568  	0.006642 
2312.650384  	0.006524 
2314.579200  	0.006029 
2316.508016  	0.006203 
2318.436832  	0.006716 
2320.365648  	0.007262 
2322.294464  	0.007581 
2324.223280  	0.007421 
2326.152096  	0.005955 
2328.080912  	0.004832 
2330.009728  	0.004773 
2331.938544  	0.004840 
2333.867360  	0.004296 
2335.796176  	0.004145 
2337.724992  	0.004119 
2339.653808  	0.004011 
2341.582624  	0.004280 
2343.511440  	0.005314 
2345.440256  	0.006580 
2347.369072  	0.006341 
2349.297888  	0.004890 
2351.226704  	0.003973 
2353.155520  	0.003509 
2355.084336  	0.003595 
2357.013152  	0.003930 
2358.941968  	0.004551 
2360.870784  	0.004622 
2362.799600  	0.004586 
2364.728416  	0.005127 
2366.657232  	0.005262 
2368.586048  	0.005651 
2370.514864  	0.006523 
2372.443680  	0.006486 
2374.372496  	0.006498 
2376.301312  	0.006574 
2378.230128  	0.006398 
2380.158944  	0.005828 
2382.087760  	0.005170 
2384.016576  	0.004286 
2385.945392  	0.003499 
2387.874208  	0.003126 
2389.803024  	0.002954 
2391.731840  	0.002848 
2393.660656  	0.002873 
2395.589472  	0.002882 
2397.518288  	0.002853 
2399.447104  	0.002850 
2401.375920  	0.002870 
2403.304736  	0.002600 
2405.233552  	0.002592 
2407.162368  	0.002605 
2409.091184  	0.002647 
2411.020000  	0.002626 
2412.948816  	0.002643 
2414.877632  	0.002689 
2416.806448  	0.003061 
2418.735264  	0.003125 
2420.664080  	0.003019 
2422.592896  	0.002997 
2424.521712  	0.003016 
2426.450528  	0.002997 
2428.379344  	0.003159 
2430.308160  	0.003441 
2432.236976  	0.003586 
2434.165792  	0.003786 
2436.094608  	0.003856 
2438.023424  	0.003704 
2439.952240  	0.003854 
2441.881056  	0.004023 
2443.809872  	0.004036 
2445.738688  	0.004069 
2447.667504  	0.004209 
2449.596320  	0.004329 
2451.525136  	0.004437 
2453.453952  	0.004454 
2455.382768  	0.004498 
2457.311584  	0.004456 
2459.240400  	0.004442 
2461.169216  	0.004483 
2463.098032  	0.004594 
2465.026848  	0.004376 
2466.955664  	0.004359 
2468.884480  	0.004375 
2470.813296  	0.004334 
2472.742112  	0.004482 
2474.670928  	0.004761 
2476.599744  	0.004951 
2478.528560  	0.004954 
2480.457376  	0.005107 
2482.386192  	0.005419 
2484.315008  	0.005475 
2486.243824  	0.005539 
2488.172640  	0.005711 
2490.101456  	0.005812 
2492.030272  	0.005919 
2493.959088  	0.006031 
2495.887904  	0.005887 
2497.816720  	0.006058 
2499.745536  	0.006027 
2501.674352  	0.005785 
2503.603168  	0.005794 
2505.531984  	0.006036 
2507.460800  	0.005993 
2509.389616  	0.005848 
2511.318432  	0.005795 
2513.247248  	0.006010 
2515.176064  	0.006467 
2517.104880  	0.006448 
2519.033696  	0.006159 
2520.962512  	0.006305 
2522.891328  	0.006682 
2524.820144  	0.006974 
2526.748960  	0.006796 
2528.677776  	0.006776 
2530.606592  	0.006850 
2532.535408  	0.006995 
2534.464224  	0.006944 
2536.393040  	0.006828 
2538.321856  	0.006963 
2540.250672  	0.007197 
2542.179488  	0.007398 
2544.108304  	0.007655 
2546.037120  	0.007814 
2547.965936  	0.007875 
2549.894752  	0.007906 
2551.823568  	0.008087 
2553.752384  	0.008275 
2555.681200  	0.008183 
2557.610016  	0.008040 
2559.538832  	0.008194 
2561.467648  	0.008473 
2563.396464  	0.008756 
2565.325280  	0.008759 
2567.254096  	0.008631 
2569.182912  	0.008623 
2571.111728  	0.008871 
2573.040544  	0.009140 
2574.969360  	0.009336 
2576.898176  	0.009416 
2578.826992  	0.009374 
2580.755808  	0.009257 
2582.684624  	0.009439 
2584.613440  	0.009562 
2586.542256  	0.009746 
2588.471072  	0.009810 
2590.399888  	0.009736 
2592.328704  	0.009873 
2594.257520  	0.010248 
2596.186336  	0.010211 
2598.115152  	0.010099 
2600.043968  	0.010252 
2601.972784  	0.010395 
2603.901600  	0.010502 
2605.830416  	0.010626 
2607.759232  	0.010699 
2609.688048  	0.010832 
2611.616864  	0.011088 
2613.545680  	0.011197 
2615.474496  	0.011264 
2617.403312  	0.011469 
2619.332128  	0.011643 
2621.260944  	0.011601 
2623.189760  	0.011607 
2625.118576  	0.011924 
2627.047392  	0.011963 
2628.976208  	0.012056 
2630.905024  	0.012229 
2632.833840  	0.012392 
2634.762656  	0.012526 
2636.691472  	0.012689 
2638.620288  	0.012860 
2640.549104  	0.013081 
2642.477920  	0.013294 
2644.406736  	0.013284 
2646.335552  	0.013350 
2648.264368  	0.013520 
2650.193184  	0.013665 
2652.122000  	0.013761 
2654.050816  	0.013903 
2655.979632  	0.014026 
2657.908448  	0.014122 
2659.837264  	0.014277 
2661.766080  	0.014329 
2663.694896  	0.014402 
2665.623712  	0.014489 
2667.552528  	0.014645 
2669.481344  	0.014786 
2671.410160  	0.014917 
2673.338976  	0.015057 
2675.267792  	0.015257 
2677.196608  	0.015512 
2679.125424  	0.015676 
2681.054240  	0.015716 
2682.983056  	0.015829 
2684.911872  	0.015915 
2686.840688  	0.016053 
2688.769504  	0.016266 
2690.698320  	0.016294 
2692.627136  	0.016356 
2694.555952  	0.016460 
2696.484768  	0.016569 
2698.413584  	0.016714 
2700.342400  	0.016770 
2702.271216  	0.017015 
2704.200032  	0.017371 
2706.128848  	0.017522 
2708.057664  	0.017585 
2709.986480  	0.017655 
2711.915296  	0.017785 
2713.844112  	0.017981 
2715.772928  	0.018109 
2717.701744  	0.018177 
2719.630560  	0.018382 
2721.559376  	0.018598 
2723.488192  	0.018672 
2725.417008  	0.018789 
2727.345824  	0.019020 
2729.274640  	0.019318 
2731.203456  	0.019398 
2733.132272  	0.019451 
2735.061088  	0.019615 
2736.989904  	0.019657 
2738.918720  	0.019780 
2740.847536  	0.019946 
2742.776352  	0.020096 
2744.705168  	0.020292 
2746.633984  	0.020391 
2748.562800  	0.020522 
2750.491616  	0.020569 
2752.420432  	0.020637 
2754.349248  	0.020718 
2756.278064  	0.020768 
2758.206880  	0.020719 
2760.135696  	0.020711 
2762.064512  	0.020735 
2763.993328  	0.020751 
2765.922144  	0.020867 
2767.850960  	0.020988 
2769.779776  	0.020977 
2771.708592  	0.020981 
2773.637408  	0.020973 
2775.566224  	0.021010 
2777.495040  	0.020993 
2779.423856  	0.020996 
2781.352672  	0.021056 
2783.281488  	0.021086 
2785.210304  	0.021079 
2787.139120  	0.021182 
2789.067936  	0.021194 
2790.996752  	0.021191 
2792.925568  	0.021236 
2794.854384  	0.021265 
2796.783200  	0.021213 
2798.712016  	0.021203 
2800.640832  	0.021259 
2802.569648  	0.021299 
2804.498464  	0.021394 
2806.427280  	0.021609 
2808.356096  	0.021793 
2810.284912  	0.021817 
2812.213728  	0.021651 
2814.142544  	0.021690 
2816.071360  	0.021767 
2818.000176  	0.021822 
2819.928992  	0.021953 
2821.857808  	0.022013 
2823.786624  	0.021970 
2825.715440  	0.021945 
2827.644256  	0.021969 
2829.573072  	0.021965 
2831.501888  	0.021946 
2833.430704  	0.021955 
2835.359520  	0.022041 
2837.288336  	0.021966 
2839.217152  	0.021894 
2841.145968  	0.021827 
2843.074784  	0.021803 
2845.003600  	0.021945 
2846.932416  	0.021913 
2848.861232  	0.021956 
2850.790048  	0.022043 
2852.718864  	0.022147 
2854.647680  	0.022259 
2856.576496  	0.022333 
2858.505312  	0.022348 
2860.434128  	0.022491 
2862.362944  	0.022627 
2864.291760  	0.022710 
2866.220576  	0.022777 
2868.149392  	0.022793 
2870.078208  	0.022920 
2872.007024  	0.023214 
2873.935840  	0.023586 
2875.864656  	0.023977 
2877.793472  	0.024249 
2879.722288  	0.024654 
2881.651104  	0.025097 
2883.579920  	0.025384 
2885.508736  	0.025723 
2887.437552  	0.026008 
2889.366368  	0.026110 
2891.295184  	0.026232 
2893.224000  	0.026256 
2895.152816  	0.026274 
2897.081632  	0.026277 
2899.010448  	0.025942 
2900.939264  	0.025661 
2902.868080  	0.025878 
2904.796896  	0.026271 
2906.725712  	0.026488 
2908.654528  	0.026631 
2910.583344  	0.026939 
2912.512160  	0.027299 
2914.440976  	0.027728 
2916.369792  	0.028172 
2918.298608  	0.028507 
2920.227424  	0.029014 
2922.156240  	0.029559 
2924.085056  	0.030188 
2926.013872  	0.030765 
2927.942688  	0.031409 
2929.871504  	0.032124 
2931.800320  	0.032774 
2933.729136  	0.033489 
2935.657952  	0.034162 
2937.586768  	0.034812 
2939.515584  	0.035391 
2941.444400  	0.035741 
2943.373216  	0.036021 
2945.302032  	0.036396 
2947.230848  	0.036581 
2949.159664  	0.036534 
2951.088480  	0.036336 
2953.017296  	0.036229 
2954.946112  	0.036061 
2956.874928  	0.035826 
2958.803744  	0.035689 
2960.732560  	0.035564 
2962.661376  	0.035461 
2964.590192  	0.035058 
2966.519008  	0.034629 
2968.447824  	0.034418 
2970.376640  	0.034186 
2972.305456  	0.033835 
2974.234272  	0.033872 
2976.163088  	0.033976 
2978.091904  	0.033795 
2980.020720  	0.033636 
2981.949536  	0.033615 
2983.878352  	0.033564 
2985.807168  	0.033402 
2987.735984  	0.033356 
2989.664800  	0.033404 
2991.593616  	0.033958 
2993.522432  	0.034417 
2995.451248  	0.034568 
2997.380064  	0.034890 
2999.308880  	0.035491 
3001.237696  	0.036066 
3003.166512  	0.036558 
3005.095328  	0.036995 
3007.024144  	0.037444 
3008.952960  	0.038060 
3010.881776  	0.038644 
3012.810592  	0.039226 
3014.739408  	0.039761 
3016.668224  	0.040167 
3018.597040  	0.040608 
3020.525856  	0.041238 
3022.454672  	0.041863 
3024.383488  	0.042414 
3026.312304  	0.043009 
3028.241120  	0.043450 
3030.169936  	0.043952 
3032.098752  	0.044654 
3034.027568  	0.045033 
3035.956384  	0.045626 
3037.885200  	0.046322 
3039.814016  	0.046893 
3041.742832  	0.047295 
3043.671648  	0.047817 
3045.600464  	0.048349 
3047.529280  	0.048779 
3049.458096  	0.049492 
3051.386912  	0.049962 
3053.315728  	0.050363 
3055.244544  	0.050986 
3057.173360  	0.051829 
3059.102176  	0.052663 
3061.030992  	0.053268 
3062.959808  	0.053874 
3064.888624  	0.054699 
3066.817440  	0.055655 
3068.746256  	0.056553 
3070.675072  	0.057254 
3072.603888  	0.057940 
3074.532704  	0.058650 
3076.461520  	0.059340 
3078.390336  	0.060129 
3080.319152  	0.061166 
3082.247968  	0.062109 
3084.176784  	0.062813 
3086.105600  	0.063484 
3088.034416  	0.064360 
3089.963232  	0.065039 
3091.892048  	0.065792 
3093.820864  	0.066555 
3095.749680  	0.067323 
3097.678496  	0.068219 
3099.607312  	0.069166 
3101.536128  	0.070452 
3103.464944  	0.071297 
3105.393760  	0.071886 
3107.322576  	0.072666 
3109.251392  	0.073399 
3111.180208  	0.073979 
3113.109024  	0.074565 
3115.037840  	0.075232 
3116.966656  	0.076104 
3118.895472  	0.076885 
3120.824288  	0.077681 
3122.753104  	0.078563 
3124.681920  	0.079061 
3126.610736  	0.079603 
3128.539552  	0.080274 
3130.468368  	0.080854 
3132.397184  	0.081622 
3134.326000  	0.082213 
3136.254816  	0.082764 
3138.183632  	0.083491 
3140.112448  	0.084094 
3142.041264  	0.084700 
3143.970080  	0.085580 
3145.898896  	0.086250 
3147.827712  	0.086764 
3149.756528  	0.087644 
3151.685344  	0.088316 
3153.614160  	0.088921 
3155.542976  	0.089584 
3157.471792  	0.090112 
3159.400608  	0.090752 
3161.329424  	0.091518 
3163.258240  	0.092286 
3165.187056  	0.092838 
3167.115872  	0.093359 
3169.044688  	0.094079 
3170.973504  	0.094677 
3172.902320  	0.095005 
3174.831136  	0.095391 
3176.759952  	0.095962 
3178.688768  	0.096436 
3180.617584  	0.096805 
3182.546400  	0.097148 
3184.475216  	0.097335 
3186.404032  	0.097686 
3188.332848  	0.098067 
3190.261664  	0.098271 
3192.190480  	0.098481 
3194.119296  	0.098713 
3196.048112  	0.098646 
3197.976928  	0.098871 
3199.905744  	0.099110 
3201.834560  	0.099055 
3203.763376  	0.098917 
3205.692192  	0.098663 
3207.621008  	0.098703 
3209.549824  	0.098890 
3211.478640  	0.098838 
3213.407456  	0.098667 
3215.336272  	0.098630 
3217.265088  	0.098461 
3219.193904  	0.098558 
3221.122720  	0.098597 
3223.051536  	0.098358 
3224.980352  	0.098181 
3226.909168  	0.097964 
3228.837984  	0.097747 
3230.766800  	0.097589 
3232.695616  	0.097526 
3234.624432  	0.097566 
3236.553248  	0.097706 
3238.482064  	0.097988 
3240.410880  	0.097923 
3242.339696  	0.097795 
3244.268512  	0.097938 
3246.197328  	0.097969 
3248.126144  	0.098038 
3250.054960  	0.098376 
3251.983776  	0.098642 
3253.912592  	0.098902 
3255.841408  	0.099076 
3257.770224  	0.099264 
3259.699040  	0.099522 
3261.627856  	0.099569 
3263.556672  	0.099536 
3265.485488  	0.099854 
3267.414304  	0.100110 
3269.343120  	0.100428 
3271.271936  	0.100539 
3273.200752  	0.100718 
3275.129568  	0.100849 
3277.058384  	0.100852 
3278.987200  	0.101028 
3280.916016  	0.101386 
3282.844832  	0.101585 
3284.773648  	0.101646 
3286.702464  	0.101792 
3288.631280  	0.102123 
3290.560096  	0.102118 
3292.488912  	0.102223 
3294.417728  	0.102523 
3296.346544  	0.102904 
3298.275360  	0.103299 
3300.204176  	0.103644 
3302.132992  	0.103952 
3304.061808  	0.104384 
3305.990624  	0.104496 
3307.919440  	0.104723 
3309.848256  	0.105176 
3311.777072  	0.105500 
3313.705888  	0.105750 
3315.634704  	0.106005 
3317.563520  	0.106328 
3319.492336  	0.106642 
3321.421152  	0.107001 
3323.349968  	0.107262 
3325.278784  	0.107532 
3327.207600  	0.107625 
3329.136416  	0.107469 
3331.065232  	0.107566 
3332.994048  	0.107404 
3334.922864  	0.107422 
3336.851680  	0.107704 
3338.780496  	0.107788 
3340.709312  	0.107630 
3342.638128  	0.107507 
3344.566944  	0.107139 
3346.495760  	0.106855 
3348.424576  	0.106735 
3350.353392  	0.106455 
3352.282208  	0.106110 
3354.211024  	0.105998 
3356.139840  	0.105889 
3358.068656  	0.105642 
3359.997472  	0.105251 
3361.926288  	0.104811 
3363.855104  	0.104350 
3365.783920  	0.104204 
3367.712736  	0.103993 
3369.641552  	0.103589 
3371.570368  	0.103251 
3373.499184  	0.103057 
3375.428000  	0.102873 
3377.356816  	0.102630 
3379.285632  	0.102434 
3381.214448  	0.101971 
3383.143264  	0.101493 
3385.072080  	0.101110 
3387.000896  	0.100488 
3388.929712  	0.100037 
3390.858528  	0.099753 
3392.787344  	0.099799 
3394.716160  	0.099310 
3396.644976  	0.098904 
3398.573792  	0.098352 
3400.502608  	0.097571 
3402.431424  	0.096984 
3404.360240  	0.096471 
3406.289056  	0.095974 
3408.217872  	0.095416 
3410.146688  	0.094870 
3412.075504  	0.094322 
3414.004320  	0.093971 
3415.933136  	0.093612 
3417.861952  	0.093024 
3419.790768  	0.092819 
3421.719584  	0.092585 
3423.648400  	0.091907 
3425.577216  	0.090917 
3427.506032  	0.090193 
3429.434848  	0.089650 
3431.363664  	0.089301 
3433.292480  	0.088571 
3435.221296  	0.087853 
3437.150112  	0.087165 
3439.078928  	0.086541 
3441.007744  	0.085925 
3442.936560  	0.085367 
3444.865376  	0.084361 
3446.794192  	0.084299 
3448.723008  	0.083994 
3450.651824  	0.082603 
3452.580640  	0.081669 
3454.509456  	0.081081 
3456.438272  	0.080422 
3458.367088  	0.079674 
3460.295904  	0.078870 
3462.224720  	0.078211 
3464.153536  	0.077377 
3466.082352  	0.076443 
3468.011168  	0.075752 
3469.939984  	0.075008 
3471.868800  	0.074031 
3473.797616  	0.073186 
3475.726432  	0.072422 
3477.655248  	0.071166 
3479.584064  	0.070216 
3481.512880  	0.069944 
3483.441696  	0.069289 
3485.370512  	0.067982 
3487.299328  	0.067225 
3489.228144  	0.066478 
3491.156960  	0.065147 
3493.085776  	0.064337 
3495.014592  	0.063795 
3496.943408  	0.063049 
3498.872224  	0.061897 
3500.801040  	0.061059 
3502.729856  	0.060957 
3504.658672  	0.060486 
3506.587488  	0.058824 
3508.516304  	0.058215 
3510.445120  	0.058010 
3512.373936  	0.057078 
3514.302752  	0.056251 
3516.231568  	0.055286 
3518.160384  	0.054436 
3520.089200  	0.053571 
3522.018016  	0.052821 
3523.946832  	0.052857 
3525.875648  	0.051994 
3527.804464  	0.051455 
3529.733280  	0.050904 
3531.662096  	0.049745 
3533.590912  	0.048369 
3535.519728  	0.047811 
3537.448544  	0.047358 
3539.377360  	0.046077 
3541.306176  	0.045077 
3543.234992  	0.044739 
3545.163808  	0.045154 
3547.092624  	0.045258 
3549.021440  	0.043551 
3550.950256  	0.042026 
3552.879072  	0.042088 
3554.807888  	0.040973 
3556.736704  	0.039492 
3558.665520  	0.039086 
3560.594336  	0.038907 
3562.523152  	0.037708 
3564.451968  	0.036515 
3566.380784  	0.038439 
3568.309600  	0.039939 
3570.238416  	0.036680 
3572.167232  	0.034364 
3574.096048  	0.033485 
3576.024864  	0.032880 
3577.953680  	0.032086 
3579.882496  	0.031321 
3581.811312  	0.030247 
3583.740128  	0.028879 
3585.668944  	0.028009 
3587.597760  	0.030457 
3589.526576  	0.029925 
3591.455392  	0.026464 
3593.384208  	0.025642 
3595.313024  	0.025991 
3597.241840  	0.024894 
3599.170656  	0.023374 
3601.099472  	0.023178 
3603.028288  	0.021933 
3604.957104  	0.019894 
3606.885920  	0.019823 
3608.814736  	0.020795 
3610.743552  	0.018810 
3612.672368  	0.018451 
3614.601184  	0.018558 
3616.530000  	0.015801 
3618.458816  	0.015891 
3620.387632  	0.017100 
3622.316448  	0.014662 
3624.245264  	0.012151 
3626.174080  	0.009969 
3628.102896  	0.011031 
3630.031712  	0.015425 
3631.960528  	0.011357 
3633.889344  	0.009593 
3635.818160  	0.008582 
3637.746976  	0.007381 
3639.675792  	0.006491 
3641.604608  	0.005548 
3643.533424  	0.004067 
3645.462240  	0.001468 
3647.391056  	0.002074 
3649.319872  	0.005878 
3651.248688  	0.007759 
3653.177504  	0.002527 
3655.106320  	-0.000121 
3657.035136  	0.001763 
3658.963952  	0.000326 
3660.892768  	-0.001129 
3662.821584  	-0.002197 
3664.750400  	-0.003152 
3666.679216  	-0.004712 
3668.608032  	-0.005098 
3670.536848  	-0.001217 
3672.465664  	-0.003960 
3674.394480  	-0.005751 
3676.323296  	0.000367 
3678.252112  	-0.001888 
3680.180928  	-0.003213 
3682.109744  	-0.004555 
3684.038560  	-0.005744 
3685.967376  	-0.007468 
3687.896192  	-0.006397 
3689.825008  	-0.002438 
3691.753824  	-0.002041 
3693.682640  	-0.003998 
3695.611456  	-0.005321 
3697.540272  	-0.005648 
3699.469088  	-0.007222 
3701.397904  	-0.005988 
3703.326720  	-0.004432 
3705.255536  	-0.005741 
3707.184352  	-0.006823 
3709.113168  	-0.006742 
3711.041984  	-0.004192 
3712.970800  	-0.002110 
3714.899616  	-0.004230 
3716.828432  	-0.006087 
3718.757248  	-0.006091 
3720.686064  	-0.006152 
3722.614880  	-0.005297 
3724.543696  	-0.004982 
3726.472512  	-0.004017 
3728.401328  	-0.005286 
3730.330144  	-0.008084 
3732.258960  	-0.007814 
3734.187776  	-0.005709 
3736.116592  	-0.001121 
3738.045408  	-0.002577 
3739.974224  	-0.005307 
3741.903040  	-0.008038 
3743.831856  	-0.007236 
3745.760672  	-0.003014 
3747.689488  	-0.007048 
3749.618304  	-0.005756 
3751.547120  	-0.001273 
3753.475936  	-0.001654 
3755.404752  	-0.005156 
3757.333568  	-0.005869 
3759.262384  	-0.004384 
3761.191200  	-0.003786 
3763.120016  	-0.006477 
3765.048832  	-0.006101 
3766.977648  	-0.005685 
3768.906464  	-0.005701 
3770.835280  	-0.003506 
3772.764096  	-0.004733 
3774.692912  	-0.006148 
3776.621728  	-0.007060 
3778.550544  	-0.006469 
3780.479360  	-0.004624 
3782.408176  	-0.006093 
3784.336992  	-0.005924 
3786.265808  	-0.005206 
3788.194624  	-0.005804 
3790.123440  	-0.005975 
3792.052256  	-0.006290 
3793.981072  	-0.007614 
3795.909888  	-0.006510 
3797.838704  	-0.005455 
3799.767520  	-0.007630 
3801.696336  	-0.003551 
3803.625152  	-0.003994 
3805.553968  	-0.007011 
3807.482784  	-0.003808 
3809.411600  	-0.004376 
3811.340416  	-0.006224 
3813.269232  	-0.008214 
3815.198048  	-0.007428 
3817.126864  	-0.004473 
3819.055680  	-0.007675 
3820.984496  	-0.004485 
3822.913312  	-0.002376 
3824.842128  	-0.005966 
3826.770944  	-0.005708 
3828.699760  	-0.006124 
3830.628576  	-0.006791 
3832.557392  	-0.006152 
3834.486208  	-0.007219 
3836.415024  	-0.007249 
3838.343840  	-0.004535 
3840.272656  	-0.003089 
3842.201472  	-0.004019 
3844.130288  	-0.003817 
3846.059104  	-0.005038 
3847.987920  	-0.007074 
3849.916736  	-0.008669 
3851.845552  	-0.008875 
3853.774368  	0.000186 
3855.703184  	0.000240 
3857.632000  	-0.003424 
3859.560816  	-0.006081 
3861.489632  	-0.006783 
3863.418448  	-0.005756 
3865.347264  	-0.003436 
3867.276080  	-0.005951 
3869.204896  	-0.005552 
3871.133712  	-0.002425 
3873.062528  	-0.004802 
3874.991344  	-0.003705 
3876.920160  	-0.006257 
3878.848976  	-0.007403 
3880.777792  	-0.003936 
3882.706608  	-0.004532 
3884.635424  	-0.005601 
3886.564240  	-0.002963 
3888.493056  	-0.006074 
3890.421872  	-0.006600 
3892.350688  	-0.003836 
3894.279504  	-0.004836 
3896.208320  	-0.007139 
3898.137136  	-0.007358 
3900.065952  	-0.005205 
3901.994768  	-0.004362 
3903.923584  	-0.002757 
3905.852400  	-0.002203 
3907.781216  	-0.004571 
3909.710032  	-0.006176 
3911.638848  	-0.006575 
3913.567664  	-0.007053 
3915.496480  	-0.006893 
3917.425296  	-0.004837 
3919.354112  	-0.004514 
3921.282928  	-0.005132 
3923.211744  	-0.005547 
3925.140560  	-0.004453 
3927.069376  	-0.005323 
3928.998192  	-0.006006 
3930.927008  	-0.005178 
3932.855824  	-0.004141 
3934.784640  	-0.004781 
3936.713456  	-0.005552 
3938.642272  	-0.005880 
3940.571088  	-0.006389 
3942.499904  	-0.004977 
3944.428720  	-0.004659 
3946.357536  	-0.005776 
3948.286352  	-0.005104 
3950.215168  	-0.005048 
3952.143984  	-0.005706 
3954.072800  	-0.006150 
3956.001616  	-0.006061 
3957.930432  	-0.005734 
3959.859248  	-0.005587 
3961.788064  	-0.005169 
3963.716880  	-0.005179 
3965.645696  	-0.005956 
3967.574512  	-0.006321 
3969.503328  	-0.006369 
3971.432144  	-0.006087 
3973.360960  	-0.005510 
3975.289776  	-0.005018 
3977.218592  	-0.005208 
3979.147408  	-0.005731 
3981.076224  	-0.005888 
3983.005040  	-0.005800 
3984.933856  	-0.005712 
3986.862672  	-0.005636 
3988.791488  	-0.005930 
3990.720304  	-0.005571 
3992.649120  	-0.005569 
3994.577936  	-0.005670 
3996.506752  	-0.005707 
3998.435568  	-0.005869 
4000.364384  	-0.005738 