##TITLE=No Description
##DATA TYPE=INFRARED SPECTRUM
##XUNITS=1/CM
##YUNITS=Abs
399.264912  	0.480385 
401.193728  	0.476058 
403.122544  	0.493181 
405.051360  	0.495068 
406.980176  	0.496239 
408.908992  	0.494989 
410.837808  	0.501083 
412.766624  	0.499204 
414.695440  	0.483398 
416.624256  	0.465217 
418.553072  	0.475414 
420.481888  	0.479037 
422.410704  	0.475126 
424.339520  	0.469618 
426.268336  	0.474726 
428.197152  	0.474457 
430.125968  	0.475463 
432.054784  	0.474517 
433.983600  	0.473834 
435.912416  	0.460955 
437.841232  	0.452732 
439.770048  	0.449400 
441.698864  	0.447865 
443.627680  	0.445680 
445.556496  	0.449334 
447.485312  	0.442827 
449.414128  	0.437281 
451.342944  	0.435739 
453.271760  	0.436367 
455.200576  	0.431806 
457.129392  	0.436083 
459.058208  	0.436445 
460.987024  	0.438045 
462.915840  	0.435982 
464.844656  	0.436644 
466.773472  	0.438317 
468.702288  	0.440628 
470.631104  	0.436836 
472.559920  	0.433389 
474.488736  	0.429750 
476.417552  	0.429054 
478.346368  	0.427661 
480.275184  	0.427799 
482.204000  	0.428832 
484.132816  	0.432761 
486.061632  	0.428528 
487.990448  	0.428884 
489.919264  	0.428974 
491.848080  	0.426955 
493.776896  	0.423530 
495.705712  	0.425089 
497.634528  	0.420475 
499.563344  	0.417959 
501.492160  	0.416075 
503.420976  	0.419881 
505.349792  	0.418749 
507.278608  	0.418347 
509.207424  	0.414770 
511.136240  	0.414836 
513.065056  	0.414229 
514.993872  	0.417948 
516.922688  	0.418989 
518.851504  	0.420157 
520.780320  	0.418782 
522.709136  	0.418580 
524.637952  	0.415601 
526.566768  	0.414744 
528.495584  	0.413234 
530.424400  	0.410364 
532.353216  	0.407155 
534.282032  	0.405493 
536.210848  	0.401971 
538.139664  	0.397858 
540.068480  	0.393806 
541.997296  	0.390885 
543.926112  	0.386787 
545.854928  	0.384956 
547.783744  	0.382525 
549.712560  	0.381112 
551.641376  	0.378265 
553.570192  	0.376051 
555.499008  	0.372609 
557.427824  	0.370895 
559.356640  	0.368160 
561.285456  	0.366406 
563.214272  	0.363395 
565.143088  	0.361281 
567.071904  	0.358362 
569.000720  	0.356192 
570.929536  	0.353165 
572.858352  	0.350963 
574.787168  	0.348894 
576.715984  	0.347095 
578.644800  	0.343489 
580.573616  	0.340804 
582.502432  	0.337355 
584.431248  	0.334594 
586.360064  	0.331335 
588.288880  	0.329218 
590.217696  	0.326946 
592.146512  	0.325389 
594.075328  	0.323451 
596.004144  	0.321496 
597.932960  	0.319534 
599.861776  	0.318420 
601.790592  	0.317011 
603.719408  	0.316117 
605.648224  	0.314720 
607.577040  	0.313335 
609.505856  	0.311427 
611.434672  	0.310208 
613.363488  	0.308532 
615.292304  	0.307680 
617.221120  	0.305842 
619.149936  	0.304232 
621.078752  	0.302439 
623.007568  	0.301371 
624.936384  	0.300500 
626.865200  	0.299794 
628.794016  	0.298875 
630.722832  	0.297953 
632.651648  	0.297138 
634.580464  	0.297119 
636.509280  	0.297127 
638.438096  	0.296328 
640.366912  	0.294955 
642.295728  	0.293702 
644.224544  	0.291954 
646.153360  	0.289885 
648.082176  	0.286243 
650.010992  	0.283303 
651.939808  	0.280660 
653.868624  	0.278309 
655.797440  	0.275271 
657.726256  	0.272533 
659.655072  	0.268818 
661.583888  	0.265571 
663.512704  	0.262824 
665.441520  	0.259349 
667.370336  	0.256221 
669.299152  	0.254785 
671.227968  	0.250352 
673.156784  	0.246837 
675.085600  	0.244257 
677.014416  	0.241775 
678.943232  	0.239466 
680.872048  	0.238947 
682.800864  	0.237820 
684.729680  	0.235963 
686.658496  	0.234342 
688.587312  	0.233485 
690.516128  	0.232117 
692.444944  	0.230882 
694.373760  	0.229066 
696.302576  	0.227919 
698.231392  	0.226359 
700.160208  	0.224374 
702.089024  	0.222035 
704.017840  	0.219934 
705.946656  	0.217439 
707.875472  	0.215262 
709.804288  	0.213454 
711.733104  	0.212330 
713.661920  	0.210653 
715.590736  	0.208885 
717.519552  	0.207804 
719.448368  	0.207885 
721.377184  	0.207894 
723.306000  	0.207686 
725.234816  	0.207475 
727.163632  	0.206632 
729.092448  	0.204869 
731.021264  	0.202001 
732.950080  	0.198753 
734.878896  	0.196313 
736.807712  	0.194257 
738.736528  	0.192359 
740.665344  	0.190516 
742.594160  	0.189416 
744.522976  	0.187597 
746.451792  	0.186342 
748.380608  	0.184970 
750.309424  	0.183685 
752.238240  	0.182308 
754.167056  	0.181535 
756.095872  	0.180974 
758.024688  	0.179866 
759.953504  	0.178939 
761.882320  	0.179047 
763.811136  	0.179137 
765.739952  	0.177578 
767.668768  	0.174639 
769.597584  	0.172169 
771.526400  	0.171082 
773.455216  	0.171750 
775.384032  	0.173878 
777.312848  	0.176943 
779.241664  	0.178838 
781.170480  	0.177860 
783.099296  	0.174102 
785.028112  	0.169544 
786.956928  	0.164988 
788.885744  	0.161597 
790.814560  	0.158838 
792.743376  	0.157124 
794.672192  	0.156382 
796.601008  	0.155432 
798.529824  	0.152694 
800.458640  	0.149492 
802.387456  	0.146727 
804.316272  	0.144826 
806.245088  	0.143725 
808.173904  	0.142845 
810.102720  	0.141946 
812.031536  	0.141269 
813.960352  	0.140914 
815.889168  	0.140667 
817.817984  	0.140709 
819.746800  	0.140908 
821.675616  	0.141120 
823.604432  	0.141141 
825.533248  	0.141033 
827.462064  	0.141161 
829.390880  	0.140688 
831.319696  	0.140367 
833.248512  	0.139437 
835.177328  	0.137808 
837.106144  	0.135471 
839.034960  	0.133293 
840.963776  	0.130425 
842.892592  	0.127401 
844.821408  	0.124478 
846.750224  	0.121636 
848.679040  	0.119399 
850.607856  	0.117431 
852.536672  	0.116273 
854.465488  	0.115341 
856.394304  	0.114509 
858.323120  	0.113180 
860.251936  	0.111751 
862.180752  	0.110539 
864.109568  	0.108828 
866.038384  	0.107338 
867.967200  	0.105715 
869.896016  	0.104212 
871.824832  	0.103208 
873.753648  	0.103553 
875.682464  	0.103958 
877.611280  	0.104755 
879.540096  	0.105941 
881.468912  	0.107539 
883.397728  	0.109322 
885.326544  	0.110745 
887.255360  	0.111565 
889.184176  	0.111529 
891.112992  	0.110913 
893.041808  	0.109669 
894.970624  	0.107780 
896.899440  	0.104992 
898.828256  	0.101579 
900.757072  	0.098161 
902.685888  	0.095029 
904.614704  	0.093079 
906.543520  	0.092381 
908.472336  	0.093053 
910.401152  	0.094302 
912.329968  	0.095897 
914.258784  	0.097316 
916.187600  	0.098735 
918.116416  	0.099893 
920.045232  	0.100727 
921.974048  	0.101150 
923.902864  	0.101644 
925.831680  	0.102112 
927.760496  	0.102492 
929.689312  	0.102664 
931.618128  	0.103267 
933.546944  	0.103673 
935.475760  	0.103362 
937.404576  	0.102906 
939.333392  	0.102055 
941.262208  	0.101244 
943.191024  	0.101346 
945.119840  	0.102565 
947.048656  	0.105249 
948.977472  	0.109816 
950.906288  	0.115936 
952.835104  	0.123436 
954.763920  	0.132176 
956.692736  	0.141102 
958.621552  	0.149622 
960.550368  	0.155941 
962.479184  	0.160162 
964.408000  	0.161222 
966.336816  	0.159304 
968.265632  	0.153901 
970.194448  	0.145916 
972.123264  	0.136246 
974.052080  	0.125875 
975.980896  	0.115517 
977.909712  	0.105652 
979.838528  	0.096870 
981.767344  	0.089442 
983.696160  	0.083868 
985.624976  	0.080243 
987.553792  	0.078811 
989.482608  	0.079367 
991.411424  	0.081611 
993.340240  	0.085308 
995.269056  	0.089686 
997.197872  	0.094520 
999.126688  	0.099280 
1001.055504  	0.104571 
1002.984320  	0.109385 
1004.913136  	0.114186 
1006.841952  	0.118905 
1008.770768  	0.123484 
1010.699584  	0.127292 
1012.628400  	0.130431 
1014.557216  	0.132904 
1016.486032  	0.134204 
1018.414848  	0.134733 
1020.343664  	0.135049 
1022.272480  	0.135117 
1024.201296  	0.134935 
1026.130112  	0.134449 
1028.058928  	0.134822 
1029.987744  	0.136327 
1031.916560  	0.138085 
1033.845376  	0.140155 
1035.774192  	0.143084 
1037.703008  	0.147082 
1039.631824  	0.153100 
1041.560640  	0.161163 
1043.489456  	0.171844 
1045.418272  	0.184055 
1047.347088  	0.196342 
1049.275904  	0.205794 
1051.204720  	0.212090 
1053.133536  	0.214645 
1055.062352  	0.214251 
1056.991168  	0.212327 
1058.919984  	0.211061 
1060.848800  	0.210433 
1062.777616  	0.209787 
1064.706432  	0.208334 
1066.635248  	0.206830 
1068.564064  	0.204449 
1070.492880  	0.200682 
1072.421696  	0.196334 
1074.350512  	0.193596 
1076.279328  	0.193397 
1078.208144  	0.196302 
1080.136960  	0.200538 
1082.065776  	0.204499 
1083.994592  	0.205961 
1085.923408  	0.204383 
1087.852224  	0.199518 
1089.781040  	0.193047 
1091.709856  	0.184720 
1093.638672  	0.175439 
1095.567488  	0.164952 
1097.496304  	0.154362 
1099.425120  	0.143811 
1101.353936  	0.133498 
1103.282752  	0.123856 
1105.211568  	0.114990 
1107.140384  	0.106942 
1109.069200  	0.099672 
1110.998016  	0.093070 
1112.926832  	0.086967 
1114.855648  	0.081455 
1116.784464  	0.075980 
1118.713280  	0.070637 
1120.642096  	0.065718 
1122.570912  	0.061218 
1124.499728  	0.057142 
1126.428544  	0.053499 
1128.357360  	0.050369 
1130.286176  	0.047671 
1132.214992  	0.045641 
1134.143808  	0.044053 
1136.072624  	0.042703 
1138.001440  	0.041308 
1139.930256  	0.040171 
1141.859072  	0.039004 
1143.787888  	0.037863 
1145.716704  	0.036918 
1147.645520  	0.036107 
1149.574336  	0.035714 
1151.503152  	0.035186 
1153.431968  	0.034939 
1155.360784  	0.035029 
1157.289600  	0.035573 
1159.218416  	0.036164 
1161.147232  	0.037038 
1163.076048  	0.038311 
1165.004864  	0.039574 
1166.933680  	0.040521 
1168.862496  	0.041480 
1170.791312  	0.042888 
1172.720128  	0.044505 
1174.648944  	0.046431 
1176.577760  	0.048251 
1178.506576  	0.050324 
1180.435392  	0.052440 
1182.364208  	0.054592 
1184.293024  	0.056943 
1186.221840  	0.059721 
1188.150656  	0.062943 
1190.079472  	0.066530 
1192.008288  	0.070828 
1193.937104  	0.075801 
1195.865920  	0.081300 
1197.794736  	0.087034 
1199.723552  	0.093453 
1201.652368  	0.100039 
1203.581184  	0.106226 
1205.510000  	0.112441 
1207.438816  	0.117968 
1209.367632  	0.122873 
1211.296448  	0.126930 
1213.225264  	0.130174 
1215.154080  	0.132254 
1217.082896  	0.133568 
1219.011712  	0.133754 
1220.940528  	0.133432 
1222.869344  	0.132715 
1224.798160  	0.131879 
1226.726976  	0.130081 
1228.655792  	0.127699 
1230.584608  	0.124914 
1232.513424  	0.121632 
1234.442240  	0.118036 
1236.371056  	0.114330 
1238.299872  	0.110046 
1240.228688  	0.105091 
1242.157504  	0.100206 
1244.086320  	0.095633 
1246.015136  	0.090811 
1247.943952  	0.085884 
1249.872768  	0.081181 
1251.801584  	0.076883 
1253.730400  	0.072479 
1255.659216  	0.068147 
1257.588032  	0.064012 
1259.516848  	0.060468 
1261.445664  	0.057108 
1263.374480  	0.053974 
1265.303296  	0.051161 
1267.232112  	0.048964 
1269.160928  	0.047390 
1271.089744  	0.046374 
1273.018560  	0.045917 
1274.947376  	0.045896 
1276.876192  	0.046374 
1278.805008  	0.046848 
1280.733824  	0.046741 
1282.662640  	0.045703 
1284.591456  	0.044432 
1286.520272  	0.043315 
1288.449088  	0.042604 
1290.377904  	0.042315 
1292.306720  	0.042776 
1294.235536  	0.043538 
1296.164352  	0.043648 
1298.093168  	0.042555 
1300.021984  	0.040689 
1301.950800  	0.038610 
1303.879616  	0.036469 
1305.808432  	0.034266 
1307.737248  	0.031955 
1309.666064  	0.029694 
1311.594880  	0.028033 
1313.523696  	0.027012 
1315.452512  	0.026171 
1317.381328  	0.025861 
1319.310144  	0.025945 
1321.238960  	0.026056 
1323.167776  	0.026312 
1325.096592  	0.026679 
1327.025408  	0.026858 
1328.954224  	0.026780 
1330.883040  	0.026275 
1332.811856  	0.025315 
1334.740672  	0.024488 
1336.669488  	0.024328 
1338.598304  	0.024982 
1340.527120  	0.025019 
1342.455936  	0.023405 
1344.384752  	0.022820 
1346.313568  	0.023131 
1348.242384  	0.023773 
1350.171200  	0.024444 
1352.100016  	0.025223 
1354.028832  	0.026404 
1355.957648  	0.027946 
1357.886464  	0.029106 
1359.815280  	0.030210 
1361.744096  	0.032412 
1363.672912  	0.034792 
1365.601728  	0.034997 
1367.530544  	0.035812 
1369.459360  	0.037202 
1371.388176  	0.037455 
1373.316992  	0.037946 
1375.245808  	0.038025 
1377.174624  	0.035955 
1379.103440  	0.034115 
1381.032256  	0.032135 
1382.961072  	0.030402 
1384.889888  	0.029010 
1386.818704  	0.029179 
1388.747520  	0.028435 
1390.676336  	0.026082 
1392.605152  	0.024127 
1394.533968  	0.024395 
1396.462784  	0.025257 
1398.391600  	0.024916 
1400.320416  	0.024744 
1402.249232  	0.023666 
1404.178048  	0.024382 
1406.106864  	0.025423 
1408.035680  	0.025663 
1409.964496  	0.026589 
1411.893312  	0.028141 
1413.822128  	0.029381 
1415.750944  	0.030840 
1417.679760  	0.032606 
1419.608576  	0.035009 
1421.537392  	0.033968 
1423.466208  	0.033287 
1425.395024  	0.032609 
1427.323840  	0.030364 
1429.252656  	0.029227 
1431.181472  	0.028349 
1433.110288  	0.027175 
1435.039104  	0.026774 
1436.967920  	0.029590 
1438.896736  	0.029944 
1440.825552  	0.029564 
1442.754368  	0.029925 
1444.683184  	0.029772 
1446.612000  	0.030002 
1448.540816  	0.030932 
1450.469632  	0.030662 
1452.398448  	0.030396 
1454.327264  	0.029741 
1456.256080  	0.031183 
1458.184896  	0.035033 
1460.113712  	0.032514 
1462.042528  	0.029897 
1463.971344  	0.029636 
1465.900160  	0.031122 
1467.828976  	0.030386 
1469.757792  	0.029702 
1471.686608  	0.032102 
1473.615424  	0.038791 
1475.544240  	0.041364 
1477.473056  	0.044035 
1479.401872  	0.045200 
1481.330688  	0.047730 
1483.259504  	0.049360 
1485.188320  	0.049903 
1487.117136  	0.050989 
1489.045952  	0.053316 
1490.974768  	0.053777 
1492.903584  	0.050162 
1494.832400  	0.046454 
1496.761216  	0.044637 
1498.690032  	0.041459 
1500.618848  	0.037535 
1502.547664  	0.033075 
1504.476480  	0.029192 
1506.405296  	0.030735 
1508.334112  	0.034243 
1510.262928  	0.029884 
1512.191744  	0.027172 
1514.120560  	0.025666 
1516.049376  	0.026509 
1517.978192  	0.028024 
1519.907008  	0.027379 
1521.835824  	0.032184 
1523.764640  	0.033641 
1525.693456  	0.035216 
1527.622272  	0.037396 
1529.551088  	0.036339 
1531.479904  	0.034369 
1533.408720  	0.034825 
1535.337536  	0.032924 
1537.266352  	0.028599 
1539.195168  	0.027450 
1541.123984  	0.029663 
1543.052800  	0.028520 
1544.981616  	0.027628 
1546.910432  	0.024933 
1548.839248  	0.023705 
1550.768064  	0.024712 
1552.696880  	0.023299 
1554.625696  	0.023786 
1556.554512  	0.022283 
1558.483328  	0.025213 
1560.412144  	0.032624 
1562.340960  	0.029545 
1564.269776  	0.029687 
1566.198592  	0.031979 
1568.127408  	0.033008 
1570.056224  	0.038983 
1571.985040  	0.041086 
1573.913856  	0.040768 
1575.842672  	0.044070 
1577.771488  	0.048318 
1579.700304  	0.046349 
1581.629120  	0.045454 
1583.557936  	0.045015 
1585.486752  	0.045572 
1587.415568  	0.046599 
1589.344384  	0.049108 
1591.273200  	0.052198 
1593.202016  	0.056273 
1595.130832  	0.060896 
1597.059648  	0.065553 
1598.988464  	0.069243 
1600.917280  	0.073141 
1602.846096  	0.076389 
1604.774912  	0.078607 
1606.703728  	0.079328 
1608.632544  	0.080103 
1610.561360  	0.079293 
1612.490176  	0.077876 
1614.418992  	0.075255 
1616.347808  	0.076748 
1618.276624  	0.079895 
1620.205440  	0.079146 
1622.134256  	0.080032 
1624.063072  	0.086271 
1625.991888  	0.088831 
1627.920704  	0.093491 
1629.849520  	0.098734 
1631.778336  	0.101613 
1633.707152  	0.103444 
1635.635968  	0.113031 
1637.564784  	0.121928 
1639.493600  	0.122380 
1641.422416  	0.124028 
1643.351232  	0.124650 
1645.280048  	0.124559 
1647.208864  	0.131745 
1649.137680  	0.131621 
1651.066496  	0.125170 
1652.995312  	0.128243 
1654.924128  	0.135794 
1656.852944  	0.129769 
1658.781760  	0.126409 
1660.710576  	0.123770 
1662.639392  	0.123416 
1664.568208  	0.121554 
1666.497024  	0.116363 
1668.425840  	0.113093 
1670.354656  	0.112638 
1672.283472  	0.108768 
1674.212288  	0.104699 
1676.141104  	0.104366 
1678.069920  	0.100865 
1679.998736  	0.098918 
1681.927552  	0.096017 
1683.856368  	0.096988 
1685.785184  	0.100555 
1687.714000  	0.096655 
1689.642816  	0.096147 
1691.571632  	0.094844 
1693.500448  	0.091595 
1695.429264  	0.091754 
1697.358080  	0.093921 
1699.286896  	0.091026 
1701.215712  	0.095349 
1703.144528  	0.091277 
1705.073344  	0.089224 
1707.002160  	0.088229 
1708.930976  	0.084648 
1710.859792  	0.080669 
1712.788608  	0.076071 
1714.717424  	0.071122 
1716.646240  	0.066083 
1718.575056  	0.060300 
1720.503872  	0.052141 
1722.432688  	0.044908 
1724.361504  	0.038272 
1726.290320  	0.031924 
1728.219136  	0.026790 
1730.147952  	0.023081 
1732.076768  	0.018844 
1734.005584  	0.017351 
1735.934400  	0.014907 
1737.863216  	0.011370 
1739.792032  	0.009971 
1741.720848  	0.008603 
1743.649664  	0.007868 
1745.578480  	0.006554 
1747.507296  	0.005500 
1749.436112  	0.005843 
1751.364928  	0.005808 
1753.293744  	0.004037 
1755.222560  	0.002345 
1757.151376  	0.003168 
1759.080192  	0.002251 
1761.009008  	0.001768 
1762.937824  	0.002110 
1764.866640  	0.000877 
1766.795456  	0.000275 
1768.724272  	0.000780 
1770.653088  	-0.000209 
1772.581904  	0.001538 
1774.510720  	0.001602 
1776.439536  	0.000424 
1778.368352  	-0.000641 
1780.297168  	-0.000313 
1782.225984  	-0.000546 
1784.154800  	-0.000851 
1786.083616  	-0.000919 
1788.012432  	-0.001769 
1789.941248  	-0.001948 
1791.870064  	-0.000586 
1793.798880  	-0.000215 
1795.727696  	-0.001079 
1797.656512  	-0.002084 
1799.585328  	-0.002282 
1801.514144  	-0.001196 
1803.442960  	-0.001510 
1805.371776  	-0.002320 
1807.300592  	-0.002630 
1809.229408  	-0.002842 
1811.158224  	-0.002610 
1813.087040  	-0.002857 
1815.015856  	-0.003581 
1816.944672  	-0.003217 
1818.873488  	-0.002945 
1820.802304  	-0.003054 
1822.731120  	-0.003245 
1824.659936  	-0.003064 
1826.588752  	-0.002917 
1828.517568  	-0.003593 
1830.446384  	-0.002358 
1832.375200  	-0.002776 
1834.304016  	-0.003404 
1836.232832  	-0.003248 
1838.161648  	-0.003084 
1840.090464  	-0.003655 
1842.019280  	-0.004284 
1843.948096  	-0.003110 
1845.876912  	-0.002076 
1847.805728  	-0.003110 
1849.734544  	-0.003646 
1851.663360  	-0.003863 
1853.592176  	-0.003548 
1855.520992  	-0.003801 
1857.449808  	-0.003815 
1859.378624  	-0.004087 
1861.307440  	-0.004009 
1863.236256  	-0.004418 
1865.165072  	-0.004622 
1867.093888  	-0.004404 
1869.022704  	-0.002569 
1870.951520  	-0.002548 
1872.880336  	-0.003662 
1874.809152  	-0.004111 
1876.737968  	-0.004260 
1878.666784  	-0.004464 
1880.595600  	-0.004668 
1882.524416  	-0.004589 
1884.453232  	-0.004149 
1886.382048  	-0.004622 
1888.310864  	-0.004350 
1890.239680  	-0.003753 
1892.168496  	-0.004063 
1894.097312  	-0.004094 
1896.026128  	-0.004048 
1897.954944  	-0.004485 
1899.883760  	-0.004590 
1901.812576  	-0.004520 
1903.741392  	-0.004466 
1905.670208  	-0.004860 
1907.599024  	-0.005067 
1909.527840  	-0.004554 
1911.456656  	-0.003806 
1913.385472  	-0.003819 
1915.314288  	-0.004190 
1917.243104  	-0.004322 
1919.171920  	-0.003595 
1921.100736  	-0.004347 
1923.029552  	-0.004563 
1924.958368  	-0.005387 
1926.887184  	-0.005483 
1928.816000  	-0.005479 
1930.744816  	-0.005167 
1932.673632  	-0.005004 
1934.602448  	-0.004902 
1936.531264  	-0.005369 
1938.460080  	-0.005078 
1940.388896  	-0.004975 
1942.317712  	-0.004271 
1944.246528  	-0.005021 
1946.175344  	-0.005545 
1948.104160  	-0.005366 
1950.032976  	-0.005001 
1951.961792  	-0.005125 
1953.890608  	-0.005485 
1955.819424  	-0.006704 
1957.748240  	-0.006981 
1959.677056  	-0.006520 
1961.605872  	-0.006017 
1963.534688  	-0.005824 
1965.463504  	-0.006062 
1967.392320  	-0.006930 
1969.321136  	-0.006795 
1971.249952  	-0.007269 
1973.178768  	-0.007105 
1975.107584  	-0.006044 
1977.036400  	-0.004595 
1978.965216  	-0.004597 
1980.894032  	-0.005136 
1982.822848  	-0.005114 
1984.751664  	-0.004649 
1986.680480  	-0.004465 
1988.609296  	-0.003877 
1990.538112  	-0.004045 
1992.466928  	-0.003401 
1994.395744  	-0.004172 
1996.324560  	-0.004971 
1998.253376  	-0.004691 
2000.182192  	-0.004901 
2002.111008  	-0.005798 
2004.039824  	-0.005504 
2005.968640  	-0.005634 
2007.897456  	-0.005214 
2009.826272  	-0.005121 
2011.755088  	-0.005135 
2013.683904  	-0.005384 
2015.612720  	-0.005189 
2017.541536  	-0.005091 
2019.470352  	-0.004720 
2021.399168  	-0.005674 
2023.327984  	-0.004957 
2025.256800  	-0.003206 
2027.185616  	-0.002134 
2029.114432  	-0.004149 
2031.043248  	-0.004884 
2032.972064  	-0.003472 
2034.900880  	-0.002280 
2036.829696  	-0.003120 
2038.758512  	-0.003395 
2040.687328  	-0.004456 
2042.616144  	-0.004233 
2044.544960  	-0.004121 
2046.473776  	-0.003873 
2048.402592  	-0.002968 
2050.331408  	-0.002218 
2052.260224  	-0.002327 
2054.189040  	-0.002406 
2056.117856  	-0.002894 
2058.046672  	-0.002349 
2059.975488  	-0.001972 
2061.904304  	-0.002083 
2063.833120  	-0.002415 
2065.761936  	-0.002118 
2067.690752  	-0.002239 
2069.619568  	-0.002425 
2071.548384  	-0.002576 
2073.477200  	-0.001694 
2075.406016  	-0.001498 
2077.334832  	-0.001756 
2079.263648  	-0.001252 
2081.192464  	-0.000767 
2083.121280  	-0.000929 
2085.050096  	-0.001510 
2086.978912  	-0.002034 
2088.907728  	-0.001467 
2090.836544  	-0.001096 
2092.765360  	-0.001349 
2094.694176  	-0.001400 
2096.622992  	-0.001105 
2098.551808  	-0.000906 
2100.480624  	-0.000648 
2102.409440  	-0.000794 
2104.338256  	-0.000846 
2106.267072  	-0.001056 
2108.195888  	-0.001123 
2110.124704  	-0.001019 
2112.053520  	-0.000888 
2113.982336  	-0.000717 
2115.911152  	-0.001066 
2117.839968  	-0.001744 
2119.768784  	-0.001560 
2121.697600  	-0.001288 
2123.626416  	-0.001402 
2125.555232  	-0.001596 
2127.484048  	-0.001601 
2129.412864  	-0.001426 
2131.341680  	-0.001202 
2133.270496  	-0.001102 
2135.199312  	-0.000888 
2137.128128  	-0.001173 
2139.056944  	-0.000673 
2140.985760  	-0.000144 
2142.914576  	-0.000565 
2144.843392  	-0.001335 
2146.772208  	-0.000994 
2148.701024  	-0.001224 
2150.629840  	-0.001395 
2152.558656  	-0.002054 
2154.487472  	-0.001810 
2156.416288  	-0.001195 
2158.345104  	0.001098 
2160.273920  	0.003659 
2162.202736  	0.003051 
2164.131552  	0.001630 
2166.060368  	0.002422 
2167.989184  	0.001956 
2169.918000  	0.000626 
2171.846816  	0.000655 
2173.775632  	0.001293 
2175.704448  	0.001277 
2177.633264  	0.001734 
2179.562080  	0.000988 
2181.490896  	0.001135 
2183.419712  	0.001480 
2185.348528  	0.000961 
2187.277344  	0.000565 
2189.206160  	0.001535 
2191.134976  	0.001693 
2193.063792  	0.000855 
2194.992608  	0.000187 
2196.921424  	0.000217 
2198.850240  	-0.000174 
2200.779056  	-0.000442 
2202.707872  	-0.000019 
2204.636688  	0.000722 
2206.565504  	0.000290 
2208.494320  	-0.000390 
2210.423136  	-0.000571 
2212.351952  	-0.000094 
2214.280768  	-0.000325 
2216.209584  	-0.000589 
2218.138400  	-0.000925 
2220.067216  	-0.001280 
2221.996032  	-0.001171 
2223.924848  	-0.000444 
2225.853664  	-0.000103 
2227.782480  	0.000045 
2229.711296  	-0.001191 
2231.640112  	-0.001800 
2233.568928  	-0.001500 
2235.497744  	-0.000643 
2237.426560  	-0.000245 
2239.355376  	-0.000546 
2241.284192  	-0.001383 
2243.213008  	-0.001509 
2245.141824  	-0.001313 
2247.070640  	-0.001065 
2248.999456  	-0.000817 
2250.928272  	-0.000770 
2252.857088  	-0.001262 
2254.785904  	-0.001245 
2256.714720  	-0.000695 
2258.643536  	-0.000231 
2260.572352  	-0.000146 
2262.501168  	-0.000592 
2264.429984  	-0.000683 
2266.358800  	-0.000472 
2268.287616  	-0.000897 
2270.216432  	-0.000867 
2272.145248  	-0.000457 
2274.074064  	-0.000091 
2276.002880  	-0.000209 
2277.931696  	-0.000050 
2279.860512  	-0.000016 
2281.789328  	0.000042 
2283.718144  	0.000065 
2285.646960  	0.000454 
2287.575776  	0.000450 
2289.504592  	0.000328 
2291.433408  	0.000313 
2293.362224  	0.000555 
2295.291040  	0.000571 
2297.219856  	0.000725 
2299.148672  	0.000827 
2301.077488  	0.000888 
2303.006304  	0.001266 
2304.935120  	0.001592 
2306.863936  	0.001578 
2308.792752  	0.001603 
2310.721568  	0.001570 
2312.650384  	0.001531 
2314.579200  	0.001281 
2316.508016  	0.001329 
2318.436832  	0.001435 
2320.365648  	0.001683 
2322.294464  	0.001942 
2324.223280  	0.001551 
2326.152096  	0.000193 
2328.080912  	-0.000874 
2330.009728  	-0.001117 
2331.938544  	-0.000910 
2333.867360  	-0.001505 
2335.796176  	-0.002036 
2337.724992  	-0.002259 
2339.653808  	-0.002270 
2341.582624  	-0.001627 
2343.511440  	-0.000466 
2345.440256  	0.000863 
2347.369072  	0.001140 
2349.297888  	-0.000333 
2351.226704  	-0.001769 
2353.155520  	-0.002594 
2355.084336  	-0.002819 
2357.013152  	-0.002949 
2358.941968  	-0.002660 
2360.870784  	-0.002729 
2362.799600  	-0.002323 
2364.728416  	-0.001204 
2366.657232  	-0.000724 
2368.586048  	-0.000254 
2370.514864  	0.000712 
2372.443680  	0.001019 
2374.372496  	0.001542 
2376.301312  	0.001964 
2378.230128  	0.002017 
2380.158944  	0.001804 
2382.087760  	0.001343 
2384.016576  	0.000512 
2385.945392  	-0.000125 
2387.874208  	-0.000365 
2389.803024  	-0.000550 
2391.731840  	-0.000823 
2393.660656  	-0.000982 
2395.589472  	-0.000837 
2397.518288  	-0.000785 
2399.447104  	-0.000872 
2401.375920  	-0.000733 
2403.304736  	-0.000813 
2405.233552  	-0.000831 
2407.162368  	-0.000816 
2409.091184  	-0.000699 
2411.020000  	-0.000720 
2412.948816  	-0.000897 
2414.877632  	-0.000862 
2416.806448  	-0.000692 
2418.735264  	-0.000631 
2420.664080  	-0.000526 
2422.592896  	-0.000581 
2424.521712  	-0.000659 
2426.450528  	-0.000520 
2428.379344  	-0.000319 
2430.308160  	0.000024 
2432.236976  	0.000095 
2434.165792  	0.000149 
2436.094608  	0.000198 
2438.023424  	0.000156 
2439.952240  	0.000207 
2441.881056  	0.000256 
2443.809872  	0.000265 
2445.738688  	0.000297 
2447.667504  	0.000392 
2449.596320  	0.000532 
2451.525136  	0.000474 
2453.453952  	0.000480 
2455.382768  	0.000596 
2457.311584  	0.000618 
2459.240400  	0.000578 
2461.169216  	0.000656 
2463.098032  	0.000811 
2465.026848  	0.000756 
2466.955664  	0.000527 
2468.884480  	0.000448 
2470.813296  	0.000371 
2472.742112  	0.000344 
2474.670928  	0.000639 
2476.599744  	0.001029 
2478.528560  	0.001254 
2480.457376  	0.001404 
2482.386192  	0.001500 
2484.315008  	0.001319 
2486.243824  	0.001343 
2488.172640  	0.001694 
2490.101456  	0.001871 
2492.030272  	0.001879 
2493.959088  	0.001835 
2495.887904  	0.001703 
2497.816720  	0.001945 
2499.745536  	0.002056 
2501.674352  	0.002008 
2503.603168  	0.001942 
2505.531984  	0.001831 
2507.460800  	0.001644 
2509.389616  	0.001586 
2511.318432  	0.001597 
2513.247248  	0.001833 
2515.176064  	0.002020 
2517.104880  	0.001905 
2519.033696  	0.001870 
2520.962512  	0.002084 
2522.891328  	0.002228 
2524.820144  	0.002535 
2526.748960  	0.002505 
2528.677776  	0.002455 
2530.606592  	0.002517 
2532.535408  	0.002711 
2534.464224  	0.002599 
2536.393040  	0.002524 
2538.321856  	0.002777 
2540.250672  	0.002995 
2542.179488  	0.003009 
2544.108304  	0.003060 
2546.037120  	0.003126 
2547.965936  	0.003308 
2549.894752  	0.003459 
2551.823568  	0.003643 
2553.752384  	0.003688 
2555.681200  	0.003500 
2557.610016  	0.003548 
2559.538832  	0.003678 
2561.467648  	0.003856 
2563.396464  	0.004015 
2565.325280  	0.004005 
2567.254096  	0.003925 
2569.182912  	0.003896 
2571.111728  	0.003970 
2573.040544  	0.004145 
2574.969360  	0.004292 
2576.898176  	0.004446 
2578.826992  	0.004453 
2580.755808  	0.004363 
2582.684624  	0.004475 
2584.613440  	0.004617 
2586.542256  	0.004696 
2588.471072  	0.004653 
2590.399888  	0.004713 
2592.328704  	0.004758 
2594.257520  	0.004931 
2596.186336  	0.004933 
2598.115152  	0.004924 
2600.043968  	0.005109 
2601.972784  	0.004994 
2603.901600  	0.005075 
2605.830416  	0.005125 
2607.759232  	0.005189 
2609.688048  	0.005150 
2611.616864  	0.005232 
2613.545680  	0.005543 
2615.474496  	0.005665 
2617.403312  	0.005681 
2619.332128  	0.005687 
2621.260944  	0.005772 
2623.189760  	0.005821 
2625.118576  	0.005961 
2627.047392  	0.006025 
2628.976208  	0.006193 
2630.905024  	0.006323 
2632.833840  	0.006434 
2634.762656  	0.006428 
2636.691472  	0.006430 
2638.620288  	0.006519 
2640.549104  	0.006690 
2642.477920  	0.006806 
2644.406736  	0.006722 
2646.335552  	0.006803 
2648.264368  	0.006953 
2650.193184  	0.007162 
2652.122000  	0.007225 
2654.050816  	0.007320 
2655.979632  	0.007399 
2657.908448  	0.007371 
2659.837264  	0.007464 
2661.766080  	0.007572 
2663.694896  	0.007599 
2665.623712  	0.007687 
2667.552528  	0.007825 
2669.481344  	0.007896 
2671.410160  	0.007960 
2673.338976  	0.008106 
2675.267792  	0.008217 
2677.196608  	0.008392 
2679.125424  	0.008573 
2681.054240  	0.008612 
2682.983056  	0.008696 
2684.911872  	0.008779 
2686.840688  	0.008816 
2688.769504  	0.008894 
2690.698320  	0.008984 
2692.627136  	0.009020 
2694.555952  	0.009098 
2696.484768  	0.009196 
2698.413584  	0.009253 
2700.342400  	0.009287 
2702.271216  	0.009395 
2704.200032  	0.009530 
2706.128848  	0.009678 
2708.057664  	0.009803 
2709.986480  	0.009876 
2711.915296  	0.009897 
2713.844112  	0.009964 
2715.772928  	0.010052 
2717.701744  	0.010099 
2719.630560  	0.010256 
2721.559376  	0.010402 
2723.488192  	0.010462 
2725.417008  	0.010619 
2727.345824  	0.010715 
2729.274640  	0.010907 
2731.203456  	0.010989 
2733.132272  	0.011041 
2735.061088  	0.011182 
2736.989904  	0.011126 
2738.918720  	0.011209 
2740.847536  	0.011351 
2742.776352  	0.011509 
2744.705168  	0.011661 
2746.633984  	0.011757 
2748.562800  	0.011861 
2750.491616  	0.011861 
2752.420432  	0.011834 
2754.349248  	0.011841 
2756.278064  	0.011855 
2758.206880  	0.011806 
2760.135696  	0.011847 
2762.064512  	0.011915 
2763.993328  	0.011959 
2765.922144  	0.011996 
2767.850960  	0.012044 
2769.779776  	0.012040 
2771.708592  	0.011968 
2773.637408  	0.011903 
2775.566224  	0.011913 
2777.495040  	0.011912 
2779.423856  	0.011913 
2781.352672  	0.012013 
2783.281488  	0.012044 
2785.210304  	0.012021 
2787.139120  	0.012136 
2789.067936  	0.012118 
2790.996752  	0.012117 
2792.925568  	0.012191 
2794.854384  	0.012132 
2796.783200  	0.012093 
2798.712016  	0.012042 
2800.640832  	0.012164 
2802.569648  	0.012295 
2804.498464  	0.012257 
2806.427280  	0.012279 
2808.356096  	0.012366 
2810.284912  	0.012388 
2812.213728  	0.012425 
2814.142544  	0.012449 
2816.071360  	0.012256 
2818.000176  	0.012275 
2819.928992  	0.012476 
2821.857808  	0.012414 
2823.786624  	0.012343 
2825.715440  	0.012380 
2827.644256  	0.012339 
2829.573072  	0.012258 
2831.501888  	0.012315 
2833.430704  	0.012326 
2835.359520  	0.012256 
2837.288336  	0.012184 
2839.217152  	0.012208 
2841.145968  	0.012159 
2843.074784  	0.012118 
2845.003600  	0.012208 
2846.932416  	0.012147 
2848.861232  	0.012257 
2850.790048  	0.012254 
2852.718864  	0.012245 
2854.647680  	0.012237 
2856.576496  	0.012278 
2858.505312  	0.012345 
2860.434128  	0.012393 
2862.362944  	0.012408 
2864.291760  	0.012451 
2866.220576  	0.012463 
2868.149392  	0.012375 
2870.078208  	0.012395 
2872.007024  	0.012623 
2873.935840  	0.012855 
2875.864656  	0.012993 
2877.793472  	0.013140 
2879.722288  	0.013474 
2881.651104  	0.013762 
2883.579920  	0.013980 
2885.508736  	0.014118 
2887.437552  	0.014230 
2889.366368  	0.014294 
2891.295184  	0.014357 
2893.224000  	0.014383 
2895.152816  	0.014395 
2897.081632  	0.014461 
2899.010448  	0.014119 
2900.939264  	0.013664 
2902.868080  	0.013871 
2904.796896  	0.014302 
2906.725712  	0.014549 
2908.654528  	0.014784 
2910.583344  	0.015028 
2912.512160  	0.015205 
2914.440976  	0.015488 
2916.369792  	0.015984 
2918.298608  	0.016213 
2920.227424  	0.016334 
2922.156240  	0.016713 
2924.085056  	0.017064 
2926.013872  	0.017350 
2927.942688  	0.017925 
2929.871504  	0.018559 
2931.800320  	0.018921 
2933.729136  	0.019453 
2935.657952  	0.020009 
2937.586768  	0.020380 
2939.515584  	0.020664 
2941.444400  	0.020834 
2943.373216  	0.021056 
2945.302032  	0.021340 
2947.230848  	0.021521 
2949.159664  	0.021512 
2951.088480  	0.021415 
2953.017296  	0.021388 
2954.946112  	0.021144 
2956.874928  	0.020899 
2958.803744  	0.020701 
2960.732560  	0.020488 
2962.661376  	0.020414 
2964.590192  	0.020382 
2966.519008  	0.020194 
2968.447824  	0.019951 
2970.376640  	0.019760 
2972.305456  	0.019526 
2974.234272  	0.019566 
2976.163088  	0.019459 
2978.091904  	0.019339 
2980.020720  	0.019371 
2981.949536  	0.019394 
2983.878352  	0.019309 
2985.807168  	0.019094 
2987.735984  	0.019061 
2989.664800  	0.019159 
2991.593616  	0.019666 
2993.522432  	0.019992 
2995.451248  	0.020006 
2997.380064  	0.020314 
2999.308880  	0.020767 
3001.237696  	0.021247 
3003.166512  	0.021633 
3005.095328  	0.021973 
3007.024144  	0.022283 
3008.952960  	0.022771 
3010.881776  	0.023318 
3012.810592  	0.023888 
3014.739408  	0.024214 
3016.668224  	0.024479 
3018.597040  	0.024954 
3020.525856  	0.025482 
3022.454672  	0.025865 
3024.383488  	0.026253 
3026.312304  	0.026721 
3028.241120  	0.027002 
3030.169936  	0.027372 
3032.098752  	0.027938 
3034.027568  	0.028250 
3035.956384  	0.028614 
3037.885200  	0.029002 
3039.814016  	0.029495 
3041.742832  	0.029911 
3043.671648  	0.030342 
3045.600464  	0.030693 
3047.529280  	0.030871 
3049.458096  	0.031324 
3051.386912  	0.031743 
3053.315728  	0.032122 
3055.244544  	0.032497 
3057.173360  	0.033081 
3059.102176  	0.033615 
3061.030992  	0.034063 
3062.959808  	0.034438 
3064.888624  	0.035006 
3066.817440  	0.035702 
3068.746256  	0.036119 
3070.675072  	0.036403 
3072.603888  	0.037042 
3074.532704  	0.037825 
3076.461520  	0.038405 
3078.390336  	0.038834 
3080.319152  	0.039420 
3082.247968  	0.039954 
3084.176784  	0.040385 
3086.105600  	0.040929 
3088.034416  	0.041632 
3089.963232  	0.041928 
3091.892048  	0.042185 
3093.820864  	0.042716 
3095.749680  	0.043657 
3097.678496  	0.044403 
3099.607312  	0.044888 
3101.536128  	0.045557 
3103.464944  	0.046060 
3105.393760  	0.046469 
3107.322576  	0.047101 
3109.251392  	0.047642 
3111.180208  	0.047945 
3113.109024  	0.048267 
3115.037840  	0.048799 
3116.966656  	0.049488 
3118.895472  	0.050050 
3120.824288  	0.050377 
3122.753104  	0.050916 
3124.681920  	0.051424 
3126.610736  	0.051606 
3128.539552  	0.051919 
3130.468368  	0.052234 
3132.397184  	0.052951 
3134.326000  	0.053509 
3136.254816  	0.053719 
3138.183632  	0.054130 
3140.112448  	0.054522 
3142.041264  	0.054976 
3143.970080  	0.055551 
3145.898896  	0.055988 
3147.827712  	0.056297 
3149.756528  	0.056799 
3151.685344  	0.057215 
3153.614160  	0.057548 
3155.542976  	0.057928 
3157.471792  	0.058571 
3159.400608  	0.059038 
3161.329424  	0.059357 
3163.258240  	0.060004 
3165.187056  	0.060600 
3167.115872  	0.060825 
3169.044688  	0.061064 
3170.973504  	0.061335 
3172.902320  	0.061553 
3174.831136  	0.061744 
3176.759952  	0.062029 
3178.688768  	0.062435 
3180.617584  	0.062724 
3182.546400  	0.062897 
3184.475216  	0.062964 
3186.404032  	0.063118 
3188.332848  	0.063299 
3190.261664  	0.063367 
3192.190480  	0.063450 
3194.119296  	0.063632 
3196.048112  	0.063523 
3197.976928  	0.063878 
3199.905744  	0.064031 
3201.834560  	0.063811 
3203.763376  	0.063586 
3205.692192  	0.063298 
3207.621008  	0.063271 
3209.549824  	0.063538 
3211.478640  	0.063530 
3213.407456  	0.063276 
3215.336272  	0.063233 
3217.265088  	0.063178 
3219.193904  	0.063517 
3221.122720  	0.063559 
3223.051536  	0.063187 
3224.980352  	0.063020 
3226.909168  	0.062886 
3228.837984  	0.062718 
3230.766800  	0.062471 
3232.695616  	0.062450 
3234.624432  	0.062476 
3236.553248  	0.062660 
3238.482064  	0.062951 
3240.410880  	0.062968 
3242.339696  	0.062854 
3244.268512  	0.062802 
3246.197328  	0.062886 
3248.126144  	0.062771 
3250.054960  	0.062919 
3251.983776  	0.063041 
3253.912592  	0.063234 
3255.841408  	0.063405 
3257.770224  	0.063475 
3259.699040  	0.063702 
3261.627856  	0.063854 
3263.556672  	0.063961 
3265.485488  	0.064272 
3267.414304  	0.064250 
3269.343120  	0.064217 
3271.271936  	0.064323 
3273.200752  	0.064721 
3275.129568  	0.064844 
3277.058384  	0.064861 
3278.987200  	0.064933 
3280.916016  	0.065069 
3282.844832  	0.065091 
3284.773648  	0.065054 
3286.702464  	0.065102 
3288.631280  	0.065399 
3290.560096  	0.065582 
3292.488912  	0.065664 
3294.417728  	0.065645 
3296.346544  	0.065787 
3298.275360  	0.066171 
3300.204176  	0.066364 
3302.132992  	0.066345 
3304.061808  	0.066523 
3305.990624  	0.066616 
3307.919440  	0.066713 
3309.848256  	0.067056 
3311.777072  	0.067269 
3313.705888  	0.067524 
3315.634704  	0.067960 
3317.563520  	0.068221 
3319.492336  	0.068266 
3321.421152  	0.068375 
3323.349968  	0.068345 
3325.278784  	0.068557 
3327.207600  	0.068803 
3329.136416  	0.068647 
3331.065232  	0.068353 
3332.994048  	0.068240 
3334.922864  	0.068516 
3336.851680  	0.068734 
3338.780496  	0.068627 
3340.709312  	0.068582 
3342.638128  	0.068671 
3344.566944  	0.068379 
3346.495760  	0.068168 
3348.424576  	0.068060 
3350.353392  	0.067781 
3352.282208  	0.067453 
3354.211024  	0.067281 
3356.139840  	0.067370 
3358.068656  	0.067201 
3359.997472  	0.066837 
3361.926288  	0.066532 
3363.855104  	0.066181 
3365.783920  	0.066163 
3367.712736  	0.066148 
3369.641552  	0.065851 
3371.570368  	0.065341 
3373.499184  	0.065001 
3375.428000  	0.064981 
3377.356816  	0.064974 
3379.285632  	0.064842 
3381.214448  	0.064572 
3383.143264  	0.064263 
3385.072080  	0.064063 
3387.000896  	0.063603 
3388.929712  	0.063069 
3390.858528  	0.062754 
3392.787344  	0.063134 
3394.716160  	0.062853 
3396.644976  	0.062413 
3398.573792  	0.062100 
3400.502608  	0.061440 
3402.431424  	0.061035 
3404.360240  	0.060733 
3406.289056  	0.060438 
3408.217872  	0.060073 
3410.146688  	0.059739 
3412.075504  	0.059223 
3414.004320  	0.058817 
3415.933136  	0.058689 
3417.861952  	0.058414 
3419.790768  	0.058250 
3421.719584  	0.058297 
3423.648400  	0.057610 
3425.577216  	0.056856 
3427.506032  	0.056486 
3429.434848  	0.056231 
3431.363664  	0.056194 
3433.292480  	0.055776 
3435.221296  	0.055237 
3437.150112  	0.054636 
3439.078928  	0.054102 
3441.007744  	0.053566 
3442.936560  	0.053490 
3444.865376  	0.052737 
3446.794192  	0.053040 
3448.723008  	0.053205 
3450.651824  	0.051983 
3452.580640  	0.051469 
3454.509456  	0.050992 
3456.438272  	0.050460 
3458.367088  	0.049919 
3460.295904  	0.049317 
3462.224720  	0.048992 
3464.153536  	0.048396 
3466.082352  	0.047693 
3468.011168  	0.047460 
3469.939984  	0.046965 
3471.868800  	0.046094 
3473.797616  	0.045234 
3475.726432  	0.045037 
3477.655248  	0.044275 
3479.584064  	0.043403 
3481.512880  	0.043403 
3483.441696  	0.043209 
3485.370512  	0.042154 
3487.299328  	0.041821 
3489.228144  	0.041210 
3491.156960  	0.040183 
3493.085776  	0.039593 
3495.014592  	0.039332 
3496.943408  	0.039040 
3498.872224  	0.037991 
3500.801040  	0.037327 
3502.729856  	0.037891 
3504.658672  	0.037969 
3506.587488  	0.036293 
3508.516304  	0.035648 
3510.445120  	0.036047 
3512.373936  	0.035297 
3514.302752  	0.034548 
3516.231568  	0.033718 
3518.160384  	0.033044 
3520.089200  	0.032337 
3522.018016  	0.031954 
3523.946832  	0.032711 
3525.875648  	0.032154 
3527.804464  	0.031684 
3529.733280  	0.031229 
3531.662096  	0.030176 
3533.590912  	0.029031 
3535.519728  	0.028914 
3537.448544  	0.029092 
3539.377360  	0.028023 
3541.306176  	0.026938 
3543.234992  	0.026460 
3545.163808  	0.027457 
3547.092624  	0.028301 
3549.021440  	0.026534 
3550.950256  	0.024945 
3552.879072  	0.025823 
3554.807888  	0.025037 
3556.736704  	0.023442 
3558.665520  	0.023033 
3560.594336  	0.023117 
3562.523152  	0.021934 
3564.451968  	0.020618 
3566.380784  	0.023385 
3568.309600  	0.026630 
3570.238416  	0.023113 
3572.167232  	0.020306 
3574.096048  	0.019462 
3576.024864  	0.019116 
3577.953680  	0.018536 
3579.882496  	0.018076 
3581.811312  	0.017188 
3583.740128  	0.015519 
3585.668944  	0.014982 
3587.597760  	0.018960 
3589.526576  	0.018842 
3591.455392  	0.014769 
3593.384208  	0.014022 
3595.313024  	0.015068 
3597.241840  	0.014201 
3599.170656  	0.012861 
3601.099472  	0.013096 
3603.028288  	0.011931 
3604.957104  	0.009530 
3606.885920  	0.009575 
3608.814736  	0.011916 
3610.743552  	0.010529 
3612.672368  	0.009882 
3614.601184  	0.010288 
3616.530000  	0.007743 
3618.458816  	0.008305 
3620.387632  	0.010055 
3622.316448  	0.007440 
3624.245264  	0.004719 
3626.174080  	0.002394 
3628.102896  	0.004116 
3630.031712  	0.010177 
3631.960528  	0.005646 
3633.889344  	0.003958 
3635.818160  	0.003117 
3637.746976  	0.001684 
3639.675792  	0.000768 
3641.604608  	0.000201 
3643.533424  	-0.000750 
3645.462240  	-0.003144 
3647.391056  	-0.002062 
3649.319872  	0.002488 
3651.248688  	0.004817 
3653.177504  	-0.000813 
3655.106320  	-0.003770 
3657.035136  	-0.001361 
3658.963952  	-0.002406 
3660.892768  	-0.003563 
3662.821584  	-0.004278 
3664.750400  	-0.005338 
3666.679216  	-0.007160 
3668.608032  	-0.007397 
3670.536848  	-0.002653 
3672.465664  	-0.005500 
3674.394480  	-0.007691 
3676.323296  	-0.000527 
3678.252112  	-0.002804 
3680.180928  	-0.004283 
3682.109744  	-0.006057 
3684.038560  	-0.007390 
3685.967376  	-0.009374 
3687.896192  	-0.008391 
3689.825008  	-0.004014 
3691.753824  	-0.003489 
3693.682640  	-0.005159 
3695.611456  	-0.006337 
3697.540272  	-0.006510 
3699.469088  	-0.007786 
3701.397904  	-0.006528 
3703.326720  	-0.005145 
3705.255536  	-0.006677 
3707.184352  	-0.008094 
3709.113168  	-0.008286 
3711.041984  	-0.005075 
3712.970800  	-0.002187 
3714.899616  	-0.004794 
3716.828432  	-0.007126 
3718.757248  	-0.007053 
3720.686064  	-0.007016 
3722.614880  	-0.006039 
3724.543696  	-0.005780 
3726.472512  	-0.004687 
3728.401328  	-0.006035 
3730.330144  	-0.009258 
3732.258960  	-0.008800 
3734.187776  	-0.006400 
3736.116592  	-0.001575 
3738.045408  	-0.002783 
3739.974224  	-0.005722 
3741.903040  	-0.008609 
3743.831856  	-0.007501 
3745.760672  	-0.002816 
3747.689488  	-0.007592 
3749.618304  	-0.006611 
3751.547120  	-0.001601 
3753.475936  	-0.001808 
3755.404752  	-0.005726 
3757.333568  	-0.006720 
3759.262384  	-0.005192 
3761.191200  	-0.004435 
3763.120016  	-0.007109 
3765.048832  	-0.006443 
3766.977648  	-0.006042 
3768.906464  	-0.006565 
3770.835280  	-0.004466 
3772.764096  	-0.005502 
3774.692912  	-0.006827 
3776.621728  	-0.007720 
3778.550544  	-0.006896 
3780.479360  	-0.004742 
3782.408176  	-0.006417 
3784.336992  	-0.006253 
3786.265808  	-0.005499 
3788.194624  	-0.006336 
3790.123440  	-0.006683 
3792.052256  	-0.006975 
3793.981072  	-0.008260 
3795.909888  	-0.007207 
3797.838704  	-0.006104 
3799.767520  	-0.008242 
3801.696336  	-0.003536 
3803.625152  	-0.003895 
3805.553968  	-0.007364 
3807.482784  	-0.004033 
3809.411600  	-0.004683 
3811.340416  	-0.006903 
3813.269232  	-0.009074 
3815.198048  	-0.007936 
3817.126864  	-0.004600 
3819.055680  	-0.007895 
3820.984496  	-0.004280 
3822.913312  	-0.002178 
3824.842128  	-0.006238 
3826.770944  	-0.006018 
3828.699760  	-0.006564 
3830.628576  	-0.007305 
3832.557392  	-0.006594 
3834.486208  	-0.007738 
3836.415024  	-0.007885 
3838.343840  	-0.004958 
3840.272656  	-0.003058 
3842.201472  	-0.004212 
3844.130288  	-0.004194 
3846.059104  	-0.005585 
3847.987920  	-0.007807 
3849.916736  	-0.009562 
3851.845552  	-0.009965 
3853.774368  	-0.000410 
3855.703184  	-0.000045 
3857.632000  	-0.003903 
3859.560816  	-0.006579 
3861.489632  	-0.007006 
3863.418448  	-0.005793 
3865.347264  	-0.003795 
3867.276080  	-0.006916 
3869.204896  	-0.006255 
3871.133712  	-0.002490 
3873.062528  	-0.005145 
3874.991344  	-0.003927 
3876.920160  	-0.006639 
3878.848976  	-0.008097 
3880.777792  	-0.004445 
3882.706608  	-0.004884 
3884.635424  	-0.005936 
3886.564240  	-0.003326 
3888.493056  	-0.006604 
3890.421872  	-0.007237 
3892.350688  	-0.004301 
3894.279504  	-0.005240 
3896.208320  	-0.007558 
3898.137136  	-0.007780 
3900.065952  	-0.005498 
3901.994768  	-0.004679 
3903.923584  	-0.003079 
3905.852400  	-0.002497 
3907.781216  	-0.005038 
3909.710032  	-0.006663 
3911.638848  	-0.006934 
3913.567664  	-0.007260 
3915.496480  	-0.007066 
3917.425296  	-0.005170 
3919.354112  	-0.004926 
3921.282928  	-0.005498 
3923.211744  	-0.005990 
3925.140560  	-0.004691 
3927.069376  	-0.005647 
3928.998192  	-0.006495 
3930.927008  	-0.005640 
3932.855824  	-0.004432 
3934.784640  	-0.005082 
3936.713456  	-0.006041 
3938.642272  	-0.006417 
3940.571088  	-0.007011 
3942.499904  	-0.005496 
3944.428720  	-0.005013 
3946.357536  	-0.006378 
3948.286352  	-0.005642 
3950.215168  	-0.005213 
3952.143984  	-0.005993 
3954.072800  	-0.006516 
3956.001616  	-0.006497 
3957.930432  	-0.006255 
3959.859248  	-0.006162 
3961.788064  	-0.005791 
3963.716880  	-0.005788 
3965.645696  	-0.006383 
3967.574512  	-0.006628 
3969.503328  	-0.006551 
3971.432144  	-0.006326 
3973.360960  	-0.005929 
3975.289776  	-0.005537 
3977.218592  	-0.005859 
3979.147408  	-0.006229 
3981.076224  	-0.006277 
3983.005040  	-0.006313 
3984.933856  	-0.006224 
3986.862672  	-0.006056 
3988.791488  	-0.006317 
3990.720304  	-0.006138 
3992.649120  	-0.006215 
3994.577936  	-0.006271 
3996.506752  	-0.006355 
3998.435568  	-0.006443 
4000.364384  	-0.006269 