##TITLE=No Description
##DATA TYPE=INFRARED SPECTRUM
##XUNITS=1/CM
##YUNITS=Abs
399.264912  	0.543000 
401.193728  	0.540779 
403.122544  	0.551048 
405.051360  	0.541271 
406.980176  	0.540199 
408.908992  	0.536900 
410.837808  	0.538153 
412.766624  	0.541076 
414.695440  	0.541138 
416.624256  	0.523543 
418.553072  	0.519299 
420.481888  	0.532315 
422.410704  	0.538225 
424.339520  	0.522215 
426.268336  	0.508819 
428.197152  	0.502817 
430.125968  	0.506402 
432.054784  	0.496954 
433.983600  	0.496920 
435.912416  	0.505046 
437.841232  	0.507110 
439.770048  	0.503721 
441.698864  	0.505860 
443.627680  	0.496259 
445.556496  	0.492180 
447.485312  	0.487689 
449.414128  	0.486923 
451.342944  	0.493125 
453.271760  	0.497261 
455.200576  	0.483676 
457.129392  	0.479391 
459.058208  	0.483027 
460.987024  	0.487467 
462.915840  	0.482405 
464.844656  	0.478804 
466.773472  	0.476510 
468.702288  	0.479410 
470.631104  	0.481997 
472.559920  	0.482205 
474.488736  	0.476441 
476.417552  	0.479685 
478.346368  	0.474410 
480.275184  	0.471451 
482.204000  	0.468759 
484.132816  	0.467378 
486.061632  	0.468227 
487.990448  	0.471697 
489.919264  	0.468713 
491.848080  	0.465444 
493.776896  	0.461774 
495.705712  	0.461949 
497.634528  	0.459216 
499.563344  	0.459172 
501.492160  	0.459877 
503.420976  	0.460711 
505.349792  	0.458688 
507.278608  	0.458555 
509.207424  	0.455588 
511.136240  	0.457792 
513.065056  	0.456508 
514.993872  	0.457635 
516.922688  	0.459343 
518.851504  	0.459552 
520.780320  	0.458778 
522.709136  	0.459762 
524.637952  	0.456389 
526.566768  	0.454845 
528.495584  	0.452895 
530.424400  	0.451838 
532.353216  	0.448906 
534.282032  	0.445275 
536.210848  	0.439752 
538.139664  	0.435032 
540.068480  	0.430668 
541.997296  	0.427819 
543.926112  	0.424852 
545.854928  	0.423851 
547.783744  	0.420829 
549.712560  	0.418691 
551.641376  	0.416732 
553.570192  	0.415461 
555.499008  	0.411609 
557.427824  	0.409145 
559.356640  	0.405707 
561.285456  	0.402984 
563.214272  	0.400328 
565.143088  	0.398429 
567.071904  	0.395641 
569.000720  	0.392927 
570.929536  	0.390074 
572.858352  	0.388163 
574.787168  	0.386161 
576.715984  	0.384510 
578.644800  	0.380231 
580.573616  	0.376248 
582.502432  	0.371493 
584.431248  	0.368709 
586.360064  	0.365816 
588.288880  	0.363392 
590.217696  	0.361047 
592.146512  	0.359198 
594.075328  	0.356652 
596.004144  	0.355121 
597.932960  	0.353176 
599.861776  	0.352947 
601.790592  	0.351925 
603.719408  	0.350408 
605.648224  	0.348712 
607.577040  	0.347220 
609.505856  	0.344822 
611.434672  	0.343278 
613.363488  	0.341500 
615.292304  	0.340177 
617.221120  	0.338727 
619.149936  	0.337537 
621.078752  	0.335378 
623.007568  	0.333841 
624.936384  	0.332421 
626.865200  	0.331489 
628.794016  	0.330018 
630.722832  	0.329274 
632.651648  	0.328856 
634.580464  	0.328601 
636.509280  	0.327779 
638.438096  	0.326560 
640.366912  	0.325365 
642.295728  	0.324407 
644.224544  	0.322482 
646.153360  	0.319859 
648.082176  	0.316369 
650.010992  	0.313762 
651.939808  	0.310839 
653.868624  	0.307647 
655.797440  	0.304271 
657.726256  	0.301837 
659.655072  	0.299002 
661.583888  	0.295443 
663.512704  	0.291836 
665.441520  	0.288693 
667.370336  	0.286401 
669.299152  	0.283565 
671.227968  	0.278226 
673.156784  	0.274329 
675.085600  	0.272078 
677.014416  	0.269924 
678.943232  	0.267725 
680.872048  	0.266099 
682.800864  	0.264394 
684.729680  	0.263075 
686.658496  	0.261100 
688.587312  	0.259722 
690.516128  	0.257819 
692.444944  	0.256128 
694.373760  	0.254546 
696.302576  	0.253070 
698.231392  	0.251246 
700.160208  	0.249320 
702.089024  	0.247134 
704.017840  	0.244609 
705.946656  	0.241975 
707.875472  	0.239998 
709.804288  	0.237815 
711.733104  	0.236043 
713.661920  	0.234242 
715.590736  	0.232659 
717.519552  	0.231523 
719.448368  	0.231187 
721.377184  	0.231043 
723.306000  	0.230690 
725.234816  	0.230201 
727.163632  	0.229296 
729.092448  	0.227250 
731.021264  	0.224607 
732.950080  	0.221802 
734.878896  	0.218885 
736.807712  	0.215866 
738.736528  	0.213542 
740.665344  	0.211680 
742.594160  	0.210664 
744.522976  	0.209289 
746.451792  	0.207771 
748.380608  	0.205915 
750.309424  	0.204473 
752.238240  	0.203323 
754.167056  	0.202473 
756.095872  	0.201221 
758.024688  	0.199847 
759.953504  	0.199044 
761.882320  	0.199339 
763.811136  	0.199317 
765.739952  	0.197302 
767.668768  	0.194390 
769.597584  	0.191863 
771.526400  	0.190102 
773.455216  	0.190350 
775.384032  	0.192021 
777.312848  	0.194940 
779.241664  	0.197265 
781.170480  	0.196158 
783.099296  	0.192112 
785.028112  	0.187570 
786.956928  	0.183208 
788.885744  	0.179441 
790.814560  	0.176021 
792.743376  	0.174201 
794.672192  	0.173341 
796.601008  	0.172194 
798.529824  	0.169422 
800.458640  	0.166124 
802.387456  	0.163197 
804.316272  	0.161164 
806.245088  	0.159509 
808.173904  	0.158050 
810.102720  	0.157085 
812.031536  	0.156471 
813.960352  	0.156268 
815.889168  	0.156001 
817.817984  	0.155702 
819.746800  	0.155949 
821.675616  	0.155908 
823.604432  	0.155782 
825.533248  	0.155516 
827.462064  	0.155183 
829.390880  	0.154440 
831.319696  	0.153796 
833.248512  	0.152642 
835.177328  	0.150877 
837.106144  	0.148485 
839.034960  	0.145940 
840.963776  	0.142852 
842.892592  	0.139839 
844.821408  	0.136779 
846.750224  	0.133867 
848.679040  	0.131538 
850.607856  	0.129805 
852.536672  	0.128348 
854.465488  	0.127148 
856.394304  	0.126043 
858.323120  	0.124599 
860.251936  	0.123108 
862.180752  	0.121964 
864.109568  	0.120231 
866.038384  	0.118530 
867.967200  	0.116691 
869.896016  	0.115005 
871.824832  	0.113991 
873.753648  	0.113868 
875.682464  	0.113885 
877.611280  	0.114565 
879.540096  	0.115705 
881.468912  	0.117224 
883.397728  	0.118890 
885.326544  	0.119984 
887.255360  	0.120463 
889.184176  	0.120466 
891.112992  	0.120048 
893.041808  	0.118888 
894.970624  	0.116910 
896.899440  	0.113876 
898.828256  	0.110250 
900.757072  	0.106725 
902.685888  	0.103565 
904.614704  	0.101502 
906.543520  	0.100760 
908.472336  	0.101282 
910.401152  	0.102419 
912.329968  	0.103882 
914.258784  	0.105329 
916.187600  	0.106710 
918.116416  	0.107820 
920.045232  	0.108639 
921.974048  	0.109174 
923.902864  	0.109531 
925.831680  	0.109798 
927.760496  	0.110104 
929.689312  	0.110334 
931.618128  	0.110873 
933.546944  	0.111040 
935.475760  	0.110870 
937.404576  	0.110284 
939.333392  	0.109366 
941.262208  	0.108604 
943.191024  	0.108526 
945.119840  	0.109657 
947.048656  	0.112358 
948.977472  	0.116951 
950.906288  	0.123149 
952.835104  	0.130599 
954.763920  	0.139111 
956.692736  	0.148017 
958.621552  	0.156605 
960.550368  	0.163122 
962.479184  	0.167084 
964.408000  	0.168020 
966.336816  	0.166024 
968.265632  	0.160617 
970.194448  	0.152746 
972.123264  	0.143064 
974.052080  	0.132452 
975.980896  	0.121607 
977.909712  	0.111375 
979.838528  	0.102420 
981.767344  	0.094942 
983.696160  	0.089259 
985.624976  	0.085443 
987.553792  	0.083694 
989.482608  	0.083962 
991.411424  	0.086227 
993.340240  	0.090067 
995.269056  	0.094503 
997.197872  	0.099179 
999.126688  	0.103980 
1001.055504  	0.108998 
1002.984320  	0.113792 
1004.913136  	0.118728 
1006.841952  	0.123451 
1008.770768  	0.128066 
1010.699584  	0.131975 
1012.628400  	0.135155 
1014.557216  	0.137574 
1016.486032  	0.138955 
1018.414848  	0.139549 
1020.343664  	0.139774 
1022.272480  	0.139785 
1024.201296  	0.139702 
1026.130112  	0.139384 
1028.058928  	0.139779 
1029.987744  	0.141252 
1031.916560  	0.142922 
1033.845376  	0.145090 
1035.774192  	0.148233 
1037.703008  	0.152362 
1039.631824  	0.158446 
1041.560640  	0.166585 
1043.489456  	0.177132 
1045.418272  	0.189513 
1047.347088  	0.202695 
1049.275904  	0.213124 
1051.204720  	0.219880 
1053.133536  	0.223038 
1055.062352  	0.223386 
1056.991168  	0.221767 
1058.919984  	0.220738 
1060.848800  	0.220256 
1062.777616  	0.219736 
1064.706432  	0.218445 
1066.635248  	0.216889 
1068.564064  	0.214537 
1070.492880  	0.210688 
1072.421696  	0.206254 
1074.350512  	0.203447 
1076.279328  	0.203069 
1078.208144  	0.205929 
1080.136960  	0.210362 
1082.065776  	0.214974 
1083.994592  	0.216781 
1085.923408  	0.214958 
1087.852224  	0.210079 
1089.781040  	0.203766 
1091.709856  	0.195657 
1093.638672  	0.186168 
1095.567488  	0.175405 
1097.496304  	0.164387 
1099.425120  	0.153179 
1101.353936  	0.142434 
1103.282752  	0.132277 
1105.211568  	0.122840 
1107.140384  	0.114336 
1109.069200  	0.106673 
1110.998016  	0.099762 
1112.926832  	0.093411 
1114.855648  	0.087751 
1116.784464  	0.082211 
1118.713280  	0.076621 
1120.642096  	0.071341 
1122.570912  	0.066500 
1124.499728  	0.062295 
1126.428544  	0.058721 
1128.357360  	0.055379 
1130.286176  	0.052431 
1132.214992  	0.050159 
1134.143808  	0.048502 
1136.072624  	0.046995 
1138.001440  	0.045551 
1139.930256  	0.044299 
1141.859072  	0.043067 
1143.787888  	0.041712 
1145.716704  	0.040678 
1147.645520  	0.039953 
1149.574336  	0.039555 
1151.503152  	0.039147 
1153.431968  	0.038870 
1155.360784  	0.038941 
1157.289600  	0.039639 
1159.218416  	0.040338 
1161.147232  	0.041064 
1163.076048  	0.042028 
1165.004864  	0.043095 
1166.933680  	0.044137 
1168.862496  	0.045320 
1170.791312  	0.046688 
1172.720128  	0.048204 
1174.648944  	0.049994 
1176.577760  	0.051636 
1178.506576  	0.053486 
1180.435392  	0.055735 
1182.364208  	0.058058 
1184.293024  	0.060562 
1186.221840  	0.063291 
1188.150656  	0.066436 
1190.079472  	0.070136 
1192.008288  	0.074498 
1193.937104  	0.079427 
1195.865920  	0.084976 
1197.794736  	0.091037 
1199.723552  	0.097782 
1201.652368  	0.104564 
1203.581184  	0.110871 
1205.510000  	0.117124 
1207.438816  	0.122708 
1209.367632  	0.127779 
1211.296448  	0.132164 
1213.225264  	0.135503 
1215.154080  	0.137637 
1217.082896  	0.139085 
1219.011712  	0.139796 
1220.940528  	0.139980 
1222.869344  	0.139301 
1224.798160  	0.138132 
1226.726976  	0.136300 
1228.655792  	0.133863 
1230.584608  	0.130898 
1232.513424  	0.127682 
1234.442240  	0.124070 
1236.371056  	0.120211 
1238.299872  	0.115680 
1240.228688  	0.110474 
1242.157504  	0.105337 
1244.086320  	0.100482 
1246.015136  	0.095427 
1247.943952  	0.090507 
1249.872768  	0.085475 
1251.801584  	0.080665 
1253.730400  	0.076154 
1255.659216  	0.071809 
1257.588032  	0.067523 
1259.516848  	0.063645 
1261.445664  	0.059969 
1263.374480  	0.056595 
1265.303296  	0.053623 
1267.232112  	0.051362 
1269.160928  	0.049717 
1271.089744  	0.048552 
1273.018560  	0.047877 
1274.947376  	0.047978 
1276.876192  	0.048545 
1278.805008  	0.048992 
1280.733824  	0.048958 
1282.662640  	0.047836 
1284.591456  	0.046426 
1286.520272  	0.045329 
1288.449088  	0.044688 
1290.377904  	0.044483 
1292.306720  	0.044970 
1294.235536  	0.045559 
1296.164352  	0.045503 
1298.093168  	0.044348 
1300.021984  	0.042650 
1301.950800  	0.040591 
1303.879616  	0.038327 
1305.808432  	0.036064 
1307.737248  	0.033704 
1309.666064  	0.031323 
1311.594880  	0.029641 
1313.523696  	0.028386 
1315.452512  	0.027359 
1317.381328  	0.027101 
1319.310144  	0.027249 
1321.238960  	0.027285 
1323.167776  	0.027605 
1325.096592  	0.028130 
1327.025408  	0.028361 
1328.954224  	0.028276 
1330.883040  	0.027768 
1332.811856  	0.026678 
1334.740672  	0.025732 
1336.669488  	0.025681 
1338.598304  	0.026306 
1340.527120  	0.026000 
1342.455936  	0.024615 
1344.384752  	0.024206 
1346.313568  	0.024461 
1348.242384  	0.024915 
1350.171200  	0.025542 
1352.100016  	0.026500 
1354.028832  	0.027818 
1355.957648  	0.029312 
1357.886464  	0.030641 
1359.815280  	0.032073 
1361.744096  	0.034290 
1363.672912  	0.036061 
1365.601728  	0.036386 
1367.530544  	0.037464 
1369.459360  	0.038932 
1371.388176  	0.039539 
1373.316992  	0.039995 
1375.245808  	0.039442 
1377.174624  	0.037449 
1379.103440  	0.035658 
1381.032256  	0.033733 
1382.961072  	0.032015 
1384.889888  	0.030787 
1386.818704  	0.030579 
1388.747520  	0.029461 
1390.676336  	0.027490 
1392.605152  	0.025975 
1394.533968  	0.025817 
1396.462784  	0.026235 
1398.391600  	0.026029 
1400.320416  	0.025659 
1402.249232  	0.025187 
1404.178048  	0.025913 
1406.106864  	0.026617 
1408.035680  	0.027092 
1409.964496  	0.028181 
1411.893312  	0.029624 
1413.822128  	0.031066 
1415.750944  	0.032889 
1417.679760  	0.034657 
1419.608576  	0.036061 
1421.537392  	0.035366 
1423.466208  	0.035028 
1425.395024  	0.033990 
1427.323840  	0.032131 
1429.252656  	0.030838 
1431.181472  	0.029646 
1433.110288  	0.028789 
1435.039104  	0.028845 
1436.967920  	0.030416 
1438.896736  	0.030718 
1440.825552  	0.030900 
1442.754368  	0.031361 
1444.683184  	0.031418 
1446.612000  	0.031707 
1448.540816  	0.032067 
1450.469632  	0.032011 
1452.398448  	0.032112 
1454.327264  	0.032173 
1456.256080  	0.033686 
1458.184896  	0.035394 
1460.113712  	0.033224 
1462.042528  	0.031623 
1463.971344  	0.031552 
1465.900160  	0.032232 
1467.828976  	0.031932 
1469.757792  	0.032261 
1471.686608  	0.034996 
1473.615424  	0.040317 
1475.544240  	0.042781 
1477.473056  	0.045525 
1479.401872  	0.047275 
1481.330688  	0.049912 
1483.259504  	0.051686 
1485.188320  	0.052812 
1487.117136  	0.054172 
1489.045952  	0.055845 
1490.974768  	0.055047 
1492.903584  	0.052186 
1494.832400  	0.049467 
1496.761216  	0.046968 
1498.690032  	0.043057 
1500.618848  	0.039160 
1502.547664  	0.035443 
1504.476480  	0.032785 
1506.405296  	0.033398 
1508.334112  	0.033791 
1510.262928  	0.030351 
1512.191744  	0.028165 
1514.120560  	0.027267 
1516.049376  	0.028406 
1517.978192  	0.029585 
1519.907008  	0.029933 
1521.835824  	0.033631 
1523.764640  	0.034992 
1525.693456  	0.036913 
1527.622272  	0.038703 
1529.551088  	0.038086 
1531.479904  	0.036846 
1533.408720  	0.036491 
1535.337536  	0.034259 
1537.266352  	0.031731 
1539.195168  	0.030949 
1541.123984  	0.030450 
1543.052800  	0.029312 
1544.981616  	0.028254 
1546.910432  	0.025961 
1548.839248  	0.025290 
1550.768064  	0.025851 
1552.696880  	0.024982 
1554.625696  	0.025613 
1556.554512  	0.025268 
1558.483328  	0.028284 
1560.412144  	0.031753 
1562.340960  	0.030333 
1564.269776  	0.031254 
1566.198592  	0.033705 
1568.127408  	0.035408 
1570.056224  	0.040255 
1571.985040  	0.042495 
1573.913856  	0.043535 
1575.842672  	0.046227 
1577.771488  	0.048924 
1579.700304  	0.047922 
1581.629120  	0.047458 
1583.557936  	0.046984 
1585.486752  	0.047432 
1587.415568  	0.048639 
1589.344384  	0.051238 
1591.273200  	0.054425 
1593.202016  	0.058673 
1595.130832  	0.063423 
1597.059648  	0.068299 
1598.988464  	0.072479 
1600.917280  	0.076802 
1602.846096  	0.080061 
1604.774912  	0.082307 
1606.703728  	0.083185 
1608.632544  	0.083688 
1610.561360  	0.082840 
1612.490176  	0.081735 
1614.418992  	0.080287 
1616.347808  	0.081229 
1618.276624  	0.082621 
1620.205440  	0.083226 
1622.134256  	0.084972 
1624.063072  	0.090007 
1625.991888  	0.093038 
1627.920704  	0.097931 
1629.849520  	0.103362 
1631.778336  	0.107848 
1633.707152  	0.111609 
1635.635968  	0.119952 
1637.564784  	0.127205 
1639.493600  	0.129458 
1641.422416  	0.132183 
1643.351232  	0.134367 
1645.280048  	0.135518 
1647.208864  	0.140221 
1649.137680  	0.140173 
1651.066496  	0.137627 
1652.995312  	0.139606 
1654.924128  	0.142377 
1656.852944  	0.138561 
1658.781760  	0.136287 
1660.710576  	0.134181 
1662.639392  	0.132972 
1664.568208  	0.130433 
1666.497024  	0.126874 
1668.425840  	0.123871 
1670.354656  	0.121065 
1672.283472  	0.117041 
1674.212288  	0.113803 
1676.141104  	0.111611 
1678.069920  	0.108805 
1679.998736  	0.107358 
1681.927552  	0.105783 
1683.856368  	0.106172 
1685.785184  	0.106516 
1687.714000  	0.104057 
1689.642816  	0.103546 
1691.571632  	0.102470 
1693.500448  	0.100973 
1695.429264  	0.101147 
1697.358080  	0.101885 
1699.286896  	0.100306 
1701.215712  	0.101748 
1703.144528  	0.098875 
1705.073344  	0.097259 
1707.002160  	0.095157 
1708.930976  	0.091899 
1710.859792  	0.088110 
1712.788608  	0.083881 
1714.717424  	0.078922 
1716.646240  	0.073181 
1718.575056  	0.064823 
1720.503872  	0.056323 
1722.432688  	0.049272 
1724.361504  	0.041888 
1726.290320  	0.035283 
1728.219136  	0.030109 
1730.147952  	0.026023 
1732.076768  	0.022115 
1734.005584  	0.019749 
1735.934400  	0.015896 
1737.863216  	0.013144 
1739.792032  	0.011374 
1741.720848  	0.009982 
1743.649664  	0.009195 
1745.578480  	0.008079 
1747.507296  	0.007198 
1749.436112  	0.007066 
1751.364928  	0.006401 
1753.293744  	0.004827 
1755.222560  	0.003529 
1757.151376  	0.003921 
1759.080192  	0.003220 
1761.009008  	0.003028 
1762.937824  	0.002731 
1764.866640  	0.001750 
1766.795456  	0.001491 
1768.724272  	0.001850 
1770.653088  	0.001222 
1772.581904  	0.001927 
1774.510720  	0.001649 
1776.439536  	0.001093 
1778.368352  	0.000355 
1780.297168  	0.000555 
1782.225984  	0.000022 
1784.154800  	-0.000268 
1786.083616  	-0.000403 
1788.012432  	-0.000797 
1789.941248  	-0.000688 
1791.870064  	0.000167 
1793.798880  	-0.000074 
1795.727696  	-0.000585 
1797.656512  	-0.001401 
1799.585328  	-0.001504 
1801.514144  	-0.000898 
1803.442960  	-0.001207 
1805.371776  	-0.001818 
1807.300592  	-0.001924 
1809.229408  	-0.001948 
1811.158224  	-0.001695 
1813.087040  	-0.002159 
1815.015856  	-0.002761 
1816.944672  	-0.002557 
1818.873488  	-0.002265 
1820.802304  	-0.002349 
1822.731120  	-0.002247 
1824.659936  	-0.002217 
1826.588752  	-0.002350 
1828.517568  	-0.002541 
1830.446384  	-0.001854 
1832.375200  	-0.002403 
1834.304016  	-0.002662 
1836.232832  	-0.002648 
1838.161648  	-0.002485 
1840.090464  	-0.002834 
1842.019280  	-0.003107 
1843.948096  	-0.002605 
1845.876912  	-0.002150 
1847.805728  	-0.002588 
1849.734544  	-0.002864 
1851.663360  	-0.003172 
1853.592176  	-0.002854 
1855.520992  	-0.002903 
1857.449808  	-0.002978 
1859.378624  	-0.003497 
1861.307440  	-0.003216 
1863.236256  	-0.003317 
1865.165072  	-0.003556 
1867.093888  	-0.003216 
1869.022704  	-0.002126 
1870.951520  	-0.002681 
1872.880336  	-0.003175 
1874.809152  	-0.003214 
1876.737968  	-0.003293 
1878.666784  	-0.003634 
1880.595600  	-0.003774 
1882.524416  	-0.003619 
1884.453232  	-0.003115 
1886.382048  	-0.003465 
1888.310864  	-0.003262 
1890.239680  	-0.003151 
1892.168496  	-0.003384 
1894.097312  	-0.003381 
1896.026128  	-0.003327 
1897.954944  	-0.003569 
1899.883760  	-0.003533 
1901.812576  	-0.003655 
1903.741392  	-0.003732 
1905.670208  	-0.004053 
1907.599024  	-0.003931 
1909.527840  	-0.003730 
1911.456656  	-0.003276 
1913.385472  	-0.003227 
1915.314288  	-0.003154 
1917.243104  	-0.003121 
1919.171920  	-0.002566 
1921.100736  	-0.002963 
1923.029552  	-0.002866 
1924.958368  	-0.003828 
1926.887184  	-0.004177 
1928.816000  	-0.004323 
1930.744816  	-0.003719 
1932.673632  	-0.003540 
1934.602448  	-0.003493 
1936.531264  	-0.003667 
1938.460080  	-0.003501 
1940.388896  	-0.003403 
1942.317712  	-0.002573 
1944.246528  	-0.003199 
1946.175344  	-0.003229 
1948.104160  	-0.003121 
1950.032976  	-0.003042 
1951.961792  	-0.003627 
1953.890608  	-0.003862 
1955.819424  	-0.004292 
1957.748240  	-0.004579 
1959.677056  	-0.004780 
1961.605872  	-0.004092 
1963.534688  	-0.003793 
1965.463504  	-0.002559 
1967.392320  	-0.002654 
1969.321136  	-0.003056 
1971.249952  	-0.004032 
1973.178768  	-0.004248 
1975.107584  	-0.003543 
1977.036400  	-0.001722 
1978.965216  	-0.001724 
1980.894032  	-0.002080 
1982.822848  	-0.002382 
1984.751664  	-0.002534 
1986.680480  	-0.002569 
1988.609296  	-0.001978 
1990.538112  	-0.002055 
1992.466928  	-0.001363 
1994.395744  	-0.002624 
1996.324560  	-0.003500 
1998.253376  	-0.003714 
2000.182192  	-0.003719 
2002.111008  	-0.003920 
2004.039824  	-0.003072 
2005.968640  	-0.002773 
2007.897456  	-0.002143 
2009.826272  	-0.002339 
2011.755088  	-0.002194 
2013.683904  	-0.002409 
2015.612720  	-0.002864 
2017.541536  	-0.002471 
2019.470352  	-0.001860 
2021.399168  	-0.003166 
2023.327984  	-0.002661 
2025.256800  	-0.002204 
2027.185616  	-0.002002 
2029.114432  	-0.002171 
2031.043248  	-0.002357 
2032.972064  	-0.002744 
2034.900880  	-0.001254 
2036.829696  	-0.001300 
2038.758512  	-0.001268 
2040.687328  	-0.001370 
2042.616144  	-0.001150 
2044.544960  	-0.001706 
2046.473776  	-0.001600 
2048.402592  	-0.000775 
2050.331408  	-0.000768 
2052.260224  	-0.001375 
2054.189040  	-0.001283 
2056.117856  	-0.002152 
2058.046672  	-0.002035 
2059.975488  	-0.001659 
2061.904304  	-0.001676 
2063.833120  	-0.001763 
2065.761936  	-0.001266 
2067.690752  	-0.001594 
2069.619568  	-0.001325 
2071.548384  	-0.001712 
2073.477200  	-0.001504 
2075.406016  	-0.001041 
2077.334832  	-0.000700 
2079.263648  	-0.000568 
2081.192464  	-0.000269 
2083.121280  	-0.001028 
2085.050096  	-0.001635 
2086.978912  	-0.001863 
2088.907728  	-0.001409 
2090.836544  	-0.001124 
2092.765360  	-0.001104 
2094.694176  	-0.001093 
2096.622992  	-0.000708 
2098.551808  	-0.000737 
2100.480624  	-0.000497 
2102.409440  	-0.000524 
2104.338256  	-0.000510 
2106.267072  	-0.000752 
2108.195888  	-0.000738 
2110.124704  	-0.000854 
2112.053520  	-0.000610 
2113.982336  	-0.000490 
2115.911152  	-0.000682 
2117.839968  	-0.001036 
2119.768784  	-0.001207 
2121.697600  	-0.001336 
2123.626416  	-0.001341 
2125.555232  	-0.001265 
2127.484048  	-0.001228 
2129.412864  	-0.001274 
2131.341680  	-0.000917 
2133.270496  	-0.000584 
2135.199312  	-0.000332 
2137.128128  	-0.000256 
2139.056944  	0.000252 
2140.985760  	0.000506 
2142.914576  	0.001061 
2144.843392  	-0.000109 
2146.772208  	-0.000609 
2148.701024  	-0.000473 
2150.629840  	-0.000634 
2152.558656  	-0.000941 
2154.487472  	-0.000096 
2156.416288  	0.000784 
2158.345104  	0.002692 
2160.273920  	0.004720 
2162.202736  	0.003834 
2164.131552  	0.002636 
2166.060368  	0.003547 
2167.989184  	0.002341 
2169.918000  	0.001112 
2171.846816  	0.002212 
2173.775632  	0.003289 
2175.704448  	0.002297 
2177.633264  	0.002112 
2179.562080  	0.001576 
2181.490896  	0.002180 
2183.419712  	0.002933 
2185.348528  	0.002284 
2187.277344  	0.001916 
2189.206160  	0.002127 
2191.134976  	0.001575 
2193.063792  	0.000905 
2194.992608  	0.000536 
2196.921424  	0.000836 
2198.850240  	0.000495 
2200.779056  	0.000071 
2202.707872  	0.000350 
2204.636688  	0.001464 
2206.565504  	0.001218 
2208.494320  	0.000200 
2210.423136  	-0.000507 
2212.351952  	0.000155 
2214.280768  	0.000296 
2216.209584  	0.000152 
2218.138400  	-0.000331 
2220.067216  	-0.000960 
2221.996032  	-0.001259 
2223.924848  	-0.000705 
2225.853664  	-0.000044 
2227.782480  	0.000445 
2229.711296  	-0.000312 
2231.640112  	-0.000521 
2233.568928  	-0.001236 
2235.497744  	-0.001916 
2237.426560  	-0.001396 
2239.355376  	-0.000935 
2241.284192  	-0.001365 
2243.213008  	-0.001605 
2245.141824  	-0.001752 
2247.070640  	-0.001454 
2248.999456  	-0.001094 
2250.928272  	-0.000879 
2252.857088  	-0.001031 
2254.785904  	-0.000849 
2256.714720  	-0.000476 
2258.643536  	-0.000304 
2260.572352  	-0.000096 
2262.501168  	0.000254 
2264.429984  	0.000278 
2266.358800  	0.000312 
2268.287616  	-0.000062 
2270.216432  	-0.000470 
2272.145248  	-0.000546 
2274.074064  	-0.000339 
2276.002880  	-0.000520 
2277.931696  	-0.000317 
2279.860512  	-0.000137 
2281.789328  	-0.000080 
2283.718144  	-0.000096 
2285.646960  	0.000161 
2287.575776  	0.000347 
2289.504592  	0.000359 
2291.433408  	0.000276 
2293.362224  	0.000302 
2295.291040  	0.000160 
2297.219856  	0.000438 
2299.148672  	0.000599 
2301.077488  	0.000842 
2303.006304  	0.001267 
2304.935120  	0.001560 
2306.863936  	0.001702 
2308.792752  	0.001982 
2310.721568  	0.002104 
2312.650384  	0.001908 
2314.579200  	0.001629 
2316.508016  	0.001905 
2318.436832  	0.002235 
2320.365648  	0.002845 
2322.294464  	0.003173 
2324.223280  	0.002637 
2326.152096  	0.001187 
2328.080912  	0.000314 
2330.009728  	0.000160 
2331.938544  	0.000126 
2333.867360  	-0.000333 
2335.796176  	-0.000729 
2337.724992  	-0.000966 
2339.653808  	-0.000950 
2341.582624  	-0.000351 
2343.511440  	0.000529 
2345.440256  	0.001168 
2347.369072  	0.001124 
2349.297888  	0.000390 
2351.226704  	-0.000228 
2353.155520  	-0.000827 
2355.084336  	-0.000721 
2357.013152  	-0.000286 
2358.941968  	-0.000171 
2360.870784  	-0.000354 
2362.799600  	-0.000207 
2364.728416  	0.000125 
2366.657232  	0.000324 
2368.586048  	0.000320 
2370.514864  	0.000862 
2372.443680  	0.001246 
2374.372496  	0.001702 
2376.301312  	0.001723 
2378.230128  	0.001537 
2380.158944  	0.001099 
2382.087760  	0.000671 
2384.016576  	0.000176 
2385.945392  	-0.000147 
2387.874208  	-0.000450 
2389.803024  	-0.000854 
2391.731840  	-0.001075 
2393.660656  	-0.001125 
2395.589472  	-0.001072 
2397.518288  	-0.001046 
2399.447104  	-0.001176 
2401.375920  	-0.001075 
2403.304736  	-0.001052 
2405.233552  	-0.000950 
2407.162368  	-0.001006 
2409.091184  	-0.001162 
2411.020000  	-0.001152 
2412.948816  	-0.001084 
2414.877632  	-0.001013 
2416.806448  	-0.000586 
2418.735264  	-0.000556 
2420.664080  	-0.000620 
2422.592896  	-0.000634 
2424.521712  	-0.000571 
2426.450528  	-0.000509 
2428.379344  	-0.000477 
2430.308160  	-0.000367 
2432.236976  	-0.000285 
2434.165792  	-0.000322 
2436.094608  	-0.000252 
2438.023424  	-0.000008 
2439.952240  	0.000140 
2441.881056  	0.000136 
2443.809872  	0.000159 
2445.738688  	0.000130 
2447.667504  	0.000075 
2449.596320  	0.000273 
2451.525136  	0.000491 
2453.453952  	0.000508 
2455.382768  	0.000464 
2457.311584  	0.000186 
2459.240400  	0.000077 
2461.169216  	0.000274 
2463.098032  	0.000421 
2465.026848  	0.000481 
2466.955664  	0.000603 
2468.884480  	0.000459 
2470.813296  	0.000261 
2472.742112  	0.000508 
2474.670928  	0.000704 
2476.599744  	0.000704 
2478.528560  	0.000970 
2480.457376  	0.001264 
2482.386192  	0.001431 
2484.315008  	0.001347 
2486.243824  	0.001266 
2488.172640  	0.001354 
2490.101456  	0.001544 
2492.030272  	0.001692 
2493.959088  	0.001648 
2495.887904  	0.001538 
2497.816720  	0.001946 
2499.745536  	0.002124 
2501.674352  	0.001986 
2503.603168  	0.001994 
2505.531984  	0.002222 
2507.460800  	0.002127 
2509.389616  	0.001892 
2511.318432  	0.001864 
2513.247248  	0.002163 
2515.176064  	0.002334 
2517.104880  	0.002159 
2519.033696  	0.001929 
2520.962512  	0.002296 
2522.891328  	0.002716 
2524.820144  	0.002986 
2526.748960  	0.002724 
2528.677776  	0.002687 
2530.606592  	0.002920 
2532.535408  	0.003047 
2534.464224  	0.002918 
2536.393040  	0.002832 
2538.321856  	0.002976 
2540.250672  	0.003097 
2542.179488  	0.003209 
2544.108304  	0.003451 
2546.037120  	0.003642 
2547.965936  	0.003710 
2549.894752  	0.003642 
2551.823568  	0.003858 
2553.752384  	0.003995 
2555.681200  	0.003902 
2557.610016  	0.003975 
2559.538832  	0.004095 
2561.467648  	0.004210 
2563.396464  	0.004350 
2565.325280  	0.004281 
2567.254096  	0.004205 
2569.182912  	0.004126 
2571.111728  	0.004235 
2573.040544  	0.004429 
2574.969360  	0.004743 
2576.898176  	0.004931 
2578.826992  	0.004705 
2580.755808  	0.004666 
2582.684624  	0.004974 
2584.613440  	0.005091 
2586.542256  	0.005154 
2588.471072  	0.005063 
2590.399888  	0.005139 
2592.328704  	0.005401 
2594.257520  	0.005422 
2596.186336  	0.005167 
2598.115152  	0.005253 
2600.043968  	0.005571 
2601.972784  	0.005599 
2603.901600  	0.005524 
2605.830416  	0.005578 
2607.759232  	0.005659 
2609.688048  	0.005704 
2611.616864  	0.005893 
2613.545680  	0.005966 
2615.474496  	0.006043 
2617.403312  	0.006168 
2619.332128  	0.006137 
2621.260944  	0.006220 
2623.189760  	0.006378 
2625.118576  	0.006515 
2627.047392  	0.006411 
2628.976208  	0.006588 
2630.905024  	0.006780 
2632.833840  	0.006753 
2634.762656  	0.006744 
2636.691472  	0.006904 
2638.620288  	0.006986 
2640.549104  	0.007110 
2642.477920  	0.007228 
2644.406736  	0.007203 
2646.335552  	0.007271 
2648.264368  	0.007406 
2650.193184  	0.007588 
2652.122000  	0.007658 
2654.050816  	0.007731 
2655.979632  	0.007865 
2657.908448  	0.007921 
2659.837264  	0.007935 
2661.766080  	0.008055 
2663.694896  	0.008169 
2665.623712  	0.008253 
2667.552528  	0.008375 
2669.481344  	0.008347 
2671.410160  	0.008320 
2673.338976  	0.008521 
2675.267792  	0.008702 
2677.196608  	0.008907 
2679.125424  	0.009052 
2681.054240  	0.009101 
2682.983056  	0.009245 
2684.911872  	0.009298 
2686.840688  	0.009330 
2688.769504  	0.009345 
2690.698320  	0.009447 
2692.627136  	0.009565 
2694.555952  	0.009671 
2696.484768  	0.009768 
2698.413584  	0.009806 
2700.342400  	0.009836 
2702.271216  	0.010018 
2704.200032  	0.010223 
2706.128848  	0.010417 
2708.057664  	0.010527 
2709.986480  	0.010579 
2711.915296  	0.010673 
2713.844112  	0.010808 
2715.772928  	0.010906 
2717.701744  	0.011004 
2719.630560  	0.011173 
2721.559376  	0.011261 
2723.488192  	0.011289 
2725.417008  	0.011449 
2727.345824  	0.011594 
2729.274640  	0.011805 
2731.203456  	0.011953 
2733.132272  	0.011981 
2735.061088  	0.012058 
2736.989904  	0.012142 
2738.918720  	0.012236 
2740.847536  	0.012396 
2742.776352  	0.012537 
2744.705168  	0.012591 
2746.633984  	0.012645 
2748.562800  	0.012771 
2750.491616  	0.012794 
2752.420432  	0.012826 
2754.349248  	0.012814 
2756.278064  	0.012845 
2758.206880  	0.012859 
2760.135696  	0.012959 
2762.064512  	0.012967 
2763.993328  	0.012973 
2765.922144  	0.013000 
2767.850960  	0.013029 
2769.779776  	0.013104 
2771.708592  	0.013164 
2773.637408  	0.013173 
2775.566224  	0.013158 
2777.495040  	0.013114 
2779.423856  	0.013120 
2781.352672  	0.013155 
2783.281488  	0.013214 
2785.210304  	0.013261 
2787.139120  	0.013287 
2789.067936  	0.013274 
2790.996752  	0.013350 
2792.925568  	0.013356 
2794.854384  	0.013331 
2796.783200  	0.013340 
2798.712016  	0.013276 
2800.640832  	0.013325 
2802.569648  	0.013435 
2804.498464  	0.013485 
2806.427280  	0.013475 
2808.356096  	0.013489 
2810.284912  	0.013493 
2812.213728  	0.013481 
2814.142544  	0.013586 
2816.071360  	0.013523 
2818.000176  	0.013542 
2819.928992  	0.013645 
2821.857808  	0.013652 
2823.786624  	0.013608 
2825.715440  	0.013665 
2827.644256  	0.013645 
2829.573072  	0.013617 
2831.501888  	0.013686 
2833.430704  	0.013746 
2835.359520  	0.013698 
2837.288336  	0.013609 
2839.217152  	0.013560 
2841.145968  	0.013480 
2843.074784  	0.013443 
2845.003600  	0.013475 
2846.932416  	0.013470 
2848.861232  	0.013624 
2850.790048  	0.013710 
2852.718864  	0.013744 
2854.647680  	0.013696 
2856.576496  	0.013712 
2858.505312  	0.013690 
2860.434128  	0.013684 
2862.362944  	0.013765 
2864.291760  	0.013808 
2866.220576  	0.013754 
2868.149392  	0.013805 
2870.078208  	0.013893 
2872.007024  	0.014115 
2873.935840  	0.014362 
2875.864656  	0.014578 
2877.793472  	0.014732 
2879.722288  	0.015076 
2881.651104  	0.015374 
2883.579920  	0.015583 
2885.508736  	0.015825 
2887.437552  	0.016082 
2889.366368  	0.016085 
2891.295184  	0.015997 
2893.224000  	0.015995 
2895.152816  	0.016133 
2897.081632  	0.016226 
2899.010448  	0.015970 
2900.939264  	0.015586 
2902.868080  	0.015737 
2904.796896  	0.016020 
2906.725712  	0.016160 
2908.654528  	0.016461 
2910.583344  	0.016739 
2912.512160  	0.016899 
2914.440976  	0.017279 
2916.369792  	0.017775 
2918.298608  	0.018017 
2920.227424  	0.018232 
2922.156240  	0.018648 
2924.085056  	0.019155 
2926.013872  	0.019481 
2927.942688  	0.019946 
2929.871504  	0.020547 
2931.800320  	0.020996 
2933.729136  	0.021525 
2935.657952  	0.022136 
2937.586768  	0.022604 
2939.515584  	0.022875 
2941.444400  	0.023102 
2943.373216  	0.023385 
2945.302032  	0.023763 
2947.230848  	0.024092 
2949.159664  	0.024047 
2951.088480  	0.023861 
2953.017296  	0.023767 
2954.946112  	0.023585 
2956.874928  	0.023551 
2958.803744  	0.023335 
2960.732560  	0.023028 
2962.661376  	0.022890 
2964.590192  	0.022699 
2966.519008  	0.022491 
2968.447824  	0.022055 
2970.376640  	0.021787 
2972.305456  	0.021672 
2974.234272  	0.021809 
2976.163088  	0.021813 
2978.091904  	0.021703 
2980.020720  	0.021638 
2981.949536  	0.021536 
2983.878352  	0.021420 
2985.807168  	0.021378 
2987.735984  	0.021357 
2989.664800  	0.021326 
2991.593616  	0.021757 
2993.522432  	0.022123 
2995.451248  	0.022279 
2997.380064  	0.022584 
2999.308880  	0.022989 
3001.237696  	0.023499 
3003.166512  	0.024050 
3005.095328  	0.024319 
3007.024144  	0.024521 
3008.952960  	0.025008 
3010.881776  	0.025582 
3012.810592  	0.026052 
3014.739408  	0.026497 
3016.668224  	0.026990 
3018.597040  	0.027383 
3020.525856  	0.027754 
3022.454672  	0.028280 
3024.383488  	0.028870 
3026.312304  	0.029233 
3028.241120  	0.029589 
3030.169936  	0.029951 
3032.098752  	0.030389 
3034.027568  	0.030716 
3035.956384  	0.031111 
3037.885200  	0.031472 
3039.814016  	0.031982 
3041.742832  	0.032435 
3043.671648  	0.032983 
3045.600464  	0.033333 
3047.529280  	0.033669 
3049.458096  	0.034240 
3051.386912  	0.034585 
3053.315728  	0.034865 
3055.244544  	0.035316 
3057.173360  	0.035974 
3059.102176  	0.036508 
3061.030992  	0.037072 
3062.959808  	0.037580 
3064.888624  	0.038105 
3066.817440  	0.038763 
3068.746256  	0.039349 
3070.675072  	0.039890 
3072.603888  	0.040382 
3074.532704  	0.040940 
3076.461520  	0.041705 
3078.390336  	0.042363 
3080.319152  	0.043037 
3082.247968  	0.043651 
3084.176784  	0.044110 
3086.105600  	0.044661 
3088.034416  	0.045284 
3089.963232  	0.045723 
3091.892048  	0.046261 
3093.820864  	0.046820 
3095.749680  	0.047667 
3097.678496  	0.048429 
3099.607312  	0.049108 
3101.536128  	0.049999 
3103.464944  	0.050540 
3105.393760  	0.050979 
3107.322576  	0.051602 
3109.251392  	0.052241 
3111.180208  	0.052660 
3113.109024  	0.052982 
3115.037840  	0.053672 
3116.966656  	0.054404 
3118.895472  	0.054942 
3120.824288  	0.055409 
3122.753104  	0.056001 
3124.681920  	0.056489 
3126.610736  	0.056884 
3128.539552  	0.057299 
3130.468368  	0.057770 
3132.397184  	0.058318 
3134.326000  	0.058853 
3136.254816  	0.059436 
3138.183632  	0.059951 
3140.112448  	0.060282 
3142.041264  	0.060804 
3143.970080  	0.061387 
3145.898896  	0.061918 
3147.827712  	0.062299 
3149.756528  	0.062785 
3151.685344  	0.063238 
3153.614160  	0.063724 
3155.542976  	0.064272 
3157.471792  	0.064885 
3159.400608  	0.065400 
3161.329424  	0.065945 
3163.258240  	0.066478 
3165.187056  	0.066997 
3167.115872  	0.067467 
3169.044688  	0.067912 
3170.973504  	0.068329 
3172.902320  	0.068669 
3174.831136  	0.069003 
3176.759952  	0.069438 
3178.688768  	0.069993 
3180.617584  	0.070284 
3182.546400  	0.070502 
3184.475216  	0.070609 
3186.404032  	0.070723 
3188.332848  	0.070998 
3190.261664  	0.071120 
3192.190480  	0.071222 
3194.119296  	0.071373 
3196.048112  	0.071234 
3197.976928  	0.071489 
3199.905744  	0.071604 
3201.834560  	0.071667 
3203.763376  	0.071551 
3205.692192  	0.071362 
3207.621008  	0.071296 
3209.549824  	0.071354 
3211.478640  	0.071409 
3213.407456  	0.071205 
3215.336272  	0.071168 
3217.265088  	0.071234 
3219.193904  	0.071400 
3221.122720  	0.071451 
3223.051536  	0.071188 
3224.980352  	0.071054 
3226.909168  	0.070930 
3228.837984  	0.070740 
3230.766800  	0.070536 
3232.695616  	0.070634 
3234.624432  	0.070766 
3236.553248  	0.070943 
3238.482064  	0.071059 
3240.410880  	0.070940 
3242.339696  	0.070818 
3244.268512  	0.070761 
3246.197328  	0.070779 
3248.126144  	0.070784 
3250.054960  	0.071125 
3251.983776  	0.071384 
3253.912592  	0.071746 
3255.841408  	0.071854 
3257.770224  	0.071954 
3259.699040  	0.072229 
3261.627856  	0.072390 
3263.556672  	0.072344 
3265.485488  	0.072467 
3267.414304  	0.072562 
3269.343120  	0.072723 
3271.271936  	0.072966 
3273.200752  	0.073240 
3275.129568  	0.073286 
3277.058384  	0.073309 
3278.987200  	0.073335 
3280.916016  	0.073458 
3282.844832  	0.073589 
3284.773648  	0.073669 
3286.702464  	0.073821 
3288.631280  	0.074208 
3290.560096  	0.074492 
3292.488912  	0.074635 
3294.417728  	0.074741 
3296.346544  	0.074935 
3298.275360  	0.075116 
3300.204176  	0.075204 
3302.132992  	0.075361 
3304.061808  	0.075934 
3305.990624  	0.076270 
3307.919440  	0.076429 
3309.848256  	0.076694 
3311.777072  	0.076812 
3313.705888  	0.076982 
3315.634704  	0.077231 
3317.563520  	0.077441 
3319.492336  	0.077630 
3321.421152  	0.077899 
3323.349968  	0.078088 
3325.278784  	0.078196 
3327.207600  	0.078474 
3329.136416  	0.078436 
3331.065232  	0.078292 
3332.994048  	0.078310 
3334.922864  	0.078536 
3336.851680  	0.078661 
3338.780496  	0.078557 
3340.709312  	0.078409 
3342.638128  	0.078308 
3344.566944  	0.078048 
3346.495760  	0.077789 
3348.424576  	0.077705 
3350.353392  	0.077684 
3352.282208  	0.077521 
3354.211024  	0.077305 
3356.139840  	0.077237 
3358.068656  	0.077059 
3359.997472  	0.076571 
3361.926288  	0.076291 
3363.855104  	0.076193 
3365.783920  	0.075997 
3367.712736  	0.075679 
3369.641552  	0.075468 
3371.570368  	0.075256 
3373.499184  	0.075210 
3375.428000  	0.075178 
3377.356816  	0.074951 
3379.285632  	0.074625 
3381.214448  	0.074152 
3383.143264  	0.073923 
3385.072080  	0.073896 
3387.000896  	0.073328 
3388.929712  	0.072863 
3390.858528  	0.072655 
3392.787344  	0.072833 
3394.716160  	0.072754 
3396.644976  	0.072420 
3398.573792  	0.071845 
3400.502608  	0.071341 
3402.431424  	0.070859 
3404.360240  	0.070366 
3406.289056  	0.069939 
3408.217872  	0.069525 
3410.146688  	0.069177 
3412.075504  	0.068875 
3414.004320  	0.068576 
3415.933136  	0.068357 
3417.861952  	0.067927 
3419.790768  	0.067779 
3421.719584  	0.067678 
3423.648400  	0.066913 
3425.577216  	0.066253 
3427.506032  	0.065933 
3429.434848  	0.065509 
3431.363664  	0.065188 
3433.292480  	0.064663 
3435.221296  	0.064036 
3437.150112  	0.063510 
3439.078928  	0.063047 
3441.007744  	0.062569 
3442.936560  	0.062217 
3444.865376  	0.061442 
3446.794192  	0.061366 
3448.723008  	0.061268 
3450.651824  	0.060371 
3452.580640  	0.059784 
3454.509456  	0.059145 
3456.438272  	0.058389 
3458.367088  	0.057810 
3460.295904  	0.057454 
3462.224720  	0.057045 
3464.153536  	0.056182 
3466.082352  	0.055392 
3468.011168  	0.054974 
3469.939984  	0.054464 
3471.868800  	0.053636 
3473.797616  	0.052743 
3475.726432  	0.052255 
3477.655248  	0.051631 
3479.584064  	0.050758 
3481.512880  	0.050538 
3483.441696  	0.050234 
3485.370512  	0.049118 
3487.299328  	0.048302 
3489.228144  	0.047686 
3491.156960  	0.046941 
3493.085776  	0.046301 
3495.014592  	0.045741 
3496.943408  	0.045188 
3498.872224  	0.044247 
3500.801040  	0.043802 
3502.729856  	0.043991 
3504.658672  	0.043476 
3506.587488  	0.042001 
3508.516304  	0.041441 
3510.445120  	0.041521 
3512.373936  	0.040833 
3514.302752  	0.039960 
3516.231568  	0.039234 
3518.160384  	0.038673 
3520.089200  	0.038032 
3522.018016  	0.037576 
3523.946832  	0.037805 
3525.875648  	0.037198 
3527.804464  	0.036392 
3529.733280  	0.035812 
3531.662096  	0.034978 
3533.590912  	0.033874 
3535.519728  	0.033676 
3537.448544  	0.033675 
3539.377360  	0.032815 
3541.306176  	0.031759 
3543.234992  	0.031295 
3545.163808  	0.031902 
3547.092624  	0.032015 
3549.021440  	0.030352 
3550.950256  	0.029306 
3552.879072  	0.029605 
3554.807888  	0.028580 
3556.736704  	0.027323 
3558.665520  	0.026781 
3560.594336  	0.026448 
3562.523152  	0.025646 
3564.451968  	0.025132 
3566.380784  	0.027191 
3568.309600  	0.028364 
3570.238416  	0.025280 
3572.167232  	0.023173 
3574.096048  	0.022722 
3576.024864  	0.022454 
3577.953680  	0.021689 
3579.882496  	0.020904 
3581.811312  	0.020073 
3583.740128  	0.019161 
3585.668944  	0.018895 
3587.597760  	0.020859 
3589.526576  	0.019963 
3591.455392  	0.017355 
3593.384208  	0.016941 
3595.313024  	0.017383 
3597.241840  	0.016432 
3599.170656  	0.015248 
3601.099472  	0.015011 
3603.028288  	0.013714 
3604.957104  	0.012271 
3606.885920  	0.012593 
3608.814736  	0.013330 
3610.743552  	0.011618 
3612.672368  	0.011265 
3614.601184  	0.011229 
3616.530000  	0.009723 
3618.458816  	0.010012 
3620.387632  	0.010028 
3622.316448  	0.007749 
3624.245264  	0.006055 
3626.174080  	0.004981 
3628.102896  	0.006303 
3630.031712  	0.008828 
3631.960528  	0.005532 
3633.889344  	0.004358 
3635.818160  	0.003481 
3637.746976  	0.002481 
3639.675792  	0.001831 
3641.604608  	0.001013 
3643.533424  	0.000045 
3645.462240  	-0.000768 
3647.391056  	0.000792 
3649.319872  	0.002895 
3651.248688  	0.002390 
3653.177504  	-0.001698 
3655.106320  	-0.002962 
3657.035136  	-0.001899 
3658.963952  	-0.003178 
3660.892768  	-0.004058 
3662.821584  	-0.004751 
3664.750400  	-0.005515 
3666.679216  	-0.006353 
3668.608032  	-0.005848 
3670.536848  	-0.003268 
3672.465664  	-0.005448 
3674.394480  	-0.005772 
3676.323296  	-0.002576 
3678.252112  	-0.004936 
3680.180928  	-0.006060 
3682.109744  	-0.006925 
3684.038560  	-0.007459 
3685.967376  	-0.008294 
3687.896192  	-0.007030 
3689.825008  	-0.004571 
3691.753824  	-0.005078 
3693.682640  	-0.006806 
3695.611456  	-0.007411 
3697.540272  	-0.007532 
3699.469088  	-0.008444 
3701.397904  	-0.007423 
3703.326720  	-0.006538 
3705.255536  	-0.007329 
3707.184352  	-0.007919 
3709.113168  	-0.007788 
3711.041984  	-0.006032 
3712.970800  	-0.005020 
3714.899616  	-0.006757 
3716.828432  	-0.007972 
3718.757248  	-0.007735 
3720.686064  	-0.007582 
3722.614880  	-0.006904 
3724.543696  	-0.006529 
3726.472512  	-0.005905 
3728.401328  	-0.007029 
3730.330144  	-0.008997 
3732.258960  	-0.008739 
3734.187776  	-0.006255 
3736.116592  	-0.003135 
3738.045408  	-0.005295 
3739.974224  	-0.007136 
3741.903040  	-0.008431 
3743.831856  	-0.006974 
3745.760672  	-0.004989 
3747.689488  	-0.008030 
3749.618304  	-0.007021 
3751.547120  	-0.004008 
3753.475936  	-0.004761 
3755.404752  	-0.007024 
3757.333568  	-0.007272 
3759.262384  	-0.006393 
3761.191200  	-0.006269 
3763.120016  	-0.007743 
3765.048832  	-0.007214 
3766.977648  	-0.007340 
3768.906464  	-0.007489 
3770.835280  	-0.006489 
3772.764096  	-0.007277 
3774.692912  	-0.008050 
3776.621728  	-0.008481 
3778.550544  	-0.007678 
3780.479360  	-0.006733 
3782.408176  	-0.007733 
3784.336992  	-0.007534 
3786.265808  	-0.007352 
3788.194624  	-0.007710 
3790.123440  	-0.007857 
3792.052256  	-0.008208 
3793.981072  	-0.009005 
3795.909888  	-0.007963 
3797.838704  	-0.007267 
3799.767520  	-0.008128 
3801.696336  	-0.005222 
3803.625152  	-0.006198 
3805.553968  	-0.007994 
3807.482784  	-0.006266 
3809.411600  	-0.007046 
3811.340416  	-0.008193 
3813.269232  	-0.008954 
3815.198048  	-0.007628 
3817.126864  	-0.006122 
3819.055680  	-0.007980 
3820.984496  	-0.005828 
3822.913312  	-0.005470 
3824.842128  	-0.007455 
3826.770944  	-0.007244 
3828.699760  	-0.007699 
3830.628576  	-0.007759 
3832.557392  	-0.007526 
3834.486208  	-0.008280 
3836.415024  	-0.007954 
3838.343840  	-0.006165 
3840.272656  	-0.005495 
3842.201472  	-0.006213 
3844.130288  	-0.006124 
3846.059104  	-0.006991 
3847.987920  	-0.008154 
3849.916736  	-0.008722 
3851.845552  	-0.007951 
3853.774368  	-0.003002 
3855.703184  	-0.004039 
3857.632000  	-0.006072 
3859.560816  	-0.007471 
3861.489632  	-0.007689 
3863.418448  	-0.006971 
3865.347264  	-0.005753 
3867.276080  	-0.007577 
3869.204896  	-0.006616 
3871.133712  	-0.005165 
3873.062528  	-0.006958 
3874.991344  	-0.006367 
3876.920160  	-0.007954 
3878.848976  	-0.008179 
3880.777792  	-0.005893 
3882.706608  	-0.006452 
3884.635424  	-0.006689 
3886.564240  	-0.005736 
3888.493056  	-0.007950 
3890.421872  	-0.007813 
3892.350688  	-0.006172 
3894.279504  	-0.006806 
3896.208320  	-0.008064 
3898.137136  	-0.007957 
3900.065952  	-0.006416 
3901.994768  	-0.005825 
3903.923584  	-0.005053 
3905.852400  	-0.005372 
3907.781216  	-0.007045 
3909.710032  	-0.007837 
3911.638848  	-0.008023 
3913.567664  	-0.008165 
3915.496480  	-0.007580 
3917.425296  	-0.006430 
3919.354112  	-0.006545 
3921.282928  	-0.007099 
3923.211744  	-0.007273 
3925.140560  	-0.006466 
3927.069376  	-0.007225 
3928.998192  	-0.007558 
3930.927008  	-0.006778 
3932.855824  	-0.006227 
3934.784640  	-0.006945 
3936.713456  	-0.007488 
3938.642272  	-0.007785 
3940.571088  	-0.008042 
3942.499904  	-0.006919 
3944.428720  	-0.006795 
3946.357536  	-0.007481 
3948.286352  	-0.006835 
3950.215168  	-0.006795 
3952.143984  	-0.007415 
3954.072800  	-0.007777 
3956.001616  	-0.007660 
3957.930432  	-0.007488 
3959.859248  	-0.007337 
3961.788064  	-0.007053 
3963.716880  	-0.007291 
3965.645696  	-0.007858 
3967.574512  	-0.008019 
3969.503328  	-0.007991 
3971.432144  	-0.007752 
3973.360960  	-0.007423 
3975.289776  	-0.007104 
3977.218592  	-0.007220 
3979.147408  	-0.007474 
3981.076224  	-0.007551 
3983.005040  	-0.007641 
3984.933856  	-0.007559 
3986.862672  	-0.007310 
3988.791488  	-0.007482 
3990.720304  	-0.007423 
3992.649120  	-0.007390 
3994.577936  	-0.007404 
3996.506752  	-0.007534 
3998.435568  	-0.007556 
4000.364384  	-0.007508 